tempo_arduino_micro_s,valor_ADC
500,50
1004,29
1500,26
2000,61
2508,72
3000,48
3508,25
4000,12
4504,13
5000,11
5500,12
6000,50
6500,60
7000,62
7500,52
8000,49
8500,54
9000,44
9500,12
10000,36
10508,56
11028,46
11556,72
12076,63
12604,33
13124,12
13652,28
14172,30
14700,37
15220,48
15748,49
16268,49
16796,47
17316,27
17836,38
18356,47
18876,44
19396,30
19916,14
20436,15
20956,11
21476,15
21996,13
22516,19
23036,39
23564,44
24084,45
24612,46
25132,55
25660,58
26180,50
26708,17
27228,10
27756,11
28276,14
28804,20
29324,46
29852,72
30372,79
30900,73
31420,47
31948,47
32472,48
32996,47
33516,53
34044,57
34564,66
35092,68
35612,69
36140,43
36660,27
37188,32
37708,38
38236,23
38760,15
39284,36
39804,39
40332,46
40852,45
41372,48
41892,47
42412,12
42932,11
43452,14
43972,14
44492,46
45012,49
45532,37
46052,64
46572,94
47092,86
47612,54
48140,41
48660,47
49188,45
49708,53
50236,72
50760,83
51284,60
51804,60
52332,58
52852,39
53380,40
53900,52
54428,29
54948,10
55476,11
55996,43
56524,58
57044,59
57572,46
58096,50
58620,53
59140,19
59668,42
60188,107
60768,117
61340,72
61864,27
62380,31
62904,55
63420,114
63996,132
64580,74
65096,49
65620,47
66140,55
66668,63
67188,79
67716,85
68236,87
68764,83
69284,67
69812,48
70332,43
70860,17
71380,31
71908,40
72428,31
72956,40
73480,45
74004,45
74524,48
75052,47
75576,19
76100,11
76624,15
77148,12
77668,15
78196,10
78716,12
79244,18
79768,25
80284,30
80804,28
81324,41
81844,63
82364,76
82884,71
83404,61
83924,57
84444,48
84964,55
85484,53
86004,29
86524,12
87052,11
87572,33
88100,37
88620,54
89148,78
89668,55
90196,44
90716,46
91244,46
91764,52
92292,44
92812,33
93340,56
93864,67
94388,79
94912,95
95436,70
95960,32
96484,26
97004,30
97532,25
98052,48
98580,73
99100,61
99628,47
100148,58
100720,20
101288,39
101864,72
102448,59
103016,28
103592,11
104160,11
104744,53
105312,71
105896,63
106464,66
107040,64
107624,64
108192,59
108768,59
109336,58
109920,26
110488,18
111064,21
111648,12
112216,14
112800,14
113368,36
113944,29
114512,56
115096,77
115668,81
116240,85
116824,59
117392,38
117976,45
118544,65
119128,65
119696,35
120272,19
120856,11
121424,32
122008,32
122576,35
123160,40
123728,50
124312,47
124880,49
125456,25
126032,15
126600,15
127184,19
127756,11
128336,55
128904,97
129480,95
130056,62
130624,27
131208,47
131776,89
132352,126
132972,105
133600,99
134176,79
134744,40
135328,18
135896,15
136480,50
137048,102
137684,69
138260,27
138828,37
139408,85
139976,66
140560,47
141132,48
141712,45
142280,16
142856,36
143440,76
144008,64
144592,45
145160,45
145744,57
146312,73
146896,75
147472,42
148040,49
148624,59
149192,64
149776,67
150344,86
150928,100
151552,106
152176,112
152804,88
153368,64
153952,33
154520,11
155096,44
155680,56
156248,41
156832,58
157400,64
157984,80
158556,76
159136,19
159716,36
160292,54
160872,57
161440,73
162024,104
162644,170
163272,208
163900,188
164516,57
165092,54
165664,74
166248,54
166816,67
167392,73
167968,88
168536,76
169120,50
169688,23
170264,10
170832,9
171356,15
171932,11
172504,27
173088,40
173656,46
174240,46
174808,45
175384,21
175952,11
176536,21
177104,26
177680,23
178264,11
178832,16
179416,24
179984,32
180560,26
181128,43
181704,45
182280,64
182848,49
183432,65
184004,32
184584,17
185152,54
185736,69
186304,42
186880,12
187464,11
188032,10
188616,15
189188,33
189768,37
190336,46
190920,48
191496,52
192068,25
192648,11
193216,16
193792,12
194360,18
194944,72
195512,90
196092,80
196672,56
197244,24
197824,47
198392,80
198976,98
199556,91
200136,77
200712,80
201284,80
201864,86
202432,82
203016,29
203588,10
204168,41
204740,91
205316,76
205896,44
206464,37
207040,48
207608,48
208184,50
208752,18
209328,44
209896,67
210472,79
211056,53
211624,49
212208,76
212776,107
213412,91
213980,54
214556,43
215136,54
215704,67
216288,75
216856,78
217440,80
218008,78
218584,65
219168,47
219740,15
220320,11
220888,22
221472,42
222040,36
222624,37
223196,40
223772,46
224352,53
224920,62
225504,46
226072,29
226656,16
227224,16
227800,26
228384,21
228952,19
229536,27
230108,46
230688,39
231256,41
231840,49
232408,50
232984,48
233568,43
234140,19
234720,20
235292,25
235872,29
236444,38
237020,27
237600,14
238168,42
238752,40
239324,42
239904,41
240476,50
241056,48
241624,46
242200,17
242784,24
243356,24
243936,17
244508,18
245088,27
245660,42
246236,43
246816,41
247384,17
247968,76
248540,81
249120,60
249688,49
250272,37
250840,34
251420,29
252000,22
252568,16
253152,21
253724,11
254304,42
254876,52
255452,21
256032,46
256600,45
257184,51
257752,59
258328,57
258896,14
259480,25
260048,55
260624,39
261200,37
261768,42
262352,55
262924,80
263504,113
264128,76
264696,43
265272,58
265844,66
266424,70
266992,67
267576,65
268144,65
268728,49
269300,32
269872,35
270456,40
271024,21
271608,12
272176,19
272760,45
273328,46
273904,44
274488,48
275056,47
275640,32
276212,35
276792,32
277364,26
277944,15
278516,15
279092,32
279672,49
280244,48
280824,33
281396,63
281976,83
282552,80
283132,62
283712,50
284284,43
284864,51
285432,57
286016,27
286596,23
287176,37
287752,38
288324,30
288904,15
289472,42
290056,42
290624,49
291208,48
291776,47
292356,57
292936,62
293508,43
294088,14
294660,35
295240,34
295812,17
296392,61
296968,109
297588,87
298164,44
298736,50
299320,47
299892,47
300472,37
301044,52
301620,63
302200,62
302772,61
303352,43
303924,12
304504,40
305084,39
305660,17
306240,45
306812,47
307392,43
307964,44
308544,34
309116,15
309696,17
310268,13
310844,20
311424,22
311996,21
312576,38
313156,43
313736,41
314308,42
314884,49
315464,54
316036,54
316616,54
317188,58
317768,68
318348,63
318928,53
319512,33
320084,23
320664,19
321232,15
321808,16
322376,22
322960,41
323528,46
324104,54
324688,55
325260,35
325840,21
326412,12
326992,14
327564,12
328144,25
328720,41
329288,54
329864,45
330432,29
331008,45
331576,60
332160,52
332728,50
333308,46
333888,20
334456,42
335040,50
335608,57
336192,54
336760,52
337344,44
337912,13
338492,20
339072,21
339644,38
340224,45
340792,45
341376,46
341944,26
342524,24
343104,34
343676,29
344256,26
344824,26
345408,28
345980,41
346560,43
347128,33
347708,43
348288,56
348856,51
349440,54
350008,50
350592,44
351164,51
351740,61
352320,53
352892,27
353472,15
354040,11
354624,24
355196,22
355776,25
356360,39
356932,45
357512,47
358084,47
358664,22
359232,15
359816,22
360388,18
360960,11
361544,17
362116,38
362696,66
363268,70
363848,41
364416,43
365000,51
365576,54
366148,52
366728,57
367300,48
367880,35
368452,32
369032,33
369600,19
370176,16
370760,12
371332,14
371912,11
372484,43
373064,44
373636,47
374216,47
374792,45
375364,22
375944,14
376516,11
377096,25
377668,37
378248,36
378820,38
379396,48
379976,58
380548,56
381128,40
381700,56
382280,67
382852,58
383432,49
384008,27
384580,48
385160,54
385732,56
386312,37
386884,19
387464,11
388036,15
388612,11
389192,51
389760,46
390344,45
390916,49
391496,53
392068,35
392648,25
393224,17
393796,16
394376,18
394948,34
395528,41
396100,38
396680,45
397252,42
397828,42
398408,69
398980,89
399560,85
400132,70
400712,55
401284,15
401864,10
402440,14
403008,26
403592,18
404164,10
404744,11
405316,18
405896,40
406468,44
407044,47
407624,50
408196,47
408776,18
409348,20
409928,22
410504,17
411080,15
411656,43
412224,69
412808,65
413376,61
413952,34
414524,47
415104,73
415676,99
416252,108
416884,107
417500,72
418076,42
418648,33
419232,21
419800,23
420380,43
420960,34
421528,15
422112,24
422684,59
423264,65
423832,64
424412,53
424992,56
425560,62
426144,99
426716,98
427296,59
427868,30
428448,11
429020,30
429596,39
430176,16
430744,25
431328,56
431900,51
432480,51
433056,116
433688,99
434260,63
434832,55
435408,65
435976,50
436560,29
437128,15
437712,11
438288,18
438860,32
439440,54
440012,56
440592,48
441164,51
441744,48
442312,14
442892,19
443472,11
444044,27
444624,52
445196,73
445776,94
446356,88
446932,62
447512,41
448084,51
448664,51
449232,49
449816,51
450388,57
450968,77
451544,94
452120,95
452704,86
453276,73
453856,65
454428,37
455008,11
455580,20
456156,38
456736,55
457308,46
457888,50
458460,45
459040,50
459612,57
460192,47
460764,40
461340,27
461920,27
462488,53
463072,51
463644,33
464224,44
464792,54
465372,55
465952,64
466524,62
467104,58
467676,66
468256,79
468828,90
469408,71
469980,52
470556,44
471136,13
471708,40
472288,27
472860,40
473440,44
474012,47
474588,59
475168,51
475740,36
476320,28
476892,30
477472,39
478044,49
478624,48
479204,68
479780,86
480360,67
480932,44
481512,60
482084,98
482664,126
483284,137
483908,98
484484,49
485056,52
485632,57
486204,38
486784,13
487360,12
487936,41
488520,38
489092,32
489672,46
490244,45
490824,48
491396,59
491976,51
492560,41
493128,18
493712,11
494284,11
494864,41
495436,65
496016,81
496584,88
497164,62
497744,40
498316,56
498896,81
499476,81
500056,57
500628,34
501204,48
501784,96
502356,113
502988,68
503556,29
504136,11
504716,22
505296,33
505872,40
506444,46
507024,49
507596,48
508176,54
508756,43
509336,27
509916,12
510492,14
511072,11
511648,21
512228,37
512800,25
513376,16
513944,19
514520,61
515104,56
515676,51
516256,46
516824,32
517408,25
517976,37
518560,49
519128,48
519708,27
520288,15
520856,11
521440,10
522008,29
522592,65
523160,74
523740,63
524320,62
524892,64
525472,42
526040,27
526624,15
527196,34
527776,95
528356,206
528980,291
529608,253
530228,139
530860,49
531428,49
532004,47
532584,47
533152,48
533736,15
534308,60
534888,115
535512,147
536132,118
536764,74
537332,74
537912,72
538492,59
539072,43
539644,40
540220,48
540800,50
541368,51
541952,25
542524,41
543104,49
543676,31
544252,11
544832,18
545400,24
545984,34
546556,54
547136,54
547716,38
548296,47
548880,61
549452,72
550032,82
550604,74
551184,78
551756,53
552336,42
552916,35
553492,32
554072,19
554644,43
555224,53
555796,39
556376,42
556956,56
557532,51
558112,49
558684,19
559264,24
559836,53
560416,48
560996,11
561576,11
562148,17
562724,12
563304,14
563876,15
564456,44
565028,59
565608,71
566180,74
566756,79
567336,78
567908,72
568488,43
569060,15
569640,48
570208,49
570792,57
571364,64
571940,27
572520,43
573092,42
573672,54
574252,49
574832,49
575404,18
575980,37
576564,17
577132,12
577712,23
578284,18
578864,15
579432,19
580016,26
580584,28
581164,57
581744,49
582316,56
582896,55
583476,47
584056,35
584632,69
585212,85
585792,50
586364,17
586944,35
587516,78
588100,108
588728,73
589300,42
589880,46
590452,44
591032,51
591604,47
592184,12
592756,15
593336,21
593908,49
594484,44
595064,51
595636,47
596216,29
596788,26
597368,32
597948,70
598524,90
599104,83
599676,74
600256,73
600828,79
601408,82
601988,79
602568,51
603152,31
603724,33
604304,16
604876,36
605456,28
606028,38
606608,44
607188,54
607764,59
608344,57
608916,35
609496,15
610076,26
610656,58
611236,55
611812,14
612396,30
612968,70
613544,102
614172,89
614748,48
615320,50
615900,61
616480,47
617052,39
617632,18
618200,19
618784,12
619356,25
619936,14
620516,10
621092,15
621672,16
622244,40
622824,71
623396,80
623976,71
624548,64
625124,36
625704,23
626276,42
626856,25
627428,14
628008,44
628580,46
629160,63
629732,47
630308,23
630888,44
631460,61
632040,61
632620,52
633200,46
633780,46
634356,76
634940,79
635512,59
636092,18
636664,14
637240,22
637820,34
638400,46
638984,45
639556,40
640140,47
640708,53
641288,52
641856,32
642440,13
643008,11
643588,38
644168,32
644736,25
645320,21
645888,30
646472,25
647040,17
647624,52
648200,69
648768,56
649352,53
649924,55
650504,59
651076,66
651656,45
652236,11
652812,35
653392,25
653964,19
654544,31
655124,15
655704,40
656280,53
656856,51
657440,49
658008,49
658592,43
659160,27
659744,19
660312,15
660896,23
661464,47
662040,89
662624,104
663244,64
663820,25
664396,41
664976,45
665548,47
666124,69
666704,76
667276,86
667856,98
668424,98
669008,79
669576,55
670160,52
670736,35
671304,11
671888,11
672460,48
673040,49
673608,45
674192,54
674764,51
675340,49
675920,67
676488,40
677072,15
677644,64
678224,89
678796,80
679376,51
679952,20
680524,25
681104,76
681676,80
682256,75
682824,75
683408,36
683980,10
684556,20
685136,21
685704,19
686288,34
686860,50
687440,70
688012,76
688592,41
689168,42
689740,79
690320,134
690944,181
691572,140
692196,42
692764,12
693344,15
693916,70
694496,147
695128,142
695756,101
696384,92
696948,69
697528,43
698100,80
698680,105
699304,136
699924,141
700552,117
701176,79
701752,82
702332,65
702912,22
703496,12
704068,18
704648,48
705216,61
705800,55
706372,56
706952,56
707532,55
708108,50
708688,15
709260,14
709840,22
710412,38
710992,45
711564,22
712144,21
712728,53
713300,91
713880,103
714504,68
715080,47
715660,47
716240,48
716824,25
717396,64
717976,128
718600,144
719228,122
719848,55
720420,15
721000,34
721572,51
722152,42
722732,63
723312,89
723884,99
724460,91
725040,44
725612,29
726192,50
726764,60
727344,37
727924,12
728504,28
729076,39
729652,21
730232,36
730804,43
731384,58
731956,74
732540,66
733116,62
733692,70
734272,41
734844,38
735424,63
735996,45
736580,19
737156,10
737736,27
738320,25
738892,16
739472,46
740044,51
740624,55
741196,50
741776,59
742356,119
742984,123
743612,107
744232,78
744808,39
745380,22
745956,30
746536,30
747108,14
747688,62
748260,77
748840,80
749408,87
749992,73
750564,26
751140,18
751720,34
752296,39
752872,33
753452,57
754032,65
754612,24
755188,11
755772,48
756344,51
756920,48
757492,48
758072,59
758652,17
759232,15
759816,23
760392,52
760968,122
761592,204
762220,169
762844,64
763416,50
763992,59
764568,47
765144,50
765724,83
766304,104
766936,64
767508,18
768092,26
768660,27
769240,25
769812,24
770392,24
770964,25
771540,32
772120,28
772692,42
773272,62
773844,56
774424,49
774992,42
775576,16
776156,17
776732,10
777312,11
777884,16
778464,29
779032,70
779616,80
780196,76
780772,44
781352,52
781924,69
782504,64
783076,57
783656,68
784236,83
784816,105
785444,112
786064,63
786640,21
787212,18
787792,16
788364,15
788944,32
789528,40
790100,51
790680,51
791252,57
791832,63
792412,52
792992,30
793572,13
794148,23
794728,17
795300,14
795880,84
796460,119
797092,110
797724,44
798292,93
798876,113
799500,82
800076,51
800648,43
801232,47
801808,42
802376,38
802960,34
803532,18
804112,25
804684,48
805264,33
805836,41
806412,50
806992,57
807564,47
808144,47
808716,35
809296,43
809876,46
810452,38
811032,30
811604,39
812184,63
812756,48
813336,47
813916,20
814496,85
815076,116
815704,110
816332,107
816952,105
817580,98
818152,93
818724,54
819304,19
819876,49
820456,81
821024,140
821660,160
822288,72
822852,46
823432,45
824000,47
824584,47
825152,22
825736,16
826304,15
826880,19
827464,25
828032,21
828616,16
829188,29
829768,24
830336,17
830920,60
831496,63
832068,74
832648,70
833216,50
833792,36
834364,35
834944,15
835512,20
836092,43
836672,55
837244,65
837824,34
838396,12
838976,38
839556,58
840136,62
840720,67
841288,62
841872,45
842440,43
843024,40
843596,24
844176,15
844748,18
845324,15
845904,19
846476,14
847056,13
847628,43
848208,44
848776,47
849360,46
849936,48
850504,36
851088,35
851660,46
852240,47
852808,29
853392,22
853964,17
854540,12
855120,11
855692,43
856272,43
856844,44
857424,49
857996,55
858576,33
859152,13
859724,11
860304,10
860876,11
861456,13
862024,22
862608,21
863180,19
863756,24
864336,45
864908,76
865488,101
866108,106
866740,66
867308,15
867884,41
868464,63
869036,36
869616,10
870196,11
870776,13
871352,40
871932,40
872512,42
873084,53
873664,82
874236,91
874816,55
875396,42
875976,78
876560,75
877132,61
877712,30
878284,21
878864,65
879436,70
880016,58
880592,34
881172,43
881752,66
882324,118
882956,111
883580,21
884156,50
884732,80
885308,83
885888,55
886460,15
887040,11
887612,21
888192,31
888764,28
889340,41
889920,45
890492,46
891072,49
891644,48
892224,38
892796,34
893380,28
893960,11
894532,11
895112,11
895688,32
896264,46
896840,54
897424,52
897996,46
898572,47
899152,73
899724,91
900304,96
900884,110
901516,104
902140,70
902716,19
903296,42
903868,79
904448,105
905068,116
905700,99
906276,69
906848,48
907424,47
907996,46
908576,18
909156,44
909736,39
910308,27
910884,16
911464,11
912036,18
912616,14
913188,13
913768,15
914348,47
914924,86
915504,112
916128,80
916708,33
917284,19
917864,41
918436,47
919012,57
919596,79
920168,93
920744,53
921316,13
921896,15
922472,46
923056,45
923628,49
924204,52
924784,79
925356,93
925936,130
926568,115
927196,56
927772,47
928344,54
928928,58
929500,47
930080,28
930652,38
931232,53
931804,45
932380,51
932960,62
933532,61
934112,54
934692,54
935272,41
935844,24
936420,18
937000,34
937572,26
938152,22
938724,78
939304,115
939936,105
940560,76
941136,53
941708,27
942288,16
942868,27
943448,33
944020,29
944596,42
945176,53
945748,67
946328,45
946900,16
947480,71
948060,85
948640,76
949212,62
949788,54
950368,60
950940,50
951520,45
952100,24
952680,26
953260,78
953836,111
954468,113
955088,71
955664,42
956244,42
956824,48
957404,53
957980,52
958564,22
959136,34
959716,34
960292,38
960872,38
961444,37
962020,41
962600,16
963168,15
963752,15
964324,48
964904,51
965476,60
966056,61
966628,59
967204,63
967784,82
968356,93
968936,91
969508,58
970088,25
970668,13
971244,36
971824,18
972396,42
972980,45
973548,47
974128,63
974700,117
975332,152
975964,95
976532,49
977112,13
977692,30
978272,26
978852,15
979428,13
980008,13
980580,34
981160,53
981732,59
982316,56
982892,52
983472,46
984052,44
984624,32
985208,29
985780,16
986360,21
986932,40
987512,25
988084,14
988660,37
989240,54
989812,59
990392,68
990964,65
991544,60
992124,53
992704,40
993276,39
993852,32
994432,11
995004,35
995584,90
996164,126
996796,177
997424,134
998048,52
998624,50
999204,53
999784,52
1000356,23
1000976,45
1001604,86
1002220,114
1002904,97
1003524,51
1004144,15
1004772,14
1005396,25
1006024,40
1006652,49
1007272,47
1007900,45
1008524,21
1009156,48
1009784,66
1010400,53
1011028,61
1011652,73
1012276,57
1012908,46
1013528,30
1014156,65
1014780,100
1015460,68
1016084,66
1016708,48
1017340,19
1017968,39
1018588,51
1019216,21
1019840,10
1020464,24
1021092,48
1021712,44
1022340,41
1022968,46
1023592,43
1024224,45
1024844,44
1025472,19
1026100,18
1026716,20
1027344,28
1027968,15
1028596,17
1029224,39
1029840,61
1030468,40
1031088,50
1031708,65
1032336,61
1032956,59
1033588,52
1034212,48
1034832,40
1035460,31
1036080,13
1036708,17
1037336,12
1037952,22
1038580,20
1039204,39
1039832,44
1040460,46
1041076,49
1041704,41
1042328,59
1042948,50
1043580,52
1044200,41
1044828,33
1045448,25
1046068,25
1046700,48
1047320,43
1047948,67
1048572,96
1049192,75
1049824,57
1050444,43
1051072,42
1051700,56
1052320,59
1052948,40
1053568,24
1054200,19
1054828,34
1055448,40
1056076,71
1056696,65
1057320,45
1057948,44
1058568,17
1059196,19
1059820,24
1060440,20
1061072,18
1061688,35
1062316,24
1062948,12
1063568,15
1064196,51
1064820,51
1065448,46
1066076,46
1066696,29
1067324,12
1067948,13
1068568,40
1069196,60
1069816,27
1070444,10
1071064,34
1071688,15
1072320,49
1072936,46
1073564,53
1074192,48
1074816,70
1075444,38
1076068,20
1076696,56
1077324,67
1077944,79
1078572,78
1079196,59
1079816,44
1080448,28
1081064,45
1081692,51
1082316,77
1082936,98
1083568,103
1084236,80
1084860,61
1085488,49
1086112,30
1086740,27
1087364,12
1087992,15
1088620,14
1089240,38
1089868,51
1090492,72
1091112,113
1091796,107
1092468,96
1093092,81
1093724,29
1094344,17
1094972,59
1095596,45
1096220,28
1096848,23
1097472,80
1098100,79
1098724,54
1099348,46
1099976,52
1100596,43
1101224,16
1101852,12
1102472,10
1103100,12
1103724,22
1104356,15
1104984,55
1105600,117
1106280,153
1106956,114
1107628,94
1108252,67
1108876,22
1109504,13
1110132,34
1110752,111
1111432,165
1112112,131
1112788,81
1113412,52
1114040,44
1114660,64
1115292,90
1115912,68
1116544,52
1117164,58
1117788,41
1118420,12
1119044,47
1119672,48
1120304,46
1120920,49
1121552,32
1122176,27
1122804,39
1123432,44
1124056,45
1124684,44
1125308,15
1125932,23
1126560,10
1127180,20
1127812,19
1128432,17
1129056,19
1129684,23
1130308,15
1130936,53
1131564,44
1132184,52
1132812,53
1133436,24
1134064,45
1134692,61
1135312,76
1135944,77
1136568,71
1137192,20
1137820,46
1138440,53
1139068,48
1139692,45
1140316,47
1140948,46
1141572,34
1142200,18
1142828,12
1143448,11
1144076,23
1144700,45
1145332,41
1145960,22
1146584,16
1147212,35
1147836,50
1148460,70
1149088,55
1149712,50
1150340,11
1150964,12
1151588,44
1152220,70
1152840,61
1153468,31
1154100,43
1154720,48
1155348,42
1155972,51
1156600,69
1157228,67
1157848,63
1158476,54
1159096,33
1159720,13
1160352,19
1160968,41
1161596,53
1162220,41
1162844,32
1163472,21
1164092,48
1164720,69
1165348,75
1165968,57
1166596,35
1167220,26
1167852,46
1168480,55
1169096,63
1169724,57
1170348,43
1170972,11
1171600,17
1172224,47
1172852,46
1173476,49
1174100,63
1174728,71
1175352,84
1175980,94
1176612,73
1177232,49
1177864,24
1178484,18
1179112,39
1179744,26
1180360,19
1180992,65
1181616,71
1182240,71
1182868,60
1183488,70
1184116,59
1184740,26
1185364,15
1185992,46
1186612,86
1187240,111
1187920,92
1188536,29
1189164,59
1189788,90
1190412,74
1191040,59
1191656,31
1192284,13
1192908,49
1193532,75
1194164,30
1194784,17
1195412,20
1196044,15
1196664,35
1197292,85
1197916,86
1198548,62
1199180,54
1199800,43
1200432,25
1201052,17
1201676,48
1202304,20
1202928,29
1203556,51
1204180,67
1204804,64
1205432,26
1206052,39
1206680,44
1207308,48
1207928,47
1208556,40
1209180,37
1209812,53
1210440,39
1211060,11
1211688,20
1212312,22
1212936,16
1213564,15
1214184,40
1214812,53
1215436,65
1216064,79
1216692,77
1217312,48
1217940,49
1218572,42
1219192,19
1219820,13
1220444,18
1221076,11
1221704,22
1222328,42
1222960,47
1223580,45
1224208,45
1224836,46
1225456,41
1226084,17
1226708,16
1227336,13
1227964,26
1228584,59
1229216,51
1229844,55
1230464,53
1231092,50
1231716,57
1232344,63
1232972,60
1233592,55
1234220,53
1234844,46
1235468,43
1236096,35
1236712,31
1237340,12
1237964,11
1238588,22
1239216,53
1239840,49
1240468,46
1241096,59
1241720,38
1242348,13
1242972,11
1243600,21
1244228,38
1244848,43
1245476,85
1246100,85
1246724,57
1247356,42
1247976,48
1248608,47
1249228,50
1249852,42
1250484,54
1251104,86
1251732,77
1252364,27
1252984,20
1253612,37
1254236,57
1254868,47
1255496,40
1256112,46
1256744,47
1257368,47
1257992,50
1258620,11
1259240,12
1259868,35
1260492,30
1261116,13
1261748,38
1262368,42
1262996,33
1263628,14
1264248,63
1264876,87
1265500,97
1266132,67
1266760,42
1267384,35
1268012,52
1268636,62
1269260,31
1269892,18
1270512,28
1271140,12
1271764,13
1272388,43
1273020,46
1273640,51
1274268,53
1274900,36
1275520,26
1276148,27
1276772,41
1277404,70
1278036,93
1278656,94
1279288,68
1279912,33
1280536,45
1281164,96
1281780,143
1282460,108
1283136,44
1283752,18
1284380,60
1285000,83
1285632,43
1286260,36
1286880,66
1287508,101
1288180,83
1288796,33
1289428,63
1290052,71
1290680,58
1291308,57
1291928,27
1292556,17
1293180,49
1293808,95
1294436,72
1295056,26
1295684,66
1296308,152
1296980,123
1297656,49
1298272,50
1298900,54
1299528,71
1300144,72
1300776,78
1301400,97
1302020,101
1302704,75
1303320,53
1303948,15
1304572,54
1305200,69
1305828,91
1306452,85
1307080,71
1307712,53
1308328,43
1308956,70
1309580,51
1310212,36
1310840,56
1311456,59
1312084,33
1312704,43
1313328,41
1313956,46
1314572,64
1315204,73
1315824,82
1316448,102
1317128,66
1317744,25
1318372,37
1319000,27
1319616,28
1320248,29
1320868,11
1321492,11
1322120,51
1322736,57
1323364,48
1323988,53
1324612,73
1325240,80
1325856,65
1326484,61
1327112,63
1327732,29
1328360,27
1328984,21
1329612,14
1330240,14
1330856,54
1331484,51
1332108,51
1332736,60
1333364,56
1333984,46
1334612,64
1335232,56
1335856,21
1336484,10
1337100,11
1337732,13
1338352,12
1338976,41
1339604,45
1340228,49
1340856,48
1341484,44
1342104,45
1342732,31
1343356,20
1343984,27
1344612,44
1345228,60
1345860,58
1346480,48
1347104,36
1347732,57
1348352,60
1348980,64
1349604,70
1350224,87
1350856,100
1351524,90
1352148,72
1352780,47
1353400,17
1354028,23
1354652,30
1355272,17
1355904,43
1356520,46
1357148,47
1357772,50
1358396,43
1359024,34
1359644,22
1360272,27
1360892,40
1361516,41
1362148,20
1362768,20
1363400,30
1364028,79
1364648,70
1365276,49
1365896,51
1366528,35
1367156,29
1367776,33
1368404,11
1369028,31
1369652,72
1370280,103
1370948,71
1371572,31
1372204,44
1372820,48
1373452,59
1374072,67
1374704,54
1375332,26
1375952,16
1376580,13
1377204,24
1377828,10
1378456,48
1379080,110
1379760,110
1380436,51
1381056,49
1381684,53
1382308,50
1382932,54
1383564,32
1384184,34
1384812,34
1385436,11
1386056,23
1386688,13
1387304,13
1387932,26
1388564,67
1389184,72
1389812,59
1390436,50
1391064,49
1391696,23
1392312,29
1392944,25
1393568,11
1394188,11
1394820,23
1395440,67
1396068,52
1396692,16
1397312,79
1397944,94
1398560,85
1399188,84
1399816,74
1400440,69
1401068,55
1401692,31
1402320,18
1402948,66
1403568,106
1404248,65
1404864,13
1405488,58
1406116,62
1406736,61
1407364,52
1407988,49
1408612,21
1409244,32
1409864,79
1410496,101
1411176,84
1411792,75
1412420,57
1413044,49
1413668,46
1414296,51
1414920,56
1415548,53
1416172,51
1416796,51
1417424,56
1418040,49
1418672,35
1419300,28
1419920,41
1420548,25
1421172,12
1421804,24
1422432,56
1423048,54
1423680,56
1424300,54
1424924,22
1425552,12
1426176,15
1426804,12
1427428,19
1428052,21
1428684,30
1429304,65
1429932,72
1430564,43
1431184,58
1431812,58
1432440,53
1433068,53
1433700,44
1434316,54
1434948,66
1435568,53
1436192,37
1436820,10
1437436,27
1438068,20
1438692,27
1439316,39
1439944,52
1440568,59
1441196,47
1441824,12
1442440,11
1443072,13
1443692,13
1444324,23
1444952,70
1445568,87
1446196,61
1446820,39
1447444,53
1448072,46
1448688,46
1449316,53
1449940,27
1450564,13
1451192,66
1451808,124
1452492,116
1453168,104
1453844,54
1454468,13
1455092,16
1455716,42
1456344,48
1456968,50
1457596,47
1458228,30
1458848,49
1459476,65
1460100,64
1460728,41
1461360,31
1461976,35
1462604,18
1463228,24
1463852,73
1464484,106
1465156,104
1465832,72
1466460,72
1467080,93
1467708,57
1468332,43
1468956,124
1469640,102
1470308,32
1470936,16
1471564,16
1472184,41
1472812,51
1473436,49
1474060,49
1474688,44
1475312,16
1475940,13
1476564,24
1477184,11
1477812,26
1478432,47
1479060,27
1479688,14
1480304,20
1480936,62
1481560,51
1482188,59
1482820,123
1483492,91
1484116,50
1484740,23
1485364,76
1485996,70
1486616,54
1487244,15
1487868,28
1488496,21
1489124,40
1489748,52
1490376,55
1491004,47
1491624,20
1492252,11
1492876,16
1493504,15
1494136,14
1494752,12
1495384,31
1496008,39
1496628,54
1497260,45
1497880,56
1498508,62
1499132,65
1499760,64
1500388,77
1501012,71
1501644,37
1502272,12
1502892,10
1503520,12
1504144,29
1504772,28
1505404,34
1506024,46
1506652,51
1507276,50
1507900,48
1508528,35
1509152,51
1509780,35
1510412,20
1511032,31
1511660,32
1512284,53
1512916,74
1513548,58
1514168,45
1514796,56
1515424,69
1516048,105
1516728,162
1517404,118
1518080,64
1518708,67
1519328,44
1519960,42
1520584,15
1521208,28
1521836,36
1522456,66
1523084,93
1523708,82
1524336,65
1524964,37
1525588,22
1526220,11
1526848,10
1527472,11
1528100,15
1528724,27
1529352,39
1529980,35
1530600,48
1531228,64
1531856,73
1532480,66
1533108,54
1533728,55
1534360,66
1534988,61
1535608,18
1536240,47
1536860,59
1537488,65
1538120,37
1538736,36
1539364,45
1539988,54
1540612,59
1541244,48
1541864,25
1542492,37
1543116,23
1543736,26
1544368,18
1544984,14
1545612,45
1546236,35
1546864,16
1547492,69
1548116,74
1548748,62
1549376,63
1550000,77
1550628,85
1551252,81
1551880,65
1552508,27
1553128,18
1553756,11
1554380,28
1555004,50
1555636,45
1556256,46
1556884,48
1557516,49
1558136,28
1558764,11
1559388,12
1560020,26
1560648,71
1561264,60
1561896,16
1562516,25
1563140,15
1563772,59
1564392,56
1565020,49
1565644,90
1566268,72
1566896,35
1567520,17
1568148,18
1568776,30
1569400,43
1570028,20
1570652,19
1571280,39
1571912,77
1572528,77
1573156,49
1573780,119
1574460,153
1575136,105
1575812,80
1576436,73
1577068,14
1577688,14
1578316,14
1578940,23
1579564,13
1580192,36
1580816,86
1581444,100
1582128,92
1582744,59
1583372,54
1583996,61
1584628,67
1585260,72
1585880,41
1586512,24
1587136,16
1587760,47
1588388,38
1589008,43
1589636,48
1590260,49
1590884,51
1591516,26
1592140,13
1592772,12
1593400,14
1594024,33
1594652,57
1595276,53
1595908,52
1596540,54
1597160,44
1597792,58
1598416,51
1599040,48
1599668,45
1600288,30
1600916,47
1601544,67
1602160,66
1602788,39
1603412,13
1604040,18
1604668,11
1605288,31
1605916,61
1606540,60
1607168,57
1607796,63
1608416,44
1609044,14
1609664,18
1610288,54
1610916,110
1611588,84
1612212,80
1612844,81
1613460,52
1614092,43
1614712,71
1615344,99
1615972,115
1616644,123
1617320,115
1617996,119
1618668,96
1619292,38
1619916,30
1620540,21
1621168,30
1621784,66
1622416,54
1623036,44
1623664,57
1624292,53
1624916,80
1625548,159
1626228,261
1626900,231
1627576,135
1628256,68
1628880,40
1629508,31
1630132,30
1630756,47
1631384,53
1632008,51
1632636,65
1633260,81
1633884,89
1634516,100
1635192,90
1635816,61
1636448,14
1637064,25
1637692,21
1638320,15
1638944,44
1639572,49
1640188,49
1640816,51
1641436,45
1642060,31
1642688,11
1643304,12
1643932,39
1644560,77
1645176,95
1645804,59
1646424,15
1647052,65
1647684,111
1648352,78
1648980,80
1649600,77
1650224,31
1650852,20
1651472,23
1652100,11
1652720,12
1653340,33
1653972,42
1654592,13
1655220,16
1655852,46
1656472,52
1657100,48
1657724,49
1658352,14
1658980,14
1659596,25
1660228,27
1660848,19
1661472,44
1662100,52
1662720,43
1663348,24
1663972,41
1664596,55
1665224,66
1665840,79
1666468,77
1667096,55
1667712,45
1668340,49
1668964,30
1669592,13
1670220,18
1670840,59
1671468,86
1672088,72
1672712,50
1673340,44
1673960,56
1674588,63
1675212,49
1675832,12
1676460,35
1677080,24
1677708,40
1678332,59
1678956,56
1679584,40
1680208,38
1680836,45
1681460,49
1682076,64
1682708,65
1683328,32
1683956,56
1684584,64
1685204,15
1685832,13
1686456,26
1687076,43
1687708,58
1688328,79
1688956,117
1689636,148
1690304,134
1690984,93
1691600,23
1692220,38
1692848,94
1693468,149
1694152,135
1694824,133
1695500,119
1696176,125
1696856,110
1697520,50
1698148,49
1698772,48
1699396,49
1700024,58
1700640,67
1701268,77
1701896,60
1702520,41
1703148,55
1703772,48
1704400,15
1705028,20
1705648,49
1706276,51
1706896,48
1707524,48
1708156,23
1708776,20
1709404,15
1710028,17
1710652,25
1711284,32
1711904,59
1712532,69
1713164,44
1713784,45
1714412,50
1715036,51
1715668,59
1716296,76
1716912,77
1717544,97
1718168,139
1718844,105
1719520,25
1720144,30
1720772,80
1721404,94
1722024,56
1722652,46
1723276,50
1723904,51
1724532,49
1725152,18
1725780,17
1726404,12
1727028,27
1727656,11
1728272,18
1728904,17
1729524,22
1730148,30
1730776,81
1731400,81
1732028,76
1732656,58
1733280,20
1733908,30
1734532,31
1735160,17
1735788,21
1736408,51
1737036,69
1737660,60
1738284,36
1738912,42
1739528,48
1740160,45
1740784,49
1741408,29
1742036,14
1742660,13
1743288,11
1743916,14
1744536,18
1745164,19
1745788,21
1746416,20
1747044,42
1747664,54
1748292,57
1748916,53
1749540,50
1750168,29
1750792,22
1751420,29
1752044,52
1752668,39
1753296,25
1753920,45
1754548,33
1755180,38
1755800,45
1756428,55
1757052,92
1757684,83
1758312,23
1758932,19
1759564,31
1760188,54
1760808,134
1761492,186
1762164,191
1762840,195
1763516,177
1764188,76
1764812,51
1765440,73
1766056,101
1766740,132
1767412,140
1768084,125
1768760,84
1769376,41
1770000,26
1770628,14
1771248,11
1771876,19
1772500,45
1773124,60
1773752,58
1774372,52
1775000,29
1775628,11
1776248,14
1776876,19
1777500,21
1778128,31
1778760,23
1779376,16
1780008,33
1780628,49
1781252,61
1781884,60
1782504,54
1783132,50
1783756,38
1784380,36
1785008,45
1785632,39
1786260,16
1786892,10
1787512,11
1788140,13
1788764,57
1789396,71
1790028,70
1790648,64
1791280,53
1791904,53
1792528,17
1793156,102
1793828,169
1794504,187
1795180,156
1795852,80
1796476,29
1797100,44
1797724,46
1798356,48
1798980,49
1799608,41
1800236,34
1800856,69
1801484,77
1802108,55
1802740,39
1803368,21
1803984,17
1804612,18
1805236,49
1805860,74
1806488,51
1807104,50
1807732,46
1808356,17
1808980,11
1809608,29
1810224,25
1810852,52
1811484,64
1812104,86
1812732,89
1813356,61
1813984,43
1814616,55
1815232,57
1815860,54
1816484,42
1817108,44
1817736,58
1818360,47
1818988,33
1819612,24
1820232,19
1820864,15
1821480,15
1822108,58
1822740,69
1823360,78
1823988,73
1824612,45
1825240,14
1825872,41
1826488,103
1827168,163
1827836,145
1828516,81
1829140,31
1829764,15
1830392,55
1831024,62
1831648,61
1832276,68
1832900,66
1833524,39
1834156,28
1834776,20
1835404,26
1836028,20
1836656,15
1837284,10
1837908,11
1838540,40
1839172,52
1839792,45
1840424,49
1841048,49
1841668,13
1842300,10
1842920,13
1843548,44
1844172,68
1844792,46
1845424,24
1846040,17
1846668,19
1847292,47
1847920,51
1848548,51
1849172,51
1849800,47
1850428,50
1851048,65
1851676,62
1852300,36
1852928,14
1853560,14
1854176,43
1854804,45
1855428,43
1856052,47
1856680,53
1857296,50
1857924,41
1858548,25
1859172,24
1859800,20
1860424,37
1861052,28
1861684,26
1862304,23
1862932,51
1863556,50
1864188,45
1864816,50
1865436,56
1866064,64
1866688,65
1867312,70
1867940,82
1868560,49
1869188,10
1869812,26
1870436,43
1871064,33
1871688,15
1872320,40
1872948,46
1873568,90
1874196,99
1874820,23
1875452,78
1876080,62
1876704,22
1877332,20
1877956,21
1878580,73
1879212,81
1879832,68
1880464,49
1881084,48
1881712,73
1882340,97
1882964,102
1883648,50
1884272,34
1884888,20
1885516,28
1886140,23
1886764,32
1887392,22
1888016,24
1888644,55
1889268,54
1889892,48
1890520,61
1891144,73
1891776,71
1892404,54
1893024,54
1893656,44
1894276,91
1894908,89
1895540,67
1896160,29
1896788,30
1897412,86
1898036,111
1898716,75
1899336,51
1899964,15
1900596,26
1901216,46
1901844,45
1902468,46
1903100,90
1903732,114
1904404,110
1905080,135
1905760,137
1906436,74
1907064,49
1907688,56
1908308,116
1908992,226
1909660,258
1910332,209
1911012,128
1911684,90
1912312,53
1912940,22
1913560,62
1914192,99
1914816,97
1915440,97
1916072,79
1916688,54
1917320,48
1917944,72
1918568,83
1919200,44
1919824,12
1920456,23
1921084,24
1921704,18
1922332,41
1922956,47
1923584,47
1924216,46
1924832,33
1925460,61
1926084,53
1926708,21
1927336,13
1927952,40
1928580,53
1929204,43
1929828,19
1930456,59
1931080,73
1931708,97
1932340,107
1933012,100
1933688,73
1934304,54
1934928,27
1935560,10
1936176,43
1936804,90
1937432,112
1938108,64
1938732,43
1939356,46
1939980,46
1940612,48
1941232,44
1941860,11
1942484,20
1943108,28
1943740,10
1944360,57
1944988,96
1945620,111
1946288,89
1946916,43
1947540,78
1948164,118
1948848,96
1949464,67
1950092,41
1950716,40
1951344,51
1951976,70
1952600,72
1953228,46
1953856,12
1954480,39
1955108,27
1955736,72
1956360,71
1956988,69
1957608,52
1958236,48
1958860,86
1959484,51
1960116,16
1960736,35
1961364,64
1961996,96
1962616,97
1963248,100
1963920,45
1964544,56
1965176,78
1965792,62
1966424,36
1967044,19
1967668,41
1968296,45
1968920,55
1969548,61
1970172,30
1970800,19
1971428,26
1972052,44
1972680,51
1973308,50
1973928,49
1974556,43
1975180,20
1975812,31
1976440,25
1977056,29
1977684,21
1978308,27
1978932,36
1979560,15
1980184,37
1980812,65
1981436,48
1982064,52
1982692,60
1983316,20
1983948,19
1984580,11
1985200,17
1985828,15
1986452,15
1987076,37
1987708,32
1988328,15
1988956,43
1989580,47
1990204,47
1990836,46
1991456,17
1992084,11
1992716,10
1993336,13
1993964,17
1994588,11
1995220,13
1995848,16
1996472,18
1997104,52
1997728,70
1998348,74
1998980,80
1999600,93
2000228,80
2000852,22
2001476,69
2002104,97
2002720,52
2003352,19
2003980,34
2004600,31
2005228,40
2005852,43
2006480,51
2007112,46
2007728,51
2008356,15
2008980,23
2009604,71
2010232,119
2010908,149
2011584,123
2012260,93
2012880,43
2013508,38
2014132,110
2014808,109
2015480,117
2016156,91
2016776,60
2017404,31
2018024,55
2018652,111
2019332,96
2019952,15
2020580,51
2021204,59
2021836,49
2022464,47
2023080,49
2023712,48
2024336,49
2024964,26
2025592,32
2026216,45
2026844,73
2027472,58
2028096,18
2028724,72
2029344,86
2029972,67
2030604,48
2031224,53
2031856,51
2032480,47
2033108,31
2033740,64
2034360,94
2034992,63
2035616,12
2036240,35
2036868,31
2037488,45
2038116,36
2038744,41
2039368,47
2039996,48
2040616,48
2041248,36
2041880,19
2042496,19
2043124,13
2043752,25
2044380,21
2045012,18
2045632,25
2046260,22
2046888,38
2047512,49
2048144,48
2048756,52
2049384,51
2050008,40
2050628,43
2051256,45
2051872,46
2052500,31
2053128,23
2053744,12
2054372,21
2054996,16
2055624,43
2056252,49
2056868,49
2057500,49
2058120,30
2058752,13
2059380,48
2060000,25
2060628,18
2061248,39
2061872,100
2062552,156
2063220,116
2063896,45
2064520,70
2065136,73
2065764,59
2066388,54
2067012,55
2067640,76
2068256,87
2068884,56
2069512,22
2070128,11
2070760,29
2071380,30
2072012,43
2072640,49
2073256,61
2073884,65
2074508,54
2075136,24
2075764,12
2076384,11
2077012,10
2077636,19
2078260,25
2078888,36
2079504,48
2080136,26
2080756,61
2081380,49
2082008,47
2082628,48
2083256,23
2083888,95
2084504,166
2085184,187
2085852,144
2086524,102
2087200,39
2087816,18
2088444,41
2089072,81
2089692,123
2090372,149
2091048,144
2091716,72
2092340,13
2092964,39
2093588,33
2094216,40
2094832,75
2095460,49
2096084,25
2096704,18
2097336,57
2097952,75
2098580,75
2099212,55
2099828,38
2100460,46
2101080,67
2101708,68
2102336,36
2102960,22
2103588,15
2104212,11
2104836,17
2105468,42
2106088,50
2106716,51
2107340,66
2107964,38
2108596,49
2109216,82
2109844,120
2110528,145
2111196,127
2111876,78
2112496,53
2113120,46
2113748,52
2114372,117
2115052,122
2115728,101
2116396,82
2117020,71
2117652,60
2118272,13
2118900,12
2119524,41
2120156,30
2120784,28
2121400,36
2122032,43
2122656,45
2123276,49
2123908,52
2124528,47
2125156,36
2125780,23
2126404,13
2127032,10
2127652,20
2128280,28
2128908,14
2129528,26
2130156,43
2130780,89
2131408,77
2132040,49
2132656,58
2133284,39
2133908,13
2134532,53
2135164,56
2135784,35
2136412,24
2137036,15
2137660,29
2138288,22
2138904,40
2139536,62
2140160,84
2140784,65
2141412,18
2142036,15
2142668,19
2143296,10
2143912,34
2144544,57
2145168,65
2145796,45
2146424,14
2147048,56
2147676,71
2148300,73
2148924,79
2149556,78
2150176,78
2150808,96
2151436,112
2152108,70
2152732,12
2153356,15
2153984,31
2154616,37
2155232,40
2155860,45
2156484,55
2157108,64
2157736,67
2158360,61
2158988,47
2159612,38
2160240,29
2160868,33
2161492,42
2162120,40
2162748,38
2163368,21
2163996,61
2164620,61
2165248,58
2165880,56
2166496,59
2167124,53
2167748,46
2168372,44
2169000,22
2169620,23
2170248,12
2170872,29
2171496,20
2172124,44
2172748,48
2173380,47
2174008,49
2174628,26
2175256,14
2175880,30
2176512,59
2177140,61
2177760,24
2178388,27
2179012,48
2179632,54
2180264,44
2180880,49
2181508,48
2182132,52
2182756,45
2183384,24
2184008,25
2184636,10
2185264,29
2185884,39
2186512,31
2187136,12
2187764,12
2188396,22
2189016,42
2189644,50
2190268,57
2190892,68
2191524,81
2192144,63
2192772,36
2193396,21
2194020,30
2194648,43
2195272,61
2195904,53
2196532,25
2197152,82
2197780,115
2198456,101
2199132,115
2199812,126
2200484,78
2201104,57
2201736,52
2202352,25
2202980,19
2203604,11
2204228,39
2204856,63
2205472,90
2206104,96
2206732,80
2207352,62
2207980,53
2208608,49
2209236,27
2209868,29
2210488,68
2211116,58
2211744,14
2212368,25
2212996,28
2213616,43
2214244,44
2214868,49
2215492,46
2216120,44
2216744,31
2217372,69
2218004,124
2218676,134
2219356,116
2220028,85
2220656,63
2221284,56
2221908,68
2222540,51
2223172,48
2223792,94
2224424,180
2225096,172
2225772,110
2226448,56
2227072,21
2227704,20
2228332,50
2228952,56
2229580,35
2230208,42
2230832,80
2231460,82
2232080,81
2232708,57
2233332,43
2233956,51
2234588,65
2235212,65
2235844,36
2236472,11
2237096,40
2237728,51
2238352,33
2238984,43
2239612,50
2240232,51
2240864,47
2241484,37
2242108,30
2242736,29
2243360,21
2243988,12
2244616,16
2245240,17
2245868,16
2246492,30
2247120,72
2247752,74
2248368,63
2249000,56
2249624,42
2250244,34
2250876,52
2251496,46
2252128,26
2252752,57
2253376,25
2254004,18
2254624,11
2255252,61
2255880,62
2256504,55
2257132,48
2257756,45
2258384,16
2259016,13
2259632,28
2260260,83
2260884,159
2261560,161
2262240,111
2262916,20
2263540,79
2264172,118
2264844,104
2265520,86
2266144,94
2266764,79
2267392,77
2268016,67
2268644,33
2269276,11
2269896,9
2270472,22
2271104,18
2271736,27
2272364,40
2272984,48
2273612,47
2274236,52
2274860,101
2275544,74
2276160,21
2276788,39
2277420,36
2278040,77
2278672,68
2279292,37
2279924,16
2280552,66
2281176,65
2281804,70
2282428,87
2283052,89
2283684,78
2284304,60
2284932,25
2285556,11
2286180,16
2286812,28
2287436,25
2288064,13
2288696,40
2289312,62
2289940,120
2290616,91
2291240,57
2291868,63
2292488,45
2293116,12
2293744,30
2294368,35
2294996,15
2295620,28
2296252,55
2296880,46
2297504,45
2298132,51
2298760,51
2299388,53
2300016,49
2300640,79
2301272,111
2301948,36
2302568,12
2303196,18
2303824,10
2304456,11
2305084,35
2305704,41
2306332,49
2306956,45
2307584,50
2308212,20
2308832,16
2309460,26
2310084,26
2310708,11
2311336,26
2311956,46
2312584,68
2313208,72
2313832,49
2314460,46
2315084,48
2315716,55
2316344,54
2316964,53
2317592,54
2318216,55
2318844,32
2319476,40
2320096,32
2320724,10
2321348,15
2321972,44
2322600,49
2323216,51
2323848,57
2324472,44
2325096,41
2325724,16
2326348,11
2326980,15
2327608,18
2328232,27
2328860,34
2329484,57
2330116,51
2330744,49
2331368,50
2331996,57
2332620,57
2333248,73
2333876,60
2334496,32
2335124,25
2335756,12
2336376,14
2337004,15
2337628,38
2338256,43
2338888,59
2339504,66
2340132,49
2340756,55
2341384,19
2342012,11
2342632,33
2343260,53
2343884,55
2344508,35
2345140,15
2345760,37
2346388,56
2347020,66
2347640,66
2348268,47
2348892,63
2349524,101
2350204,116
2350876,100
2351556,93
2352184,36
2352800,12
2353432,21
2354056,53
2354688,43
2355316,44
2355936,48
2356564,52
2357188,53
2357812,40
2358440,34
2359064,50
2359692,64
2360316,37
2360944,37
2361572,16
2362200,25
2362828,18
2363460,39
2364080,47
2364708,62
2365336,85
2365960,82
2366588,57
2367208,25
2367836,21
2368464,27
2369088,59
2369716,63
2370336,77
2370968,71
2371596,23
2372216,41
2372844,45
2373468,48
2374100,59
2374732,62
2375352,56
2375984,52
2376608,82
2377232,112
2377912,101
2378588,58
2379212,64
2379844,34
2380464,75
2381096,105
2381768,54
2382392,51
2383024,27
2383640,11
2384268,11
2384892,14
2385520,33
2386152,57
2386776,66
2387404,60
2388036,26
2388656,42
2389284,47
2389908,45
2390536,49
2391168,29
2391784,13
2392416,19
2393040,11
2393664,12
2394292,12
2394912,20
2395544,13
2396172,21
2396792,43
2397424,51
2398048,62
2398680,52
2399308,50
2399928,42
2400560,48
2401184,47
2401808,45
2402436,36
2403056,37
2403684,17
2404308,39
2404932,19
2405564,42
2406184,47
2406816,53
2407444,50
2408064,14
2408692,22
2409316,54
2409944,47
2410576,29
2411192,29
2411824,52
2412448,62
2413072,43
2413700,40
2414320,52
2414952,61
2415576,74
2416200,58
2416828,38
2417448,37
2418076,49
2418708,40
2419328,15
2419956,11
2420580,16
2421212,14
2421840,46
2422456,46
2423088,54
2423712,55
2424336,47
2424964,12
2425584,18
2426216,11
2426840,36
2427464,48
2428092,41
2428712,26
2429344,31
2429972,18
2430592,68
2431224,102
2431900,122
2432572,83
2433196,37
2433816,63
2434444,64
2435068,45
2435696,14
2436324,63
2436948,123
2437632,201
2438308,145
2438980,55
2439608,51
2440236,48
2440856,51
2441484,41
2442108,50
2442740,52
2443372,42
2443992,20
2444624,13
2445248,33
2445872,34
2446500,18
2447120,44
2447752,49
2448376,53
2449000,63
2449628,61
2450252,71
2450884,66
2451512,63
2452136,40
2452768,14
2453392,18
2454020,43
2454652,23
2455272,45
2455904,45
2456528,52
2457152,48
2457784,27
2458400,13
2459028,20
2459656,14
2460272,58
2460904,107
2461576,100
2462256,81
2462884,44
2463504,44
2464132,61
2464756,81
2465380,50
2466008,47
2466632,74
2467260,110
2467940,84
2468560,51
2469188,23
2469812,37
2470436,11
2471064,68
2471680,66
2472312,47
2472932,48
2473560,47
2474188,47
2474808,12
2475436,12
2476068,10
2476688,13
2477316,13
2477944,34
2478572,58
2479204,58
2479824,47
2480452,42
2481076,47
2481700,47
2482328,49
2482952,25
2483580,41
2484204,81
2484828,76
2485456,21
2486080,12
2486708,13
2487340,30
2487960,21
2488592,44
2489212,51
2489844,54
2490472,50
2491096,33
2491724,39
2492348,34
2492976,14
2493604,22
2494224,17
2494852,16
2495480,15
2496104,21
2496732,43
2497356,72
2497988,76
2498616,51
2499232,57
2499860,23
2500484,12
2501112,18
2501744,17
2502360,11
2502992,11
2503616,15
2504240,12
2504868,29
2505488,48
2506116,48
2506744,53
2507368,49
2507996,15
2508624,11
2509252,11
2509884,24
2510504,22
2511132,34
2511760,25
2512388,32
2513020,50
2513640,41
2514268,59
2514892,69
2515516,75
2516148,70
2516768,59
2517400,87
2518028,102
2518700,53
2519328,17
2519952,19
2520584,15
2521212,35
2521832,47
2522460,51
2523084,52
2523712,52
2524340,42
2524960,16
2525588,11
2526220,10
2526840,10
2527468,11
2528096,17
2528724,43
2529356,65
2529976,61
2530604,49
2531228,57
2531856,66
2532484,60
2533104,47
2533736,15
2534360,54
2534984,83
2535616,71
2536236,72
2536864,29
2537496,21
2538116,30
2538748,39
2539372,51
2540004,61
2540632,84
2541252,100
2541932,98
2542552,81
2543176,38
2543808,13
2544424,13
2545056,22
2545684,34
2546304,30
2546936,57
2547560,67
2548192,82
2548820,72
2549440,39
2550072,16
2550696,59
2551320,102
2552004,44
2552624,27
2553256,34
2553888,82
2554504,89
2555136,56
2555760,50
2556392,57
2557024,59
2557644,73
2558276,61
2558900,38
2559524,12
2560156,23
2560772,18
2561400,43
2562024,57
2562644,30
2563272,27
2563892,62
2564524,73
2565152,79
2565768,51
2566396,15
2567020,44
2567648,75
2568276,59
2568896,44
2569524,44
2570148,14
2570772,28
2571400,20
2572016,41
2572644,47
2573268,60
2573892,61
2574520,37
2575136,13
2575768,14
2576396,28
2577016,37
2577644,12
2578268,61
2578896,128
2579576,156
2580244,93
2580868,53
2581492,77
2582116,79
2582744,83
2583368,107
2584048,109
2584720,75
2585344,28
2585972,126
2586652,176
2587324,157
2588000,107
2588680,49
2589296,47
2589924,49
2590548,51
2591180,19
2591808,13
2592428,27
2593056,22
2593680,15
2594308,14
2594936,15
2595556,13
2596184,14
2596808,53
2597428,63
2598060,70
2598680,96
2599308,83
2599932,66
2600560,56
2601188,45
2601812,35
2602440,15
2603072,10
2603688,30
2604316,42
2604940,31
2605572,46
2606200,46
2606816,47
2607448,47
2608072,19
2608692,14
2609324,18
2609944,18
2610572,14
2611196,12
2611824,18
2612456,32
2613080,45
2613708,41
2614340,46
2614960,49
2615588,49
2616216,25
2616840,14
2617468,27
2618088,47
2618716,37
2619344,20
2619968,19
2620596,23
2621216,33
2621848,41
2622476,48
2623096,46
2623724,51
2624348,40
2624976,23
2625604,11
2626220,26
2626852,49
2627472,40
2628100,15
2628728,53
2629344,29
2629976,39
2630596,54
2631220,59
2631848,65
2632472,54
2633100,30
2633724,33
2634344,36
2634976,24
2635596,21
2636228,10
2636856,19
2637472,12
2638100,41
2638724,62
2639352,66
2639980,48
2640600,57
2641228,42
2641852,21
2642476,11
2643104,47
2643720,120
2644400,142
2645072,101
2645748,31
2646372,23
2646996,71
2647620,89
2648248,50
2648872,51
2649500,17
2650132,22
2650752,39
2651380,60
2652004,78
2652632,122
2653312,123
2653980,83
2654604,63
2655228,58
2655856,47
2656484,64
2657108,111
2657788,166
2658464,146
2659132,86
2659756,45
2660388,18
2661008,11
2661636,31
2662260,43
2662892,40
2663520,42
2664136,47
2664764,60
2665388,73
2666008,66
2666636,44
2667256,65
2667884,82
2668504,77
2669128,55
2669756,16
2670376,49
2671004,65
2671636,37
2672256,48
2672884,47
2673508,50
2674136,49
2674764,19
2675384,19
2676012,35
2676636,21
2677256,11
2677888,15
2678504,65
2679132,80
2679756,48
2680380,45
2681008,56
2681624,63
2682256,53
2682876,26
2683504,26
2684132,46
2684756,52
2685388,28
2686016,14
2686636,15
2687264,13
2687888,27
2688520,48
2689148,56
2689768,51
2690396,51
2691020,44
2691640,53
2692272,62
2692888,61
2693516,57
2694140,66
2694768,77
2695396,50
2696020,23
2696648,43
2697276,62
2697896,60
2698524,83
2699148,74
2699780,77
2700408,89
2701028,96
2701656,74
2702280,45
2702904,41
2703532,20
2704152,15
2704780,29
2705404,40
2706024,51
2706656,54
2707280,71
2707908,85
2708536,94
2709152,84
2709784,44
2710404,24
2711036,19
2711664,18
2712288,18
2712916,60
2713544,63
2714168,64
2714796,46
2715416,46
2716044,51
2716668,91
2717296,101
2717976,101
2718652,66
2719272,17
2719900,14
2720520,15
2721148,32
2721772,48
2722396,50
2723024,47
2723640,48
2724272,45
2724900,35
2725520,24
2726148,11
2726772,10
2727400,16
2728028,20
2728648,26
2729276,18
2729900,28
2730520,51
2731152,57
2731768,58
2732400,48
2733024,12
2733644,28
2734276,59
2734896,80
2735524,81
2736156,76
2736776,40
2737404,11
2738028,34
2738660,56
2739288,56
2739904,61
2740532,69
2741156,55
2741780,29
2742408,12
2743032,34
2743660,35
2744288,13
2744912,60
2745540,54
2746160,15
2746788,80
2747420,100
2748092,63
2748716,50
2749340,37
2749968,15
2750596,25
2751216,20
2751844,11
2752472,17
2753096,12
2753724,40
2754344,44
2754972,42
2755604,54
2756224,48
2756852,46
2757476,48
2758108,13
2758736,23
2759356,30
2759984,18
2760608,13
2761232,19
2761860,25
2762480,23
2763108,16
2763732,78
2764360,87
2764988,56
2765608,54
2766236,24
2766864,12
2767480,18
2768112,37
2768736,29
2769364,29
2769992,26
2770608,11
2771240,17
2771864,43
2772488,48
2773116,48
2773736,62
2774368,52
2774992,39
2775616,23
2776244,29
2776864,41
2777492,49
2778124,27
2778744,14
2779372,19
2779996,50
2780628,45
2781260,48
2781880,64
2782512,92
2783136,104
2783812,42
2784440,33
2785056,45
2785688,25
2786316,42
2786936,71
2787564,49
2788188,34
2788816,41
2789448,44
2790064,50
2790696,54
2791316,18
2791944,33
2792572,41
2793192,29
2793820,12
2794444,31
2795068,54
2795700,66
2796320,57
2796948,39
2797580,55
2798200,82
2798828,77
2799452,52
2800084,38
2800712,39
2801328,48
2801960,40
2802584,31
2803204,23
2803836,10
2804456,13
2805084,49
2805708,44
2806332,58
2806964,52
2807584,41
2808212,25
2808844,26
2809464,23
2810092,29
2810716,59
2811348,74
2811980,58
2812600,29
2813228,35
2813856,67
2814480,75
2815108,76
2815728,73
2816360,66
2816980,79
2817604,98
2818232,65
2818848,13
2819476,43
2820104,54
2820728,46
2821356,19
2821980,42
2822608,50
2823240,52
2823856,52
2824484,39
2825108,16
2825736,61
2826364,39
2826984,22
2827612,35
2828236,90
2828860,129
2829540,62
2830160,64
2830788,100
2831472,97
2832088,84
2832716,88
2833340,67
2833964,47
2834592,41
2835212,15
2835840,35
2836464,24
2837088,31
2837716,31
2838340,44
2838972,48
2839604,66
2840224,69
2840852,77
2841476,74
2842108,52
2842736,52
2843360,53
2843988,67
2844612,45
2845236,26
2845868,14
2846488,34
2847116,104
2847800,117
2848468,71
2849092,48
2849716,13
2850340,11
2850972,10
2851592,21
2852220,24
2852844,24
2853468,11
2854100,24
2854724,26
2855352,45
2855984,45
2856604,47
2857232,49
2857856,15
2858488,15
2859116,10
2859736,14
2860364,11
2860992,12
2861616,25
2862244,32
2862864,31
2863496,43
2864120,53
2864744,59
2865376,59
2866000,49
2866628,48
2867260,48
2867876,43
2868508,20
2869128,10
2869760,12
2870388,24
2871008,23
2871636,42
2872260,46
2872884,49
2873516,46
2874136,47
2874764,20
2875388,46
2876016,66
2876644,87
2877268,29
2877900,29
2878528,128
2879204,126
2879880,97
2880504,56
2881124,47
2881756,52
2882376,48
2883008,29
2883636,64
2884256,123
2884936,201
2885604,242
2886276,175
2886952,48
2887576,11
2888200,33
2888828,50
2889448,48
2890076,71
2890700,85
2891324,133
2892004,67
2892624,31
2893252,41
2893880,11
2894504,39
2895132,153
2895808,293
2896476,261
2897152,109
2897828,49
2898448,49
2899076,50
2899696,49
2900324,68
2900948,87
2901572,89
2902204,67
2902824,50
2903452,19
2904084,10
2904704,24
2905332,46
2905956,47
2906588,48
2907216,48
2907840,16
2908468,12
2909092,12
2909716,11
2910348,16
2910968,22
2911596,37
2912224,35
2912848,27
2913476,45
2914096,66
2914724,69
2915356,61
2915976,58
2916604,53
2917228,60
2917860,51
2918492,24
2919112,13
2919740,13
2920364,21
2920988,28
2921616,42
2922232,47
2922864,47
2923488,47
2924112,45
2924740,21
2925360,18
2925988,13
2926620,10
2927240,21
2927868,25
2928496,30
2929124,27
2929756,18
2930376,51
2931008,65
2931632,63
2932256,49
2932884,34
2933504,34
2934132,27
2934756,24
2935384,17
2936012,15
2936632,21
2937264,35
2937892,18
2938512,54
2939144,53
2939768,47
2940396,49
2941028,34
2941648,29
2942276,21
2942904,21
2943528,19
2944160,30
2944776,32
2945404,36
2946028,37
2946652,43
2947284,45
2947908,60
2948536,67
2949164,65
2949784,43
2950412,35
2951036,38
2951664,31
2952292,13
2952912,10
2953540,23
2954164,27
2954788,26
2955420,42
2956040,45
2956668,47
2957292,50
2957916,30
2958548,22
2959172,14
2959804,11
2960432,16
2961056,32
2961684,53
2962308,49
2962936,31
2963568,43
2964184,61
2964812,64
2965436,61
2966060,66
2966692,71
2967312,69
2967940,51
2968568,25
2969188,15
2969820,13
2970444,35
2971072,28
2971700,43
2972320,49
2972948,45
2973572,49
2974204,34
2974832,11
2975448,23
2976080,13
2976700,61
2977324,88
2977956,95
2978576,91
2979204,62
2979828,41
2980452,49
2981080,58
2981708,76
2982336,86
2982968,73
2983584,75
2984216,95
2984836,99
2985468,65
2986100,29
2986720,13
2987348,12
2987972,18
2988600,37
2989228,50
2989848,53
2990476,49
2991100,32
2991728,56
2992356,71
2992984,95
2993612,81
2994240,54
2994860,48
2995488,46
2996112,53
2996744,42
2997372,54
2997992,61
2998624,69
2999248,79
2999872,108
3000552,140
3001228,70
3001856,15
3002484,37
3003104,85
3003732,45
3004360,21
3004984,49
3005612,48
3006232,48
3006864,57
3007492,75
3008112,87
3008744,103
3009420,90
3010048,81
3010676,80
3011296,70
3011924,40
3012548,17
3013172,41
3013804,90
3014424,98
3015052,78
3015676,68
3016304,89
3016936,94
3017560,82
3018192,40
3018824,10
3019440,23
3020072,55
3020696,65
3021320,25
3021952,36
3022572,47
3023200,48
3023824,51
3024448,49
3025076,40
3025696,37
3026328,24
3026956,28
3027576,40
3028208,48
3028832,35
3029460,15
3030092,76
3030712,86
3031344,66
3031968,72
3032592,56
3033224,26
3033840,14
3034472,11
3035096,33
3035720,48
3036352,45
3036968,72
3037596,65
3038228,43
3038848,69
3039480,88
3040104,89
3040732,62
3041364,16
3041984,14
3042612,15
3043236,10
3043860,15
3044492,20
3045112,44
3045744,66
3046368,40
3046992,59
3047620,72
3048240,67
3048868,72
3049500,88
3050120,71
3050752,48
3051376,53
3052008,39
3052636,30
3053256,13
3053884,39
3054512,71
3055136,75
3055768,63
3056384,54
3057016,48
3057640,22
3058264,15
3058896,17
3059512,12
3060144,11
3060776,24
3061392,76
3062024,82
3062648,84
3063280,66
3063908,46
3064528,60
3065160,78
3065784,70
3066412,64
3067040,63
3067664,77
3068296,104
3068976,73
3069600,13
3070232,37
3070856,12
3071488,63
3072124,50
3072744,51
3073372,49
3073992,49
3074616,73
3075248,82
3075864,88
3076492,86
3077116,58
3077744,17
3078372,15
3079000,17
3079628,34
3080260,42
3080880,45
3081508,48
3082132,51
3082760,45
3083388,63
3084008,94
3084636,103
3085320,87
3085936,72
3086564,42
3087188,12
3087820,24
3088448,44
3089072,53
3089700,55
3090324,45
3090952,23
3091580,10
3092200,13
3092828,19
3093452,11
3094076,21
3094708,14
3095328,15
3095956,52
3096588,62
3097208,66
3097840,79
3098460,85
3099092,69
3099720,52
3100344,33
3100976,22
3101600,84
3102224,122
3102904,96
3103528,50
3104160,30
3104788,54
3105408,61
3106036,49
3106660,47
3107292,49
3107924,20
3108544,15
3109176,12
3109800,15
3110424,11
3111052,14
3111672,28
3112304,26
3112928,17
3113552,57
3114184,58
3114800,50
3115432,50
3116060,17
3116680,12
3117312,24
3117936,49
3118564,57
3119196,74
3119816,59
3120448,18
3121072,22
3121696,45
3122324,49
3122944,59
3123576,64
3124196,56
3124820,22
3125452,70
3126072,131
3126756,111
3127436,87
3128056,91
3128684,134
3129368,130
3130036,44
3130660,53
3131288,49
3131912,49
3132544,31
3133160,11
3133792,87
3134416,156
3135092,118
3135772,15
3136392,45
3137020,25
3137652,24
3138272,60
3138900,55
3139524,53
3140148,53
3140780,36
3141400,14
3142028,11
3142660,11
3143280,12
3143908,45
3144536,51
3145164,24
3145796,12
3146416,29
3147044,46
3147672,49
3148296,49
3148928,50
3149544,51
3150176,72
3150800,74
3151424,57
3152056,21
3152672,21
3153300,29
3153932,31
3154552,19
3155184,38
3155808,46
3156440,47
3157068,48
3157688,38
3158320,20
3158944,12
3159568,19
3160200,30
3160816,56
3161448,80
3162072,50
3162696,17
3163328,47
3163944,67
3164576,82
3165208,80
3165824,88
3166456,130
3167132,149
3167804,109
3168484,17
3169104,36
3169736,36
3170364,70
3170984,110
3171668,101
3172340,49
3172960,49
3173592,49
3174216,44
3174848,48
3175476,24
3176096,12
3176724,12
3177352,48
3177980,71
3178612,46
3179232,17
3179864,45
3180488,63
3181112,75
3181744,82
3182360,77
3182992,70
3183624,46
3184248,21
3184880,19
3185504,43
3186136,46
3186764,35
3187384,13
3188012,39
3188640,47
3189264,51
3189896,54
3190512,65
3191144,43
3191772,24
3192396,11
3193028,28
3193648,19
3194280,51
3194912,119
3195580,91
3196208,56
3196832,41
3197456,56
3198088,53
3198704,47
3199336,45
3199964,102
3200640,102
3201320,50
3201936,13
3202564,22
3203192,12
3203808,23
3204440,16
3205064,43
3205684,52
3206316,49
3206936,48
3207564,21
3208188,10
3208816,19
3209444,11
3210068,29
3210696,54
3211324,55
3211944,17
3212572,22
3213196,61
3213828,65
3214456,50
3215080,51
3215708,47
3216332,15
3216956,33
3217588,26
3218208,12
3218836,10
3219468,22
3220088,13
3220716,11
3221340,43
3221972,50
3222600,46
3223220,45
3223848,54
3224472,63
3225096,47
3225724,15
3226344,13
3226972,15
3227596,39
3228220,61
3228848,59
3229464,46
3230096,41
3230724,49
3231344,54
3231976,55
3232600,53
3233228,67
3233860,98
3234480,154
3235160,142
3235836,95
3236464,57
3237092,14
3237716,13
3238348,45
3238980,57
3239600,60
3240228,59
3240852,66
3241476,73
3242108,26
3242728,26
3243356,23
3243980,12
3244608,40
3245236,84
3245856,103
3246536,76
3247164,62
3247784,54
3248416,47
3249036,51
3249668,68
3250300,76
3250920,42
3251552,21
3252176,12
3252796,11
3253428,14
3254048,12
3254676,42
3255308,50
3255928,50
3256560,49
3257184,48
3257812,18
3258444,36
3259064,21
3259692,17
3260320,11
3260944,13
3261572,26
3262192,59
3262824,58
3263448,43
3264072,53
3264700,64
3265320,60
3265948,57
3266580,50
3267200,64
3267828,45
3268452,12
3269084,12
3269716,16
3270336,12
3270968,12
3271592,44
3272216,48
3272848,49
3273464,49
3274096,43
3274720,29
3275344,19
3275976,13
3276596,12
3277228,36
3277856,68
3278472,61
3279100,49
3279724,34
3280352,71
3280980,78
3281596,66
3282228,63
3282848,47
3283468,55
3284100,60
3284716,38
3285348,11
3285968,22
3286592,49
3287220,56
3287836,32
3288468,38
3289096,46
3289712,48
3290340,49
3290964,16
3291592,16
3292220,31
3292840,33
3293468,16
3294088,31
3294716,57
3295348,42
3295968,18
3296596,89
3297220,123
3297896,62
3298516,48
3299140,27
3299772,12
3300400,38
3301016,81
3301644,82
3302268,61
3302896,27
3303528,25
3304144,71
3304772,70
3305396,55
3306020,59
3306648,82
3307264,115
3307944,109
3308620,101
3309292,44
3309916,16
3310540,11
3311164,17
3311796,34
3312416,17
3313044,37
3313676,89
3314296,112
3314976,80
3315600,77
3316228,90
3316860,76
3317480,45
3318108,17
3318732,46
3319356,23
3319984,22
3320608,26
3321236,35
3321868,44
3322488,47
3323116,48
3323740,47
3324372,27
3325000,39
3325616,43
3326248,39
3326872,19
3327496,13
3328128,19
3328740,22
3329368,17
3329992,53
3330616,72
3331244,79
3331864,74
3332492,70
3333112,48
3333736,50
3334368,84
3334992,69
3335620,13
3336248,63
3336872,93
3337500,66
3338124,41
3338752,42
3339384,48
3340000,51
3340628,47
3341252,11
3341876,11
3342504,12
3343120,11
3343748,18
3344372,30
3344996,32
3345624,47
3346248,35
3346876,55
3347508,59
3348128,71
3348756,91
3349380,101
3350060,83
3350684,60
3351304,22
3351932,11
3352556,23
3353180,63
3353812,82
3354436,29
3355064,41
3355696,46
3356312,56
3356940,49
3357564,49
3358196,14
3358828,57
3359448,59
3360076,55
3360700,51
3361320,63
3361948,42
3362568,22
3363196,91
3363820,121
3364492,113
3365168,82
3365784,49
3366408,21
3367036,27
3367656,47
3368284,49
3368908,31
3369532,10
3370160,17
3370776,15
3371408,51
3372036,50
3372656,48
3373284,52
3373908,53
3374540,67
3375168,61
3375784,54
3376416,69
3377040,112
3377720,140
3378396,104
3379068,43
3379696,35
3380324,70
3380944,79
3381572,71
3382196,69
3382820,75
3383448,92
3384064,85
3384692,48
3385316,16
3385940,17
3386568,13
3387184,11
3387812,22
3388444,42
3389064,46
3389692,51
3390316,82
3390948,60
3391576,23
3392200,11
3392828,11
3393452,31
3394076,42
3394704,47
3395320,30
3395952,17
3396576,45
3397196,54
3397828,62
3398448,62
3399076,53
3399708,66
3400328,73
3400956,70
3401580,40
3402208,11
3402836,10
3403456,12
3404084,13
3404708,43
3405332,54
3405960,44
3406584,48
3407212,61
3407836,81
3408460,69
3409088,20
3409712,14
3410340,35
3410972,54
3411592,45
3412220,36
3412844,39
3413476,56
3414104,114
3414780,122
3415456,114
3416136,108
3416812,78
3417436,49
3418064,13
3418688,32
3419316,87
3419936,117
3420620,100
3421296,53
3421920,45
3422548,65
3423172,96
3423800,92
3424428,60
3425048,51
3425676,34
3426300,19
3426928,16
3427556,49
3428180,127
3428864,205
3429540,204
3430212,57
3430840,73
3431468,86
3432088,80
3432716,77
3433340,86
3433972,46
3434600,14
3435224,26
3435852,20
3436476,12
3437104,16
3437732,14
3438352,41
3438984,57
3439608,65
3440232,81
3440860,78
3441484,39
3442112,17
3442744,25
3443360,12
3443988,36
3444612,47
3445240,38
3445868,29
3446488,44
3447116,69
3447740,88
3448364,80
3448992,72
3449612,74
3450240,86
3450864,83
3451488,59
3452116,34
3452740,19
3453372,17
3454004,18
3454624,33
3455256,42
3455880,47
3456508,47
3457140,52
3457760,52
3458388,32
3459012,26
3459636,20
3460264,32
3460884,38
3461512,51
3462136,55
3462760,32
3463388,48
3464012,64
3464640,70
3465268,71
3465888,71
3466516,57
3467140,68
3467772,83
3468400,63
3469024,36
3469652,15
3470276,47
3470900,61
3471532,50
3472152,54
3472780,51
3473404,52
3474032,39
3474660,28
3475284,37
3475916,18
3476544,11
3477168,33
3477796,73
3478424,88
3479048,99
3479676,69
3480296,49
3480928,52
3481552,66
3482176,85
3482808,98
3483424,87
3484052,86
3484680,82
3485304,77
3485932,67
3486556,68
3487188,65
3487816,30
3488436,54
3489064,90
3489688,79
3490308,60
3490940,62
3491560,115
3492240,99
3492868,83
3493488,97
3494116,63
3494740,15
3495372,47
3496000,59
3496616,90
3497248,99
3497872,99
3498500,85
3499132,71
3499752,53
3500384,41
3501008,11
3501632,43
3502260,51
3502880,49
3503508,36
3504140,38
3504760,103
3505440,94
3506064,56
3506696,46
3507324,42
3507944,32
3508572,40
3509196,70
3509820,145
3510504,167
3511172,124
3511852,77
3512480,39
3513096,45
3513728,79
3514352,96
3514976,109
3515656,166
3516332,190
3517004,169
3517684,144
3518356,120
3519032,111
3519708,74
3520328,20
3520960,112
3521640,212
3522308,248
3522984,183
3523664,93
3524280,73
3524908,39
3525532,11
3526156,13
3526784,16
3527408,17
3528036,13
3528660,14
3529284,14
3529912,40
3530536,47
3531164,51
3531796,60
3532416,53
3533048,53
3533668,58
3534300,53
3534928,23
3535544,15
3536176,22
3536800,15
3537420,10
3538052,46
3538672,51
3539300,47
3539924,47
3540548,52
3541180,37
3541800,13
3542428,16
3543060,20
3543680,51
3544308,67
3544932,77
3545564,51
3546196,18
3546816,59
3547444,65
3548072,59
3548696,49
3549324,36
3549944,83
3550576,158
3551256,152
3551932,74
3552560,23
3553184,11
3553808,27
3554436,28
3555056,47
3555688,47
3556312,49
3556936,69
3557568,75
3558184,32
3558816,15
3559444,42
3560064,56
3560692,55
3561316,17
3561948,60
3562580,80
3563200,45
3563828,56
3564456,95
3565080,117
3565760,81
3566376,31
3567008,12
3567636,32
3568256,34
3568884,41
3569508,38
3570140,18
3570772,28
3571392,44
3572020,48
3572648,45
3573272,56
3573900,51
3574520,11
3575148,13
3575776,13
3576400,17
3577028,16
3577648,45
3578276,54
3578908,52
3579528,34
3580160,56
3580784,49
3581416,49
3582048,55
3582664,57
3583296,63
3583924,65
3584548,84
3585180,92
3585800,100
3586480,81
3587104,42
3587720,44
3588348,51
3588972,44
3589604,48
3590232,53
3590852,33
3591480,23
3592104,51
3592728,23
3593360,109
3594028,265
3594708,252
3595388,134
3596060,72
3596688,44
3597312,62
3597936,74
3598568,75
3599192,101
3599872,108
3600556,100
3601228,88
3601852,33
3602484,24
3603104,12
3603736,51
3604360,61
3604988,51
3605620,56
3606240,49
3606868,45
3607492,16
3608116,15
3608744,23
3609360,24
3609992,31
3610616,12
3611236,47
3611868,83
3612492,87
3613120,52
3613748,45
3614368,50
3614996,47
3615620,39
3616252,18
3616880,21
3617496,32
3618124,103
3618800,135
3619468,58
3620092,26
3620716,53
3621348,49
3621976,43
3622596,55
3623224,55
3623848,52
3624472,43
3625100,49
3625720,35
3626348,10
3626972,29
3627596,28
3628224,52
3628848,115
3629528,105
3630204,47
3630824,48
3631452,46
3632076,65
3632700,87
3633332,64
3633952,37
3634584,33
3635212,34
3635832,43
3636460,16
3637084,10
3637716,24
3638344,50
3638964,64
3639592,54
3640220,48
3640844,39
3641472,28
3642092,23
3642720,29
3643344,55
3643968,59
3644600,80
3645216,63
3645848,15
3646476,60
3647096,77
3647728,56
3648352,46
3648980,34
3649608,19
3650224,38
3650852,21
3651476,11
3652104,26
3652732,35
3653352,25
3653980,53
3654608,95
3655228,95
3655860,50
3656480,45
3657108,47
3657740,20
3658360,49
3658988,65
3659616,106
3660296,127
3660972,86
3661592,76
3662220,57
3662844,26
3663472,51
3664104,50
3664724,50
3665356,47
3665988,19
3666608,38
3667236,42
3667860,19
3668488,18
3669116,12
3669736,12
3670368,32
3670992,68
3671616,80
3672248,54
3672864,50
3673496,51
3674124,17
3674744,16
3675376,13
3676000,11
3676632,14
3677260,36
3677880,63
3678512,56
3679136,48
3679760,41
3680392,43
3681008,54
3681640,66
3682264,53
3682888,52
3683516,62
3684136,60
3684768,45
3685396,24
3686016,14
3686648,23
3687268,27
3687896,34
3688528,48
3689144,54
3689772,58
3690396,49
3691020,13
3691648,16
3692264,14
3692896,14
3693520,11
3694140,17
3694772,62
3695392,137
3696072,109
3696752,48
3697368,47
3697996,59
3698620,56
3699244,17
3699872,14
3700496,11
3701124,32
3701748,86
3702372,89
3703004,32
3703628,19
3704260,15
3704888,45
3705512,51
3706144,46
3706768,47
3707400,21
3708028,12
3708648,11
3709276,16
3709904,33
3710528,38
3711156,54
3711776,61
3712408,53
3713036,43
3713656,47
3714284,55
3714908,58
3715540,55
3716168,48
3716784,59
3717416,66
3718040,62
3718664,42
3719292,18
3719912,23
3720544,21
3721168,24
3721792,47
3722420,45
3723040,49
3723668,48
3724300,38
3724920,44
3725548,33
3726172,14
3726804,11
3727436,15
3728056,15
3728684,55
3729308,85
3729932,50
3730560,43
3731184,48
3731816,50
3732440,36
3733064,52
3733696,66
3734312,64
3734944,36
3735572,29
3736192,32
3736824,13
3737448,15
3738076,41
3738708,48
3739328,74
3739956,49
3740584,35
3741208,14
3741836,34
3742456,41
3743084,37
3743712,11
3744336,39
3744964,42
3745584,27
3746212,34
3746844,56
3747464,63
3748096,57
3748720,49
3749348,21
3749980,50
3750600,79
3751228,75
3751856,49
3752480,31
3753108,11
3753728,16
3754356,53
3754984,51
3755608,45
3756240,70
3756856,110
3757536,135
3758220,98
3758840,51
3759472,27
3760096,35
3760720,13
3761348,14
3761968,25
3762600,55
3763228,40
3763848,46
3764476,46
3765100,56
3765732,49
3766364,67
3766984,143
3767668,184
3768348,133
3769020,75
3769648,21
3770268,43
3770892,63
3771524,62
3772144,71
3772776,96
3773400,91
3774024,62
3774656,39
3775272,37
3775904,33
3776536,31
3777152,34
3777784,34
3778408,30
3779036,15
3779668,66
3780288,93
3780916,83
3781544,70
3782168,71
3782796,84
3783416,86
3784048,52
3784672,26
3785296,14
3785924,11
3786544,39
3787176,54
3787808,27
3788424,45
3789056,47
3789680,48
3790308,49
3790940,22
3791560,39
3792192,67
3792816,69
3793436,45
3794068,44
3794688,68
3795320,93
3795940,53
3796568,54
3797196,87
3797816,91
3798448,96
3799076,99
3799696,69
3800328,59
3800952,79
3801580,56
3802212,42
3802832,37
3803464,12
3804088,17
3804712,48
3805344,121
3806012,131
3806692,69
3807320,30
3807940,59
3808572,26
3809196,23
3809820,43
3810452,46
3811072,42
3811704,31
3812328,22
3812952,40
3813584,61
3814204,85
3814832,81
3815464,46
3816084,16
3816712,21
3817336,45
3817968,56
3818596,57
3819216,32
3819848,27
3820472,42
3821096,29
3821728,48
3822344,51
3822976,50
3823600,52
3824224,34
3824856,15
3825480,13
3826108,12
3826740,11
3827360,15
3827992,26
3828616,25
3829248,21
3829876,64
3830496,87
3831128,61
3831752,55
3832376,52
3833008,51
3833628,60
3834260,56
3834888,14
3835512,12
3836144,16
3836768,30
3837400,24
3838032,45
3838656,59
3839292,64
3839916,47
3840544,47
3841172,33
3841792,16
3842420,21
3843044,52
3843668,66
3844296,44
3844920,15
3845548,22
3846180,39
3846800,60
3847428,55
3848052,75
3848684,95
3849312,99
3849932,33
3850560,10
3851184,31
3851808,45
3852436,38
3853056,60
3853684,58
3854308,23
3854932,41
3855564,46
3856184,51
3856812,50
3857440,32
3858064,17
3858692,10
3859316,11
3859948,10
3860580,22
3861200,50
3861828,45
3862452,29
3863076,41
3863708,51
3864328,56
3864956,52
3865584,43
3866208,44
3866836,51
3867460,59
3868092,26
3868724,22
3869344,17
3869976,12
3870600,30
3871228,44
3871860,50
3872480,54
3873108,48
3873732,49
3874356,20
3874988,25
3875608,23
3876236,12
3876864,20
3877488,41
3878116,109
3878796,99
3879424,57
3880052,47
3880672,48
3881304,48
3881928,49
3882548,38
3883180,62
3883800,67
3884432,43
3885060,11
3885680,11
3886308,11
3886936,29
3887564,28
3888196,36
3888816,45
3889444,56
3890072,57
3890696,19
3891328,60
3891944,70
3892572,43
3893196,33
3893820,35
3894452,43
3895072,28
3895700,15
3896332,64
3896952,97
3897584,104
3898260,98
3898884,78
3899512,63
3900132,75
3900764,73
3901388,49
3902012,51
3902644,42
3903264,22
3903896,91
3904528,76
3905144,58
3905776,58
3906400,60
3907028,64
3907660,74
3908280,57
3908908,29
3909532,12
3910160,12
3910788,13
3911408,18
3912040,13
3912664,20
3913288,63
3913916,90
3914536,93
3915168,57
3915800,16
3916420,46
3917048,12
3917672,48
3918304,58
3918936,70
3919556,58
3920184,13
3920808,36
3921432,42
3922064,45
3922684,90
3923312,149
3923992,153
3924668,68
3925296,23
3925920,56
3926544,51
3927172,16
3927792,17
3928424,25
3929048,51
3929672,43
3930300,47
3930920,87
3931552,105
3932232,97
3932856,102
3933536,111
3934204,97
3934832,70
3935460,47
3936084,18
3936716,22
3937344,51
3937960,58
3938592,61
3939216,62
3939844,63
3940476,74
3941096,82
3941728,70
3942352,41
3942976,15
3943604,26
3944224,42
3944852,22
3945484,13
3946104,34
3946732,71
3947356,69
3947988,68
3948620,57
3949240,55
3949868,49
3950492,26
3951120,29
3951748,41
3952368,49
3952996,48
3953620,43
3954244,19
3954876,41
3955496,46
3956124,47
3956756,47
3957376,17
3958008,26
3958632,23
3959260,12
3959892,21
3960512,26
3961140,14
3961768,19
3962392,19
3963024,41
3963640,45
3964268,46
3964892,48
3965520,32
3966148,11
3966768,16
3967400,15
3968028,24
3968648,29
3969276,14
3969900,11
3970532,37
3971160,64
3971784,45
3972416,50
3973040,52
3973664,49
3974292,23
3974912,34
3975540,26
3976164,11
3976788,22
3977420,37
3978040,47
3978668,45
3979300,16
3979920,67
3980552,63
3981176,51
3981804,47
3982436,30
3983056,12
3983688,21
3984312,12
3984936,23
3985564,48
3986184,55
3986816,33
3987440,21
3988064,44
3988692,45
3989316,47
3989948,49
3990580,22
3991200,20
3991832,19
3992456,12
3993088,11
3993720,22
3994336,43
3994964,45
3995588,43
3996216,42
3996844,52
3997464,52
3998092,54
3998720,43
3999344,29
3999976,69
4000600,77
4001228,53
4001860,31
4002480,19
4003108,26
4003732,49
4004360,45
4004988,66
4005608,91
4006236,70
4006860,46
4007484,49
4008112,54
4008736,36
4009364,17
4009996,11
4010616,16
4011244,31
4011868,43
4012500,55
4013132,45
4013752,47
4014384,49
4015008,55
4015628,62
4016260,70
4016880,76
4017508,65
4018132,46
4018756,35
4019388,25
4020008,26
4020636,33
4021264,42
4021888,47
4022516,46
4023140,50
4023772,51
4024400,91
4025024,121
4025704,47
4026320,24
4026944,30
4027572,15
4028192,35
4028820,38
4029452,35
4030072,61
4030704,76
4031328,83
4031960,84
4032592,82
4033208,69
4033836,53
4034460,18
4035088,67
4035716,130
4036388,136
4037064,76
4037696,29
4038312,57
4038944,53
4039568,49
4040196,64
4040828,66
4041448,55
4042076,57
4042704,71
4043328,58
4043956,28
4044576,25
4045208,13
4045836,42
4046456,103
4047136,118
4047808,112
4048476,106
4049152,73
4049776,71
4050404,79
4051036,85
4051656,52
4052288,27
4052908,12
4053536,31
4054164,47
4054784,44
4055416,48
4056040,46
4056664,49
4057292,60
4057912,66
4058544,30
4059172,12
4059792,11
4060424,33
4061048,50
4061676,58
4062308,76
4062928,43
4063560,56
4064184,73
4064808,76
4065436,70
4066056,60
4066684,41
4067308,39
4067936,26
4068564,10
4069188,14
4069820,19
4070452,62
4071072,61
4071704,43
4072328,46
4072956,48
4073588,54
4074208,16
4074840,14
4075464,23
4076088,19
4076716,36
4077336,45
4077968,61
4078600,31
4079216,19
4079848,77
4080472,112
4081156,126
4081836,101
4082508,44
4083136,11
4083768,13
4084384,45
4085016,77
4085640,60
4086272,56
4086900,76
4087520,59
4088152,47
4088776,46
4089400,64
4090032,52
4090652,25
4091280,26
4091912,18
4092532,28
4093164,23
4093788,15
4094420,25
4095052,27
4095672,25
4096308,44
4096928,67
4097548,76
4098176,62
4098796,45
4099428,33
4100048,39
4100668,24
4101300,28
4101916,34
4102548,27
4103176,57
4103792,65
4104420,39
4105044,41
4105672,47
4106300,46
4106920,49
4107548,31
4108168,44
4108796,31
4109428,14
4110048,13
4110676,22
4111300,33
4111924,23
4112552,13
4113168,48
4113800,57
4114424,61
4115044,56
4115676,16
4116296,31
4116928,28
4117556,16
4118176,27
4118804,12
4119428,22
4120056,44
4120684,70
4121304,85
4121932,67
4122556,47
4123180,46
4123808,30
4124424,14
4125052,35
4125676,81
4126300,93
4126928,81
4127544,76
4128176,85
4128804,88
4129420,64
4130052,51
4130676,58
4131304,63
4131932,71
4132552,85
4133180,126
4133856,151
4134524,123
4135200,72
4135816,43
4136448,11
4137076,13
4137696,29
4138324,39
4138948,66
4139568,78
4140200,61
4140816,28
4141444,17
4142068,15
4142692,16
4143320,13
4143944,21
4144576,15
4145204,13
4145824,24
4146452,41
4147076,47
4147708,47
4148336,49
4148952,38
4149584,37
4150208,22
4150832,32
4151460,40
4152080,25
4152708,12
4153332,41
4153956,56
4154588,40
4155212,48
4155840,51
4156468,65
4157088,55
4157720,37
4158340,29
4158972,27
4159604,14
4160224,22
4160852,31
4161472,31
4162096,19
4162724,43
4163344,72
4163972,76
4164596,75
4165216,75
4165848,87
4166468,69
4167100,21
4167728,11
4168344,17
4168972,11
4169596,33
4170224,47
4170856,17
4171472,42
4172100,49
4172724,47
4173348,47
4173980,38
4174600,17
4175228,11
4175852,11
4176476,16
4177104,35
4177728,63
4178356,80
4178988,91
4179608,53
4180236,50
4180860,46
4181488,59
4182116,98
4182736,97
4183364,96
4183988,92
4184612,56
4185240,20
4185864,15
4186492,29
4187116,27
4187740,42
4188368,62
4188992,59
4189620,49
4190248,47
4190872,18
4191500,17
4192128,26
4192756,49
4193384,67
4194004,65
4194632,64
4195256,57
4195880,40
4196508,44
4197128,54
4197756,56
4198384,60
4199008,59
4199636,74
4200260,83
4200888,67
4201520,32
4202136,18
4202764,13
4203388,33
4204016,37
4204648,42
4205264,47
4205892,50
4206516,46
4207140,31
4207772,58
4208392,56
4209020,41
4209644,33
4210268,40
4210896,55
4211516,56
4212144,48
4212776,42
4213392,59
4214020,73
4214644,63
4215276,55
4215904,44
4216528,46
4217156,19
4217780,20
4218404,47
4219036,39
4219656,39
4220284,77
4220908,20
4221532,59
4222164,83
4222784,73
4223416,59
4224048,23
4224660,15
4225292,14
4225912,13
4226544,41
4227172,52
4227792,52
4228420,73
4229044,52
4229668,42
4230296,63
4230920,73
4231548,93
4232172,115
4232848,84
4233472,42
4234096,13
4234724,17
4235356,26
4235976,49
4236608,61
4237232,47
4237856,43
4238484,45
4239104,49
4239736,49
4240360,49
4240980,25
4241608,12
4242232,12
4242860,24
4243492,58
4244112,63
4244740,45
4245364,25
4245996,32
4246624,78
4247248,64
4247876,59
4248500,55
4249124,54
4249756,65
4250376,61
4251004,38
4251628,17
4252252,10
4252880,32
4253504,49
4254132,35
4254764,42
4255384,53
4256012,56
4256636,59
4257268,39
4257896,18
4258516,41
4259144,73
4259772,48
4260396,12
4261024,23
4261640,46
4262272,78
4262896,46
4263516,55
4264148,70
4264772,72
4265400,81
4266028,98
4266648,125
4267328,132
4267996,78
4268616,27
4269244,11
4269864,55
4270492,83
4271124,82
4271744,90
4272372,64
4272996,49
4273628,51
4274256,41
4274876,44
4275504,31
4276128,14
4276752,37
4277380,43
4278000,32
4278628,23
4279252,21
4279876,84
4280508,98
4281128,120
4281808,118
4282484,113
4283156,88
4283784,31
4284408,10
4285028,13
4285660,49
4286284,79
4286916,77
4287544,31
4288164,38
4288792,48
4289416,57
4290044,53
4290676,44
4291296,32
4291924,29
4292548,30
4293172,43
4293804,41
4294424,30
4295052,13
4295676,30
4296304,82
4296932,118
4297612,120
4298288,92
4298916,64
4299536,57
4300168,59
4300792,32
4301416,54
4302044,111
4302720,105
4303396,73
4304020,25
4304640,46
4305268,59
4305892,59
4306516,55
4307144,25
4307768,13
4308396,30
4309028,40
4309648,62
4310276,67
4310904,57
4311532,46
4312164,36
4312784,42
4313412,51
4314040,61
4314664,59
4315292,62
4315912,39
4316544,37
4317168,14
4317792,21
4318420,39
4319048,37
4319676,37
4320308,21
4320928,25
4321556,43
4322180,52
4322812,49
4323440,53
4324060,52
4324688,52
4325312,37
4325936,15
4326564,31
4327184,51
4327812,51
4328436,51
4329060,27
4329688,63
4330312,89
4330944,60
4331572,47
4332192,33
4332820,49
4333444,69
4334076,79
4334704,50
4335328,31
4335960,14
4336584,23
4337208,27
4337836,43
4338456,46
4339088,47
4339716,60
4340336,69
4340968,51
4341592,29
4342220,12
4342852,30
4343472,35
4344100,20
4344724,47
4345352,115
4346032,80
4346648,45
4347276,47
4347900,46
4348528,53
4349156,44
4349784,36
4350412,27
4351044,10
4351664,24
4352296,11
4352920,13
4353540,20
4354172,35
4354792,43
4355420,51
4356044,49
4356668,47
4357296,40
4357920,38
4358548,35
4359180,28
4359800,21
4360428,15
4361052,33
4361684,41
4362312,31
4362928,44
4363560,60
4364184,53
4364808,50
4365436,70
4366056,87
4366684,88
4367308,57
4367932,11
4368564,18
4369184,21
4369812,38
4370444,28
4371064,42
4371696,46
4372320,47
4372948,48
4373580,44
4374200,21
4374832,26
4375456,25
4376080,30
4376708,59
4377328,54
4377960,16
4378584,19
4379208,25
4379836,52
4380456,51
4381088,53
4381716,72
4382336,120
4383020,82
4383640,25
4384264,26
4384892,22
4385512,21
4386140,21
4386764,41
4387392,35
4388020,42
4388640,45
4389268,47
4389900,50
4390520,30
4391148,28
4391776,19
4392404,13
4393036,24
4393656,33
4394284,63
4394908,87
4395536,117
4396216,71
4396832,47
4397460,52
4398092,48
4398712,26
4399344,16
4399968,45
4400600,56
4401228,32
4401848,13
4402480,11
4403104,17
4403728,25
4404356,95
4404976,117
4405656,70
4406288,48
4406904,52
4407532,34
4408160,17
4408788,11
4409416,36
4410040,80
4410668,77
4411296,64
4411920,38
4412548,40
4413168,103
4413848,82
4414476,60
4415096,50
4415728,36
4416352,36
4416980,41
4417612,38
4418232,35
4418864,34
4419488,14
4420108,11
4420740,24
4421360,48
4421988,47
4422616,44
4423240,47
4423868,37
4424488,80
4425116,109
4425796,73
4426416,19
4427044,11
4427668,17
4428296,17
4428924,14
4429544,46
4430172,42
4430796,50
4431420,54
4432052,30
4432672,61
4433300,89
4433932,95
4434552,81
4435180,55
4435808,29
4436436,26
4437068,42
4437688,38
4438320,38
4438944,69
4439568,95
4440200,88
4440816,76
4441448,56
4442072,43
4442696,33
4443324,30
4443944,35
4444576,34
4445204,14
4445824,39
4446452,85
4447080,78
4447708,67
4448340,56
4448960,57
4449588,70
4450216,77
4450840,65
4451468,21
4452088,11
4452716,12
4453344,25
4453968,29
4454600,46
4455216,44
4455844,47
4456476,50
4457096,21
4457724,22
4458348,26
4458980,36
4459612,28
4460232,11
4460864,34
4461488,30
4462112,17
4462740,38
4463360,39
4463992,48
4464616,59
4465240,74
4465872,46
4466488,12
4467116,18
4467748,13
4468368,13
4469000,11
4469624,25
4470252,23
4470884,27
4471504,39
4472136,48
4472760,49
4473384,47
4474016,40
4474632,52
4475264,46
4475892,15
4476516,10
4477148,15
4477772,63
4478404,77
4479036,66
4479656,43
4480292,66
4480916,73
4481540,82
4482172,126
4482844,140
4483520,110
4484200,90
4484824,72
4485452,76
4486076,36
4486700,32
4487332,52
4487952,69
4488580,129
4489264,123
4489932,70
4490556,29
4491180,16
4491808,16
4492436,18
4493056,24
4493684,11
4494308,18
4494936,13
4495564,14
4496184,43
4496812,44
4497444,46
4498064,48
4498692,49
4499320,33
4499948,44
4500580,38
4501200,50
4501832,36
4502456,12
4503080,24
4503712,25
4504328,44
4504960,57
4505584,49
4506208,59
4506840,62
4507464,15
4508092,26
4508720,24
4509344,21
4509972,17
4510596,65
4511228,116
4511912,90
4512528,37
4513156,84
4513780,105
4514456,85
4515080,74
4515704,44
4516332,19
4516964,22
4517584,17
4518212,42
4518840,27
4519460,33
4520092,31
4520712,17
4521340,47
4521964,45
4522588,67
4523220,76
4523844,57
4524472,26
4525104,10
4525720,11
4526352,11
4526976,13
4527604,13
4528236,12
4528856,22
4529484,57
4530108,74
4530732,79
4531364,74
4531984,70
4532612,55
4533236,52
4533864,12
4534492,72
4535116,117
4535800,90
4536424,78
4537040,50
4537672,41
4538296,47
4538920,45
4539548,48
4540168,52
4540796,27
4541424,25
4542048,22
4542680,15
4543304,16
4543936,26
4544568,58
4545184,36
4545816,20
4546440,51
4547068,50
4547700,50
4548320,51
4548948,34
4549572,59
4550200,79
4550832,67
4551448,21
4552080,27
4552700,22
4553328,11
4553960,20
4554584,39
4555212,47
4555844,54
4556464,57
4557096,40
4557720,19
4558344,32
4558976,30
4559592,19
4560224,15
4560848,24
4561468,39
4562100,114
4562772,66
4563400,48
4564028,51
4564648,69
4565276,69
4565904,45
4566532,55
4567164,66
4567784,78
4568416,94
4569036,99
4569664,77
4570292,32
4570912,45
4571540,42
4572172,48
4572792,92
4573424,135
4574100,134
4574776,105
4575452,35
4576072,34
4576700,36
4577332,27
4577952,15
4578584,47
4579208,57
4579836,43
4580468,46
4581088,47
4581720,45
4582344,12
4582968,16
4583600,35
4584220,42
4584848,43
4585480,24
4586100,15
4586732,25
4587356,16
4587988,39
4588620,47
4589240,49
4589868,55
4590492,21
4591116,10
4591748,18
4592368,58
4592996,39
4593624,13
4594244,13
4594876,34
4595496,33
4596124,45
4596756,44
4597376,58
4598008,90
4598632,38
4599260,12
4599892,51
4600512,56
4601140,15
4601768,25
4602392,19
4603020,27
4603640,19
4604272,39
4604896,43
4605520,46
4606152,47
4606768,47
4607400,13
4608032,10
4608648,11
4609276,10
4609896,15
4610528,20
4611156,22
4611776,29
4612404,44
4613028,52
4613652,49
4614280,47
4614904,63
4615532,82
4616156,65
4616780,65
4617412,72
4618032,46
4618660,17
4619292,18
4619912,20
4620540,33
4621168,54
4621796,47
4622424,48
4623048,48
4623676,26
4624300,48
4624924,71
4625556,80
4626176,103
4626856,83
4627488,52
4628104,29
4628732,24
4629356,41
4629988,48
4630620,48
4631240,62
4631868,78
4632496,106
4633168,142
4633852,115
4634524,30
4635144,25
4635776,23
4636392,36
4637024,23
4637648,46
4638272,57
4638900,56
4639520,89
4640148,109
4640832,63
4641448,16
4642076,67
4642700,95
4643328,72
4643960,54
4644576,64
4645208,87
4645832,93
4646456,69
4647084,64
4647704,50
4648332,57
4648956,83
4649584,99
4650212,133
4650888,116
4651568,69
4652196,28
4652816,12
4653444,10
4654068,18
4654692,41
4655324,51
4655948,69
4656580,105
4657264,92
4657880,37
4658512,15
4659136,22
4659760,11
4660388,16
4661008,52
4661636,77
4662264,69
4662888,41
4663516,59
4664140,74
4664772,95
4665404,115
4666076,118
4666756,121
4667436,84
4668056,24
4668688,11
4669312,41
4669944,77
4670572,107
4671244,69
4671872,53
4672496,57
4673120,53
4673748,33
4674372,15
4675004,33
4675632,17
4676252,11
4676880,13
4677504,15
4678136,26
4678768,23
4679384,62
4680016,91
4680636,92
4681260,75
4681892,64
4682512,63
4683144,35
4683768,29
4684392,27
4685024,24
4685648,18
4686276,44
4686908,127
4687580,147
4688260,84
4688880,57
4689504,47
4690136,44
4690760,47
4691388,45
4692020,16
4692640,36
4693268,55
4693896,38
4694524,21
4695156,26
4695776,37
4696408,44
4697032,50
4697656,57
4698284,50
4698904,13
4699536,33
4700164,80
4700784,102
4701468,79
4702088,63
4702720,21
4703348,10
4703968,35
4704604,61
4705228,47
4705852,47
4706484,50
4707104,31
4707736,35
4708368,36
4708988,35
4709620,30
4710244,25
4710876,24
4711508,24
4712128,25
4712756,82
4713384,99
4714008,129
4714688,140
4715356,138
4716036,100
4716716,73
4717336,15
4717968,78
4718600,136
4719268,185
4719948,182
4720620,114
4721292,52
4721916,47
4722544,51
4723172,60
4723804,26
4724424,31
4725056,55
4725680,61
4726304,41
4726936,16
4727552,65
4728184,73
4728808,67
4729432,42
4730064,64
4730684,83
4731312,81
4731944,51
4732564,20
4733196,29
4733820,51
4734452,43
4735084,12
4735704,28
4736336,36
4736960,23
4737584,41
4738216,47
4738832,49
4739460,48
4740088,47
4740712,30
4741344,23
4741968,38
4742596,67
4743228,90
4743848,81
4744476,47
4745104,16
4745732,30
4746364,102
4747036,94
4747664,80
4748292,53
4748912,16
4749544,19
4750168,22
4750800,47
4751428,51
4752048,52
4752676,26
4753300,12
4753928,27
4754556,43
4755176,48
4755808,69
4756432,72
4757056,40
4757688,17
4758304,56
4758936,59
4759568,34
4760188,31
4760816,72
4761444,43
4762072,33
4762704,47
4763320,81
4763952,103
4764628,102
4765300,76
4765928,51
4766552,42
4767180,47
4767812,13
4768432,48
4769064,85
4769688,84
4770312,45
4770944,39
4771560,46
4772192,46
4772816,47
4773440,45
4774072,13
4774688,14
4775320,12
4775952,21
4776568,73
4777200,118
4777876,100
4778552,51
4779176,37
4779796,63
4780428,81
4781052,78
4781680,74
4782312,76
4782936,63
4783568,48
4784200,25
4784816,35
4785448,63
4786072,73
4786696,77
4787328,77
4787948,59
4788580,57
4789204,55
4789828,47
4790460,36
4791080,113
4791764,221
4792444,187
4793116,128
4793796,111
4794476,89
4795096,67
4795728,60
4796352,47
4796980,68
4797608,80
4798232,79
4798864,93
4799496,101
4800168,107
4800840,90
4801464,55
4802088,35
4802716,28
4803336,34
4803964,52
4804588,56
4805212,53
4805844,47
4806468,85
4807096,110
4807780,70
4808400,27
4809028,11
4809652,26
4810276,42
4810908,83
4811528,94
4812160,67
4812784,40
4813408,58
4814036,79
4814660,104
4815344,88
4815968,70
4816588,85
4817216,66
4817840,22
4818464,25
4819092,54
4819712,47
4820340,14
4820964,51
4821592,47
4822220,45
4822840,48
4823472,37
4824100,18
4824720,32
4825348,15
4825976,47
4826604,33
4827236,14
4827856,25
4828488,28
4829112,36
4829736,53
4830368,46
4830984,45
4831616,46
4832240,67
4832864,95
4833496,65
4834120,44
4834748,15
4835380,24
4836000,63
4836628,81
4837252,40
4837884,42
4838516,50
4839136,49
4839764,48
4840388,22
4841012,13
4841644,18
4842264,23
4842892,36
4843516,66
4844144,95
4844776,81
4845400,47
4846032,64
4846660,96
4847280,89
4847912,92
4848536,89
4849160,87
4849788,86
4850408,66
4851040,14
4851664,88
4852288,162
4852968,167
4853644,70
4854272,44
4854900,55
4855520,52
4856152,49
4856776,40
4857400,31
4858032,43
4858648,18
4859280,11
4859912,13
4860528,30
4861160,65
4861784,96
4862416,60
4863044,48
4863664,55
4864296,57
4864920,52
4865544,37
4866172,60
4866792,76
4867424,70
4868048,50
4868668,53
4869300,38
4869920,18
4870548,50
4871180,60
4871800,48
4872432,48
4873056,61
4873684,75
4874316,89
4874936,102
4875616,107
4876296,113
4876972,109
4877648,73
4878272,51
4878896,22
4879528,57
4880144,77
4880772,98
4881396,134
4882076,166
4882752,158
4883428,149
4884100,114
4884780,40
4885400,13
4886024,59
4886656,90
4887272,138
4887956,151
4888636,109
4889308,53
4889936,53
4890560,67
4891184,60
4891812,42
4892432,44
4893064,38
4893688,35
4894312,30
4894944,37
4895568,35
4896200,47
4896828,46
4897448,49
4898076,51
4898704,31
4899332,15
4899964,80
4900584,96
4901216,65
4901840,37
4902464,25
4903092,85
4903712,71
4904344,40
4904972,44
4905592,47
4906224,48
4906848,27
4907480,36
4908112,66
4908732,76
4909364,75
4909988,79
4910616,83
4911244,52
4911864,26
4912496,50
4913124,68
4913748,72
4914380,81
4915000,80
4915636,84
4916264,74
4916880,71
4917512,97
4918136,57
4918764,15
4919392,28
4920016,13
4920644,37
4921268,48
4921892,45
4922520,50
4923144,46
4923772,75
4924396,111
4925076,80
4925704,50
4926324,69
4926956,75
4927588,66
4928208,48
4928836,25
4929460,60
4930084,88
4930712,82
4931328,67
4931960,78
4932584,93
4933208,95
4933836,79
4934456,58
4935084,59
4935716,42
4936336,22
4936964,22
4937588,47
4938220,50
4938848,95
4939472,106
4940152,78
4940776,84
4941400,81
4942028,43
4942648,13
4943276,12
4943908,14
4944528,32
4945156,43
4945784,43
4946412,75
4947044,89
4947664,96
4948292,117
4948968,124
4949644,109
4950324,91
4950944,70
4951568,35
4952200,29
4952816,75
4953448,76
4954072,71
4954696,96
4955328,139
4955996,160
4956676,152
4957356,77
4957976,18
4958608,97
4959236,146
4959908,110
4960588,38
4961208,34
4961832,17
4962460,42
4963080,44
4963708,54
4964336,64
4964960,48
4965588,28
4966212,41
4966844,36
4967476,33
4968096,27
4968724,16
4969348,30
4969980,33
4970608,18
4971228,44
4971856,47
4972480,46
4973104,46
4973732,14
4974352,14
4974984,19
4975608,22
4976232,39
4976864,61
4977484,67
4978116,62
4978744,60
4979368,41
4979996,60
4980624,88
4981252,93
4981884,83
4982504,57
4983132,47
4983760,60
4984384,53
4985016,36
4985632,27
4986260,30
4986892,62
4987512,54
4988144,54
4988768,51
4989400,46
4990032,41
4990648,16
4991280,23
4991904,11
4992528,27
4993160,34
4993776,23
4994408,26
4995032,45
4995656,55
4996288,51
4996904,47
4997536,49
4998164,59
4998784,67
4999412,87
5000036,86
5000668,65
5001296,28
5001920,17
5002548,12
5003172,22
5003800,22
5004428,39
5005048,51
5005676,60
5006304,60
5006928,44
5007556,61
5008176,46
5008804,14
5009436,15
5010056,15
5010688,15
5011312,37
5011940,36
5012572,73
5013192,91
5013824,101
5014500,95
5015120,66
5015752,23
5016368,22
5017000,12
5017632,16
5018248,11
5018876,12
5019500,31
5020132,32
5020764,40
5021384,48
5022016,46
5022640,54
5023264,83
5023896,89
5024512,64
5025144,47
5025768,34
5026392,39
5027024,37
5027644,42
5028272,40
5028904,29
5029520,43
5030152,45
5030776,52
5031408,47
5032036,33
5032656,79
5033288,130
5033964,142
5034636,71
5035264,19
5035888,10
5036520,11
5037152,15
5037768,41
5038400,44
5039024,52
5039652,52
5040284,22
5040904,16
5041532,17
5042160,11
5042784,29
5043416,47
5044040,57
5044668,63
5045300,66
5045920,40
5046548,75
5047176,99
5047808,87
5048440,96
5049056,115
5049740,143
5050420,129
5051092,51
5051720,17
5052344,113
5053020,162
5053700,53
5054320,43
5054952,46
5055584,51
5056204,52
5056832,46
5057460,27
5058084,20
5058712,14
5059336,15
5059968,55
5060592,106
5061268,117
5061948,86
5062568,46
5063192,47
5063824,52
5064444,52
5065072,66
5065696,65
5066320,64
5066952,91
5067572,68
5068200,64
5068832,52
5069456,13
5070084,29
5070712,37
5071344,48
5071976,48
5072596,46
5073224,47
5073852,11
5074476,15
5075108,14
5075728,21
5076360,12
5076988,19
5077612,13
5078244,22
5078872,16
5079504,61
5080132,60
5080752,51
5081384,48
5082008,19
5082632,19
5083264,46
5083880,52
5084512,24
5085136,33
5085760,86
5086392,86
5087012,38
5087640,42
5088272,47
5088896,49
5089528,51
5090152,33
5090784,28
5091412,30
5092032,24
5092664,13
5093288,24
5093912,42
5094544,51
5095164,57
5095792,44
5096420,48
5097044,62
5097676,71
5098296,63
5098928,37
5099560,25
5100176,39
5100808,44
5101432,23
5102064,15
5102696,38
5103316,22
5103948,31
5104572,46
5105200,52
5105832,54
5106452,58
5107084,33
5107708,48
5108336,53
5108968,42
5109596,13
5110228,36
5110860,132
5111532,226
5112212,187
5112892,64
5113512,47
5114148,68
5114772,78
5115400,71
5116032,54
5116660,31
5117292,11
5117916,27
5118544,35
5119176,41
5119796,23
5120432,25
5121060,60
5121680,55
5122308,51
5122928,59
5123556,33
5124188,16
5124808,35
5125436,27
5126056,12
5126680,29
5127308,33
5127928,15
5128556,14
5129180,50
5129804,49
5130432,44
5131048,57
5131676,67
5132308,38
5132928,12
5133556,57
5134180,52
5134808,20
5135440,10
5136056,13
5136684,29
5137308,33
5137932,46
5138560,44
5139176,53
5139808,52
5140432,24
5141056,14
5141684,19
5142304,17
5142932,11
5143564,18
5144184,14
5144812,60
5145436,68
5146068,45
5146696,76
5147316,76
5147944,70
5148568,74
5149192,69
5149820,51
5150440,68
5151068,49
5151696,42
5152320,48
5152948,28
5153568,21
5154196,43
5154828,44
5155448,50
5156076,85
5156700,121
5157384,105
5158060,67
5158680,35
5159308,30
5159932,44
5160560,73
5161192,44
5161812,15
5162444,48
5163072,48
5163692,70
5164320,74
5164944,48
5165572,55
5166204,78
5166824,77
5167452,66
5168076,37
5168700,24
5169332,15
5169952,21
5170580,27
5171212,48
5171832,47
5172460,47
5173084,48
5173716,53
5174344,86
5174968,87
5175596,86
5176224,85
5176848,50
5177476,18
5178096,30
5178724,66
5179352,98
5179976,88
5180608,83
5181224,74
5181856,46
5182484,26
5183104,31
5183736,46
5184360,33
5184988,38
5185616,25
5186240,12
5186868,13
5187492,43
5188116,47
5188748,46
5189368,53
5189996,64
5190624,92
5191248,63
5191876,48
5192496,32
5193124,33
5193756,16
5194376,15
5195008,33
5195632,48
5196260,47
5196892,47
5197512,46
5198140,59
5198768,76
5199392,89
5200020,86
5200640,71
5201268,51
5201892,33
5202516,17
5203148,28
5203768,17
5204396,41
5205028,46
5205648,46
5206276,47
5206904,16
5207532,10
5208164,19
5208784,35
5209416,38
5210040,29
5210664,43
5211292,24
5211912,29
5212544,47
5213168,47
5213792,52
5214424,71
5215048,99
5215676,85
5216308,107
5216980,135
5217656,99
5218280,54
5218904,22
5219536,22
5220152,65
5220784,111
5221464,159
5222140,140
5222820,93
5223444,58
5224064,24
5224692,13
5225316,18
5225948,19
5226576,19
5227200,14
5227828,25
5228456,29
5229080,42
5229708,50
5230328,58
5230960,57
5231584,45
5232208,14
5232836,47
5233456,76
5234088,91
5234716,89
5235336,73
5235968,23
5236592,17
5237220,39
5237852,46
5238472,57
5239104,57
5239728,55
5240352,57
5240984,63
5241600,53
5242228,27
5242856,23
5243480,37
5244108,47
5244728,36
5245356,21
5245988,50
5246608,46
5247236,50
5247860,49
5248492,28
5249120,30
5249736,54
5250364,57
5250988,40
5251608,25
5252240,24
5252856,16
5253484,67
5254108,107
5254784,93
5255404,56
5256028,50
5256656,32
5257284,19
5257904,53
5258532,125
5259208,155
5259876,102
5260552,56
5261176,53
5261804,59
5262436,43
5263056,49
5263684,71
5264308,71
5264932,60
5265560,70
5266184,96
5266812,86
5267436,36
5268060,13
5268688,13
5269304,22
5269936,19
5270564,31
5271184,48
5271812,50
5272440,53
5273068,51
5273700,12
5274320,11
5274948,21
5275572,51
5276196,79
5276824,70
5277440,71
5278072,59
5278696,41
5279320,41
5279948,45
5280568,53
5281196,62
5281828,66
5282448,72
5283076,78
5283700,56
5284328,13
5284960,12
5285576,31
5286204,41
5286828,29
5287452,43
5288080,47
5288696,45
5289324,48
5289948,44
5290572,39
5291200,26
5291824,16
5292452,11
5293084,10
5293704,15
5294332,13
5294956,13
5295588,34
5296216,52
5296840,53
5297468,52
5298092,50
5298716,54
5299348,68
5299968,71
5300596,62
5301220,36
5301844,36
5302472,28
5303096,31
5303724,57
5304356,49
5304976,49
5305604,51
5306228,53
5306856,43
5307488,21
5308104,12
5308736,24
5309360,26
5309984,26
5310612,16
5311232,56
5311864,62
5312488,44
5313112,54
5313740,59
5314360,65
5314992,39
5315620,20
5316240,46
5316868,17
5317492,18
5318124,10
5318756,20
5319376,24
5320004,53
5320628,102
5321304,116
5321984,76
5322608,53
5323236,43
5323868,19
5324488,60
5325120,79
5325740,103
5326416,165
5327088,188
5327756,118
5328432,52
5329060,41
5329680,47
5330308,58
5330932,73
5331556,79
5332184,70
5332808,54
5333436,63
5334064,55
5334688,45
5335316,46
5335940,13
5336572,21
5337200,30
5337824,47
5338452,46
5339076,47
5339700,47
5340328,26
5340952,18
5341580,17
5342204,14
5342832,24
5343460,50
5344088,95
5344716,102
5345396,45
5346016,56
5346644,73
5347268,71
5347892,53
5348520,41
5349136,44
5349768,61
5350392,83
5351016,47
5351644,20
5352268,14
5352900,26
5353532,16
5354152,58
5354784,56
5355408,57
5356036,51
5356668,28
5357288,10
5357916,17
5358544,47
5359168,56
5359796,54
5360416,55
5361044,41
5361676,30
5362296,40
5362924,50
5363552,52
5364180,46
5364812,43
5365432,48
5366064,69
5366688,67
5367308,45
5367940,32
5368560,47
5369188,32
5369812,12
5370436,18
5371068,50
5371688,50
5372316,46
5372948,56
5373568,77
5374200,95
5374824,109
5375504,66
5376128,30
5376752,21
5377380,38
5378004,27
5378624,29
5379252,108
5379924,134
5380600,119
5381280,92
5381904,69
5382532,56
5383156,69
5383780,66
5384408,12
5385032,44
5385664,56
5386292,48
5386912,52
5387540,57
5388164,67
5388792,98
5389424,86
5390040,63
5390672,27
5391296,19
5391920,13
5392552,21
5393168,42
5393796,29
5394420,15
5395044,20
5395676,43
5396300,67
5396932,87
5397560,70
5398184,53
5398816,32
5399440,40
5400068,28
5400700,12
5401320,11
5401952,12
5402576,12
5403196,12
5403828,34
5404448,57
5405076,55
5405708,50
5406328,47
5406960,37
5407580,31
5408212,28
5408840,30
5409464,53
5410092,61
5410716,50
5411340,28
5411968,34
5412588,89
5413216,130
5413896,110
5414572,60
5415196,32
5415820,19
5416452,28
5417080,52
5417704,13
5418332,39
5418956,106
5419632,109
5420308,36
5420928,41
5421556,45
5422188,48
5422808,51
5423436,21
5424060,15
5424684,11
5425316,10
5425936,12
5426564,19
5427192,41
5427816,53
5428444,44
5429068,46
5429700,57
5430328,62
5430952,62
5431584,53
5432208,52
5432836,81
5433468,99
5434088,74
5434716,33
5435344,11
5435968,26
5436596,17
5437216,38
5437848,43
5438476,46
5439096,44
5439728,45
5440352,22
5440980,13
5441608,14
5442224,15
5442856,11
5443480,37
5444104,113
5444784,135
5445452,81
5446076,45
5446708,48
5447328,52
5447956,47
5448580,58
5449212,123
5449892,156
5450564,128
5451240,73
5451864,27
5452480,48
5453112,129
5453788,140
5454460,96
5455084,59
5455708,59
5456340,54
5456968,36
5457584,11
5458216,18
5458840,14
5459464,14
5460092,18
5460712,32
5461340,51
5461964,29
5462588,54
5463220,80
5463840,83
5464468,60
5465100,52
5465720,66
5466348,71
5466972,72
5467604,59
5468232,47
5468856,12
5469484,52
5470108,50
5470732,45
5471364,46
5471984,50
5472616,49
5473240,38
5473864,39
5474492,22
5475112,12
5475744,12
5476372,34
5476992,57
5477624,64
5478248,57
5478880,46
5479508,50
5480128,63
5480756,70
5481380,81
5482004,81
5482636,76
5483256,65
5483884,49
5484508,45
5485132,44
5485764,34
5486384,22
5487016,20
5487644,38
5488264,51
5488896,57
5489516,88
5490148,73
5490776,26
5491400,27
5492028,56
5492652,64
5493276,38
5493908,22
5494528,75
5495156,106
5495840,63
5496456,61
5497084,53
5497712,53
5498340,33
5498972,64
5499592,97
5500224,96
5500848,62
5501472,32
5502100,22
5502720,18
5503352,31
5503976,41
5504600,45
5505232,44
5505848,49
5506480,57
5507108,73
5507728,49
5508360,17
5508984,17
5509612,11
5510244,18
5510864,22
5511492,18
5512120,25
5512744,53
5513372,53
5513992,47
5514624,47
5515248,29
5515872,50
5516504,65
5517128,45
5517756,11
5518388,20
5519008,31
5519640,31
5520264,17
5520892,39
5521524,46
5522144,45
5522772,49
5523400,28
5524024,27
5524652,22
5525272,13
5525904,12
5526532,19
5527152,39
5527784,47
5528408,46
5529040,42
5529668,54
5530288,69
5530916,70
5531540,69
5532168,87
5532796,92
5533416,70
5534048,28
5534672,13
5535296,13
5535928,14
5536544,24
5537176,35
5537804,46
5538424,47
5539052,49
5539680,49
5540308,13
5540940,12
5541560,12
5542192,13
5542816,25
5543440,33
5544068,55
5544688,54
5545320,54
5545944,39
5546568,49
5547196,54
5547816,49
5548448,34
5549080,41
5549696,36
5550328,32
5550952,15
5551584,12
5552216,12
5552832,22
5553460,17
5554088,41
5554712,51
5555344,54
5555960,58
5556592,60
5557216,77
5557840,32
5558472,21
5559088,44
5559720,35
5560348,15
5560968,37
5561596,75
5562224,57
5562856,55
5563488,65
5564104,60
5564736,87
5565360,119
5566040,118
5566716,79
5567336,45
5567968,40
5568600,34
5569224,11
5569856,11
5570480,43
5571104,54
5571736,48
5572352,47
5572980,57
5573608,56
5574232,31
5574860,14
5575480,17
5576112,63
5576740,98
5577360,98
5577992,77
5578616,34
5579244,44
5579876,70
5580496,74
5581128,67
5581752,72
5582376,71
5583008,48
5583624,34
5584256,19
5584876,20
5585500,11
5586132,59
5586756,65
5587388,47
5588020,47
5588640,51
5589268,53
5589896,46
5590524,47
5591156,30
5591776,12
5592408,24
5593032,29
5593656,41
5594284,46
5594904,35
5595536,43
5596164,46
5596784,45
5597416,53
5598040,48
5598672,36
5599304,95
5599924,131
5600604,118
5601276,53
5601904,11
5602532,38
5603156,37
5603788,37
5604420,49
5605040,56
5605668,49
5606296,47
5606920,13
5607548,13
5608168,14
5608796,43
5609420,19
5610048,33
5610676,54
5611296,57
5611928,32
5612556,46
5613176,44
5613804,47
5614428,47
5615060,18
5615692,34
5616312,84
5616944,112
5617620,80
5618240,72
5618872,62
5619488,27
5620120,14
5620748,46
5621368,48
5622000,56
5622624,73
5623252,95
5623884,101
5624556,78
5625184,43
5625808,23
5626432,22
5627064,39
5627680,34
5628312,16
5628940,51
5629560,85
5630192,92
5630816,85
5631448,75
5632080,73
5632696,65
5633324,46
5633948,41
5634568,19
5635200,25
5635816,101
5636496,134
5637176,83
5637800,41
5638428,48
5639052,49
5639680,47
5640312,33
5640928,44
5641560,37
5642184,14
5642808,10
5643436,14
5644056,23
5644684,23
5645308,18
5645936,71
5646564,78
5647188,82
5647820,75
5648452,53
5649072,49
5649700,71
5650324,79
5650952,17
5651580,31
5652200,53
5652832,53
5653452,45
5654076,49
5654708,48
5655328,52
5655956,49
5656588,50
5657208,58
5657840,48
5658460,21
5659092,12
5659720,19
5660340,27
5660968,23
5661592,33
5662216,44
5662848,43
5663464,47
5664092,51
5664716,48
5665340,40
5665972,56
5666592,40
5667220,28
5667852,40
5668472,69
5669104,48
5669728,23
5670356,22
5670988,46
5671608,73
5672240,75
5672864,61
5673488,64
5674116,49
5674736,30
5675368,16
5675992,25
5676616,21
5677248,21
5677864,47
5678496,43
5679124,42
5679744,47
5680376,51
5681000,60
5681628,53
5682260,52
5682880,45
5683508,15
5684132,30
5684756,51
5685388,19
5686008,11
5686636,16
5687260,45
5687884,42
5688516,46
5689136,47
5689764,40
5690396,20
5691016,33
5691648,36
5692272,18
5692904,27
5693532,54
5694152,59
5694784,65
5695408,52
5696032,47
5696660,58
5697280,63
5697908,55
5698532,45
5699156,33
5699788,36
5700408,46
5701036,14
5701668,14
5702288,61
5702920,59
5703544,27
5704176,39
5704804,46
5705424,51
5706056,50
5706680,19
5707304,15
5707936,26
5708552,44
5709184,35
5709812,14
5710436,53
5711064,48
5711692,17
5712320,44
5712952,47
5713572,60
5714204,53
5714828,47
5715460,60
5716092,63
5716712,38
5717344,24
5717968,25
5718592,13
5719224,33
5719840,41
5720472,47
5721104,46
5721724,45
5722352,59
5722976,62
5723608,19
5724236,16
5724856,25
5725484,35
5726112,13
5726736,51
5727368,71
5727988,67
5728620,39
5729244,40
5729868,45
5730500,47
5731120,47
5731752,30
5732388,42
5733008,53
5733640,68
5734268,51
5734900,46
5735528,26
5736152,17
5736780,25
5737404,39
5738028,48
5738660,51
5739280,48
5739908,35
5740536,32
5741160,17
5741788,34
5742412,50
5743044,26
5743672,15
5744296,43
5744924,56
5745548,45
5746180,50
5746812,44
5747432,59
5748060,70
5748688,54
5749308,13
5749940,38
5750560,51
5751188,45
5751820,46
5752440,28
5753068,22
5753696,36
5754324,53
5754956,58
5755576,58
5756208,49
5756832,13
5757456,28
5758084,53
5758704,52
5759336,35
5759960,13
5760584,56
5761216,80
5761832,116
5762512,105
5763188,152
5763860,180
5764536,115
5765212,21
5765832,119
5766512,190
5767188,172
5767860,83
5768484,33
5769108,16
5769736,11
5770364,38
5770984,43
5771612,47
5772236,47
5772860,49
5773492,24
5774112,25
5774740,17
5775372,12
5775992,18
5776620,12
5777244,13
5777876,13
5778508,16
5779128,49
5779756,52
5780384,47
5781008,45
5781636,16
5782256,35
5782888,53
5783512,67
5784136,45
5784764,27
5785384,16
5786016,13
5786644,16
5787264,54
5787892,48
5788516,45
5789148,59
5789776,66
5790396,71
5791028,46
5791652,19
5792276,12
5792904,32
5793528,42
5794156,53
5794784,55
5795408,54
5796036,42
5796656,49
5797284,51
5797916,48
5798536,37
5799164,51
5799788,69
5800420,78
5801048,50
5801672,51
5802300,31
5802924,18
5803548,15
5804180,46
5804800,55
5805428,46
5806052,46
5806680,16
5807308,10
5807928,11
5808560,28
5809188,48
5809808,70
5810440,79
5811064,90
5811696,79
5812324,40
5812944,72
5813576,107
5814252,95
5814872,75
5815504,53
5816120,40
5816752,42
5817380,29
5818000,19
5818628,23
5819252,11
5819884,21
5820512,40
5821136,44
5821768,46
5822392,46
5823016,44
5823648,39
5824264,38
5824896,25
5825520,26
5826144,43
5826772,50
5827396,33
5828028,29
5828656,34
5829276,45
5829908,45
5830532,47
5831160,46
5831792,29
5832412,69
5833040,105
5833720,105
5834388,68
5835016,18
5835640,43
5836272,28
5836904,23
5837520,62
5838148,62
5838772,58
5839396,47
5840028,26
5840648,54
5841276,62
5841900,36
5842524,21
5843156,24
5843780,23
5844412,15
5845040,14
5845664,46
5846296,54
5846920,53
5847552,48
5848180,28
5848800,47
5849428,39
5850056,11
5850680,27
5851308,30
5851928,30
5852560,35
5853188,31
5853808,38
5854440,40
5855064,45
5855692,47
5856324,47
5856944,57
5857576,45
5858200,15
5858824,19
5859452,17
5860072,15
5860700,13
5861328,14
5861952,43
5862584,113
5863252,113
5863928,84
5864560,54
5865176,12
5865808,18
5866432,12
5867056,11
5867688,58
5868304,77
5868936,55
5869560,31
5870184,19
5870816,45
5871440,44
5872072,47
5872700,47
5873320,39
5873952,52
5874576,32
5875208,17
5875836,24
5876456,29
5877088,42
5877712,49
5878336,37
5878968,39
5879588,61
5880220,99
5880852,120
5881524,142
5882204,127
5882876,104
5883556,84
5884184,50
5884808,21
5885436,30
5886072,102
5886740,97
5887368,49
5887992,43
5888620,48
5889248,47
5889872,25
5890500,14
5891132,18
5891752,26
5892384,21
5893008,33
5893640,55
5894268,39
5894888,37
5895516,39
5896144,41
5896768,46
5897400,54
5898020,58
5898648,107
5899332,117
5900004,90
5900628,31
5901256,11
5901876,12
5902508,24
5903128,21
5903760,41
5904388,42
5905008,44
5905636,43
5906260,47
5906892,27
5907524,42
5908144,74
5908776,70
5909400,51
5910024,47
5910652,36
5911272,40
5911904,49
5912528,45
5913152,53
5913784,67
5914400,60
5915028,53
5915660,36
5916280,20
5916908,17
5917536,21
5918164,25
5918796,30
5919416,15
5920048,37
5920668,70
5921292,79
5921920,88
5922544,68
5923172,27
5923800,13
5924424,11
5925052,21
5925672,41
5926304,55
5926932,57
5927552,60
5928184,60
5928808,42
5929436,51
5930068,52
5930688,49
5931320,43
5931944,31
5932568,45
5933200,53
5933816,49
5934448,50
5935072,40
5935696,11
5936328,12
5936944,25
5937576,42
5938204,53
5938824,62
5939456,71
5940080,90
5940708,46
5941336,12
5941960,41
5942588,29
5943212,25
5943836,31
5944468,32
5945088,39
5945716,71
5946340,66
5946964,47
5947596,46
5948216,46
5948844,13
5949476,46
5950096,59
5950728,15
5951352,29
5951984,27
5952616,30
5953232,40
5953860,41
5954488,43
5955112,46
5955740,48
5956360,46
5956992,41
5957616,24
5958240,17
5958872,33
5959496,36
5960128,56
5960756,52
5961376,48
5962004,38
5962632,49
5963260,46
5963892,47
5964512,45
5965144,55
5965768,93
5966392,124
5967072,121
5967748,64
5968376,36
5969004,10
5969624,34
5970252,52
5970880,68
5971504,60
5972132,50
5972752,54
5973384,49
5974008,11
5974632,30
5975264,16
5975888,27
5976520,47
5977148,86
5977768,84
5978400,55
5979024,41
5979656,58
5980288,60
5980904,64
5981532,87
5982160,95
5982784,89
5983412,82
5984032,25
5984660,39
5985292,40
5985912,32
5986544,15
5987168,43
5987800,46
5988428,47
5989048,46
5989680,33
5990304,15
5990928,15
5991560,24
5992180,11
5992808,11
5993432,25
5994060,35
5994688,28
5995312,37
5995944,71
5996576,60
5997192,47
5997824,47
5998448,19
5999080,10
5999708,17
6000328,27
6000960,19
6001584,21
6002208,14
6002840,16
6003456,27
6004084,43
6004708,43
6005332,49
6005964,50
6006584,75
6007216,57
6007844,31
6008464,16
6009092,13
6009720,37
6010348,50
6010980,28
6011600,19
6012232,47
6012856,64
6013480,74
6014112,72
6014732,71
6015360,86
6015988,103
6016664,111
6017344,96
6017968,67
6018592,33
6019220,29
6019840,61
6020472,62
6021096,69
6021720,70
6022352,74
6022968,57
6023600,63
6024232,83
6024848,77
6025480,40
6026104,14
6026732,18
6027364,26
6027984,42
6028616,36
6029240,42
6029864,46
6030496,43
6031112,44
6031744,46
6032372,85
6032996,108
6033676,86
6034296,36
6034928,41
6035556,15
6036176,11
6036808,17
6037432,40
6038056,49
6038688,54
6039308,51
6039940,30
6040564,18
6041188,13
6041824,17
6042448,27
6043076,21
6043708,24
6044328,18
6044956,16
6045584,49
6046212,58
6046844,50
6047464,59
6048096,60
6048720,53
6049344,26
6049972,19
6050592,17
6051224,35
6051852,30
6052472,13
6053104,37
6053728,71
6054360,56
6054992,48
6055608,49
6056240,43
6056868,51
6057492,65
6058124,75
6058744,56
6059376,43
6060004,48
6060628,51
6061260,46
6061880,28
6062512,47
6063144,54
6063764,66
6064392,70
6065020,75
6065648,74
6066280,76
6066900,86
6067528,72
6068156,51
6068780,16
6069412,57
6070032,59
6070664,46
6071288,54
6071912,46
6072544,48
6073168,33
6073800,66
6074428,59
6075048,39
6075680,11
6076304,21
6076936,13
6077568,20
6078188,25
6078816,46
6079444,45
6080068,47
6080700,60
6081320,121
6082000,70
6082632,24
6083248,32
6083876,22
6084500,10
6085128,11
6085756,22
6086376,19
6087008,39
6087632,45
6088256,46
6088884,47
6089504,48
6090136,29
6090768,18
6091384,14
6092016,16
6092640,12
6093272,20
6093900,14
6094520,13
6095148,23
6095776,66
6096400,70
6097028,54
6097648,48
6098276,27
6098904,12
6099528,24
6100160,16
6100776,15
6101408,13
6102040,10
6102656,16
6103288,49
6103912,78
6104544,70
6105176,47
6105796,47
6106428,31
6107052,69
6107676,82
6108308,79
6108928,73
6109560,56
6110184,45
6110808,53
6111440,82
6112060,54
6112692,47
6113320,58
6113944,70
6114576,81
6115200,80
6115828,75
6116464,77
6117080,78
6117712,47
6118340,12
6118964,59
6119596,60
6120216,35
6120848,42
6121480,47
6122100,49
6122732,50
6123356,20
6123988,11
6124620,10
6125240,16
6125872,24
6126496,16
6127120,15
6127752,26
6128372,25
6129004,47
6129628,58
6130252,59
6130884,57
6131504,64
6132136,95
6132768,139
6133440,150
6134116,127
6134796,112
6135468,39
6136096,29
6136720,58
6137352,101
6138036,142
6138708,203
6139388,206
6140068,170
6140740,108
6141420,28
6142048,69
6142668,139
6143352,99
6143980,23
6144608,14
6145236,40
6145860,59
6146488,65
6147120,78
6147736,74
6148364,73
6148988,57
6149620,39
6150248,24
6150868,35
6151496,25
6152120,41
6152744,47
6153372,16
6153992,40
6154624,47
6155244,47
6155868,47
6156500,19
6157124,31
6157756,25
6158384,15
6159008,35
6159640,81
6160264,117
6160944,95
6161568,66
6162184,43
6162816,65
6163440,92
6164064,93
6164692,77
6165316,62
6165948,48
6166576,61
6167200,30
6167828,24
6168452,35
6169084,18
6169712,40
6170336,56
6170964,48
6171588,72
6172216,119
6172896,138
6173564,144
6174244,98
6174872,27
6175488,19
6176120,11
6176740,32
6177364,45
6177996,33
6178616,41
6179244,77
6179876,75
6180496,74
6181124,68
6181748,93
6182380,108
6183064,84
6183680,51
6184308,23
6184936,13
6185560,35
6186192,31
6186808,22
6187440,45
6188068,50
6188688,49
6189320,52
6189944,45
6190576,54
6191204,42
6191824,36
6192456,43
6193080,33
6193704,41
6194336,39
6194956,25
6195584,55
6196212,90
6196836,79
6197464,74
6198088,74
6198720,69
6199348,54
6199968,12
6200600,77
6201224,101
6201908,77
6202536,64
6203152,18
6203784,87
6204408,111
6205084,94
6205712,107
6206388,79
6207008,14
6207640,26
6208260,15
6208888,17
6209512,48
6210140,126
6210820,181
6211492,156
6212164,62
6212792,50
6213408,82
6214040,90
6214672,89
6215288,99
6215920,106
6216596,108
6217272,67
6217896,38
6218520,16
6219152,11
6219784,12
6220404,43
6221032,84
6221660,86
6222288,62
6222920,42
6223540,23
6224172,27
6224796,46
6225420,40
6226052,30
6226672,20
6227300,13
6227924,13
6228548,43
6229180,80
6229800,92
6230432,87
6231060,78
6231680,55
6232312,34
6232936,21
6233568,25
6234200,66
6234816,53
6235448,52
6236072,50
6236700,19
6237332,36
6237952,46
6238584,49
6239208,47
6239832,15
6240464,10
6241080,10
6241712,13
6242340,15
6242960,14
6243592,31
6244216,37
6244844,45
6245476,42
6246096,48
6246728,48
6247348,55
6247976,84
6248604,106
6249276,94
6249904,69
6250532,16
6251152,24
6251784,49
6252408,107
6253088,119
6253772,59
6254392,47
6255024,49
6255656,85
6256272,109
6256956,94
6257576,53
6258200,28
6258832,40
6259448,55
6260080,40
6260704,32
6261328,14
