tempo_arduino_micro_s,valor_ADC
500,39
1004,76
1500,103
2008,100
2508,81
3000,65
3500,66
4000,65
4500,71
5000,69
5500,84
6000,110
6508,96
7000,79
7500,62
8000,71
8500,63
9000,44
9500,26
10000,57
10516,60
11036,73
11564,77
12084,78
12612,78
13132,79
13660,100
14232,109
14808,86
15324,53
15844,39
16364,17
16884,17
17404,24
17932,37
18460,42
18980,53
19508,50
20028,55
20556,54
21076,13
21604,25
22124,14
22652,34
23172,46
23700,38
24220,80
24748,84
25268,35
25796,158
26368,120
26952,54
27468,53
27996,53
28516,52
29044,25
29564,51
30092,77
30612,76
31136,53
31652,38
32172,52
32692,16
33212,30
33732,17
34252,20
34772,44
35292,47
35812,53
36332,53
36852,54
37372,23
37900,21
38420,33
38948,38
39468,13
39996,38
40520,44
41044,19
41564,53
42092,98
42612,110
43192,63
43708,56
44236,92
44756,115
45336,79
45860,42
46388,41
46908,65
47436,73
47956,79
48484,75
49004,48
49532,13
50052,62
50580,42
51100,21
51624,43
52140,93
52660,112
53232,73
53756,61
54284,30
54804,12
55332,12
55852,17
56380,27
56900,29
57428,27
57948,15
58476,15
58996,41
59524,117
60100,171
60680,168
61252,119
61832,111
62408,33
62932,58
63452,101
64028,150
64608,161
65176,116
65752,67
66268,59
66796,33
67316,18
67844,34
68364,50
68892,53
69412,57
69940,55
70460,52
70988,12
71508,12
72036,14
72556,36
73084,54
73604,79
74132,104
74708,106
75284,74
75812,46
76336,48
76860,58
77380,65
77908,55
78432,53
78956,41
79480,48
80004,72
80524,101
81104,121
81676,94
82204,65
82724,36
83252,18
83772,36
84300,26
84820,43
85348,51
85868,49
86396,61
86920,58
87444,21
87964,35
88484,50
89004,59
89524,79
90048,74
90564,33
91084,61
91604,152
92184,143
92752,82
93284,45
93804,55
94332,65
94856,58
95380,55
95900,20
96428,29
96948,53
97476,22
97996,61
98524,19
99044,13
99572,17
100096,10
100664,26
101232,79
101816,71
102388,54
102964,54
103544,60
104112,68
104688,71
105256,50
105840,13
106408,39
106976,85
107552,88
108120,55
108704,31
109272,16
109856,53
110424,54
111008,58
111580,55
112156,48
112736,42
113304,15
113880,24
114448,45
115032,32
115604,33
116176,35
116760,15
117328,26
117912,64
118484,68
119064,59
119632,63
120216,55
120784,19
121360,43
121944,57
122512,65
123096,87
123664,89
124248,47
124816,23
125392,13
125968,21
126536,94
127120,116
127744,95
128320,85
128888,75
129464,25
130032,23
130600,25
131176,22
131744,23
132328,15
132896,22
133480,26
134048,14
134624,46
135208,78
135776,120
136412,108
137028,66
137604,23
138176,33
138748,53
139328,50
139896,33
140480,17
141048,26
141632,46
142200,106
142836,102
143464,67
144028,57
144608,53
145176,71
145760,93
146328,104
146956,102
147588,93
148152,79
148736,65
149308,56
149888,15
150456,27
151032,36
151616,53
152188,87
152768,63
153340,51
153920,51
154496,73
155080,109
155708,92
156276,29
156856,100
157476,139
158104,131
158736,210
159352,149
159980,48
160548,81
161128,74
161696,66
162272,66
162856,79
163428,65
164008,42
164576,40
165152,48
165720,66
166296,47
166864,29
167440,30
168016,57
168584,55
169160,52
169728,53
170304,53
170872,28
171456,46
172024,70
172600,77
173184,56
173752,32
174336,14
174904,24
175488,60
176056,38
176632,42
177208,55
177776,69
178360,77
178932,58
179512,39
180080,46
180664,34
181232,24
181808,71
182392,82
182964,44
183544,13
184116,29
184696,51
185264,50
185844,50
186424,54
186992,54
187576,24
188144,25
188728,31
189300,30
189880,34
190448,32
191024,17
191608,27
192180,37
192760,57
193328,106
193964,137
194592,110
195208,107
195832,85
196404,15
196984,57
197552,33
198132,11
198712,10
199284,19
199864,85
200436,133
201068,132
201688,73
202260,53
202840,72
203412,86
203992,59
204564,33
205144,15
205712,36
206288,37
206864,63
207432,55
208016,48
208584,69
209160,49
209728,53
210312,78
210880,63
211456,56
212040,52
212608,46
213192,80
213760,99
214344,76
214916,48
215496,27
216072,11
216640,13
217224,13
217792,52
218376,57
218948,49
219528,52
220096,52
220676,27
221256,33
221828,15
222408,11
222976,16
223560,31
224132,36
224712,29
225288,34
225856,33
226432,48
227000,51
227584,52
228156,57
228736,48
229308,40
229880,51
230464,56
231032,38
231616,11
232188,19
232768,18
233340,20
233920,12
234488,52
235068,66
235648,60
236216,58
236800,52
237368,22
237952,64
238524,63
239100,17
239680,38
240252,12
240832,65
241400,70
241984,61
242556,27
243136,61
243708,55
244284,49
244864,68
245432,44
246016,91
246584,147
247220,146
247848,82
248412,48
248992,76
249564,79
250144,50
250724,24
251304,143
251932,246
252552,225
253180,138
253800,81
254376,57
254948,24
255524,25
256104,55
256676,43
257256,37
257824,17
258408,13
258976,13
259544,51
260128,51
260696,50
261280,56
261848,60
262424,43
262992,49
263568,63
264140,78
264712,79
265296,83
265864,79
266448,32
267016,11
267592,24
268160,70
268744,75
269320,74
269888,58
270472,32
271040,11
271624,39
272196,83
272776,106
273396,111
274020,131
274648,143
275264,94
275840,41
276408,56
276988,69
277568,61
278140,52
278720,43
279288,21
279872,61
280444,72
281024,61
281596,32
282172,31
282752,25
283324,14
283904,21
284476,45
285056,48
285624,56
286200,56
286784,65
287352,47
287936,32
288508,11
289088,15
289656,22
290240,12
290808,17
291384,24
291968,29
292540,24
293120,45
293688,50
294272,56
294844,65
295416,51
296000,52
296568,63
297152,94
297724,88
298304,60
298876,40
299456,13
300028,30
300604,22
301184,46
301756,47
302336,51
302916,49
303496,53
304076,34
304652,20
305232,14
305804,27
306384,45
306956,13
307536,48
308112,67
308692,70
309272,27
309844,82
310424,104
311044,59
311624,53
312196,28
312776,25
313352,31
313924,43
314504,25
315076,11
315656,32
316236,120
316868,113
317496,25
318068,49
318648,55
319220,64
319800,78
320380,70
320960,59
321528,59
322104,15
322688,62
323256,54
323840,31
324408,67
324992,129
325612,148
326236,85
326812,49
327384,63
327960,70
328528,67
329112,65
329680,99
330256,125
330884,148
331500,143
332128,157
332752,119
333376,45
333948,16
334520,60
335096,62
335668,90
336248,127
336868,180
337492,235
338120,184
338736,81
339312,32
339880,15
340456,31
341040,38
341608,22
342192,14
342764,54
343344,70
343916,73
344496,56
345072,54
345652,43
346232,56
346804,59
347384,35
347956,11
348536,87
349112,140
349744,116
350372,59
350940,22
351520,43
352092,51
352672,53
353240,59
353820,50
354400,75
354972,84
355552,68
356124,51
356704,19
357276,17
357852,22
358432,27
359000,41
359576,53
360148,51
360728,64
361296,85
361880,58
362452,46
363024,35
363608,48
364176,65
364760,29
365332,14
365912,22
366484,39
367056,56
367640,93
368212,200
368844,148
369460,85
370036,61
370612,29
371188,12
371768,71
372340,103
372972,78
373540,28
374120,27
374692,47
375268,58
375848,56
376420,45
377000,57
377572,74
378152,70
378732,59
379312,46
379892,45
380468,51
381048,46
381620,14
382200,11
382772,22
383352,15
383924,17
384500,52
385080,60
385648,56
386232,56
386804,77
387384,88
387956,86
388536,79
389108,68
389684,53
390264,33
390836,26
391416,15
391988,28
392568,36
393140,55
393716,87
394296,82
394868,90
395448,108
396072,104
396700,124
397332,126
397952,97
398528,30
399100,22
399680,37
400260,27
400840,20
401416,46
401988,53
402568,75
403140,130
403772,126
404396,90
404968,74
405544,55
406116,26
406696,15
407268,16
407848,34
408420,59
409000,41
409572,47
410148,65
410728,58
411296,58
411880,58
412448,70
413032,97
413600,119
414228,111
414856,101
415476,83
416052,60
416624,44
417200,36
417768,51
418344,50
418928,53
419496,56
420080,49
420648,39
421224,16
421792,12
422368,16
422952,29
423520,35
424104,24
424672,14
425256,23
425824,31
426408,48
426976,53
427556,59
428136,77
428708,70
429288,58
429864,40
430448,43
431016,82
431596,85
432176,74
432744,24
433328,112
433952,95
434528,44
435100,51
435676,62
436256,56
436824,69
437408,122
438032,144
438660,124
439280,80
439852,49
440432,49
441000,82
441584,76
442156,67
442736,48
443308,51
443884,51
444464,51
445036,51
445616,25
446188,27
446768,66
447340,122
447972,134
448604,174
449220,229
449852,237
450472,207
451096,149
451724,64
452292,107
452924,161
453544,125
454168,229
454796,298
455416,212
456044,123
456664,81
457236,61
457816,31
458388,14
458968,15
459540,64
460120,76
460692,59
461268,56
461848,60
462416,58
463000,74
463572,68
464152,50
464720,31
465304,27
465872,42
466452,30
467032,19
467604,46
468184,54
468756,53
469336,50
469908,52
470484,43
471064,41
471636,26
472216,43
472788,54
473368,19
473940,16
474520,16
475092,31
475668,46
476248,61
476820,129
477452,153
478076,175
478704,160
479332,121
479952,98
480528,88
481104,35
481688,112
482316,93
482884,91
483464,98
484036,83
484616,68
485188,91
485768,116
486392,77
486964,58
487544,38
488116,27
488696,19
489268,11
489848,11
490420,14
490996,24
491576,21
492144,16
492728,71
493300,98
493880,83
494452,77
495032,74
495604,47
496180,17
496760,11
497328,19
497912,32
498484,30
499064,11
499636,47
500212,40
500792,21
501364,45
501944,50
502516,53
503096,55
503668,41
504248,30
504828,11
505404,39
505984,46
506556,39
507136,32
507716,22
508296,35
508876,35
509452,54
510032,61
510604,67
511184,54
511764,51
512348,28
512920,32
513488,30
514072,59
514640,41
515224,11
515792,30
516368,77
516940,89
517520,52
518088,47
518664,56
519248,64
519816,51
520400,24
520968,14
521552,40
522124,50
522704,38
523280,29
523848,25
524432,13
525004,63
525584,127
526208,96
526784,55
527356,55
527932,56
528512,51
529080,25
529664,73
530236,136
530868,165
531496,108
532120,59
532696,35
533264,18
533848,14
534416,58
534992,123
535628,98
536196,54
536776,54
537348,24
537928,41
538496,59
539080,23
539656,24
540228,54
540808,62
541376,41
541960,13
542532,34
543112,65
543692,85
544268,94
544848,101
545468,67
546044,65
546620,79
547200,36
547768,42
548348,35
548928,31
549500,48
550080,43
550652,18
551232,45
551804,50
552384,53
552968,53
553536,54
554120,34
554692,11
555272,11
555852,15
556432,11
557004,40
557580,74
558160,102
558784,87
559360,48
559940,49
560520,54
561100,79
561676,110
562308,144
562928,144
563556,128
564180,116
564800,75
565376,27
565948,33
566528,41
567100,19
567680,51
568252,51
568828,74
569408,75
569980,63
570560,46
571132,46
571712,31
572292,21
572872,48
573456,82
574024,93
574608,113
575232,147
575860,144
576484,67
577052,53
577632,70
578204,72
578784,97
579356,152
579988,196
580616,177
581240,125
581868,76
582436,18
583016,40
583588,13
584164,64
584744,88
585316,87
585896,93
586468,112
587100,73
587672,22
588244,20
588824,51
589392,91
589976,147
590600,204
591228,196
591852,160
592476,94
593052,45
593624,69
594200,63
594772,63
595352,59
595932,65
596508,70
597088,70
597660,60
598240,37
598820,14
599400,11
599980,12
600556,14
601136,44
601708,46
602288,56
602860,55
603440,50
604020,32
604600,66
605180,59
605756,42
606336,31
606912,28
607488,51
608068,84
608648,84
609220,47
609796,63
610376,59
610948,53
611528,63
612104,114
612732,159
613356,172
613980,136
614612,80
615176,43
615760,31
616332,35
616912,26
617488,115
618112,249
618740,172
619360,89
619936,56
620508,26
621084,18
621664,11
622236,38
622816,84
623396,65
623976,29
624556,21
625132,22
625712,38
626284,89
626864,81
627436,55
628016,81
628588,106
629220,31
629800,36
630372,33
630956,10
631528,11
632104,19
632684,67
633264,79
633844,52
634420,44
635000,48
635572,54
636152,52
636732,50
637312,14
637892,25
638468,36
639048,30
639624,21
640204,10
640772,22
641352,29
641920,41
642504,43
643080,46
643652,50
644232,56
644804,63
645384,68
645956,60
646536,76
647108,73
647684,48
648264,42
648832,48
649416,25
649988,19
650568,27
651136,43
651720,52
652304,54
652876,52
653456,48
654028,19
654608,16
655188,13
655768,30
656344,115
656972,155
657600,158
658216,114
658844,71
659412,47
659984,59
660568,63
661136,60
661720,61
662292,73
662872,112
663496,128
664116,99
664692,57
665264,66
665840,72
666408,56
666992,68
667560,97
668136,102
668772,74
669340,59
669920,57
670492,118
671124,106
671752,136
672368,189
672996,96
673564,32
674144,35
674716,56
675292,48
675872,50
676440,89
677024,98
677596,109
678228,125
678852,148
679472,105
680100,54
680664,53
681248,47
681816,40
682400,49
682968,209
683596,210
684228,74
684796,48
685376,54
685956,54
686536,51
687112,19
687684,30
688264,49
688832,58
689416,54
689988,40
690568,40
691140,48
691716,47
692296,18
692868,73
693448,93
694020,85
694600,72
695172,69
695752,82
696336,97
696908,100
697540,68
698108,44
698688,11
699260,11
699840,11
700412,18
700988,50
701568,50
702140,54
702720,53
703300,54
703880,86
704460,76
705036,33
705616,17
706184,11
706768,43
707340,44
707920,17
708492,30
709072,31
709648,46
710220,49
710800,65
711372,78
711952,47
712532,19
713112,83
713684,131
714312,113
714940,78
715508,68
716092,22
716668,14
717248,19
717832,44
718404,51
718984,53
719556,59
720136,68
720712,90
721296,81
721864,58
722444,57
723024,61
723596,43
724176,37
724748,30
725328,30
725900,61
726480,93
727064,91
727636,91
728216,173
728840,237
729468,253
730092,203
730712,70
731292,130
731916,199
732544,179
733168,111
733792,21
734368,64
734940,59
735520,54
736100,54
736680,53
737252,30
737828,11
738408,19
738976,37
739560,95
740132,88
740712,87
741284,43
741860,15
742440,43
743008,64
743592,82
744164,116
744796,127
745420,91
745992,22
746568,118
747192,100
747820,31
748392,16
748968,29
749544,11
750124,11
750704,35
751276,49
751856,50
752436,57
753016,94
753596,115
754224,92
754800,47
755372,12
755952,24
756524,10
757104,18
757684,18
758260,14
758840,56
759412,52
759992,52
760568,52
761144,54
761716,56
762296,65
762876,108
763504,108
764136,89
764700,35
765280,13
765860,27
766436,17
767016,43
767592,91
768172,91
768740,65
769320,55
769888,53
770472,28
771044,63
771620,97
772200,102
772824,69
773400,50
773972,64
774552,25
775132,46
775708,80
776288,108
776912,132
777540,122
778164,117
778788,117
779416,63
779980,32
780560,17
781140,102
781772,124
782400,27
782972,33
783552,21
784124,48
784704,85
785276,142
785908,158
786540,146
787160,114
787788,75
788360,67
788944,68
789520,62
790092,70
790672,75
791248,50
791824,34
792404,45
792984,72
793556,93
794132,87
794712,75
795288,71
795864,84
796444,113
797076,105
797708,68
798276,53
798860,47
799432,28
800008,24
800584,25
801160,52
801732,102
802360,109
802988,111
803608,91
804184,43
804756,13
805332,47
805912,74
806484,51
807064,28
807636,13
808216,14
808796,22
809376,76
809956,87
810532,53
811112,108
811736,90
812316,23
812892,35
813472,57
814044,111
814672,158
815300,134
815920,49
816496,26
817076,44
817652,45
818232,88
818804,232
819436,220
820052,145
820680,91
821256,57
821824,40
822408,36
822976,75
823552,67
824124,24
824704,28
825272,30
825852,73
826432,99
827000,147
827636,208
828252,234
828880,208
829508,171
830124,177
830752,158
831376,120
832004,69
832580,82
833148,241
833780,253
834396,151
835028,81
835604,66
836172,95
836752,141
837376,136
838004,93
838572,51
839144,13
839728,20
840296,27
840880,13
841448,16
842032,19
842600,80
843184,89
843756,75
844332,62
844912,62
845480,53
846064,40
846636,35
847216,49
847784,26
848364,23
848944,15
849512,31
850096,28
850664,39
851248,50
851816,58
852400,59
852972,58
853548,21
854128,15
854700,25
855280,13
855852,84
856432,146
857056,165
857676,139
858304,107
858928,57
859504,51
860076,86
860652,106
861284,100
861900,115
862532,149
863152,176
863776,136
864404,34
864968,14
865552,11
866124,59
866704,79
867276,55
867852,59
868432,67
869004,75
869584,84
870156,41
870736,21
871312,42
871892,60
872472,38
873044,19
873624,37
874192,43
874776,33
875348,16
875928,70
876500,75
877076,63
877656,107
878280,54
878856,37
879428,44
880008,43
880576,63
881156,73
881736,63
882308,34
882888,38
883460,73
884040,50
884608,48
885192,53
885768,54
886340,55
886920,27
887492,16
888072,17
888644,44
889224,65
889796,74
890372,86
890952,119
891576,111
892208,80
892776,45
893352,91
893932,126
894560,122
895188,77
895756,24
896340,30
896912,30
897492,13
898072,15
898644,11
899224,10
899792,30
900376,66
900956,83
901536,69
902116,62
902692,73
903272,54
903844,15
904424,29
904992,34
905576,52
906148,78
906724,98
907304,124
907928,104
908556,99
909128,57
909704,74
910276,87
910852,79
911432,81
912004,106
912636,112
913256,84
913832,23
914404,34
914980,43
915560,33
916132,32
916712,26
917292,41
917872,51
918444,51
919020,56
919604,64
920176,61
920752,55
921328,26
921904,17
922484,17
923064,33
923636,54
924212,60
924792,35
925364,47
925944,134
926568,177
927196,148
927824,84
928396,47
928976,38
929548,36
930128,12
930700,23
931280,33
931864,12
932436,12
933016,35
933588,26
934168,49
934748,67
935328,68
935900,51
936476,62
937056,66
937628,59
938208,21
938780,62
939360,125
939992,115
940616,77
941192,62
941768,93
942344,109
942976,58
943552,139
944180,223
944800,304
945428,302
946052,161
946680,23
947256,62
947828,43
948408,42
948980,29
949560,55
950132,64
950712,43
951292,68
951872,79
952452,86
953020,99
953600,82
954180,64
954760,50
955340,40
955916,38
956500,15
957072,25
957652,49
958228,53
958812,33
959388,45
959964,53
960548,61
961120,64
961696,38
962268,34
962848,58
963420,71
964000,66
964568,34
965148,18
965728,18
966300,47
966880,41
967460,49
968040,52
968616,51
969196,50
969776,52
970348,18
970928,13
971500,18
972084,16
972660,18
973240,15
973820,22
974396,19
974976,27
975548,47
976128,75
976708,54
977288,59
977860,109
978488,148
979116,89
979684,20
980264,21
980836,14
981416,17
981988,12
982564,11
983144,31
983716,16
984296,43
984868,47
985448,51
986020,51
986596,43
987176,32
987748,41
988328,43
988896,32
989480,11
990052,24
990632,38
991212,50
991788,47
992368,46
992940,53
993520,62
994100,71
994680,64
995252,45
995828,42
996408,62
996980,66
997560,31
998132,12
998712,24
999292,35
999872,13
1000444,48
1001064,69
1001692,83
1002316,80
1002944,64
1003572,18
1004192,12
1004820,23
1005440,11
1006072,38
1006700,46
1007320,77
1007948,108
1008624,124
1009300,50
1009924,54
1010548,55
1011176,72
1011808,80
1012424,48
1013056,55
1013680,94
1014304,69
1014932,33
1015552,63
1016180,110
1016864,39
1017480,44
1018108,50
1018732,89
1019364,94
1019992,74
1020612,48
1021240,31
1021868,15
1022492,10
1023120,15
1023740,25
1024372,36
1024992,43
1025612,66
1026240,105
1026908,94
1027532,55
1028160,53
1028776,21
1029404,66
1030024,51
1030656,22
1031284,10
1031900,18
1032532,10
1033152,11
1033776,40
1034404,49
1035020,92
1035652,123
1036332,68
1036952,29
1037580,12
1038200,17
1038828,13
1039460,23
1040080,26
1040704,34
1041328,51
1041948,59
1042576,43
1043196,52
1043828,59
1044452,69
1045076,73
1045704,52
1046320,40
1046948,45
1047576,26
1048200,13
1048828,30
1049448,62
1050080,27
1050708,50
1051328,56
1051956,53
1052580,69
1053200,52
1053828,25
1054448,19
1055076,43
1055700,56
1056324,54
1056952,44
1057568,111
1058248,141
1058920,154
1059588,169
1060264,121
1060940,57
1061560,44
1062188,64
1062812,130
1063488,176
1064160,246
1064828,200
1065504,101
1066176,45
1066800,25
1067428,67
1068056,64
1068672,58
1069300,62
1069924,45
1070552,16
1071180,31
1071800,49
1072428,20
1073052,17
1073672,14
1074304,26
1074920,30
1075548,41
1076172,91
1076792,133
1077476,131
1078148,50
1078772,41
1079400,34
1080024,75
1080652,68
1081272,13
1081896,49
1082524,44
1083144,32
1083772,24
1084396,48
1085020,53
1085648,51
1086264,67
1086892,95
1087520,76
1088144,38
1088772,12
1089392,22
1090024,20
1090652,22
1091272,13
1091900,45
1092520,91
1093144,86
1093772,58
1094392,53
1095020,47
1095644,48
1096268,15
1096896,120
1097572,94
1098196,15
1098828,18
1099448,22
1100076,27
1100700,45
1101324,49
1101952,50
1102576,51
1103204,37
1103828,12
1104452,45
1105084,46
1105704,24
1106332,28
1106964,72
1107584,51
1108212,22
1108836,38
1109464,65
1110092,70
1110712,53
1111340,65
1111964,23
1112588,45
1113220,60
1113840,59
1114468,57
1115092,67
1115716,50
1116348,12
1116968,24
1117596,45
1118228,54
1118848,70
1119476,67
1120100,48
1120728,35
1121360,30
1121976,13
1122604,15
1123228,11
1123852,13
1124480,29
1125096,58
1125724,49
1126352,77
1126976,98
1127604,102
1128276,93
1128900,110
1129580,113
1130252,89
1130876,38
1131500,12
1132124,10
1132756,23
1133380,16
1134008,53
1134636,66
1135256,56
1135884,104
1136560,167
1137236,128
1137912,60
1138536,41
1139164,28
1139796,36
1140416,59
1141044,77
1141668,81
1142292,55
1142924,51
1143544,51
1144172,53
1144796,60
1145420,78
1146052,100
1146724,100
1147400,86
1148028,68
1148648,59
1149276,49
1149900,61
1150524,68
1151152,58
1151776,55
1152408,57
1153036,50
1153656,66
1154284,53
1154904,60
1155536,115
1156216,158
1156884,135
1157560,111
1158236,100
1158908,54
1159532,102
1160216,207
1160884,240
1161560,226
1162228,208
1162900,164
1163576,95
1164192,13
1164816,33
1165444,14
1166064,44
1166692,70
1167316,59
1167940,131
1168624,198
1169292,138
1169968,69
1170592,52
1171208,28
1171836,30
1172460,53
1173084,61
1173712,96
1174336,72
1174968,25
1175596,58
1176216,74
1176844,73
1177468,77
1178100,80
1178728,84
1179348,67
1179976,78
1180600,69
1181224,33
1181852,51
1182472,48
1183100,47
1183724,90
1184348,89
1184980,67
1185600,61
1186232,53
1186860,18
1187480,36
1188108,64
1188732,96
1189360,198
1190044,187
1190716,116
1191392,82
1192020,45
1192640,52
1193268,58
1193892,61
1194516,62
1195148,63
1195768,83
1196396,98
1197020,82
1197644,25
1198276,15
1198896,33
1199524,46
1200156,40
1200776,47
1201404,60
1202028,65
1202656,51
1203288,21
1203904,33
1204532,58
1205156,42
1205780,16
1206408,11
1207032,17
1207660,17
1208284,21
1208908,57
1209540,102
1210212,120
1210888,130
1211568,124
1212236,128
1212912,118
1213592,16
1214216,63
1214848,41
1215472,11
1216096,40
1216724,71
1217348,89
1217976,99
1218604,114
1219276,88
1219900,79
1220524,79
1221148,71
1221780,51
1222400,33
1223028,15
1223652,19
1224276,39
1224908,32
1225528,66
1226160,88
1226788,86
1227408,93
1228040,110
1228716,120
1229388,114
1230064,66
1230680,27
1231308,26
1231936,18
1232560,60
1233188,67
1233812,50
1234436,49
1235068,68
1235688,90
1236316,70
1236940,72
1237564,106
1238244,88
1238864,38
1239492,11
1240124,24
1240744,24
1241372,17
1241996,24
1242624,60
1243252,76
1243872,71
1244500,53
1245124,14
1245748,37
1246376,70
1247000,80
1247628,61
1248252,46
1248880,37
1249508,14
1250132,20
1250760,45
1251388,47
1252008,49
1252636,51
1253260,23
1253888,21
1254520,24
1255136,29
1255764,53
1256388,81
1257012,106
1257692,117
1258364,89
1258988,54
1259620,106
1260292,98
1260916,105
1261600,106
1262268,100
1262944,48
1263568,15
1264192,30
1264820,50
1265440,74
1266068,100
1266752,36
1267368,46
1267996,55
1268620,51
1269252,54
1269880,28
1270504,19
1271132,17
1271756,13
1272380,29
1273012,56
1273632,19
1274260,41
1274892,36
1275512,49
1276140,89
1276768,123
1277448,87
1278076,55
1278696,14
1279328,18
1279952,33
1280576,76
1281204,94
1281820,104
1282500,71
1283124,50
1283744,75
1284372,71
1284996,51
1285624,60
1286252,91
1286872,183
1287552,232
1288224,149
1288900,18
1289524,25
1290148,17
1290772,35
1291400,61
1292016,62
1292644,93
1293268,89
1293888,53
1294520,54
1295136,45
1295764,63
1296392,84
1297016,101
1297696,87
1298312,80
1298940,84
1299568,88
1300192,134
1300872,122
1301544,56
1302168,73
1302796,120
1303472,66
1304088,22
1304720,14
1305336,16
1305964,21
1306588,43
1307212,51
1307840,67
1308456,95
1309088,73
1309716,50
1310336,61
1310968,100
1311640,132
1312312,139
1312992,138
1313656,118
1314336,71
1314956,31
1315576,27
1316204,105
1316884,136
1317552,102
1318232,67
1318848,52
1319472,54
1320100,24
1320716,66
1321348,67
1321968,34
1322592,27
1323220,31
1323844,37
1324472,32
1325100,22
1325720,56
1326348,82
1326972,88
1327600,77
1328228,68
1328848,37
1329476,41
1330096,53
1330720,23
1331352,10
1331968,19
1332596,35
1333216,36
1333840,49
1334468,78
1335084,79
1335716,69
1336344,61
1336960,58
1337588,63
1338212,40
1338840,45
1339468,120
1340140,148
1340816,131
1341496,121
1342164,96
1342788,49
1343412,61
1344036,94
1344664,145
1345332,125
1346008,81
1346628,140
1347296,92
1347924,25
1348548,59
1349168,50
1349800,110
1350468,187
1351144,145
1351820,60
1352440,53
1353068,46
1353688,15
1354312,79
1354940,163
1355612,242
1356288,177
1356964,115
1357632,58
1358260,26
1358888,60
1359512,99
1360140,130
1360816,98
1361428,97
1362060,96
1362676,89
1363308,77
1363928,52
1364552,27
1365180,11
1365800,33
1366428,46
1367056,44
1367672,52
1368300,53
1368924,53
1369552,52
1370184,12
1370800,15
1371428,17
1372052,29
1372676,28
1373308,26
1373928,50
1374556,50
1375180,42
1375804,57
1376432,72
1377056,80
1377684,61
1378312,20
1378928,12
1379560,70
1380184,101
1380864,60
1381488,40
1382104,32
1382732,13
1383356,33
1383980,45
1384608,51
1385224,59
1385856,52
1386476,22
1387100,11
1387728,30
1388352,80
1388980,122
1389660,173
1390332,146
1391008,94
1391636,63
1392256,50
1392884,104
1393560,144
1394232,125
1394912,92
1395536,82
1396164,75
1396792,44
1397412,16
1398040,21
1398664,25
1399292,41
1399920,19
1400544,51
1401172,50
1401796,51
1402420,54
1403048,41
1403664,41
1404296,30
1404920,15
1405540,21
1406172,22
1406796,19
1407424,23
1408056,19
1408672,56
1409300,52
1409924,53
1410552,57
1411180,59
1411800,37
1412428,11
1413052,41
1413676,15
1414304,11
1414924,11
1415552,17
1416176,29
1416796,41
1417428,49
1418052,51
1418680,56
1419312,61
1419928,28
1420556,20
1421180,23
1421812,17
1422440,27
1423056,74
1423688,173
1424364,176
1425036,72
1425660,53
1426284,72
1426916,77
1427544,76
1428160,92
1428792,84
1429416,91
1430040,84
1430668,47
1431288,37
1431916,23
1432544,19
1433168,51
1433800,68
1434416,77
1435044,70
1435672,56
1436288,57
1436916,64
1437540,63
1438168,31
1438800,17
1439416,20
1440044,29
1440668,26
1441288,19
1441916,47
1442536,101
1443216,88
1443832,81
1444456,81
1445084,99
1445708,101
1446388,64
1447012,15
1447632,35
1448260,13
1448884,11
1449508,48
1450136,102
1450804,60
1451428,54
1452060,55
1452680,59
1453308,102
1453984,119
1454652,107
1455328,139
1455996,214
1456676,227
1457352,191
1458020,44
1458644,129
1459328,229
1459996,245
1460672,218
1461352,119
1462020,68
1462644,42
1463268,44
1463892,107
1464576,87
1465192,33
1465820,17
1466448,17
1467072,55
1467700,65
1468324,75
1468948,66
1469580,50
1470200,23
1470828,55
1471452,109
1472128,112
1472808,63
1473424,31
1474052,17
1474684,26
1475304,43
1475932,75
1476552,81
1477176,75
1477804,58
1478424,43
1479052,15
1479672,75
1480300,64
1480928,13
1481552,26
1482180,11
1482812,32
1483432,73
1484060,78
1484684,59
1485316,54
1485944,68
1486560,55
1487188,57
1487812,55
1488436,49
1489064,46
1489680,28
1490312,16
1490932,21
1491556,20
1492188,64
1492812,78
1493440,67
1494068,64
1494688,52
1495316,19
1495940,14
1496572,43
1497200,45
1497816,15
1498448,13
1499068,59
1499692,69
1500324,47
1500944,50
1501572,49
1502196,54
1502820,56
1503452,29
1504076,24
1504704,12
1505332,34
1505952,26
1506580,23
1507204,66
1507832,42
1508464,18
1509080,78
1509712,87
1510336,85
1510960,76
1511588,48
1512208,43
1512836,78
1513460,99
1514084,66
1514716,32
1515340,15
1515972,37
1516604,38
1517224,65
1517852,80
1518476,109
1519160,73
1519784,37
1520400,37
1521032,24
1521656,12
1522276,13
1522908,51
1523532,53
1524164,68
1524792,98
1525408,118
1526092,90
1526712,67
1527336,55
1527968,36
1528584,36
1529212,16
1529836,118
1530512,166
1531196,33
1531816,46
1532440,34
1533072,21
1533688,51
1534320,56
1534944,55
1535568,107
1536252,120
1536920,17
1537544,85
1538172,95
1538792,45
1539420,11
1540044,31
1540668,50
1541296,68
1541912,57
1542540,47
1543164,49
1543792,50
1544420,53
1545044,41
1545672,32
1546300,28
1546920,25
1547548,16
1548172,11
1548800,37
1549428,36
1550048,55
1550676,102
1551352,101
1552028,95
1552652,62
1553276,13
1553908,20
1554536,25
1555156,36
1555788,36
1556412,13
1557036,21
1557664,13
1558280,29
1558912,48
1559536,63
1560160,66
1560788,63
1561412,43
1562044,14
1562672,18
1563288,66
1563920,75
1564540,40
1565172,19
1565800,58
1566424,30
1567052,45
1567676,48
1568300,51
1568932,50
1569552,47
1570180,49
1570804,40
1571428,19
1572056,13
1572680,11
1573312,36
1573940,35
1574560,47
1575188,41
1575812,51
1576444,59
1577072,75
1577696,97
1578324,98
1578948,85
1579572,85
1580200,106
1580876,80
1581500,73
1582132,23
1582752,197
1583432,197
1584108,78
1584728,55
1585356,75
1585976,113
1586656,123
1587340,68
1587960,41
1588588,143
1589272,252
1589940,194
1590616,166
1591292,170
1591972,78
1592600,51
1593224,71
1593856,101
1594536,113
1595204,103
1595880,113
1596564,95
1597184,43
1597816,26
1598440,51
1599064,53
1599692,16
1600312,72
1600940,98
1601568,81
1602184,59
1602816,49
1603436,35
1604064,53
1604696,51
1605312,33
1605940,64
1606564,63
1607184,36
1607816,26
1608432,33
1609060,87
1609684,105
1610356,86
1610980,71
1611604,37
1612232,33
1612864,47
1613480,40
1614108,15
1614732,11
1615360,73
1615988,118
1616660,61
1617284,46
1617908,53
1618532,52
1619160,55
1619784,28
1620412,51
1621044,31
1621664,67
1622292,60
1622916,65
1623548,29
1624176,22
1624792,18
1625424,69
1626048,106
1626724,104
1627400,78
1628024,51
1628652,19
1629284,25
1629904,71
1630532,88
1631156,65
1631784,41
1632412,10
1633032,13
1633660,49
1634284,51
1634908,49
1635540,53
1636164,108
1636844,90
1637468,36
1638088,70
1638720,106
1639392,87
1640004,82
1640632,103
1641300,88
1641924,47
1642552,91
1643168,106
1643848,57
1644464,69
1645084,94
1645712,88
1646328,81
1646956,44
1647580,33
1648200,62
1648828,57
1649444,52
1650072,52
1650700,65
1651320,64
1651948,51
1652568,53
1653196,42
1653824,78
1654440,102
1655120,82
1655736,45
1656360,19
1656988,23
1657604,14
1658236,42
1658856,88
1659480,115
1660160,99
1660772,73
1661404,59
1662032,69
1662648,77
1663280,66
1663900,24
1664524,28
1665152,34
1665776,19
1666400,17
1667024,45
1667644,49
1668276,52
1668896,55
1669524,52
1670152,37
1670768,17
1671396,34
1672020,67
1672648,90
1673276,102
1673948,90
1674572,61
1675196,46
1675820,95
1676448,150
1677116,145
1677792,88
1678420,59
1679040,56
1679668,49
1680292,14
1680912,15
1681540,30
1682160,53
1682788,78
1683408,104
1684084,90
1684708,66
1685328,50
1685960,53
1686588,76
1687208,141
1687888,188
1688556,123
1689228,72
1689852,75
1690476,86
1691104,86
1691732,54
1692352,57
1692980,78
1693600,68
1694224,61
1694852,50
1695472,85
1696100,138
1696780,153
1697452,126
1698128,124
1698796,56
1699416,12
1700044,28
1700660,99
1701292,219
1701972,203
1702644,95
1703268,41
1703892,18
1704516,12
1705144,17
1705760,38
1706388,25
1707016,30
1707640,22
1708268,16
1708892,86
1709520,79
1710148,71
1710768,86
1711396,77
1712020,22
1712644,42
1713272,66
1713896,37
1714524,11
1715148,12
1715772,37
1716404,18
1717024,48
1717652,57
1718284,58
1718904,59
1719532,32
1720156,13
1720788,10
1721416,13
1722032,14
1722660,11
1723284,21
1723908,41
1724540,36
1725160,65
1725788,56
1726412,57
1727036,55
1727664,53
1728288,31
1728916,13
1729544,56
1730160,88
1730792,68
1731416,20
1732044,31
1732672,14
1733288,38
1733920,47
1734540,85
1735172,64
1735800,50
1736416,15
1737048,19
1737668,51
1738292,34
1738924,10
1739544,27
1740172,15
1740796,68
1741424,88
1742052,49
1742676,51
1743304,54
1743936,50
1744552,59
1745180,39
1745804,46
1746432,111
1747116,112
1747788,80
1748412,38
1749044,16
1749664,26
1750292,45
1750916,49
1751548,53
1752176,52
1752800,37
1753428,39
1754052,61
1754676,37
1755308,22
1755928,30
1756556,43
1757180,20
1757808,15
1758436,46
1759060,81
1759692,97
1760320,116
1760996,122
1761672,116
1762348,17
1762968,35
1763596,48
1764220,122
1764900,122
1765576,86
1766192,28
1766820,47
1767448,56
1768072,64
1768700,77
1769324,75
1769952,74
1770580,96
1771200,56
1771828,34
1772452,112
1773128,108
1773800,86
1774416,87
1775044,80
1775672,62
1776296,60
1776924,58
1777548,61
1778180,109
1778860,132
1779532,130
1780208,88
1780836,59
1781456,45
1782084,13
1782708,19
1783332,24
1783960,46
1784584,50
1785212,58
1785836,68
1786460,65
1787092,85
1787716,70
1788344,45
1788976,25
1789592,68
1790224,110
1790900,223
1791572,174
1792252,73
1792872,69
1793500,60
1794128,54
1794744,31
1795376,49
1795996,63
1796620,77
1797252,44
1797872,25
1798500,19
1799124,12
1799748,18
1800376,47
1800996,53
1801624,53
1802252,52
1802868,25
1803500,13
1804120,18
1804752,12
1805380,15
1806000,11
1806628,36
1807252,70
1807876,72
1808508,58
1809128,52
1809756,81
1810380,100
1811052,146
1811728,185
1812404,198
1813076,172
1813752,97
1814376,69
1815004,193
1815688,198
1816356,136
1817032,61
1817660,57
1818280,51
1818908,53
1819532,24
1820160,11
1820788,14
1821408,12
1822036,31
1822660,109
1823336,121
1824016,105
1824688,33
1825312,98
1825940,127
1826612,115
1827288,95
1827912,92
1828528,78
1829156,69
1829780,31
1830404,61
1831036,138
1831708,104
1832384,88
1833012,34
1833632,57
1834260,106
1834936,116
1835604,100
1836280,69
1836904,31
1837532,29
1838164,26
1838784,11
1839412,23
1840036,88
1840660,116
1841344,91
1841960,52
1842588,49
1843220,52
1843836,52
1844468,44
1845088,14
1845716,54
1846344,102
1847020,116
1847696,116
1848376,71
1848992,13
1849620,17
1850240,47
1850868,51
1851500,50
1852120,52
1852748,46
1853372,59
1853996,48
1854628,32
1855248,21
1855876,34
1856500,48
1857124,40
1857752,31
1858376,41
1859004,59
1859636,62
1860256,71
1860884,65
1861508,42
1862136,49
1862768,88
1863384,102
1864064,92
1864688,99
1865308,55
1865940,11
1866560,17
1867192,41
1867820,61
1868440,141
1869120,116
1869796,52
1870416,29
1871044,15
1871664,11
1872292,17
1872924,28
1873544,37
1874172,49
1874796,56
1875428,44
1876056,72
1876680,92
1877308,70
1877932,33
1878556,16
1879188,42
1879808,14
1880436,12
1881060,10
1881684,15
1882316,42
1882936,38
1883564,49
1884196,58
1884816,53
1885444,49
1886068,33
1886696,17
1887324,23
1887944,47
1888576,24
1889196,12
1889820,19
1890452,32
1891072,50
1891700,55
1892328,51
1892952,66
1893580,68
1894200,66
1894832,59
1895460,66
1896080,52
1896708,54
1897332,48
1897960,22
1898592,35
1899208,31
1899840,24
1900464,49
1901088,50
1901716,52
1902336,53
1902968,57
1903592,77
1904216,48
1904844,14
1905464,38
1906092,30
1906724,48
1907344,96
1907972,63
1908596,76
1909228,128
1909908,57
1910528,57
1911156,56
1911784,81
1912408,108
1913088,100
1913764,58
1914384,11
1915016,23
1915632,29
1916264,23
1916888,56
1917512,55
1918144,64
1918760,71
1919392,67
1920024,30
1920640,63
1921268,74
1921892,16
1922520,17
1923148,37
1923768,49
1924396,67
1925020,94
1925644,55
1926272,53
1926896,52
1927524,52
1928148,15
1928772,15
1929400,36
1930016,72
1930648,101
1931328,65
1931944,16
1932572,10
1933196,44
1933828,55
1934456,50
1935080,53
1935708,54
1936332,15
1936956,38
1937584,102
1938260,152
1938936,96
1939564,24
1940184,123
1940864,161
1941544,116
1942212,46
1942840,48
1943464,56
1944088,50
1944716,34
1945336,52
1945968,37
1946588,29
1947212,11
1947840,16
1948464,12
1949092,22
1949724,16
1950344,43
1950972,52
1951600,51
1952228,50
1952860,20
1953480,20
1954108,13
1954732,11
1955356,15
1955988,21
1956608,16
1957236,22
1957860,21
1958484,110
1959168,118
1959836,72
1960456,55
1961084,32
1961704,52
1962332,49
1962956,21
1963580,44
1964212,77
1964832,103
1965512,136
1966196,176
1966868,90
1967492,50
1968116,55
1968740,60
1969368,46
1969992,16
1970620,31
1971248,25
1971868,16
1972500,22
1973120,14
1973752,13
1974380,14
1975000,48
1975628,70
1976252,68
1976876,83
1977508,96
1978128,83
1978756,77
1979380,86
1980004,84
1980636,53
1981260,12
1981888,69
1982516,178
1983188,134
1983868,60
1984488,53
1985112,51
1985740,54
1986360,27
1986988,13
1987620,22
1988240,13
1988868,47
1989492,42
1990120,24
1990748,14
1991368,33
1991996,91
1992620,92
1993244,96
1993876,90
1994496,114
1995176,106
1995860,115
1996532,124
1997212,60
1997836,17
1998456,85
1999084,125
1999760,147
2000436,134
2001112,103
2001780,73
2002404,59
2003036,42
2003656,25
2004284,35
2004908,67
2005532,59
2006164,41
2006784,36
2007412,47
2008036,70
2008660,136
2009340,133
2010012,94
2010632,57
2011260,23
2011880,101
2012560,181
2013236,145
2013908,114
2014588,64
2015208,12
2015832,15
2016464,58
2017080,83
2017708,55
2018340,50
2018960,52
2019588,29
2020212,88
2020844,121
2021524,109
2022196,74
2022824,46
2023452,58
2024072,129
2024752,119
2025424,139
2026092,114
2026768,51
2027392,119
2028076,152
2028752,138
2029428,118
2030104,78
2030732,13
2031352,38
2031984,45
2032608,29
2033232,33
2033860,59
2034480,143
2035160,121
2035844,67
2036464,22
2037092,11
2037720,11
2038344,11
2038976,29
2039592,48
2040224,48
2040852,29
2041472,19
2042104,84
2042728,113
2043408,98
2044040,87
2044656,74
2045288,50
2045912,52
2046536,40
2047168,37
2047788,40
2048416,14
2049044,42
2049660,21
2050288,71
2050908,62
2051536,55
2052168,49
2052780,47
2053412,74
2054032,69
2054660,69
2055288,67
2055912,70
2056540,81
2057164,48
2057784,17
2058412,66
2059028,59
2059660,58
2060280,57
2060904,47
2061528,23
2062152,12
2062780,25
2063408,20
2064024,79
2064652,109
2065324,70
2065944,70
2066572,88
2067192,66
2067820,54
2068444,54
2069068,69
2069696,88
2070312,89
2070940,74
2071572,52
2072192,73
2072820,61
2073444,15
2074072,45
2074704,40
2075320,78
2075948,98
2076572,122
2077248,94
2077868,60
2078488,43
2079116,71
2079740,16
2080368,167
2081048,196
2081716,91
2082336,25
2082964,22
2083584,51
2084212,54
2084832,51
2085456,53
2086084,78
2086704,90
2087332,14
2087960,11
2088580,41
2089208,43
2089828,49
2090456,47
2091088,78
2091704,64
2092332,52
2092956,66
2093576,74
2094208,82
2094824,98
2095452,122
2096132,118
2096804,71
2097428,53
2098052,47
2098680,27
2099308,17
2099924,51
2100556,51
2101176,70
2101800,73
2102428,51
2103048,29
2103676,11
2104300,27
2104924,53
2105552,34
2106172,33
2106800,21
2107428,75
2108048,102
2108728,73
2109344,73
2109968,78
2110600,64
2111216,20
2111844,52
2112468,88
2113092,90
2113720,47
2114344,45
2114972,21
2115600,24
2116224,21
2116852,46
2117476,50
2118104,62
2118732,100
2119404,119
2120080,74
2120704,16
2121328,33
2121956,41
2122580,64
2123208,84
2123836,95
2124456,82
2125084,56
2125708,50
2126340,52
2126968,53
2127584,50
2128216,64
2128840,69
2129460,65
2130092,80
2130708,93
2131340,61
2131964,19
2132584,18
2133216,50
2133836,61
2134468,63
2135096,70
2135712,72
2136344,13
2136964,21
2137596,13
2138224,37
2138848,118
2139528,151
2140208,97
2140832,93
2141460,48
2142084,45
2142712,51
2143344,70
2143960,164
2144640,174
2145320,139
2145988,161
2146664,164
2147340,133
2148012,98
2148636,23
2149260,160
2149944,166
2150616,138
2151292,143
2151968,132
2152644,88
2153264,50
2153892,14
2154520,18
2155144,17
2155772,34
2156396,16
2157028,19
2157656,28
2158272,53
2158904,100
2159580,84
2160200,57
2160828,43
2161444,20
2162076,27
2162704,12
2163320,15
2163952,26
2164576,34
2165204,11
2165832,12
2166448,49
2167080,56
2167704,55
2168324,55
2168956,60
2169576,29
2170208,37
2170832,96
2171456,104
2172136,82
2172752,35
2173380,15
2174012,16
2174632,37
2175260,44
2175888,61
2176516,101
2177200,140
2177868,147
2178544,106
2179220,68
2179840,31
2180468,39
2181092,65
2181716,81
2182344,75
2182960,45
2183592,41
2184220,62
2184840,74
2185468,103
2186144,98
2186760,70
2187388,40
2188008,12
2188636,37
2189260,69
2189884,180
2190564,185
2191236,82
2191864,59
2192492,62
2193112,52
2193740,50
2194364,29
2194988,40
2195620,66
2196240,73
2196868,30
2197492,13
2198116,24
2198748,27
2199372,17
2200004,55
2200632,54
2201248,52
2201880,54
2202504,83
2203132,66
2203760,21
2204384,14
2205012,41
2205636,81
2206260,91
2206892,102
2207564,104
2208244,65
2208868,48
2209488,70
2210116,105
2210792,103
2211460,112
2212140,87
2212760,46
2213384,21
2214012,24
2214632,29
2215260,76
2215884,216
2216560,182
2217236,55
2217856,50
2218484,62
2219116,58
2219736,30
2220364,11
2220988,11
2221612,11
2222244,15
2222864,32
2223492,48
2224116,52
2224740,45
2225372,50
2225996,68
2226628,79
2227256,77
2227876,90
2228504,123
2229180,143
2229852,104
2230528,49
2231152,40
2231784,34
2232412,22
2233032,25
2233660,72
2234284,57
2234908,55
2235540,62
2236160,37
2236788,32
2237416,22
2238040,13
2238672,60
2239288,92
2239920,102
2240604,114
2241276,86
2241900,53
2242524,58
2243148,59
2243780,50
2244400,53
2245028,71
2245660,70
2246280,47
2246908,13
2247532,15
2248164,24
2248792,11
2249412,29
2250040,50
2250668,48
2251292,51
2251920,52
2252540,29
2253168,11
2253792,13
2254416,11
2255044,14
2255664,25
2256292,26
2256920,50
2257544,61
2258172,46
2258796,79
2259428,118
2260108,127
2260780,128
2261456,76
2262084,51
2262704,64
2263332,48
2263956,21
2264584,65
2265212,131
2265884,119
2266560,58
2267184,91
2267800,110
2268484,80
2269104,45
2269728,56
2270356,82
2270976,98
2271608,108
2272288,69
2272904,22
2273532,37
2274156,58
2274788,74
2275416,46
2276040,53
2276668,55
2277292,51
2277916,16
2278548,34
2279168,67
2279796,35
2280420,83
2281044,73
2281676,28
2282296,16
2282924,25
2283556,58
2284176,52
2284804,56
2285428,68
2286060,40
2286688,22
2287308,11
2287936,11
2288564,12
2289188,12
2289816,20
2290436,21
2291064,22
2291692,51
2292316,58
2292944,59
2293568,69
2294200,86
2294828,75
2295448,65
2296076,41
2296700,12
2297328,11
2297960,11
2298576,18
2299208,30
2299832,44
2300456,49
2301084,50
2301704,51
2302336,50
2302960,13
2303584,53
2304216,42
2304836,21
2305464,60
2306096,103
2306764,86
2307388,51
2308012,28
2308636,107
2309316,120
2309988,72
2310612,84
2311244,153
2311916,150
2312596,121
2313272,47
2313896,32
2314524,50
2315148,67
2315780,97
2316408,138
2317084,126
2317760,79
2318384,55
2319000,48
2319632,20
2320256,37
2320884,19
2321512,36
2322136,37
2322764,19
2323388,58
2324012,43
2324640,19
2325264,43
2325892,50
2326516,56
2327140,119
2327820,124
2328492,46
2329112,17
2329744,42
2330360,61
2330988,88
2331612,65
2332236,47
2332868,77
2333488,118
2334168,126
2334852,95
2335472,55
2336100,32
2336724,105
2337400,121
2338072,82
2338696,45
2339324,15
2339956,15
2340576,16
2341204,17
2341828,59
2342452,71
2343084,78
2343704,74
2344332,50
2344956,42
2345584,65
2346216,59
2346840,32
2347468,17
2348100,10
2348720,21
2349352,17
2349976,45
2350600,49
2351228,49
2351848,52
2352480,31
2353104,16
2353728,11
2354356,18
2354976,52
2355608,55
2356236,24
2356856,17
2357484,37
2358108,47
2358740,53
2359368,55
2359992,54
2360624,121
2361300,96
2361920,15
2362548,45
2363168,35
2363800,93
2364428,50
2365048,14
2365676,40
2366300,96
2366932,81
2367564,64
2368184,53
2368812,80
2369436,80
2370060,43
2370688,13
2371312,13
2371940,61
2372564,119
2373240,146
2373920,94
2374544,21
2375172,77
2375804,90
2376424,62
2377052,57
2377676,75
2378300,83
2378932,84
2379552,73
2380184,39
2380812,32
2381432,44
2382060,26
2382684,41
2383316,73
2383948,70
2384568,56
2385196,50
2385824,54
2386448,92
2387076,115
2387748,130
2388428,108
2389104,54
2389728,19
2390360,14
2390984,23
2391608,80
2392240,98
2392856,91
2393488,74
2394116,72
2394736,65
2395368,70
2395992,69
2396624,44
2397252,26
2397872,11
2398504,49
2399128,54
2399752,42
2400384,51
2401000,49
2401628,53
2402252,51
2402876,37
2403508,43
2404128,64
2404756,49
2405388,50
2406008,62
2406636,65
2407260,47
2407892,33
2408520,132
2409188,172
2409864,157
2410544,123
2411220,96
2411844,104
2412520,101
2413196,59
2413824,11
2414448,79
2415076,194
2415760,206
2416428,76
2417056,54
2417684,114
2418356,167
2419032,170
2419708,197
2420388,154
2421068,26
2421688,74
2422312,165
2422992,465
2423668,568
2424348,280
2425024,55
2425648,70
2426276,70
2426908,51
2427528,38
2428156,81
2428784,148
2429464,186
2430144,124
2430820,90
2431448,61
2432080,14
2432696,18
2433324,44
2433948,53
2434572,51
2435200,50
2435816,42
2436448,50
2437072,33
2437696,22
2438324,11
2438944,35
2439572,32
2440204,21
2440824,14
2441452,49
2442076,65
2442708,60
2443340,58
2443960,56
2444592,41
2445216,41
2445840,44
2446468,19
2447088,27
2447720,33
2448344,23
2448968,11
2449596,36
2450216,55
2450848,50
2451476,52
2452096,50
2452728,15
2453352,20
2453980,15
2454612,12
2455232,19
2455864,21
2456488,30
2457112,33
2457744,44
2458360,48
2458988,55
2459612,58
2460236,67
2460864,53
2461480,63
2462108,134
2462788,194
2463460,181
2464136,120
2464816,51
2465432,31
2466060,119
2466736,283
2467404,354
2468080,324
2468756,196
2469428,81
2470052,14
2470672,87
2471300,138
2471984,102
2472652,61
2473276,33
2473900,19
2474524,29
2475156,44
2475776,51
2476404,57
2477028,63
2477652,89
2478284,114
2478956,109
2479632,51
2480264,35
2480880,26
2481508,15
2482132,11
2482756,23
2483384,52
2484008,54
2484636,51
2485264,65
2485888,65
2486516,66
2487140,52
2487772,37
2488400,31
2489016,27
2489648,24
2490268,94
2490892,265
2491572,250
2492244,103
2492920,53
2493548,85
2494168,138
2494848,128
2495528,116
2496204,64
2496828,16
2497452,19
2498076,34
2498708,64
2499328,53
2499956,44
2500580,51
2501204,51
2501832,51
2502456,43
2503084,60
2503716,40
2504336,25
2504964,17
2505588,13
2506220,17
2506852,13
2507472,24
2508104,56
2508728,51
2509352,71
2509980,71
2510600,77
2511228,72
2511852,73
2512480,97
2513108,69
2513732,13
2514364,44
2514992,53
2515612,39
2516240,43
2516864,130
2517548,176
2518228,112
2518900,56
2519528,13
2520156,17
2520776,27
2521408,33
2522032,44
2522656,32
2523284,20
2523904,70
2524536,92
2525160,44
2525784,61
2526412,64
2527032,62
2527664,67
2528296,119
2528964,138
2529640,120
2530320,84
2530944,79
2531576,53
2532200,15
2532828,21
2533460,64
2534080,151
2534764,128
2535440,67
2536064,52
2536692,49
2537320,49
2537948,17
2538580,28
2539200,31
2539832,43
2540456,61
2541080,60
2541708,96
2542328,99
2542960,62
2543584,55
2544208,63
2544836,86
2545456,77
2546088,73
2546716,35
2547336,38
2547968,69
2548592,44
2549220,49
2549852,80
2550472,93
2551104,89
2551728,103
2552404,66
2553032,55
2553648,219
2554332,208
2555012,161
2555684,116
2556364,88
2556992,47
2557608,18
2558240,109
2558920,173
2559588,198
2560268,169
2560936,119
2561604,77
2562228,38
2562848,17
2563476,57
2564104,77
2564720,111
2565400,158
2566068,32
2566688,57
2567316,55
2567936,57
2568564,52
2569188,26
2569812,34
2570440,55
2571056,56
2571684,36
2572316,14
2572936,21
2573564,19
2574188,46
2574816,91
2575444,89
2576064,87
2576692,59
2577316,39
2577936,12
2578568,30
2579184,72
2579812,102
2580496,104
2581160,84
2581788,23
2582412,11
2583040,61
2583668,69
2584288,56
2584916,126
2585592,211
2586264,156
2586936,73
2587552,38
2588176,13
2588804,42
2589420,62
2590052,41
2590676,29
2591300,45
2591928,50
2592552,52
2593180,55
2593812,54
2594432,50
2595060,75
2595684,113
2596364,123
2597040,104
2597716,60
2598344,32
2598972,18
2599592,45
2600220,48
2600844,89
2601476,77
2602104,51
2602720,47
2603352,41
2603976,24
2604600,27
2605228,12
2605848,33
2606476,56
2607100,48
2607728,35
2608356,55
2608980,69
2609612,59
2610240,55
2610860,27
2611488,20
2612112,42
2612740,114
2613424,56
2614040,15
2614668,18
2615292,26
2615920,21
2616552,61
2617176,63
2617804,57
2618432,50
2619056,26
2619684,11
2620308,15
2620936,18
2621564,24
2622184,20
2622812,14
2623432,13
2624056,15
2624684,46
2625300,61
2625928,61
2626552,54
2627176,69
2627804,69
2628428,87
2629056,65
2629684,18
2630304,35
2630932,28
2631556,23
2632184,12
2632816,44
2633432,57
2634060,53
2634684,53
2635308,58
2635936,14
2636552,35
2637184,59
2637808,71
2638428,64
2639056,52
2639680,120
2640360,169
2641032,69
2641656,71
2642284,121
2642964,112
2643636,56
2644260,79
2644884,107
2645560,30
2646184,35
2646800,61
2647428,108
2648108,89
2648728,62
2649356,70
2649980,83
2650608,64
2651236,58
2651856,54
2652484,20
2653108,20
2653732,27
2654360,17
2654980,35
2655608,82
2656232,117
2656908,114
2657584,98
2658200,50
2658824,55
2659452,77
2660072,96
2660700,96
2661324,94
2661948,78
2662580,45
2663196,19
2663828,17
2664456,14
2665072,56
2665700,35
2666324,48
2666952,51
2667580,49
2668200,52
2668828,56
2669448,40
2670076,22
2670704,22
2671328,26
2671956,25
2672580,47
2673204,65
2673836,100
2674508,42
2675132,107
2675816,146
2676484,96
2677108,94
2677732,107
2678408,104
2679080,48
2679704,60
2680328,223
2681008,296
2681676,138
2682352,26
2682976,98
2683592,95
2684220,83
2684844,93
2685468,58
2686096,17
2686712,13
2687344,28
2687968,37
2688592,24
2689220,34
2689840,43
2690468,71
2691096,80
2691712,46
2692340,65
2692964,83
2693592,77
2694224,85
2694840,119
2695520,133
2696188,77
2696816,12
2697444,28
2698068,39
2698696,36
2699324,16
2699944,43
2700572,49
2701196,59
2701828,82
2702456,71
2703080,59
2703708,26
2704332,11
2704956,23
2705584,25
2706200,16
2706832,13
2707460,24
2708080,59
2708708,101
2709384,134
2710056,141
2710736,65
2711360,14
2711988,52
2712620,32
2713240,15
2713868,13
2714492,11
2715120,47
2715752,67
2716368,69
2717000,79
2717624,70
2718244,65
2718876,52
2719496,17
2720124,11
2720748,13
2721372,21
2722000,10
2722616,37
2723244,50
2723872,28
2724496,37
2725124,95
2725744,127
2726428,122
2727104,86
2727720,52
2728348,21
2728976,10
2729592,10
2730224,12
2730848,19
2731476,19
2732108,52
2732728,82
2733356,92
2733980,63
2734604,51
2735236,52
2735856,29
2736484,21
2737108,39
2737732,88
2738364,136
2739036,164
2739716,132
2740392,64
2741016,19
2741644,49
2742268,84
2742896,66
2743524,54
2744148,51
2744780,51
2745412,92
2746032,68
2746660,33
2747284,36
2747908,20
2748540,14
2749160,16
2749788,47
2750412,57
2751036,61
2751668,54
2752288,25
2752916,49
2753544,50
2754168,28
2754796,45
2755420,61
2756052,75
2756680,74
2757304,61
2757932,48
2758556,71
2759180,100
2759864,122
2760532,141
2761208,111
2761888,41
2762512,21
2763140,17
2763768,24
2764392,33
2765020,168
2765696,151
2766372,48
2766996,53
2767616,56
2768244,61
2768868,43
2769492,21
2770120,12
2770736,13
2771368,35
2771996,14
2772616,16
2773244,24
2773868,19
2774500,55
2775128,78
2775752,77
2776384,58
2777004,67
2777628,17
2778260,46
2778880,27
2779508,12
2780132,11
2780760,24
2781388,16
2782008,25
2782636,61
2783268,78
2783888,70
2784520,54
2785144,73
2785772,111
2786456,129
2787124,72
2787752,13
2788380,22
2789000,13
2789628,19
2790252,17
2790884,34
2791512,54
2792136,52
2792764,49
2793388,51
2794012,30
2794644,57
2795264,66
2795892,30
2796516,14
2797140,29
2797772,62
2798392,33
2799024,14
2799652,52
2800272,70
2800900,93
2801524,72
2802156,52
2802784,28
2803404,14
2804032,23
2804656,13
2805280,14
2805908,34
2806528,35
2807156,16
2807780,45
2808404,85
2809032,70
2809656,63
2810284,56
2810916,14
2811536,20
2812164,45
2812788,75
2813420,79
2814052,123
2814724,120
2815400,51
2816032,72
2816648,60
2817276,50
2817900,52
2818528,63
2819156,151
2819828,248
2820504,230
2821184,80
2821808,31
2822436,43
2823060,43
2823684,36
2824316,43
2824936,63
2825564,101
2826248,55
2826864,70
2827492,119
2828168,147
2828840,165
2829520,172
2830188,168
2830864,145
2831540,18
2832160,85
2832788,61
2833420,50
2834040,62
2834668,74
2835292,142
2835976,194
2836652,123
2837324,44
2837948,13
2838580,18
2839200,17
2839828,34
2840452,78
2841084,74
2841712,46
2842336,61
2842964,76
2843588,85
2844212,108
2844892,134
2845564,120
2846240,31
2846868,15
2847488,33
2848116,28
2848740,27
2849364,43
2849992,52
2850612,48
2851240,53
2851868,51
2852488,13
2853116,13
2853740,14
2854372,15
2855004,27
2855624,39
2856256,57
2856880,45
2857504,23
2858132,54
2858752,66
2859384,55
2860008,55
2860632,40
2861260,64
2861880,93
2862512,113
2863192,60
2863816,11
2864448,36
2865072,59
2865696,49
2866324,58
2866944,71
2867576,53
2868196,49
2868820,34
2869448,29
2870064,43
2870696,49
2871324,14
2871944,40
2872572,68
2873196,132
2873880,218
2874552,136
2875228,50
2875852,81
2876484,94
2877104,93
2877732,97
2878356,86
2878984,49
2879612,13
2880232,16
2880860,25
2881480,11
2882104,27
2882732,34
2883352,46
2883980,50
2884604,55
2885224,56
2885852,45
2886476,13
2887104,60
2887736,81
2888352,37
2888980,14
2889604,18
2890232,14
2890860,15
2891480,57
2892108,87
2892732,52
2893356,65
2893988,18
2894608,93
2895236,136
2895920,131
2896588,44
2897212,22
2897836,101
2898512,106
2899192,62
2899816,43
2900444,57
2901076,52
2901696,53
2902324,17
2902952,32
2903576,120
2904256,75
2904872,15
2905500,36
2906132,80
2906752,124
2907432,63
2908056,77
2908680,138
2909360,184
2910036,194
2910716,158
2911396,128
2912068,80
2912692,19
2913324,110
2913996,116
2914672,85
2915296,30
2915920,17
2916548,39
2917168,50
2917796,51
2918428,58
2919048,63
2919676,46
2920300,19
2920928,11
2921560,52
2922180,81
2922808,72
2923432,45
2924056,16
2924684,56
2925304,50
2925932,53
2926556,57
2927184,63
2927812,81
2928432,104
2929112,102
2929792,48
2930416,40
2931044,45
2931668,13
2932292,110
2932976,93
2933592,76
2934224,53
2934852,114
2935524,110
2936204,104
2936880,85
2937504,50
2938136,13
2938760,40
2939392,76
2940020,117
2940692,164
2941372,95
2942000,59
2942616,52
2943248,61
2943872,66
2944508,87
2945136,106
2945804,98
2946428,29
2947052,39
2947676,50
2948308,35
2948932,15
2949564,49
2950192,51
2950812,51
2951440,53
2952064,49
2952692,22
2953320,11
2953944,14
2954572,11
2955196,13
2955820,16
2956452,22
2957072,25
2957700,47
2958324,70
2958948,77
2959580,95
2960204,64
2960832,50
2961460,16
2962080,80
2962708,46
2963332,11
2963960,26
2964592,26
2965208,19
2965836,69
2966460,133
2967136,118
2967812,96
2968432,66
2969060,40
2969692,22
2970308,17
2970940,22
2971564,25
2972184,24
2972816,35
2973432,38
2974060,22
2974688,59
2975312,93
2975940,84
2976560,71
2977188,43
2977820,54
2978440,65
2979068,77
2979692,55
2980324,27
2980952,20
2981568,11
2982200,15
2982824,43
2983448,51
2984076,50
2984696,52
2985324,53
2985948,30
2986572,14
2987204,42
2987824,41
2988452,13
2989084,16
2989704,25
2990336,33
2990960,44
2991588,76
2992220,76
2992840,89
2993468,51
2994092,95
2994716,119
2995400,96
2996016,157
2996696,105
2997372,73
2997992,68
2998624,25
2999248,57
2999872,81
3000500,86
3001120,105
3001800,127
3002480,163
3003156,158
3003836,91
3004464,53
3005080,212
3005764,184
3006436,106
3007108,126
3007788,61
3008408,65
3009032,64
3009664,52
3010280,54
3010912,30
3011536,77
3012160,105
3012840,90
3013456,41
3014084,35
3014716,14
3015336,15
3015968,35
3016592,69
3017224,56
3017852,72
3018472,66
3019104,25
3019728,19
3020352,11
3020984,35
3021600,19
3022228,21
3022860,48
3023480,79
3024112,77
3024736,46
3025364,112
3026048,119
3026716,82
3027344,51
3027972,58
3028592,75
3029224,57
3029848,26
3030476,77
3031108,85
3031728,132
3032412,136
3033084,64
3033712,49
3034340,53
3034968,55
3035596,35
3036228,12
3036848,30
3037476,41
3038104,43
3038728,21
3039356,16
3039976,35
3040612,31
3041236,52
3041860,53
3042488,57
3043112,64
3043744,52
3044372,22
3044992,38
3045624,45
3046248,18
3046876,12
3047508,16
3048128,22
3048756,71
3049384,130
3050060,144
3050740,99
3051360,65
3051992,50
3052620,59
3053240,108
3053920,108
3054604,95
3055224,57
3055856,24
3056480,17
3057108,71
3057740,78
3058360,76
3058992,93
3059616,55
3060240,60
3060872,43
3061488,15
3062120,147
3062800,191
3063476,80
3064104,29
3064728,138
3065404,165
3066084,56
3066704,62
3067336,58
3067968,56
3068588,55
3069220,12
3069844,33
3070472,17
3071104,11
3071724,10
3072356,15
3072980,12
3073604,22
3074232,33
3074848,64
3075476,82
3076108,86
3076728,79
3077356,70
3077980,62
3078612,57
3079240,53
3079856,57
3080488,83
3081112,87
3081736,69
3082364,47
3082984,43
3083612,55
3084236,53
3084860,54
3085488,28
3086112,59
3086740,95
3087372,92
3087992,55
3088624,52
3089248,64
3089876,70
3090508,83
3091128,79
3091760,56
3092384,53
3093008,60
3093636,73
3094256,90
3094888,111
3095568,118
3096236,83
3096864,62
3097488,61
3098116,57
3098748,63
3099368,79
3099996,54
3100624,53
3101248,75
3101876,83
3102496,85
3103128,59
3103756,22
3104376,12
3105004,34
3105628,50
3106260,15
3106888,95
3107512,90
3108144,45
3108768,62
3109392,68
3110024,59
3110644,59
3111272,64
3111896,79
3112520,92
3113152,90
3113768,80
3114400,43
3115028,14
3115648,16
3116276,43
3116904,61
3117532,101
3118216,94
3118832,49
3119460,12
3120088,46
3120708,90
3121340,52
3121960,30
3122588,87
3123220,66
3123840,33
3124468,47
3125092,53
3125720,119
3126404,89
3127024,33
3127652,41
3128280,84
3128904,87
3129532,16
3130152,59
3130784,29
3131412,15
3132032,15
3132664,68
3133288,93
3133920,84
3134548,86
3135168,65
3135800,17
3136424,44
3137048,44
3137676,24
3138296,60
3138924,85
3139548,73
3140172,85
3140804,94
3141424,45
3142052,57
3142684,54
3143304,49
3143936,23
3144560,43
3145188,47
3145820,40
3146440,10
3147068,11
3147696,17
3148320,48
3148952,33
3149568,123
3150252,146
3150932,93
3151552,67
3152184,19
3152808,46
3153432,91
3154064,84
3154680,46
3155308,33
3155932,28
3156560,33
3157188,56
3157808,49
3158440,60
3159068,78
3159688,101
3160368,135
3161044,128
3161716,113
3162396,113
3163068,68
3163688,22
3164320,57
3164936,104
3165616,81
3166248,60
3166864,54
3167496,51
3168120,50
3168752,27
3169380,55
3170000,72
3170632,45
3171256,13
3171880,72
3172512,76
3173128,16
3173760,32
3174384,48
3175008,51
3175640,53
3176264,53
3176892,47
3177524,36
3178144,74
3178776,16
3179400,52
3180032,51
3180660,30
3181280,21
3181908,29
3182536,55
3183160,111
3183844,95
3184464,75
3185096,78
3185728,33
3186344,36
3186976,26
3187604,25
3188232,154
3188916,218
3189588,198
3190268,106
3190948,49
3191568,76
3192200,81
3192824,75
3193452,59
3194084,39
3194708,42
3195340,32
3195972,31
3196592,11
3197224,12
3197848,13
3198472,25
3199104,80
3199724,88
3200356,81
3200976,77
3201600,72
3202228,26
3202848,14
3203476,67
3204104,134
3204780,164
3205456,154
3206132,122
3206804,78
3207428,34
3208052,60
3208680,63
3209308,65
3209928,73
3210556,89
3211180,80
3211804,53
3212436,17
3213056,32
3213684,11
3214308,13
3214932,31
3215564,18
3216184,49
3216812,78
3217440,105
3218108,89
3218732,27
3219356,125
3220032,138
3220708,53
3221328,47
3221956,107
3222640,92
3223256,72
3223884,29
3224512,62
3225136,76
3225764,66
3226384,55
3227012,28
3227636,13
3228260,20
3228888,59
3229512,43
3230140,21
3230772,50
3231392,52
3232024,29
3232644,50
3233272,52
3233904,51
3234524,54
3235152,50
3235780,30
3236404,110
3237084,52
3237704,19
3238332,59
3238964,62
3239584,83
3240212,106
3240888,94
3241504,55
3242136,48
3242752,74
3243384,99
3244008,139
3244684,154
3245364,158
3246036,154
3246708,83
3247336,38
3247960,23
3248588,55
3249220,56
3249840,51
3250468,55
3251096,133
3251772,180
3252448,112
3253124,46
3253748,29
3254380,16
3255000,10
3255632,16
3256256,28
3256880,42
3257508,33
3258128,70
3258756,87
3259380,90
3260008,97
3260636,101
3261312,109
3261996,109
3262676,49
3263296,12
3263928,11
3264560,14
3265176,59
3265808,49
3266432,58
3267060,61
3267692,56
3268312,61
3268944,83
3269568,88
3270192,81
3270824,77
3271440,92
3272072,81
3272696,53
3273320,15
3273952,45
3274576,117
3275260,162
3275940,176
3276612,140
3277292,104
3277968,112
3278636,97
3279260,83
3279888,44
3280512,11
3281140,47
3281760,45
3282388,21
3283016,48
3283632,52
3284260,51
3284884,56
3285508,38
3286136,48
3286760,29
3287388,27
3288008,63
3288632,40
3289260,19
3289880,40
3290508,80
3291128,56
3291752,54
3292380,86
3293004,73
3293632,40
3294260,33
3294880,13
3295508,11
3296132,42
3296760,85
3297388,70
3298008,13
3298632,18
3299256,50
3299880,50
3300508,70
3301128,59
3301756,52
3302380,25
3303004,24
3303632,20
3304248,26
3304880,59
3305508,52
3306128,60
3306756,70
3307380,45
3308012,56
3308640,66
3309256,76
3309884,77
3310508,79
3311132,71
3311760,74
3312384,75
3313012,40
3313636,41
3314260,52
3314888,45
3315512,60
3316140,63
3316772,59
3317392,51
3318024,49
3318644,28
3319276,109
3319956,177
3320628,124
3321304,42
3321932,16
3322552,29
3323180,44
3323804,26
3324428,57
3325060,62
3325680,52
3326308,53
3326932,30
3327556,11
3328188,10
3328804,26
3329432,43
3330060,24
3330680,83
3331308,75
3331928,81
3332556,121
3333240,113
3333908,62
3334532,59
3335156,51
3335780,13
3336408,25
3337032,62
3337660,71
3338288,63
3338912,63
3339540,77
3340164,80
3340792,67
3341424,51
3342040,56
3342668,62
3343292,52
3343916,23
3344544,42
3345168,64
3345796,62
3346420,31
3347044,21
3347672,12
3348296,22
3348928,16
3349556,48
3350176,49
3350804,51
3351428,52
3352060,24
3352688,25
3353308,26
3353936,24
3354560,26
3355180,31
3355812,40
3356432,35
3357060,33
3357684,46
3358308,57
3358940,83
3359564,82
3360192,63
3360820,21
3361436,33
3362068,55
3362688,54
3363320,49
3363948,34
3364568,21
3365196,28
3365820,40
3366440,47
3367068,49
3367688,49
3368316,54
3368940,45
3369564,50
3370192,30
3370808,22
3371440,34
3372068,28
3372688,45
3373316,48
3373940,35
3374572,45
3375200,61
3375816,70
3376448,63
3377072,54
3377696,43
3378324,53
3378944,59
3379572,31
3380196,14
3380820,11
3381448,30
3382064,20
3382692,47
3383320,50
3383944,54
3384572,53
3385196,38
3385828,26
3386456,19
3387072,17
3387700,23
3388324,31
3388948,36
3389576,37
3390200,47
3390828,45
3391452,54
3392076,63
3392704,66
3393320,68
3393952,59
3394580,55
3395200,60
3395828,58
3396452,48
3397080,43
3397712,15
3398328,35
3398956,22
3399580,41
3400208,51
3400836,52
3401456,56
3402084,33
3402708,27
3403332,22
3403960,16
3404580,21
3405208,38
3405836,50
3406456,54
3407084,50
3407708,47
3408340,63
3408968,67
3409584,75
3410212,76
3410836,72
3411464,61
3412092,50
3412712,42
3413340,19
3413964,11
3414588,32
3415220,27
3415840,45
3416468,53
3417100,50
3417720,54
3418348,50
3418972,51
3419604,52
3420232,39
3420852,29
3421480,43
3422104,41
3422728,42
3423356,39
3423976,20
3424608,62
3425232,69
3425856,61
3426484,54
3427104,46
3427736,34
3428364,25
3428984,34
3429612,35
3430236,20
3430868,11
3431500,12
3432120,18
3432748,51
3433372,55
3433996,49
3434628,50
3435248,27
3435876,12
3436500,24
3437128,21
3437756,11
3438376,47
3439008,99
3439636,112
3440308,97
3440936,59
3441556,51
3442184,51
3442812,53
3443432,59
3444060,71
3444684,85
3445308,85
3445936,68
3446552,55
3447184,37
3447812,12
3448432,26
3449060,33
3449684,44
3450316,50
3450944,52
3451564,51
3452192,21
3452816,17
3453444,14
3454072,10
3454696,11
3455328,20
3455952,35
3456576,45
3457204,28
3457824,54
3458452,63
3459084,65
3459704,61
3460332,58
3460956,37
3461588,44
3462216,49
3462836,17
3463464,13
3464088,28
3464708,50
3465340,36
3465960,46
3466588,50
3467212,50
3467836,55
3468468,42
3469088,26
3469716,19
3470348,14
3470968,10
3471596,10
3472224,42
3472852,55
3473480,49
3474104,45
3474732,63
3475356,79
3475984,77
3476612,58
3477232,40
3477860,61
3478488,65
3479112,43
3479740,26
3480360,21
3480988,13
3481620,26
3482236,16
3482868,45
3483492,50
3484120,51
3484748,53
3485368,35
3485996,35
3486620,25
3487244,16
3487876,20
3488496,36
3489124,56
3489748,53
3490372,43
3491000,48
3491620,53
3492248,59
3492880,58
3493496,49
3494124,59
3494748,78
3495380,75
3496008,50
3496632,50
3497260,39
3497884,11
3498508,15
3499140,48
3499760,56
3500388,53
3501016,52
3501640,55
3502268,48
3502888,49
3503516,39
3504148,35
3504768,62
3505396,87
3506020,91
3506652,72
3507284,35
3507904,50
3508532,65
3509156,63
3509780,59
3510412,55
3511032,65
3511664,68
3512288,54
3512912,28
3513544,19
3514160,19
3514792,11
3515424,18
3516040,46
3516672,53
3517296,55
3517928,56
3518556,33
3519176,26
3519808,15
3520432,11
3521056,13
3521684,21
3522304,55
3522932,53
3523556,52
3524180,46
3524808,56
3525424,56
3526056,58
3526684,53
3527304,42
3527932,76
3528556,89
3529188,65
3529816,28
3530432,23
3531064,76
3531688,83
3532312,34
3532944,46
3533560,50
3534188,49
3534812,51
3535436,22
3536064,20
3536688,11
3537316,13
3537944,11
3538568,14
3539196,15
3539820,22
3540452,15
3541084,74
3541704,102
3542388,70
3543008,56
3543632,22
3544264,27
3544880,61
3545512,45
3546144,23
3546760,14
3547388,10
3548012,28
3548644,35
3549276,50
3549896,51
3550528,54
3551152,55
3551776,54
3552408,46
3553024,33
3553656,29
3554276,21
3554900,37
3555532,47
3556152,41
3556784,37
3557412,46
3558032,46
3558664,54
3559288,51
3559916,54
3560548,48
3561168,87
3561796,80
3562420,32
3563048,15
3563676,11
3564296,14
3564924,41
3565548,51
3566172,48
3566804,52
3567428,49
3568056,51
3568688,33
3569304,23
3569932,11
3570556,26
3571188,16
3571820,16
3572440,31
3573072,16
3573696,19
3574320,63
3574952,70
3575568,73
3576200,61
3576824,29
3577448,24
3578080,11
3578704,11
3579336,14
3579964,12
3580584,10
3581216,19
3581840,17
3582472,43
3583100,48
3583724,50
3584356,49
3584976,51
3585600,21
3586228,25
3586848,23
3587476,14
3588108,32
3588728,59
3589356,72
3589980,75
3590612,61
3591240,42
3591860,49
3592488,53
3593112,53
3593736,33
3594364,68
3594984,100
3595664,110
3596348,88
3596968,74
3597596,47
3598220,31
3598852,33
3599484,50
3600104,51
3600732,47
3601356,51
3601980,30
3602612,42
3603232,40
3603860,44
3604492,51
3605108,51
3605740,44
3606364,27
3606992,14
3607620,64
3608240,73
3608868,77
3609492,75
3610120,66
3610748,58
3611368,93
3611996,86
3612620,29
3613244,33
3613872,65
3614496,71
3615124,56
3615756,44
3616376,49
3617004,53
3617628,51
3618256,50
3618884,22
3619504,22
3620132,28
3620756,29
3621384,37
3622012,51
3622632,54
3623260,53
3623884,45
3624508,44
3625140,54
3625760,55
3626388,55
3627016,52
3627640,63
3628268,80
3628892,78
3629524,40
3630152,22
3630772,12
3631400,31
3632024,17
3632648,43
3633276,46
3633896,53
3634528,52
3635152,33
3635776,41
3636404,44
3637024,35
3637652,19
3638284,27
3638904,45
3639532,41
3640160,28
3640788,49
3641420,60
3642040,58
3642668,52
3643292,50
3643916,39
3644548,55
3645168,59
3645800,46
3646420,23
3647044,17
3647676,13
3648296,17
3648924,21
3649552,42
3650176,49
3650804,51
3651428,50
3652060,21
3652688,29
3653304,34
3653936,32
3654560,53
3655184,67
3655816,71
3656432,63
3657060,33
3657684,49
3658308,59
3658940,66
3659560,69
3660192,72
3660820,61
3661440,61
3662068,72
3662692,59
3663324,44
3663956,22
3664576,22
3665204,16
3665828,51
3666456,53
3667084,50
3667704,48
3668332,51
3668960,40
3669584,33
3670212,22
3670832,21
3671464,59
3672092,64
3672712,56
3673344,61
3673968,44
3674596,51
3675228,56
3675848,55
3676480,58
3677104,45
3677728,56
3678360,61
3678976,55
3679608,40
3680232,30
3680856,16
3681484,36
3682104,17
3682732,38
3683364,46
3683984,58
3684616,62
3685240,48
3685868,21
3686500,18
3687116,25
3687748,12
3688372,23
3688992,31
3689624,19
3690240,16
3690868,69
3691492,77
3692116,63
3692744,57
3693368,35
3693996,30
3694628,48
3695248,54
3695876,15
3696500,34
3697132,30
3697760,22
3698384,16
3699012,37
3699636,44
3700260,50
3700892,46
3701512,53
3702144,61
3702768,35
3703388,29
3704020,35
3704644,38
3705272,36
3705904,40
3706524,53
3707152,23
3707776,59
3708408,78
3709036,65
3709656,60
3710284,69
3710912,73
3711536,93
3712168,83
3712784,47
3713412,25
3714036,12
3714660,17
3715288,15
3715912,44
3716540,48
3717172,50
3717792,49
3718420,24
3719044,30
3719676,43
3720304,37
3720928,11
3721556,39
3722184,90
3722808,75
3723436,52
3724056,45
3724684,53
3725312,54
3725936,60
3726568,57
3727192,40
3727820,51
3728452,46
3729072,35
3729700,24
3730324,21
3730952,17
3731580,23
3732200,21
3732828,37
3733452,47
3734076,49
3734708,48
3735328,14
3735960,21
3736588,22
3737208,50
3737840,45
3738464,34
3739092,40
3739724,31
3740344,24
3740972,43
3741596,60
3742224,69
3742852,57
3743472,48
3744104,53
3744728,70
3745352,88
3745980,64
3746600,35
3747228,11
3747860,20
3748480,13
3749108,49
3749732,56
3750364,53
3750996,48
3751616,42
3752248,15
3752872,23
3753496,18
3754128,11
3754744,20
3755376,43
3756000,65
3756624,88
3757256,76
3757876,43
3758504,48
3759136,50
3759756,49
3760388,35
3761012,30
3761644,31
3762272,36
3762892,33
3763524,22
3764148,12
3764772,11
3765404,28
3766024,54
3766656,46
3767280,49
3767904,47
3768536,16
3769160,11
3769788,10
3770420,18
3771040,39
3771668,66
3772296,77
3772924,60
3773556,28
3774176,56
3774808,89
3775432,101
3776108,77
3776732,65
3777356,68
3777988,76
3778620,72
3779240,43
3779868,11
3780492,80
3781124,137
3781804,85
3782424,44
3783052,49
3783676,48
3784304,47
3784936,39
3785560,24
3786192,29
3786820,35
3787440,35
3788072,33
3788696,30
3789320,29
3789952,50
3790568,39
3791200,51
3791824,66
3792448,65
3793076,76
3793696,76
3794328,57
3794956,50
3795576,51
3796208,28
3796832,27
3797460,13
3798092,12
3798712,23
3799344,37
3799968,47
3800592,49
3801224,45
3801840,26
3802468,20
3803092,15
3803720,32
3804348,43
3804968,41
3805596,50
3806228,45
3806848,46
3807480,47
3808104,63
3808732,69
3809364,64
3809984,64
3810612,54
3811236,48
3811860,39
3812492,30
3813112,34
3813744,16
3814368,35
3814992,25
3815624,38
3816244,51
3816872,47
3817504,45
3818124,48
3818756,13
3819380,25
3820012,31
3820644,29
3821264,17
3821896,55
3822520,92
3823144,80
3823776,74
3824396,39
3825024,47
3825652,48
3826276,49
3826908,26
3827532,74
3828164,89
3828796,84
3829416,44
3830048,13
3830676,33
3831304,30
3831936,15
3832556,42
3833184,46
3833812,47
3834436,55
3835068,52
3835688,37
3836320,21
3836952,11
3837572,12
3838204,18
3838828,24
3839460,26
3840092,27
3840708,47
3841340,77
3841964,83
3842584,71
3843216,66
3843832,81
3844460,73
3845084,41
3845708,29
3846340,10
3846960,13
3847588,26
3848220,34
3848840,24
3849468,40
3850092,49
3850724,57
3851352,60
3851976,40
3852604,28
3853228,11
3853852,16
3854484,11
3855104,27
3855732,46
3856356,41
3856980,32
3857612,44
3858232,59
3858860,57
3859492,53
3860112,19
3860740,29
3861364,17
3861996,46
3862624,36
3863248,27
3863876,15
3864504,19
3865128,19
3865756,43
3866376,45
3867004,47
3867628,51
3868252,36
3868884,40
3869508,34
3870136,11
3870768,16
3871388,10
3872016,25
3872640,35
3873268,28
3873900,36
3874520,60
3875152,51
3875776,48
3876400,46
3877028,17
3877648,47
3878276,69
3878904,65
3879528,50
3880160,53
3880780,22
3881412,15
3882044,14
3882664,39
3883296,54
3883920,56
3884548,49
3885180,14
3885800,13
3886432,14
3887056,21
3887680,53
3888312,98
3888928,122
3889612,146
3890292,159
3890964,75
3891592,56
3892216,85
3892840,73
3893468,64
3894092,79
3894724,102
3895404,78
3896024,27
3896652,18
3897276,12
3897900,18
3898532,14
3899152,46
3899784,48
3900408,47
3901032,48
3901664,29
3902288,29
3902920,18
3903548,10
3904168,23
3904796,30
3905420,38
3906052,45
3906680,49
3907304,43
3907932,73
3908560,73
3909184,75
3909812,59
3910432,37
3911060,33
3911692,48
3912312,49
3912944,42
3913568,22
3914200,30
3914828,38
3915448,22
3916080,40
3916704,45
3917328,49
3917960,47
3918580,25
3919208,20
3919832,12
3920460,12
3921088,34
3921712,48
3922344,48
3922972,28
3923592,19
3924224,44
3924848,49
3925476,50
3926108,53
3926728,50
3927360,61
3927984,79
3928608,65
3929240,42
3929856,13
3930488,12
3931112,42
3931736,42
3932368,42
3932992,48
3933620,49
3934252,49
3934872,37
3935500,21
3936128,25
3936756,29
3937388,35
3938008,35
3938636,39
3939260,35
3939884,35
3940516,36
3941136,63
3941764,66
3942388,65
3943016,54
3943644,52
3944268,67
3944900,83
3945528,89
3946148,66
3946776,27
3947400,17
3948028,13
3948660,37
3949280,44
3949908,44
3950532,48
3951160,51
3951788,48
3952408,55
3953036,16
3953660,18
3954288,32
3954916,62
3955544,91
3956172,77
3956804,42
3957424,47
3958056,49
3958680,49
3959304,45
3959932,48
3960552,67
3961184,53
3961808,29
3962432,12
3963060,33
3963680,31
3964308,35
3964940,31
3965560,42
3966192,49
3966816,47
3967444,47
3968076,45
3968696,17
3969324,11
3969948,15
3970572,14
3971200,26
3971824,41
3972456,51
3973080,43
3973704,20
3974332,60
3974952,79
3975584,84
3976212,70
3976832,57
3977460,55
3978084,53
3978716,46
3979348,38
3979968,23
3980600,14
3981224,15
3981848,17
3982476,40
3983096,47
3983728,54
3984352,55
3984976,37
3985604,24
3986224,14
3986856,16
3987484,10
3988104,11
3988736,39
3989360,60
3989988,57
3990620,49
3991240,72
3991872,67
3992496,77
3993120,86
3993752,74
3994368,48
3994996,23
3995624,21
3996248,31
3996876,28
3997496,23
3998124,52
3998756,46
3999376,40
4000008,51
4000628,51
4001260,54
4001888,51
4002504,44
4003136,34
4003760,22
4004384,20
4005012,20
4005632,37
4006260,47
4006884,32
4007508,51
4008140,86
4008760,83
4009388,70
4010020,40
4010640,25
4011268,57
4011892,72
4012524,43
4013156,18
4013776,13
4014404,37
4015028,27
4015652,44
4016284,46
4016904,50
4017532,51
4018156,41
4018780,18
4019412,25
4020036,17
4020664,11
4021292,28
4021912,69
4022540,60
4023164,35
4023796,38
4024428,62
4025048,72
4025676,68
4026300,56
4026924,48
4027552,58
4028172,61
4028800,58
4029424,35
4030048,17
4030680,28
4031304,49
4031932,27
4032564,39
4033184,48
4033812,50
4034436,48
4035068,30
4035700,36
4036320,20
4036948,15
4037572,41
4038196,57
4038828,54
4039448,52
4040076,49
4040700,42
4041328,59
4041956,64
4042580,79
4043212,79
4043844,75
4044464,58
4045096,58
4045716,55
4046344,44
4046972,27
4047592,15
4048224,21
4048844,41
4049468,44
4050100,50
4050720,57
4051348,54
4051980,42
4052600,32
4053228,20
4053852,12
4054484,16
4055116,35
4055736,55
4056364,67
4056988,40
4057612,52
4058244,68
4058864,81
4059492,78
4060120,64
4060744,41
4061372,63
4061992,77
4062624,53
4063252,30
4063872,12
4064504,21
4065128,16
4065760,43
4066388,48
4067008,49
4067640,52
4068264,75
4068888,59
4069516,30
4070136,25
4070768,33
4071392,42
4072016,71
4072644,71
4073264,46
4073896,46
4074524,56
4075144,67
4075776,86
4076400,82
4077028,56
4077660,56
4078280,61
4078912,33
4079536,29
4080160,30
4080788,17
4081408,26
4082040,24
4082664,41
4083288,47
4083916,47
4084536,51
4085168,30
4085796,18
4086416,11
4087044,15
4087668,11
4088300,20
4088932,12
4089552,17
4090184,17
4090808,42
4091432,49
4092064,49
4092680,51
4093312,26
4093940,42
4094564,59
4095196,53
4095824,12
4096456,19
4097084,16
4097700,29
4098328,21
4098952,47
4099580,67
4100208,71
4100824,55
4101452,35
4102072,18
4102696,13
4103324,16
4103944,19
4104572,13
4105192,29
4105816,39
4106444,38
4107060,28
4107692,56
4108320,58
4108936,60
4109564,59
4110188,42
4110816,55
4111444,66
4112064,68
4112692,38
4113312,11
4113936,45
4114564,66
4115184,26
4115812,42
4116436,48
4117060,48
4117688,46
4118312,19
4118940,10
4119572,25
4120192,13
4120820,15
4121444,11
4122072,49
4122704,54
4123320,45
4123948,44
4124572,51
4125196,45
4125824,46
4126440,42
4127072,32
4127696,41
4128316,53
4128948,39
4129568,26
4130196,26
4130824,11
4131448,11
4132076,38
4132700,47
4133328,48
4133960,48
4134576,44
4135208,14
4135828,11
4136452,22
4137084,46
4137704,78
4138332,67
4138956,71
4139580,57
4140208,29
4140824,47
4141452,59
4142076,60
4142704,61
4143332,73
4143956,61
4144588,73
4145220,79
4145840,44
4146468,15
4147092,14
4147720,12
4148348,14
4148968,42
4149596,43
4150220,48
4150844,50
4151472,29
4152096,17
4152724,11
4153356,10
4153976,31
4154604,43
4155228,55
4155860,63
4156488,68
4157108,51
4157736,47
4158360,64
4158984,64
4159612,57
4160232,44
4160860,64
4161484,63
4162104,50
4162732,23
4163352,17
4163980,17
4164604,26
4165224,17
4165856,39
4166476,48
4167108,51
4167736,50
4168352,39
4168984,39
4169604,27
4170232,16
4170864,28
4171480,39
4172112,49
4172736,39
4173360,29
4173988,42
4174608,53
4175236,53
4175860,60
4176484,65
4177112,70
4177740,88
4178368,79
4178996,23
4179616,11
4180244,10
4180868,28
4181496,18
4182124,43
4182744,47
4183372,49
4183996,49
4184620,49
4185248,39
4185872,27
4186500,24
4187124,22
4187748,26
4188376,25
4189000,39
4189628,47
4190256,23
4190880,62
4191508,73
4192132,65
4192764,58
4193392,55
4194008,62
4194640,63
4195264,53
4195888,18
4196516,10
4197136,20
4197764,32
4198388,27
4199016,43
4199644,45
4200268,49
4200896,49
4201524,27
4202144,39
4202772,21
4203396,12
4204024,19
4204656,12
4205272,28
4205900,18
4206524,14
4207148,46
4207780,62
4208400,65
4209028,74
4209652,78
4210276,43
4210904,12
4211528,11
4212156,12
4212788,11
4213408,14
4214036,38
4214660,68
4215292,61
4215920,43
4216544,44
4217172,45
4217800,47
4218420,19
4219052,23
4219672,43
4220300,31
4220924,16
4221552,17
4222180,36
4222804,53
4223436,30
4224068,64
4224684,95
4225316,93
4225936,85
4226564,83
4227192,70
4227816,69
4228444,62
4229068,13
4229692,33
4230324,34
4230944,54
4231572,44
4232204,44
4232824,52
4233452,62
4234076,56
4234708,42
4235336,19
4235956,18
4236584,16
4237208,14
4237832,32
4238464,50
4239080,47
4239712,44
4240336,36
4240960,54
4241588,74
4242208,79
4242836,72
4243468,96
4244088,86
4244716,41
4245340,35
4245972,17
4246600,11
4247216,37
4247848,50
4248472,20
4249096,40
4249724,44
4250344,46
4250972,47
4251596,31
4252220,33
4252848,20
4253472,11
4254100,13
4254732,24
4255352,41
4255984,41
4256608,27
4257236,58
4257868,92
4258488,67
4259116,57
4259744,52
4260368,61
4260996,65
4261616,51
4262244,19
4262868,11
4263492,10
4264120,63
4264740,63
4265368,39
4265996,42
4266616,49
4267244,51
4267868,49
4268500,22
4269128,19
4269744,16
4270376,13
4271000,31
4271624,41
4272252,58
4272872,49
4273500,26
4274124,53
4274748,70
4275380,76
4276000,75
4276628,79
4277256,66
4277880,43
4278508,51
4279132,34
4279764,23
4280392,10
4281016,36
4281644,32
4282268,43
4282892,49
4283520,50
4284136,49
4284768,29
4285392,24
4286016,15
4286644,11
4287264,24
4287892,39
4288524,56
4289144,55
4289772,54
4290396,43
4291028,60
4291656,63
4292280,62
4292908,59
4293532,62
4294156,80
4294788,73
4295408,47
4296036,23
4296660,17
4297284,11
4297916,11
4298536,24
4299164,37
4299796,52
4300416,53
4301048,49
4301668,19
4302300,20
4302928,55
4303544,35
4304176,15
4304800,16
4305420,54
4306052,46
4306672,23
4307300,45
4307924,49
4308548,50
4309180,50
4309800,42
4310428,62
4311060,77
4311680,63
4312308,33
4312932,27
4313564,18
4314196,22
4314816,15
4315444,47
4316068,49
4316696,47
4317324,50
4317944,49
4318576,41
4319200,34
4319824,24
4320456,33
4321072,42
4321700,39
4322332,52
4322952,56
4323580,29
4324204,47
4324836,47
4325464,48
4326080,52
4326712,60
4327336,71
4327960,72
4328588,63
4329208,39
4329836,30
4330460,19
4331084,11
4331716,19
4332336,43
4332964,47
4333596,48
4334216,51
4334844,35
4335472,45
4336100,37
4336732,28
4337352,39
4337984,44
4338604,44
4339232,37
4339860,52
4340480,44
4341108,53
4341736,58
4342360,63
4342992,59
4343608,61
4344236,73
4344868,91
4345488,83
4346116,52
4346744,24
4347372,14
4348004,18
4348624,42
4349256,46
4349880,67
4350504,66
4351136,51
4351756,13
4352388,20
4353008,39
4353632,40
4354260,44
4354884,69
4355512,106
4356192,97
4356816,58
4357444,52
4358068,74
4358692,55
4359320,54
4359944,65
4360576,67
4361196,69
4361824,65
4362452,37
4363076,24
4363704,13
4364336,16
4364952,15
4365584,42
4366208,48
4366836,49
4367468,51
4368088,38
4368716,40
4369340,31
4369964,45
4370592,24
4371216,13
4371844,15
4372468,19
4373092,36
4373724,43
4374348,64
4374980,75
4375608,73
4376232,59
4376864,57
4377488,46
4378116,15
4378748,31
4379368,22
4379996,11
4380624,24
4381248,23
4381880,25
4382496,46
4383128,48
4383756,47
4384376,48
4385004,19
4385628,17
4386260,41
4386888,35
4387504,42
4388136,38
4388760,46
4389384,50
4390016,31
4390632,45
4391260,59
4391888,66
4392512,67
4393140,61
4393760,65
4394388,63
4395020,36
4395640,11
4396268,19
4396896,16
4397524,17
4398156,20
4398776,46
4399408,47
4400032,50
4400656,49
4401284,41
4401904,26
4402536,25
4403160,16
4403784,10
4404412,26
4405032,48
4405660,41
4406292,38
4406912,42
4407540,46
4408164,66
4408796,69
4409428,50
4410048,35
4410676,54
4411304,57
4411928,55
4412556,32
4413176,19
4413808,17
4414432,42
4415056,22
4415684,38
4416304,48
4416932,48
4417564,44
4418184,19
4418812,21
4419436,24
4420068,13
4420696,27
4421320,33
4421948,45
4422576,46
4423200,45
4423828,42
4424448,50
4425076,52
4425700,55
4426324,54
4426952,59
4427576,84
4428204,95
4428836,58
4429456,19
4430084,11
4430708,39
4431336,30
4431968,37
4432588,47
4433216,46
4433840,47
4434468,48
4435096,24
4435716,33
4436344,30
4436972,15
4437592,23
4438224,44
4438848,51
4439480,39
4440108,23
4440728,45
4441356,74
4441984,69
4442612,55
4443244,36
4443864,38
4444496,47
4445120,45
4445744,12
4446372,19
4446992,28
4447624,40
4448248,19
4448872,45
4449500,46
4450124,47
4450756,48
4451388,27
4452008,38
4452636,25
4453264,11
4453892,11
4454524,26
4455144,54
4455772,49
4456396,36
4457020,46
4457652,62
4458272,65
4458900,66
4459532,51
4460152,47
4460784,61
4461408,69
4462040,57
4462668,25
4463288,19
4463920,37
4464544,24
4465168,25
4465796,47
4466416,47
4467044,53
4467672,49
4468296,13
4468924,14
4469544,20
4470176,16
4470804,13
4471424,13
4472056,24
4472680,29
4473312,19
4473940,41
4474560,47
4475192,50
4475816,49
4476440,18
4477072,22
4477688,42
4478320,54
4478944,36
4479572,25
4480204,16
4480824,17
4481452,16
4482080,46
4482696,47
4483328,47
4483952,50
4484580,39
4485212,38
4485832,44
4486460,23
4487084,17
4487708,30
4488336,41
4488956,31
4489584,29
4490208,33
4490832,61
4491460,67
4492080,57
4492708,57
4493340,52
4493960,58
4494592,57
4495216,32
4495844,10
4496476,10
4497096,28
4497724,35
4498352,17
4498976,44
4499604,48
4500224,49
4500856,48
4501480,23
4502104,27
4502732,26
4503352,25
4503984,29
4504616,41
4505232,41
4505864,31
4506488,26
4507116,41
4507744,50
4508364,61
4508992,83
4509616,65
4510240,39
4510868,36
4511488,48
4512116,32
4512740,22
4513364,12
4513996,26
4514616,26
4515244,43
4515876,46
4516496,56
4517124,49
4517748,45
4518380,14
4519012,22
4519632,21
4520264,17
4520884,33
4521508,38
4522140,42
4522760,33
4523388,29
4524012,45
4524636,61
4525268,65
4525892,68
4526524,68
4527156,57
4527776,37
4528408,23
4529028,19
4529660,24
4530288,10
4530912,31
4531544,17
4532168,44
4532788,47
4533420,46
4534040,50
4534668,34
4535296,33
4535920,25
4536552,23
4537176,20
4537804,29
4538436,52
4539056,49
4539688,35
4540312,44
4540936,67
4541568,64
4542184,60
4542816,57
4543440,55
4544064,66
4544692,63
4545312,52
4545940,38
4546572,19
4547192,17
4547824,26
4548448,24
4549076,40
4549708,48
4550328,50
4550960,55
4551584,38
4552208,17
4552836,12
4553456,26
4554088,35
4554712,38
4555336,39
4555968,36
4556588,25
4557216,46
4557848,68
4558464,87
4559096,83
4559720,85
4560352,87
4560980,98
4561600,89
4562228,23
4562852,43
4563480,69
4564108,78
4564728,64
4565356,51
4565984,52
4566608,52
4567240,56
4567856,59
4568488,38
4569116,20
4569736,16
4570364,13
4570992,21
4571620,34
4572252,36
4572872,35
4573500,33
4574128,69
4574752,70
4575384,67
4576000,63
4576632,65
4577256,81
4577880,85
4578512,65
4579128,40
4579760,28
4580392,19
4581008,33
4581640,16
4582268,41
4582896,49
4583528,79
4584148,64
4584776,22
4585404,11
4586028,15
4586660,35
4587280,59
4587912,61
4588536,65
4589160,47
4589788,23
4590412,45
4591044,60
4591672,60
4592296,56
4592924,53
4593548,65
4594180,83
4594812,90
4595432,60
4596060,21
4596684,16
4597312,29
4597940,25
4598560,40
4599188,48
4599820,47
4600440,50
4601068,51
4601696,54
4602324,55
4602956,25
4603576,14
4604208,31
4604832,41
4605456,55
4606084,60
4606704,39
4607336,48
4607960,74
4608588,79
4609216,55
4609832,33
4610464,59
4611092,80
4611712,69
4612340,34
4612964,23
4613596,12
4614224,28
4614848,24
4615476,44
4616100,45
4616724,45
4617356,47
4617976,24
4618604,13
4619228,21
4619852,13
4620484,16
4621104,45
4621732,81
4622364,48
4622984,27
4623612,45
4624240,58
4624868,60
4625496,49
4626120,51
4626748,59
4627376,82
4627996,65
4628628,38
4629248,17
4629876,17
4630500,11
4631124,25
4631756,25
4632376,40
4633004,47
4633636,53
4634256,63
4634884,49
4635508,43
4636140,31
4636768,30
4637392,39
4638024,37
4638648,49
4639272,47
4639904,34
4640520,49
4641152,66
4641776,63
4642400,60
4643028,64
4643652,63
4644280,62
4644912,64
4645528,47
4646160,42
4646784,31
4647412,14
4648044,14
4648664,44
4649292,47
4649916,51
4650540,52
4651172,36
4651792,28
4652424,32
4653048,40
4653672,35
4654300,51
4654924,64
4655556,52
4656188,48
4656808,49
4657436,49
4658064,55
4658692,59
4659324,60
4659944,58
4660572,61
4661196,59
4661820,51
4662452,28
4663072,21
4663700,12
4664332,14
4664952,25
4665584,44
4666208,47
4666836,49
4667468,53
4668088,43
4668720,31
4669344,17
4669968,19
4670596,40
4671216,53
4671848,55
4672472,39
4673096,16
4673724,58
4674344,50
4674976,50
4675604,52
4676224,59
4676852,53
4677476,64
4678108,71
4678740,44
4679360,37
4679988,21
4680616,27
4681236,33
4681868,40
4682488,43
4683116,46
4683744,47
4684368,50
4684996,28
4685616,25
4686244,14
4686876,16
4687496,39
4688128,49
4688748,45
4689380,39
4690012,28
4690632,47
4691260,57
4691884,57
4692512,61
4693140,51
4693760,57
4694392,65
4695016,61
4695640,25
4696272,19
4696892,12
4697520,35
4698152,20
4698776,41
4699408,48
4700032,46
4700664,47
4701292,24
4701912,26
4702544,29
4703168,34
4703792,32
4704424,38
4705048,56
4705680,56
4706308,47
4706928,45
4707560,69
4708184,84
4708816,77
4709444,49
4710064,41
4710696,59
4711320,69
4711944,48
4712576,21
4713192,21
4713824,15
4714448,24
4715072,30
4715704,40
4716320,50
4716952,49
4717580,51
4718200,19
4718832,17
4719456,27
4720088,25
4720716,44
4721336,41
4721964,49
4722588,49
4723216,24
4723844,48
4724464,57
4725096,66
4725720,59
4726344,64
4726976,39
4727592,33
4728224,39
4728856,23
4729476,27
4730108,19
4730732,15
4731364,24
4731992,42
4732616,47
4733248,50
4733872,46
4734496,36
4735128,39
4735748,30
4736380,24
4737004,26
4737628,31
4738256,33
4738876,42
4739504,55
4740136,45
4740756,54
4741384,61
4742012,51
4742640,48
4743272,40
4743888,47
4744520,54
4745144,54
4745768,35
4746400,16
4747016,15
4747648,13
4748272,31
4748896,42
4749524,48
4750152,51
4750784,55
4751416,41
4752032,38
4752660,29
4753284,21
4753916,27
4754548,35
4755168,51
4755800,49
4756424,33
4757048,49
4757676,64
4758296,66
4758928,66
4759560,42
4760176,30
4760808,44
4761432,59
4762064,45
4762692,38
4763312,31
4763944,11
4764568,11
4765192,48
4765824,45
4766440,49
4767068,48
4767696,45
4768320,35
4768948,37
4769568,31
4770200,36
4770828,44
4771448,60
4772080,62
4772704,49
4773332,27
4773964,58
4774584,71
4775216,73
4775840,57
4776464,47
4777092,40
4777712,45
4778344,45
4778968,18
4779592,10
4780224,22
4780844,30
4781472,17
4782104,43
4782720,47
4783352,49
4783976,49
4784608,25
4785240,31
4785860,43
4786492,35
4787116,29
4787744,41
4788376,55
4788992,53
4789624,40
4790248,45
4790872,56
4791504,61
4792124,63
4792756,62
4793388,67
4794008,60
4794640,66
4795264,34
4795896,13
4796528,11
4797144,23
4797776,21
4798400,38
4799024,45
4799656,47
4800276,46
4800904,47
4801528,19
4802152,26
4802780,25
4803404,31
4804036,42
4804664,52
4805288,61
4805916,46
4806540,26
4807172,39
4807804,54
4808424,59
4809052,58
4809676,74
4810300,99
4810932,82
4811552,36
4812184,12
4812812,10
4813432,12
4814060,24
4814684,23
4815316,42
4815944,49
4816568,47
4817196,50
4817824,38
4818448,35
4819076,30
4819696,26
4820324,24
4820948,32
4821572,47
4822204,46
4822824,50
4823456,43
4824084,58
4824704,64
4825336,66
4825960,69
4826588,65
4827220,63
4827840,62
4828472,56
4829096,33
4829720,19
4830352,22
4830968,38
4831600,17
4832224,45
4832848,49
4833476,48
4834096,48
4834724,20
4835356,22
4835976,22
4836604,24
4837232,33
4837860,40
4838492,50
4839112,45
4839740,30
4840364,47
4840988,71
4841620,75
4842240,62
4842868,58
4843492,45
4844120,48
4844748,48
4845368,23
4845996,19
4846628,13
4847248,16
4847880,28
4848504,41
4849132,47
4849764,67
4850384,59
4851016,47
4851640,35
4852264,30
4852896,23
4853512,24
4854144,36
4854768,40
4855392,28
4856024,24
4856648,27
4857276,51
4857908,62
4858528,60
4859160,59
4859784,58
4860416,72
4861048,72
4861664,55
4862296,22
4862920,12
4863548,16
4864180,21
4864800,16
4865428,40
4866056,46
4866680,49
4867308,49
4867932,35
4868564,32
4869192,19
4869816,34
4870444,29
4871068,22
4871696,34
4872324,42
4872944,53
4873576,45
4874200,62
4874824,66
4875452,62
4876072,56
4876704,43
4877332,52
4877952,69
4878584,56
4879208,40
4879836,29
4880468,12
4881088,12
4881716,41
4882344,47
4882968,48
4883596,52
4884216,48
4884844,42
4885468,63
4886096,65
4886724,60
4887344,62
4887976,52
4888608,43
4889224,52
4889856,37
4890480,49
4891108,71
4891740,62
4892360,63
4892992,54
4893616,50
4894240,64
4894872,62
4895488,34
4896120,15
4896744,12
4897368,25
4897996,19
4898616,43
4899248,45
4899876,48
4900496,49
4901124,29
4901752,26
4902384,19
4903016,16
4903632,17
4904264,41
4904892,60
4905516,44
4906148,32
4906768,42
4907400,54
4908024,58
4908652,58
4909280,67
4909908,63
4910540,78
4911172,77
4911796,46
4912428,11
4913052,19
4913676,31
4914308,22
4914928,31
4915564,43
4916184,44
4916808,54
4917436,50
4918056,17
4918684,16
4919316,14
4919936,21
4920568,29
4921188,29
4921820,33
4922448,47
4923072,39
4923700,45
4924324,53
4924948,53
4925580,52
4926200,43
4926828,52
4927452,63
4928076,62
4928708,34
4929328,15
4929956,11
4930584,29
4931208,25
4931836,43
4932460,44
4933092,47
4933720,46
4934340,40
4934968,21
4935596,14
4936220,13
4936848,14
4937464,24
4938096,37
4938720,43
4939344,52
4939972,54
4940592,45
4941224,57
4941852,70
4942472,66
4943100,53
4943724,64
4944356,68
4944988,40
4945608,19
4946236,14
4946860,29
4947484,32
4948116,17
4948736,43
4949364,44
4949992,50
4950616,50
4951244,34
4951864,31
4952496,17
4953124,12
4953744,27
4954372,48
4955000,79
4955632,57
4956260,23
4956880,48
4957508,61
4958132,75
4958760,73
4959388,46
4960008,29
4960636,50
4961260,58
4961884,41
4962516,24
4963140,14
4963768,26
4964400,31
4965016,38
4965648,41
4966272,48
4966904,49
4967532,47
4968152,20
4968780,13
4969404,10
4970028,14
4970660,33
4971280,39
4971908,56
4972536,61
4973160,28
4973788,47
4974412,59
4975044,61
4975676,63
4976296,62
4976928,68
4977548,82
4978180,69
4978812,29
4979432,16
4980060,16
4980684,31
4981312,18
4981940,43
4982560,46
4983188,46
4983820,48
4984440,23
4985068,12
4985696,22
4986324,23
4986956,32
4987576,42
4988208,65
4988832,86
4989456,86
4990084,58
4990704,50
4991336,53
4991960,61
4992588,64
4993216,36
4993840,12
4994468,19
4995100,33
4995720,40
4996352,37
4996976,13
4997604,11
4998236,29
4998856,40
4999484,45
5000108,46
5000732,47
5001364,19
5001984,23
5002616,19
5003240,11
5003864,17
5004492,44
5005112,65
5005744,57
5006372,24
5006992,49
5007624,53
5008248,64
5008876,58
5009508,56
5010128,61
5010760,73
5011384,60
5012008,16
5012636,10
5013256,11
5013888,22
5014512,19
5015136,41
5015768,45
5016392,47
5017024,47
5017656,34
5018272,21
5018900,15
5019524,12
5020156,10
5020788,12
5021408,28
5022040,32
5022664,32
5023288,43
5023920,48
5024536,58
5025168,53
5025800,47
5026416,42
5027048,49
5027672,82
5028300,68
5028932,26
5029552,13
5030184,15
5030808,30
5031432,35
5032064,41
5032680,45
5033312,47
5033936,47
5034560,29
5035192,32
5035812,26
5036440,18
5037072,23
5037696,27
5038328,50
5038952,47
5039584,20
5040216,58
5040832,60
5041460,55
5042088,53
5042712,59
5043344,56
5043960,49
5044592,40
5045216,25
5045840,19
5046468,16
5047088,31
5047720,46
5048348,42
5048968,47
5049596,44
5050224,47
5050856,48
5051488,11
5052104,14
5052736,26
5053360,23
5053988,39
5054620,55
5055240,66
5055872,51
5056500,23
5057124,61
5057752,57
5058380,60
5059012,61
5059640,56
5060264,70
5060896,73
5061520,62
5062152,25
5062784,11
5063400,17
5064032,27
5064656,17
5065280,42
5065912,43
5066528,47
5067160,51
5067792,26
5068412,27
5069044,15
5069668,11
5070300,12
5070928,18
5071552,65
5072184,87
5072808,66
5073432,43
5074064,52
5074684,54
5075312,49
5075940,37
5076564,36
5077196,54
5077816,62
5078448,46
5079080,35
5079704,33
5080336,16
5080960,35
5081588,36
5082220,44
5082840,45
5083472,49
5084096,49
5084720,24
5085352,22
5085972,21
5086600,23
5087228,34
5087852,39
5088484,45
5089108,44
5089740,27
5090372,50
5090992,67
5091624,58
5092248,58
5092872,69
5093504,76
5094124,95
5094756,89
5095380,43
5096004,10
5096636,18
5097256,22
5097888,24
5098520,42
5099140,46
5099772,53
5100396,63
5101028,60
5101660,38
5102280,19
5102912,13
5103536,13
5104164,12
5104796,54
5105416,52
5106048,34
5106676,44
5107300,53
5107932,52
5108556,51
5109188,47
5109824,24
5110440,28
5111072,42
5111696,49
5112328,33
5112960,16
5113580,14
5114212,13
5114840,31
5115464,43
5116096,48
5116716,47
5117348,47
5117984,21
5118604,22
5119236,13
5119864,13
5120496,13
5121124,37
5121744,45
5122372,46
5122996,44
5123616,40
5124248,71
5124864,78
5125492,62
5126116,25
5126736,12
5127368,30
5127984,47
5128612,23
5129244,10
5129864,13
5130492,27
5131116,21
5131744,41
5132376,48
5132992,47
5133624,51
5134244,41
5134868,31
5135500,20
5136120,17
5136748,17
5137372,32
5137996,48
5138624,51
5139248,48
5139876,37
5140508,55
5141128,63
5141756,65
5142380,63
5143012,61
5143640,74
5144264,76
5144892,60
5145516,36
5146144,13
5146772,11
5147392,14
5148020,16
5148644,38
5149268,48
5149900,52
5150520,51
5151152,29
5151780,28
5152400,24
5153028,19
5153652,24
5154280,31
5154912,51
5155532,48
5156160,41
5156784,48
5157408,65
5158040,62
5158656,56
5159284,52
5159908,48
5160532,56
5161164,72
5161784,59
5162412,32
5163044,10
5163664,35
5164292,29
5164916,43
5165548,45
5166176,47
5166800,47
5167428,47
5168052,17
5168676,23
5169308,26
5169928,21
5170556,25
5171184,51
5171808,78
5172436,66
5173060,37
5173692,45
5174320,60
5174940,59
5175572,69
5176196,69
5176824,42
5177456,26
5178072,35
5178704,33
5179328,31
5179952,14
5180584,30
5181200,16
5181832,44
5182456,48
5183080,49
5183708,50
5184336,32
5184964,29
5185592,19
5186216,25
5186844,24
5187468,33
5188100,47
5188728,48
5189352,42
5189984,43
5190608,53
5191232,57
5191860,56
5192480,53
5193108,54
5193740,70
5194360,74
5194992,54
5195616,25
5196244,17
5196876,18
5197496,17
5198124,37
5198752,52
5199376,47
5200004,64
5200624,67
5201252,28
5201876,21
5202504,28
5203132,18
5203752,23
5204380,38
5205012,59
5205632,55
5206264,38
5206888,46
5207516,55
5208148,54
5208768,57
5209400,64
5210024,64
5210648,66
5211276,58
5211896,37
5212528,16
5213152,12
5213776,31
5214404,20
5215024,43
5215656,47
5216284,47
5216904,48
5217532,42
5218160,29
5218788,20
5219420,20
5220040,15
5220668,26
5221296,40
5221920,47
5222548,65
5223168,50
5223796,47
5224420,60
5225044,68
5225672,67
5226296,56
5226924,62
5227556,56
5228176,38
5228804,15
5229428,11
5230060,19
5230692,28
5231312,15
5231944,40
5232568,48
5233192,47
5233824,50
5234440,28
5235072,13
5235696,31
5236320,13
5236948,32
5237576,27
5238208,51
5238836,62
5239456,49
5240088,44
5240712,50
5241344,49
5241972,49
5242592,53
5243224,57
5243844,76
5244468,65
5245100,35
5245720,23
5246348,14
5246972,20
5247600,22
5248228,41
5248852,46
5249480,50
5250108,51
5250728,45
5251356,26
5251980,33
5252608,21
5253236,15
5253856,37
5254484,62
5255104,60
5255728,49
5256356,18
5256976,57
5257604,60
5258228,66
5258852,76
5259480,68
5260104,53
5260732,57
5261364,54
5261984,34
5262612,13
5263236,16
5263868,59
5264496,46
5265112,43
5265744,45
5266368,47
5266992,47
5267620,24
5268240,17
5268868,13
5269492,18
5270116,24
5270744,31
5271368,42
5272000,60
5272628,46
5273248,43
5273876,48
5274500,59
5275132,55
5275760,52
5276384,34
5277012,21
5277636,23
5278260,17
5278892,11
5279512,11
5280140,25
5280764,23
5281392,22
5282020,39
5282644,47
5283272,49
5283900,50
5284520,33
5285148,23
5285772,12
5286400,12
5287028,14
5287648,24
5288276,44
5288900,49
5289524,44
5290152,43
5290768,55
5291400,65
5292024,65
5292648,61
5293276,60
5293900,75
5294532,91
5295160,46
5295780,11
5296408,16
5297032,31
5297660,27
5298292,43
5298912,47
5299540,47
5300164,48
5300788,43
5301420,35
5302040,31
5302668,21
5303292,10
5303920,29
5304552,51
5305172,38
5305804,29
5306432,34
5307056,49
5307684,49
5308308,50
5308936,48
5309564,42
5310184,58
5310816,58
5311440,50
5312064,28
5312692,18
5313312,15
5313940,28
5314572,16
5315192,37
5315824,48
5316448,46
5317076,48
5317708,30
5318328,25
5318960,21
5319584,17
5320208,28
5320836,43
5321456,64
5322088,57
5322712,38
5323336,44
5323968,62
5324584,74
5325216,80
5325844,77
5326464,71
5327092,73
5327716,73
5328344,43
5328972,28
5329592,13
5330220,30
5330844,33
5331468,35
5332096,42
5332712,53
5333344,45
5333968,49
5334592,14
5335220,19
5335840,33
5336468,34
5337096,50
5337720,57
5338348,57
5338972,54
5339600,26
5340232,49
5340848,66
5341476,54
5342100,57
5342728,62
5343356,62
5343976,64
5344608,68
5345232,44
5345856,29
5346484,11
5347104,43
5347732,19
5348364,44
5348984,47
5349612,46
5350236,51
5350868,37
5351496,30
5352120,15
5352748,18
5353372,17
5353996,47
5354628,60
5355248,37
5355876,16
5356500,41
5357124,45
5357756,49
5358376,58
5359008,67
5359636,48
5360256,57
5360884,68
5361508,70
5362140,54
5362768,22
5363392,26
5364020,33
5364644,18
5365268,42
5365900,51
5366520,53
5367148,51
5367772,30
5368396,25
5369028,16
5369648,14
5370276,21
5370908,22
5371528,39
5372156,56
5372784,47
5373412,41
5374044,50
5374664,59
5375296,70
5375920,82
5376544,56
5377172,48
5377792,53
5378420,41
5379044,41
5379668,55
5380296,27
5380916,11
5381544,41
5382172,47
5382792,61
5383420,57
5384044,49
5384672,21
5385304,32
5385920,63
5386552,73
5387176,50
5387800,37
5388428,32
5389048,39
5389676,26
5390300,54
5390924,66
5391556,73
5392176,69
5392804,60
5393436,57
5394056,50
5394684,45
5395308,30
5395940,27
5396572,11
5397192,28
5397820,33
5398448,40
5399068,46
5399700,46
5400320,48
5400948,25
5401572,18
5402200,26
5402828,16
5403448,34
5404076,45
5404708,59
5405328,62
5405960,42
5406584,43
5407212,56
5407844,60
5408464,66
5409092,51
5409716,50
5410340,68
5410968,64
5411592,32
5412224,11
5412844,12
5413468,19
5414100,18
5414724,35
5415352,44
5415980,48
5416600,52
5417228,52
5417852,37
5418484,25
5419112,18
5419732,37
5420364,44
5420984,46
5421608,50
5422240,45
5422856,31
5423488,47
5424112,57
5424736,69
5425364,69
5425992,65
5426620,70
5427252,82
5427872,61
5428500,20
5429124,13
5429752,19
5430380,11
5431000,15
5431632,42
5432256,43
5432880,45
5433508,47
5434128,43
5434756,69
5435384,52
5436008,29
5436636,11
5437264,11
5437892,24
5438524,20
5439144,21
5439776,45
5440400,66
5441028,64
5441656,54
5442280,48
5442908,11
5443532,11
5444156,12
5444784,19
5445404,20
5446032,19
5446660,11
5447280,33
5447908,24
5448532,44
5449164,45
5449792,45
5450408,48
5451040,17
5451660,47
5452292,42
5452924,16
5453544,28
5454172,39
5454796,50
5455420,47
5456048,37
5456672,42
5457300,58
5457928,74
5458552,72
5459180,63
5459804,50
5460436,53
5461064,54
5461688,35
5462316,27
5462944,23
5463568,19
5464196,22
5464816,42
5465444,47
5466068,47
5466692,50
5467324,46
5467944,21
5468576,20
5469204,16
5469824,11
5470452,22
5471076,32
5471708,36
5472340,40
5472960,30
5473588,53
5474216,59
5474840,65
5475468,70
5476088,73
5476716,71
5477344,72
5477968,57
5478600,24
5479216,13
5479844,28
5480476,38
5481096,31
5481724,39
5482348,46
5482980,46
5483608,46
5484232,32
5484860,22
5485484,11
5486108,19
5486740,24
5487360,24
5487988,49
5488616,79
5489240,67
5489868,43
5490488,50
5491116,48
5491748,48
5492368,44
5492996,57
5493624,65
5494252,52
5494884,46
5495504,45
5496136,43
5496760,13
5497384,25
5498016,33
5498632,45
5499264,45
5499888,47
5500512,49
5501140,31
5501768,33
5502396,31
5503028,18
5503648,22
5504280,27
5504904,48
5505532,45
5506164,26
5506784,47
5507412,56
5508040,55
5508660,56
5509292,42
5509912,52
5510544,84
5511168,80
5511792,42
5512424,39
5513048,35
5513676,15
5514308,16
5514928,43
5515560,50
5516184,57
5516808,61
5517436,42
5518056,30
5518688,32
5519312,27
5519936,13
5520568,12
5521188,28
5521816,44
5522448,53
5523068,43
5523700,50
5524324,55
5524952,64
5525584,67
5526208,55
5526840,65
5527464,70
5528088,43
5528716,16
5529336,15
5529968,11
5530592,25
5531216,16
5531844,42
5532464,45
5533092,51
5533724,56
5534344,32
5534976,11
5535600,19
5536228,23
5536860,14
5537480,17
5538108,38
5538732,29
5539356,36
5539988,40
5540608,63
5541236,67
5541864,53
5542488,35
5543116,47
5543736,50
5544368,39
5544996,24
5545616,12
5546244,14
5546868,46
5547500,30
5548132,41
5548752,44
5549384,45
5550008,47
5550632,43
5551264,12
5551880,12
5552512,27
5553136,24
5553760,26
5554392,48
5555016,49
5555648,63
5556276,44
5556896,51
5557524,54
5558152,61
5558784,58
5559412,56
5560032,65
5560664,61
5561288,48
5561912,30
5562540,15
5563160,12
5563792,21
5564424,14
5565040,39
5565672,47
5566296,47
5566928,46
5567560,18
5568176,15
5568808,21
5569432,24
5570056,29
5570688,49
5571304,62
5571932,58
5572556,44
5573180,45
5573812,56
5574432,77
5575060,80
5575692,72
5576312,59
5576944,61
5577568,78
5578196,53
5578828,26
5579448,14
5580080,49
5580704,45
5581328,40
5581956,44
5582576,46
5583204,47
5583832,48
5584456,45
5585084,55
5585704,39
5586336,21
5586964,22
5587584,24
5588216,34
5588840,45
5589468,30
5590100,53
5590720,71
5591352,56
5591976,51
5592600,66
5593232,71
5593852,68
5594480,51
5595108,12
5595732,10
5596364,12
5596984,32
5597616,18
5598244,41
5598864,47
5599496,47
5600120,45
5600748,33
5601380,30
5602000,12
5602628,11
5603252,11
5603876,28
5604508,46
5605128,47
5605756,40
5606384,43
5607008,62
5607636,55
5608264,49
5608892,60
5609524,16
5610144,68
5610776,75
5611400,48
5612028,21
5612660,26
5613280,14
5613908,14
5614532,20
5615156,40
5615788,48
5616408,48
5617036,49
5617660,24
5618288,19
5618916,18
5619544,35
5620172,39
5620804,33
5621424,45
5622056,52
5622680,61
5623304,41
5623932,50
5624552,65
5625184,70
5625808,41
5626432,36
5627064,57
5627680,75
5628312,49
5628944,18
5629560,10
5630192,23
5630816,26
5631448,44
5632080,50
5632696,46
5633324,53
5633948,42
5634572,20
5635200,18
5635816,19
5636444,21
5637068,46
5637692,49
5638324,42
5638944,47
5639572,48
5640204,46
5640824,61
5641452,75
5642076,61
5642708,52
5643336,78
5643956,78
5644584,52
5645208,25
5645832,15
5646460,15
5647080,14
5647708,25
5648332,39
5648956,48
5649588,46
5650208,45
5650836,27
5651468,21
5652088,17
5652716,20
5653340,34
5653972,83
5654600,104
5655276,86
5655900,57
5656528,46
5657152,61
5657780,67
5658400,65
5659028,73
5659660,62
5660280,63
5660908,59
5661532,34
5662164,13
5662792,11
5663416,31
5664044,29
5664668,41
5665292,44
5665920,47
5666544,47
5667172,47
5667800,17
5668424,27
5669052,33
5669672,37
5670304,57
5670936,52
5671552,56
5672184,60
5672808,38
5673436,55
5674068,83
5674688,82
5675316,67
5675944,71
5676568,75
5677200,73
5677816,70
5678448,45
5679072,27
5679696,21
5680328,46
5680944,35
5681576,44
5682204,46
5682824,48
5683456,46
5684080,34
5684708,65
5685340,66
5685960,41
5686588,15
5687212,24
5687836,63
5688468,48
5689088,26
5689716,44
5690340,52
5690968,61
5691596,68
5692216,67
5692848,52
5693476,55
5694096,64
5694724,48
5695348,27
5695980,11
5696612,19
5697232,25
5697860,26
5698488,39
5699112,46
5699740,47
5700360,54
5700992,39
5701616,33
5702240,27
5702872,25
5703496,33
5704128,32
5704756,44
5705376,55
5706008,43
5706632,45
5707260,62
5707892,74
5708512,73
5709144,69
5709768,59
5710392,81
5711024,89
5711644,62
5712276,43
5712904,32
5713528,29
5714160,44
5714784,45
5715416,47
5716044,49
5716664,52
5717296,54
5717920,67
5718544,54
5719176,26
5719792,17
5720424,25
5721052,44
5721676,39
5722308,42
5722928,41
5723560,57
5724192,58
5724808,65
5725436,61
5726064,27
5726696,24
5727328,52
5727948,60
5728580,46
5729204,40
5729828,19
5730460,32
5731080,16
5731712,39
5732336,45
5732964,50
5733596,46
5734220,24
5734852,15
5735484,10
5736104,18
5736732,32
5737356,41
5737988,60
5738616,56
5739236,27
5739864,56
5740488,61
5741112,56
5741740,57
5742360,52
5742992,40
5743616,47
5744240,60
5744868,42
5745492,16
5746124,13
5746756,17
5747376,17
5748004,42
5748628,45
5749256,47
5749884,47
5750504,46
5751132,17
5751760,10
5752384,15
5753012,27
5753632,35
5754260,47
5754892,66
5755512,64
5756144,44
5756768,47
5757400,62
5758032,68
5758648,67
5759280,72
5759904,82
5760528,79
5761160,64
5761776,33
5762404,9
5762976,22
5763600,56
5764228,47
5764848,48
5765476,48
5766100,44
5766724,48
5767352,29
5767968,21
5768600,17
5769228,10
5769848,20
5770476,48
5771100,61
5771732,31
5772364,19
5772984,47
5773612,64
5774236,62
5774860,57
5775492,60
5776112,63
5776740,61
5777364,64
5777988,22
5778616,45
5779236,35
5779864,21
5780492,18
5781112,23
5781740,43
5782364,51
5782996,49
5783628,50
5784248,45
5784876,41
5785504,25
5786128,19
5786756,23
5787376,37
5788004,46
5788628,50
5789252,40
5789884,44
5790504,51
5791136,56
5791764,56
5792384,47
5793012,57
5793636,63
5794268,64
5794900,36
5795520,17
5796148,15
5796772,20
5797400,21
5798028,41
5798648,47
5799276,49
5799900,46
5800528,40
5801156,21
5801776,52
5802404,31
5803036,14
5803656,19
5804284,37
5804912,55
5805540,67
5806172,42
5806792,52
5807424,64
5808048,70
5808672,66
5809300,54
5809920,53
5810548,55
5811176,53
5811800,27
5812432,12
5813048,23
5813680,39
5814312,17
5814928,40
5815560,46
5816184,46
5816816,49
5817444,34
5818064,34
5818692,17
5819320,11
5819944,24
5820572,43
5821192,52
5821824,45
5822448,44
5823072,46
5823704,55
5824328,51
5824956,57
5825588,61
5826208,65
5826840,79
5827460,94
5828092,67
5828720,30
5829344,12
5829976,37
5830600,23
5831224,41
5831856,45
5832472,47
5833104,50
5833732,50
5834352,34
5834984,36
5835608,29
5836240,24
5836868,27
5837488,44
5838116,49
5838740,43
5839368,31
5839996,42
5840616,49
5841248,52
5841872,53
5842496,37
5843124,57
5843744,83
5844372,83
5845004,54
5845624,35
5846256,15
5846880,16
5847508,15
5848140,38
5848760,47
5849388,54
5850016,56
5850640,44
5851268,46
5851888,43
5852520,30
5853144,25
5853768,33
5854400,58
5855016,65
5855648,51
5856280,44
5856896,67
5857528,75
5858152,64
5858780,68
5859412,90
5860032,80
5860660,60
5861288,46
5861912,38
5862544,22
5863160,31
5863792,45
5864416,23
5865040,41
5865668,44
5866288,47
5866916,49
5867548,23
5868168,35
5868796,41
5869424,37
5870056,54
5870688,58
5871304,65
5871936,57
5872560,37
5873188,43
5873816,56
5874440,68
5875072,79
5875696,66
5876324,51
5876952,73
5877580,81
5878212,55
5878844,16
5879464,15
5880096,50
5880720,27
5881352,41
5881980,46
5882600,46
5883232,49
5883856,32
5884480,31
5885112,45
5885732,33
5886364,25
5886992,34
5887616,42
5888248,37
5888872,40
5889504,40
5890132,58
5890752,50
5891384,53
5892008,55
5892632,57
5893260,68
5893880,61
5894512,55
5895136,45
5895760,35
5896392,12
5897008,27
5897640,16
5898268,38
5898888,49
5899516,49
5900140,50
5900772,53
5901404,50
5902024,35
5902652,22
5903280,23
5903904,30
5904532,52
5905152,49
5905780,35
5906408,44
5907028,50
5907660,58
5908280,65
5908912,57
5909540,52
5910160,67
5910792,55
5911416,32
5912048,17
5912676,15
5913296,35
5913928,18
5914552,49
5915176,51
5915808,46
5916424,45
5917056,43
5917680,17
5918304,17
5918936,17
5919560,30
5920192,61
5920820,63
5921440,37
5922068,36
5922692,39
5923324,43
5923952,61
5924572,71
5925200,61
5925824,69
5926448,75
5927080,76
5927696,56
5928324,37
5928948,29
5929576,16
5930204,43
5930832,23
5931460,39
5932092,44
5932712,51
5933344,67
5933968,69
5934600,55
5935232,33
5935848,14
5936480,11
5937104,29
5937728,58
5938360,69
5938980,59
5939612,43
5940240,55
5940856,64
5941484,65
5942108,59
5942740,59
5943368,70
5943988,75
5944616,68
5945240,44
5945864,11
5946496,27
5947112,30
5947744,33
5948368,45
5948992,47
5949620,48
5950240,55
5950872,45
5951500,39
5952120,26
5952752,12
5953376,19
5954004,31
5954636,47
5955256,44
5955884,23
5956508,49
5957132,72
5957764,70
5958384,64
5959016,62
5959640,30
5960264,33
5960892,54
5961512,29
5962144,11
5962772,26
5963392,34
5964024,17
5964648,41
5965276,44
5965908,48
5966528,50
5967156,43
5967784,48
5968408,30
5969036,19
5969656,19
5970288,24
5970912,35
5971536,33
5972164,27
5972784,38
5973416,58
5974048,66
5974664,73
5975296,62
5975920,26
5976552,23
5977184,33
5977804,34
5978432,25
5979056,19
5979680,15
5980312,34
5980928,15
5981560,43
5982184,46
5982808,47
5983436,52
5984056,27
5984688,27
5985316,20
5985936,16
5986564,27
5987188,37
5987820,49
5988452,50
5989072,27
5989704,52
5990328,57
5990952,72
5991584,64
5992204,34
5992832,28
5993460,59
5994084,67
5994712,53
5995340,40
5995972,23
5996604,14
5997224,11
5997856,47
5998480,45
5999112,52
5999744,55
6000364,62
6000992,44
6001616,27
6002240,13
6002868,13
6003488,17
6004116,31
6004748,48
6005368,67
6006000,50
6006624,49
6007252,54
6007884,55
6008504,51
6009136,54
6009760,55
6010384,62
6011016,64
6011636,37
6012264,22
6012888,11
6013516,11
6014144,14
6014768,42
6015400,59
6016032,52
6016648,47
6017276,19
6017900,21
6018532,11
6019164,18
6019784,13
6020416,39
6021040,49
6021664,42
6022292,36
6022912,41
6023540,45
6024168,49
6024792,55
6025424,49
6026040,35
6026672,65
6027300,107
6027972,94
6028600,27
6029224,29
6029848,47
6030480,29
6031096,37
6031728,45
6032352,45
6032976,45
6033608,49
6034224,56
6034856,48
6035484,28
6036104,16
6036736,28
6037360,38
6037992,43
6038624,46
6039240,29
6039872,47
6040500,56
6041124,61
6041756,68
6042376,64
6043008,71
6043632,79
6044256,68
6044884,13
6045508,13
6046140,11
6046772,12
6047392,17
6048024,41
6048644,44
6049276,45
6049908,47
6050528,64
6051160,65
6051784,33
6052408,19
6053040,28
6053660,36
6054292,47
6054924,38
6055544,37
6056176,43
6056800,51
6057432,55
6058064,60
6058680,65
6059312,68
6059936,84
6060564,74
6061196,38
6061816,16
6062448,11
6063072,18
6063700,21
6064328,30
6064952,46
6065584,45
6066212,48
6066832,51
6067464,45
6068088,53
6068716,36
6069348,17
6069968,20
6070600,19
6071224,37
6071848,43
6072480,31
6073096,44
6073728,55
6074352,64
6074976,66
6075608,60
6076232,54
6076864,71
6077496,63
6078112,30
6078744,14
6079372,10
6080004,36
6080632,25
6081252,41
6081880,47
6082504,48
6083128,49
6083756,34
6084376,46
6085004,41
6085632,27
6086256,19
6086888,32
6087512,54
6088140,55
6088772,34
6089392,39
6090024,51
6090648,54
6091272,63
6091904,69
6092524,63
6093152,58
6093780,49
6094404,33
6095032,16
6095652,18
6096284,14
6096912,25
6097536,17
6098168,44
6098792,46
6099424,51
6100052,45
6100672,31
6101304,21
6101928,14
6102552,23
6103184,35
6103804,42
6104432,58
6105056,52
6105684,33
6106312,47
6106932,64
6107564,65
6108192,63
6108816,67
6109448,61
6110072,85
6110704,87
6111336,58
6111956,13
6112588,10
6113212,26
6113840,36
6114468,42
6115088,46
6115720,58
6116344,57
6116968,54
6117600,52
6118224,38
6118856,18
6119488,11
6120108,27
6120740,56
6121364,49
6121992,43
6122624,37
6123244,52
6123876,61
6124500,66
6125124,64
6125756,60
6126376,66
6127008,69
6127640,65
6128260,41
6128892,24
6129516,18
6130148,34
6130780,16
6131400,48
6132032,43
6132656,48
6133280,49
6133912,25
6134532,22
6135164,17
6135788,21
6136416,23
6137048,27
6137672,31
6138304,40
6138936,31
6139556,39
6140188,59
6140812,54
6141444,55
6142076,46
6142700,50
6143332,45
6143960,25
6144588,15
6145216,12
6145832,13
6146464,21
6147092,26
6147712,39
6148340,43
6148964,46
6149596,49
6150224,48
6150848,18
6151476,11
6152100,11
6152724,16
6153356,41
6153976,40
6154608,46
6155232,36
6155856,26
6156484,50
6157104,59
6157732,54
6158364,49
6158984,59
6159616,77
6160240,86
6160868,76
6161500,39
6162120,18
6162748,12
6163376,36
6164000,21
6164628,35
6165248,43
6165876,49
6166500,48
6167124,23
6167756,12
6168376,12
6169004,25
6169636,52
6170256,63
6170884,55
6171508,47
6172140,35
6172768,41
6173392,59
6174024,79
6174648,62
6175272,56
6175904,37
6176520,31
6177152,51
6177776,45
6178400,19
6179028,15
6179656,39
6180284,33
6180916,23
6181536,52
6182168,47
6182792,46
6183424,48
6184052,26
6184672,29
6185304,49
6185928,59
6186552,47
6187180,33
6187800,51
6188432,57
6189064,35
6189680,46
6190312,57
6190936,67
6191568,65
6192196,64
6192816,61
6193444,69
6194072,66
6194696,33
6195328,21
6195944,16
6196576,15
6197200,14
6197824,47
6198452,55
6199072,47
6199704,57
6200332,55
6200952,47
6201584,39
6202208,23
6202840,24
6203468,40
6204088,53
6204720,51
6205344,43
6205968,37
6206600,55
6207220,56
6207848,55
6208476,52
6209100,42
6209732,52
6210352,53
6210984,52
6211612,31
6212232,21
6212864,13
6213488,19
6214120,15
6214748,43
6215368,46
6216000,49
6216624,49
6217248,26
6217876,23
6218496,23
6219128,24
6219752,34
6220380,35
6221012,44
6221636,44
6222268,36
6222900,41
6223520,54
6224152,63
6224776,68
6225408,71
6226040,71
6226656,84
6227284,81
6227908,64
6228532,50
6229164,34
6229784,22
6230416,25
6231040,40
6231664,59
6232296,79
6232920,61
6233552,52
6234184,42
6234800,27
6235432,11
6236056,15
6236680,23
6237312,40
6237928,55
6238560,45
6239184,23
6239808,57
6240440,47
6241064,47
6241696,57
6242324,59
6242944,66
6243576,82
6244200,57
6244828,18
6245460,14
6246080,13
6246712,22
6247336,17
6247960,37
6248588,46
6249208,49
6249836,46
6250460,20
6251084,23
6251716,30
6252336,26
6252964,27
6253596,34
6254216,43
6254848,44
6255472,32
6256100,49
6256732,66
6257352,74
6257984,72
6258608,59
6259232,43
6259860,45
6260480,62
