tempo_arduino_micro_s,valor_ADC
500,27
1004,30
1500,32
2000,35
2500,36
3000,37
3500,17
4000,19
4500,19
5000,11
5500,12
6000,20
6500,28
7004,31
7500,24
8000,21
8500,19
9000,31
9500,36
10000,43
10516,48
11036,41
11564,41
12084,35
12612,46
13132,45
13660,37
14180,16
14708,17
15228,20
15756,12
16276,12
16796,23
17316,41
17836,31
18356,38
18876,45
19396,36
19916,29
20436,18
20956,18
21476,15
21996,11
22516,18
23036,40
23564,44
24084,42
24612,29
25132,16
25660,31
26180,38
26708,44
27228,48
27756,40
28276,26
28804,15
29324,25
29852,26
30372,26
30900,15
31420,16
31948,16
32472,10
32996,10
33516,10
34044,34
34564,37
35092,34
35612,36
36140,36
36660,19
37188,11
37708,15
38236,18
38760,17
39284,17
39804,23
40332,22
40852,19
41372,25
41892,32
42412,32
42932,36
43452,39
43972,48
44492,51
45012,42
45532,31
46052,25
46572,23
47092,32
47612,24
48140,20
48660,9
49120,21
49644,17
50164,12
50684,30
51212,34
51732,39
52260,32
52780,37
53308,19
53828,28
54356,29
54876,16
55404,12
55924,13
56452,15
56972,19
57500,21
58020,30
58548,27
59068,32
59596,39
60116,47
60644,49
61164,45
61692,38
62212,34
62740,39
63260,43
63788,39
64312,24
64836,19
65356,10
65884,32
66404,29
66932,14
67452,32
67980,33
68500,34
69020,33
69540,38
70060,20
70584,12
71100,22
71624,27
72144,32
72660,30
73180,32
73704,35
74220,33
74744,22
75260,15
75788,39
76312,41
76836,36
77356,45
77884,51
78404,42
78932,23
79456,15
79980,17
80504,16
81028,10
81548,10
82076,11
82596,14
83124,20
83644,17
84172,30
84692,34
85220,32
85740,33
86268,35
86788,15
87316,13
87836,11
88364,10
88884,10
89412,10
89936,10
90460,12
90980,15
91508,25
92032,23
92556,30
93076,35
93596,39
94120,43
94636,46
95160,45
95680,35
96200,42
96716,45
97236,39
97760,14
98276,17
98796,38
99320,46
99836,28
100364,15
100928,32
101512,34
102084,35
102664,37
103232,28
103808,12
104376,24
104944,17
105520,12
106088,24
106672,51
107240,79
107816,73
108384,47
108968,37
109536,89
110104,107
110740,66
111304,43
111888,33
112460,35
113040,33
113608,20
114184,11
114760,15
115328,10
115912,11
116480,11
117064,21
117632,32
118216,34
118792,42
119360,38
119944,22
120516,14
121096,12
121664,11
122248,13
122816,21
123396,27
123976,33
124544,25
125128,14
125696,38
126280,48
126848,48
127432,43
128008,35
128576,20
129152,29
129720,43
130296,48
130864,46
131448,35
132016,15
132592,49
133168,61
133736,26
134312,32
134884,38
135464,34
136032,35
136616,29
137184,35
137764,25
138344,14
138912,12
139496,24
140068,30
140648,28
141216,23
141792,16
142376,35
142948,42
143528,48
144096,48
144680,41
145248,32
145824,38
146392,47
146968,43
147552,14
148120,16
148704,23
149272,27
149856,17
150424,19
151000,33
151584,35
152156,35
152736,37
153308,17
153888,20
154456,19
155040,11
155608,10
156184,25
156768,41
157340,47
157920,41
158488,22
159072,37
159644,52
160220,51
160800,46
161368,40
161944,33
162512,52
163096,61
163668,45
164248,11
164816,19
165384,21
165960,26
166528,16
167112,21
167680,33
168256,33
168824,35
169408,35
169976,19
170552,12
171128,11
171696,13
172280,22
172848,11
173432,18
174004,43
174576,51
175160,22
175732,53
176312,59
176884,43
177464,35
178032,35
178616,14
179184,34
179764,40
180344,30
180912,11
181496,10
182064,11
182648,15
183216,15
183792,30
184376,34
184944,34
185528,35
186100,38
186680,19
187248,14
187832,10
188404,12
188976,26
189560,35
190128,38
190712,35
191284,27
191864,17
192436,38
193008,56
193592,54
194164,42
194744,39
195312,27
195896,34
196464,37
197048,34
197616,16
198192,11
198776,16
199344,35
199928,36
200500,30
201080,33
201648,34
202224,35
202808,34
203380,15
203960,11
204532,12
205112,10
205680,13
206264,16
206832,19
207400,24
207984,17
208552,13
209136,44
209704,53
210288,43
210856,37
211432,34
212016,27
212584,42
213168,38
213736,35
214320,25
214892,33
215472,18
216040,19
216616,15
217192,31
217764,34
218344,35
218912,39
219496,33
220068,14
220640,15
221224,19
221792,29
222376,35
222948,39
223528,33
224100,29
224680,24
225248,14
225828,43
226408,47
226976,45
227560,39
228128,34
228712,25
229284,34
229856,32
230440,30
231008,17
231584,11
232156,11
232736,21
233304,21
233888,29
234456,35
235036,34
235616,33
236184,35
236768,15
237340,15
237920,13
238492,12
239064,14
239648,24
240220,29
240800,27
241368,31
241944,16
242512,39
243096,44
243668,51
244240,47
244824,42
245392,40
245976,38
246544,42
247128,33
247696,14
248272,11
248856,13
249424,14
250008,17
250576,47
251160,31
251732,60
252312,44
252884,34
253456,15
254040,25
254612,22
255192,12
255764,27
256344,16
256920,29
257488,52
258064,50
258632,27
259216,38
259784,44
260360,45
260928,39
261512,30
262080,20
262656,36
263240,42
263808,43
264392,23
264960,11
265544,28
266116,35
266696,29
267272,32
267840,34
268424,36
268992,34
269576,35
270144,15
270728,17
271296,15
271876,11
272456,10
273024,15
273608,25
274176,27
274760,23
275332,20
275912,39
276488,44
277056,42
277632,38
278204,30
278784,33
279356,40
279936,36
280508,23
281080,14
281664,18
282232,13
282808,11
283376,11
283960,35
284532,35
285112,33
285684,38
286260,36
286840,19
287408,16
287992,12
288564,11
289144,10
289712,11
290288,17
290872,15
291444,26
292024,26
292592,38
293176,55
293748,65
294328,50
294908,29
295484,16
296064,27
296632,35
297216,29
297784,12
298368,26
298940,33
299516,26
300096,23
300668,31
301248,32
301820,34
302400,35
302980,35
303560,12
304144,17
304716,24
305296,29
305868,52
306448,50
307028,29
307608,15
308184,15
308760,32
309344,51
309916,52
310496,45
311064,44
311648,31
312220,20
312796,27
313376,26
313948,15
314528,11
315100,10
315680,15
316260,15
316840,13
317412,29
317988,32
318568,33
319140,36
319720,32
320300,13
320880,9
321396,12
321976,10
322544,18
323124,22
323704,19
324276,22
324856,21
325424,26
326008,39
326580,40
327152,38
327736,34
328304,26
328888,19
329456,27
330032,32
330600,21
331184,17
331756,12
332332,16
332912,20
333480,13
334056,35
334624,35
335208,35
335776,36
336356,35
336936,11
337504,11
338088,11
338656,12
339232,16
339800,27
340376,26
340944,26
341520,27
342104,33
342672,36
343256,36
343824,40
344408,48
344976,36
345552,24
346136,21
346708,29
347288,26
347856,19
348440,15
349008,11
349592,13
350164,18
350740,29
351320,33
351892,34
352472,34
353052,32
353632,11
354200,13
354776,18
355360,16
355928,24
356512,20
357084,30
357664,35
358236,32
358816,32
359392,39
359972,50
360552,54
361124,48
361704,47
362272,48
362856,49
363428,45
364004,27
364584,12
365156,24
365736,42
366308,35
366888,21
367456,30
368040,33
368608,35
369188,34
369768,30
370336,22
370920,18
371492,15
372072,11
372640,11
373216,11
373800,18
374368,26
374952,42
375524,38
376104,32
376676,35
377256,43
377828,43
378404,42
378984,43
379556,45
380136,31
380708,15
381288,11
381868,19
382444,32
383024,32
383596,18
384180,31
384748,35
385328,37
385896,35
386480,21
387048,15
387628,16
388208,18
388776,14
389360,10
389928,14
390512,16
391080,19
391660,24
392240,32
392812,35
393392,38
393964,40
394544,35
395116,19
395696,42
396276,51
396852,48
397432,31
398004,18
398584,13
399156,14
399736,16
400316,20
400892,38
401472,35
402044,36
402624,37
403196,19
403776,15
404356,24
404936,41
405512,39
406084,37
406664,27
407236,25
407816,16
408388,15
408968,49
409540,57
410116,54
410696,43
411264,38
411848,27
412416,36
413000,34
413568,32
414152,16
414728,13
415296,10
415880,26
416452,34
417032,27
417600,33
418184,31
418752,35
419328,38
419912,19
420480,15
421064,11
421632,11
422216,12
422788,11
423368,12
423944,19
424516,30
425096,30
425664,30
426248,31
426816,47
427400,48
427968,39
428548,26
429128,36
429696,42
430280,40
430848,23
431432,11
432004,10
432584,17
433160,11
433732,31
434312,33
434884,33
435464,33
436032,35
436616,14
437188,12
437764,13
438344,13
438916,12
439496,22
440068,34
440648,48
441216,56
441800,31
442376,32
442948,43
443528,51
444100,56
444680,46
445252,44
445832,20
446404,18
446976,29
447560,18
448132,13
448712,11
449280,27
449864,24
450436,30
451016,34
451592,37
452164,35
452744,38
453316,21
453896,11
454468,15
455048,19
455616,18
456196,20
456776,31
457348,51
457928,49
458500,20
459080,46
459652,50
460232,46
460808,49
461376,50
461952,42
462524,42
463104,37
463676,34
464256,16
464824,10
465400,13
465984,15
466552,17
467136,32
467708,32
468288,36
468860,38
469440,34
470012,14
470588,12
471168,13
471740,20
472320,21
472888,18
473472,15
474044,23
474620,42
475200,27
475772,39
476352,46
476924,45
477504,43
478076,38
478656,30
479240,35
479812,34
480392,31
480964,29
481544,19
482112,14
482696,29
483268,26
483840,30
484424,34
484996,33
485576,34
486148,34
486728,16
487304,11
487888,10
488464,11
489036,15
489616,28
490184,35
490768,24
491348,15
491928,19
492508,44
493080,51
493664,48
494232,43
494816,33
495388,26
495968,28
496540,33
497116,15
497696,20
498268,32
498848,24
499420,11
500000,11
500568,32
501152,32
501724,34
502300,33
502880,35
503452,11
504032,11
504604,12
505184,20
505756,25
506332,26
506912,28
507484,15
508064,19
508636,40
509216,56
509796,35
510376,34
510956,38
511532,31
512116,25
512684,27
513264,23
513832,15
514416,10
514984,11
515560,16
516144,19
516712,17
517296,28
517864,34
518448,34
519016,36
519600,33
520172,13
520744,16
521328,12
521896,11
522480,10
523048,17
523632,34
524204,40
524776,34
525360,31
525932,46
526512,47
527084,37
527664,35
528236,23
528816,21
529384,29
529964,46
530544,45
531116,20
531696,13
532276,22
532856,20
533424,15
534004,30
534584,33
535156,36
535736,34
536308,31
536888,16
537460,18
538040,23
538608,16
539184,11
539768,12
540340,22
540920,32
541492,47
542072,32
542644,55
543220,64
543800,52
544372,42
544952,30
545524,23
546104,16
546676,21
547256,28
547828,35
548404,21
548984,17
549556,20
550136,13
550708,29
551288,31
551860,34
552436,34
553016,24
553588,12
554168,13
554740,10
555320,11
555892,14
556472,27
557044,47
557620,31
558200,18
558772,36
559352,46
559932,49
560512,41
561092,35
561668,18
562248,30
562820,37
563400,34
563972,20
564552,10
565124,10
565704,25
566280,34
566852,21
567432,32
568004,34
568584,36
569156,37
569736,24
570316,10
570892,23
571472,24
572044,15
572624,23
573196,29
573776,40
574356,38
574932,27
575512,34
576084,44
576664,42
577232,38
577816,45
578384,58
578968,58
579536,31
580116,11
580696,14
581268,15
581848,15
582420,14
583000,11
583572,20
584148,33
584728,32
585300,36
585880,35
586452,23
587032,20
587604,13
588184,13
588756,20
589332,33
589912,27
590484,21
591064,21
591636,18
592216,42
592796,57
593372,48
593952,39
594524,38
595104,25
595676,39
596256,47
596836,41
597416,26
597988,14
598564,12
599144,34
599716,32
600296,28
600876,37
601456,38
602036,36
602612,36
603192,33
603764,28
604344,22
604916,15
605496,15
606068,29
606648,34
607228,29
607804,26
608384,14
608960,41
609536,39
610108,45
610688,41
611260,37
611836,26
612420,34
612992,38
613568,31
614144,17
614724,13
615296,11
615880,16
616456,15
617028,32
617608,33
618176,33
618760,35
619340,39
619920,40
620500,41
621076,19
621656,11
622228,10
622808,16
623380,22
623960,20
624532,24
625108,14
625688,43
626260,46
626840,49
627412,42
627992,35
628564,34
629144,39
629716,35
630292,31
630872,13
631444,14
632024,33
632604,30
633184,14
633764,38
634340,48
634920,35
635492,35
636072,37
636648,14
637224,21
637804,29
638384,17
638964,10
639540,12
640124,20
640692,23
641272,28
641840,18
642424,44
642992,49
643572,45
644152,43
644724,29
645304,19
645872,30
646456,29
647024,22
647608,11
648180,10
648752,28
649336,39
649908,33
650488,29
651056,32
651640,32
652212,34
652788,35
653368,18
653940,19
654520,16
655092,13
655672,13
656248,14
656832,23
657400,33
657968,32
658552,25
659124,39
659704,41
660272,47
660856,41
661424,43
662000,43
662584,49
663152,41
663736,26
664308,13
664888,9
665408,15
665984,21
666552,17
667128,30
667712,32
668280,35
668864,34
669432,32
670016,13
670588,10
671168,13
671740,25
672316,28
672896,30
673464,29
674048,16
674616,15
675200,21
675768,48
676348,51
676928,38
677496,38
678080,29
678648,24
679232,33
679804,38
680384,28
680952,15
681532,14
682112,11
682684,11
683264,13
683836,32
684416,34
684988,34
685564,34
686144,35
686716,11
687296,11
687868,16
688448,28
689016,42
689600,40
690168,41
690748,30
691328,23
691900,26
692480,41
693048,42
693632,36
694204,35
694780,30
695360,30
695932,37
696512,41
697084,25
697664,12
698232,10
698816,21
699388,22
699964,13
700544,33
701116,35
701696,37
702276,38
702856,39
703436,17
704012,10
704592,11
705164,13
705744,11
706316,17
706896,31
707476,43
708052,43
708632,32
709204,47
709784,57
710356,53
710940,47
711516,39
712100,22
712676,19
713252,18
713832,17
714404,22
714984,21
715556,10
716136,11
716716,15
717292,34
717872,35
718444,36
719024,35
719596,24
720176,17
720752,23
721336,28
721908,24
722484,19
723064,16
723636,23
724216,31
724788,25
725368,35
725940,59
726516,66
727096,51
727668,41
728248,23
728820,37
729400,57
729972,55
730552,14
731124,21
731700,11
732280,9
732800,15
733376,18
733948,28
734528,35
735108,39
735688,44
736272,34
736844,30
737424,22
737996,11
738576,9
739096,23
739672,31
740244,43
740820,41
741400,25
741972,35
742552,49
743124,50
743704,40
744276,40
744856,37
745428,39
746004,40
746584,33
747156,11
747736,12
748316,10
748896,18
749476,19
750052,13
750632,29
751204,34
751784,33
752356,36
752936,23
753516,21
754096,26
754676,21
755252,12
755832,12
756404,11
756984,18
757564,24
758144,27
758724,33
759300,40
759880,43
760456,41
761032,43
761604,33
762184,36
762756,39
763336,36
763920,18
764492,10
765072,11
765644,13
766224,11
766804,23
767384,32
767964,33
768540,33
769120,34
769692,18
770272,14
770844,11
771424,11
771996,10
772572,22
773152,25
773724,31
774304,29
774876,21
775456,33
776036,41
776616,41
777188,44
777764,40
778344,32
778916,34
779496,32
780068,27
780648,20
781220,24
781796,18
782376,13
782948,15
783528,28
784100,30
784680,35
785252,35
785832,34
786412,15
786988,12
787568,10
788140,15
788720,27
789300,37
789880,17
790460,28
791036,32
791620,36
792192,46
792768,35
793344,34
793924,43
794500,66
795080,55
795664,27
796236,12
796816,21
797388,11
797968,34
798548,44
799132,56
799708,34
800284,34
800864,43
801432,37
802016,35
802584,34
803168,16
803740,16
804316,18
804896,14
805468,11
806048,17
806620,33
807200,41
807772,37
808352,21
808924,36
809500,38
810080,39
810652,38
811232,40
811812,35
812392,22
812972,15
813548,22
814128,24
814700,23
815280,11
815852,17
816432,23
817012,32
817592,35
818172,35
818752,35
819328,35
819900,13
820480,11
821048,13
821624,21
822192,24
822768,26
823352,35
823924,24
824504,12
825072,16
825656,37
826224,42
826808,48
827376,55
827952,64
828536,51
829108,25
829688,13
830256,11
830840,14
831408,12
831988,11
832568,18
833140,18
833720,32
834288,35
834872,33
835444,34
836024,36
836592,15
837172,15
837752,15
838324,14
838904,13
839476,17
840056,28
840624,36
841200,43
841784,29
842352,43
842936,54
843508,57
844088,49
844656,44
845240,36
845808,39
846384,36
846968,25
847536,17
848120,13
848688,13
849272,17
849844,18
850420,33
851000,34
851572,35
852152,35
852724,35
853304,30
853876,27
854456,12
855028,11
855604,10
856184,11
856756,14
857336,17
857908,25
858488,30
859060,35
859636,34
860216,37
860784,37
861368,44
861940,43
862520,44
863092,40
863672,28
864244,17
864816,13
865400,17
865968,24
866552,17
867124,32
867704,35
868276,37
868852,36
869432,33
870004,13
870584,10
871156,11
871736,10
872308,11
872888,16
873460,19
874036,24
874616,30
875188,31
875768,39
876348,39
876928,41
877500,39
878076,43
878656,49
879228,57
879808,48
880380,34
880960,19
881528,16
882112,41
882684,41
883260,18
883840,32
884408,34
884992,36
885564,35
886144,30
886724,12
887296,40
887880,54
888452,34
889032,14
889604,19
890184,21
890756,13
891336,13
891920,35
892492,46
893072,48
893644,46
894224,37
894796,28
895376,33
895956,33
896532,34
897112,27
897684,16
898264,10
898836,24
899416,30
899988,15
900564,30
901144,35
901712,35
902296,36
902868,25
903448,21
904020,19
904600,14
905172,11
905748,18
906328,21
906896,27
907480,16
908052,14
908632,36
909204,44
909780,51
910360,48
910932,38
911512,25
912084,21
912664,15
913232,13
913816,11
914396,20
914972,18
915552,25
916124,26
916704,17
917276,32
917856,39
918436,37
919012,40
919596,30
920168,12
920744,16
921316,28
921896,47
922472,59
923056,39
923628,39
924204,26
924784,24
925356,33
925936,40
926516,42
927096,40
927676,36
928252,18
928832,34
929404,49
929984,46
930556,27
931136,16
931716,10
932296,27
932880,22
933452,27
934032,38
934604,37
935184,35
935756,34
936336,20
936916,10
937492,15
938072,12
938644,10
939224,18
939804,24
940384,29
940964,31
941540,21
942120,34
942692,37
943272,40
943844,37
944424,32
945004,25
945584,25
946156,24
946732,22
947312,13
947884,15
948464,13
949036,15
949616,18
950196,31
950772,35
951352,33
951928,34
952508,33
953076,18
953656,19
954236,14
954816,10
955400,10
955976,15
956556,24
957128,20
957704,24
958284,15
958864,40
959444,42
960020,47
960600,42
961172,27
961752,9
962272,15
962848,25
963420,38
964000,30
964568,22
965148,12
965728,30
966300,29
966880,34
967460,46
968040,45
968620,43
969196,40
969776,12
970348,26
970928,27
971500,18
972084,22
972660,36
973244,38
973820,28
974396,20
974976,13
975548,42
976128,39
976708,39
977288,41
977860,48
978436,43
979016,31
979588,19
980168,13
980740,10
981320,11
981900,18
982480,28
983064,17
983636,32
984216,31
984788,35
985368,34
985940,35
986520,25
987092,32
987668,21
988248,10
988820,11
989400,17
989972,33
990552,42
991132,38
991708,25
992288,47
992860,52
993440,50
994012,42
994592,34
995164,37
995744,43
996324,39
996900,23
997480,10
998052,10
998632,18
999212,20
999792,17
1000364,30
1000984,33
1001612,34
1002232,35
1002860,19
1003484,12
1004108,11
1004736,10
1005352,11
1005984,17
1006612,24
1007232,25
1007860,23
1008484,31
1009112,43
1009744,43
1010360,40
1010988,41
1011612,31
1012236,34
1012864,31
1013488,24
1014116,11
1014740,11
1015364,21
1015992,16
1016616,18
1017244,37
1017876,32
1018496,35
1019124,36
1019748,12
1020380,12
1021008,17
1021632,15
1022260,11
1022884,11
1023508,23
1024140,22
1024756,15
1025384,35
1026004,36
1026628,35
1027256,38
1027868,33
1028496,37
1029124,54
1029740,56
1030372,22
1030992,20
1031624,37
1032252,43
1032868,23
1033500,34
1034120,36
1034752,34
1035380,34
1036000,39
1036628,21
1037248,13
1037872,15
1038500,19
1039120,24
1039748,27
1040372,27
1040992,23
1041620,19
1042240,35
1042868,43
1043500,56
1044120,49
1044748,33
1045368,34
1045996,39
1046628,34
1047248,15
1047876,10
1048496,13
1049120,19
1049748,14
1050364,30
1050996,35
1051616,37
1052240,35
1052868,20
1053484,16
1054116,12
1054744,11
1055360,13
1055988,21
1056612,29
1057240,27
1057868,23
1058488,32
1059116,42
1059740,44
1060364,46
1060992,42
1061608,33
1062236,35
1062860,35
1063484,27
1064112,15
1064728,12
1065360,15
1065980,18
1066608,16
1067236,29
1067856,35
1068488,36
1069116,34
1069736,17
1070364,11
1070988,11
1071616,11
1072244,27
1072864,35
1073492,18
1074116,16
1074736,19
1075368,45
1075984,49
1076612,47
1077236,44
1077856,31
1078484,29
1079108,35
1079736,18
1080364,28
1080980,18
1081612,14
1082232,13
1082860,12
1083492,32
1084112,33
1084740,35
1085364,33
1085988,35
1086616,12
1087240,16
1087868,19
1088492,14
1089116,17
1089744,19
1090360,23
1090988,21
1091616,20
1092240,38
1092868,42
1093492,37
1094120,36
1094748,17
1095368,17
1095996,22
1096620,27
1097244,16
1097872,11
1098488,14
1099120,19
1099744,13
1100368,34
1100996,36
1101616,33
1102244,33
1102872,17
1103492,14
1104120,12
1104744,11
1105372,13
1106000,16
1106620,16
1107252,17
1107872,18
1108496,33
1109124,38
1109744,38
1110372,37
1110996,34
1111620,20
1112252,35
1112872,31
1113500,16
1114132,10
1114752,11
1115380,21
1116004,23
1116636,21
1117264,36
1117888,37
1118516,35
1119140,35
1119768,15
1120396,10
1121016,17
1121644,10
1122268,20
1122892,29
1123520,30
1124136,32
1124768,31
1125396,29
1126016,42
1126644,49
1127268,51
1127896,44
1128524,33
1129144,32
1129772,19
1130392,12
1131016,10
1131648,10
1132264,15
1132892,16
1133516,31
1134140,35
1134768,36
1135388,34
1136016,32
1136640,16
1137264,11
1137892,11
1138516,10
1139144,20
1139776,30
1140392,27
1141024,23
1141648,25
1142276,44
1142908,46
1143528,44
1144156,43
1144780,45
1145404,48
1146036,34
1146656,24
1147284,17
1147916,14
1148536,17
1149164,22
1149788,14
1150416,36
1151048,34
1151664,39
1152296,40
1152916,24
1153540,22
1154168,14
1154792,11
1155420,12
1156044,30
1156664,53
1157296,39
1157912,13
1158540,39
1159164,39
1159792,39
1160420,36
1161044,25
1161672,22
1162300,58
1162920,72
1163548,42
1164172,12
1164800,15
1165428,22
1166048,18
1166676,29
1167300,37
1167924,35
1168556,34
1169176,38
1169804,36
1170428,16
1171056,12
1171684,12
1172308,10
1172940,15
1173568,24
1174184,31
1174816,27
1175440,36
1176068,41
1176700,38
1177320,37
1177948,55
1178572,74
1179196,74
1179824,41
1180448,16
1181076,33
1181708,26
1182328,24
1182956,30
1183580,33
1184212,35
1184840,41
1185456,35
1186088,22
1186712,11
1187336,11
1187964,14
1188584,12
1189212,15
1189836,27
1190460,31
1191088,26
1191704,30
1192336,41
1192960,43
1193584,43
1194212,44
1194836,40
1195468,48
1196100,48
1196720,31
1197352,15
1197976,13
1198600,17
1199228,21
1199848,16
1200476,38
1201100,39
1201724,35
1202356,41
1202976,36
1203604,17
1204236,10
1204856,16
1205484,12
1206108,15
1206736,24
1207368,34
1207984,30
1208616,30
1209236,38
1209864,45
1210492,48
1211112,40
1211740,20
1212364,20
1212992,30
1213620,18
1214240,14
1214868,16
1215500,10
1216120,20
1216748,30
1217372,35
1218000,35
1218632,36
1219248,35
1219876,17
1220500,21
1221124,17
1221756,10
1222376,17
1223008,20
1223632,19
1224256,22
1224884,17
1225504,57
1226136,50
1226764,39
1227384,35
1228016,13
1228640,25
1229268,26
1229896,35
1230520,24
1231148,15
1231772,19
1232392,38
1233024,23
1233640,31
1234268,36
1234892,35
1235516,35
1236144,18
1236760,17
1237392,20
1238016,12
1238640,13
1239268,17
1239892,30
1240520,23
1241152,14
1241768,33
1242396,35
1243020,43
1243648,41
1244280,34
1244896,21
1245524,36
1246148,44
1246772,37
1247400,19
1248024,14
1248652,12
1249276,15
1249900,22
1250528,33
1251152,37
1251780,34
1252412,34
1253032,30
1253660,17
1254284,12
1254916,13
1255544,11
1256160,18
1256792,25
1257416,29
1258040,27
1258668,32
1259288,43
1259916,45
1260540,46
1261168,47
1261796,35
1262420,38
1263052,24
1263680,10
1264300,13
1264928,19
1265552,31
1266180,13
1266812,42
1267432,41
1268060,33
1268684,34
1269308,32
1269940,22
1270560,12
1271188,11
1271820,10
1272440,24
1273068,31
1273692,37
1274324,45
1274956,35
1275576,45
1276204,49
1276828,42
1277452,38
1278084,36
1278704,43
1279336,42
1279960,33
1280584,19
1281212,20
1281828,12
1282456,35
1283088,26
1283704,29
1284332,34
1284952,36
1285584,40
1286212,13
1286832,18
1287460,22
1288080,24
1288708,17
1289336,16
1289952,20
1290584,19
1291204,21
1291828,30
1292456,42
1293072,48
1293704,44
1294324,31
1294948,23
1295576,23
1296200,29
1296828,31
1297456,25
1298072,16
1298700,12
1299324,24
1299952,33
1300580,36
1301200,38
1301828,35
1302452,35
1303072,12
1303704,12
1304320,13
1304948,12
1305572,17
1306196,18
1306828,27
1307448,27
1308076,15
1308708,39
1309328,41
1309956,43
1310580,40
1311212,44
1311840,39
1312456,31
1313084,19
1313708,10
1314328,10
1314956,10
1315576,25
1316204,25
1316824,31
1317448,32
1318076,34
1318696,35
1319324,20
1319952,10
1320568,10
1321196,13
1321820,12
1322448,17
1323076,14
1323696,13
1324324,22
1324944,30
1325572,44
1326200,44
1326824,43
1327452,46
1328072,46
1328696,42
1329324,38
1329944,23
1330572,11
1331196,11
1331820,13
1332448,17
1333068,15
1333696,29
1334328,36
1334944,35
1335572,35
1336196,13
1336824,19
1337452,14
1338072,15
1338700,17
1339324,22
1339944,28
1340576,28
1341192,22
1341820,32
1342444,42
1343068,48
1343696,52
1344312,42
1344940,37
1345568,42
1346192,31
1346820,20
1347440,19
1348072,16
1348700,16
1349320,27
1349948,31
1350572,35
1351196,33
1351824,43
1352440,42
1353068,16
1353692,10
1354312,11
1354940,10
1355560,11
1356188,23
1356816,31
1357432,47
1358060,37
1358684,34
1359312,37
1359944,37
1360560,47
1361188,51
1361812,53
1362436,59
1363064,47
1363688,13
1364316,13
1364940,20
1365560,28
1366188,22
1366808,30
1367436,32
1368060,34
1368688,35
1369316,19
1369940,14
1370568,13
1371196,11
1371816,21
1372444,25
1373068,28
1373696,24
1374328,14
1374944,39
1375572,42
1376196,43
1376820,49
1377448,49
1378064,33
1378692,30
1379316,26
1379940,17
1380568,11
1381192,12
1381820,16
1382452,32
1383068,21
1383700,35
1384320,34
1384948,37
1385580,38
1386200,21
1386828,13
1387452,11
1388076,15
1388704,25
1389328,15
1389956,11
1390580,11
1391204,13
1391836,39
1392460,59
1393088,59
1393720,46
1394336,22
1394964,18
1395588,32
1396216,31
1396848,16
1397464,11
1398092,18
1398716,26
1399340,29
1399968,31
1400592,34
1401220,36
1401844,35
1402468,35
1403096,25
1403720,27
1404348,18
1404980,12
1405600,19
1406228,26
1406852,22
1407480,17
1408112,17
1408728,49
1409356,41
1409980,37
1410600,37
1411232,32
1411848,37
1412476,34
1413100,29
1413724,15
1414352,14
1414972,11
1415600,17
1416228,16
1416848,29
1417476,35
1418100,34
1418728,36
1419360,20
1419976,23
1420604,18
1421228,11
1421852,11
1422480,12
1423104,24
1423732,26
1424356,21
1424980,33
1425608,42
1426232,45
1426860,42
1427492,39
1428112,25
1428740,32
1429364,53
1429996,44
1430624,23
1431244,12
1431872,27
1432496,29
1433120,21
1433748,33
1434368,33
1434996,36
1435616,35
1436240,14
1436868,22
1437488,30
1438116,23
1438744,13
1439368,11
1439996,19
1440620,31
1441252,29
1441880,31
1442496,37
1443124,39
1443748,40
1444372,29
1445000,28
1445616,44
1446244,43
1446868,27
1447488,17
1448120,14
1448736,36
1449364,35
1449992,32
1450616,35
1451244,35
1451868,35
1452496,30
1453128,20
1453744,17
1454372,11
1454996,11
1455620,11
1456252,16
1456872,25
1457500,31
1458124,26
1458748,42
1459376,47
1459992,50
1460624,47
1461248,26
1461872,22
1462500,33
1463124,33
1463752,16
1464384,21
1465000,11
1465628,27
1466252,37
1466880,33
1467512,34
1468128,35
1468756,35
1469384,15
1470008,18
1470636,16
1471256,13
1471884,13
1472516,16
1473136,29
1473764,39
1474388,28
1475020,37
1475648,44
1476264,47
1476892,44
1477516,41
1478144,33
1478772,20
1479392,32
1480020,52
1480644,55
1481264,37
1481896,23
1482512,44
1483140,26
1483764,33
1484388,34
1485016,36
1485640,41
1486268,16
1486896,19
1487512,21
1488140,11
1488764,29
1489392,46
1490020,41
1490640,26
1491268,19
1491892,32
1492512,42
1493144,48
1493760,46
1494388,36
1495012,46
1495636,51
1496268,40
1496888,15
1497516,11
1498148,12
1498768,16
1499396,20
1500020,31
1500652,31
1501280,34
1501900,36
1502528,28
1503152,27
1503776,23
1504408,14
1505024,15
1505652,27
1506276,21
1506900,13
1507532,16
1508152,28
1508780,43
1509412,39
1510032,40
1510664,41
1511288,36
1511916,45
1512548,40
1513168,33
1513796,17
1514420,16
1515044,11
1515676,12
1516296,14
1516924,29
1517548,37
1518172,38
1518804,37
1519428,19
1520056,14
1520688,14
1521304,19
1521932,21
1522556,20
1523188,23
1523820,18
1524440,14
1525068,37
1525692,48
1526316,44
1526948,36
1527568,25
1528196,33
1528824,35
1529444,39
1530076,29
1530700,19
1531332,12
1531964,15
1532584,24
1533216,35
1533840,36
1534472,39
1535100,36
1535720,35
1536352,18
1536976,27
1537596,21
1538228,10
1538848,11
1539476,16
1540104,28
1540720,23
1541352,18
1541976,34
1542604,36
1543232,43
1543848,43
1544480,33
1545100,27
1545732,23
1546360,43
1546980,30
1547608,15
1548232,24
1548856,33
1549484,14
1550104,37
1550732,39
1551356,34
1551984,37
1552616,40
1553240,28
1553868,11
1554500,10
1555120,21
1555752,30
1556376,28
1557000,27
1557628,12
1558248,34
1558876,42
1559500,47
1560124,49
1560756,45
1561376,35
1562004,35
1562636,25
1563256,12
1563884,15
1564508,11
1565136,15
1565768,15
1566384,23
1567012,33
1567636,33
1568264,34
1568892,35
1569512,13
1570140,13
1570764,21
1571388,16
1572020,17
1572640,20
1573268,22
1573900,22
1574520,18
1575148,37
1575772,40
1576404,48
1577032,50
1577652,42
1578280,37
1578904,38
1579528,36
1580156,13
1580776,11
1581408,11
1582032,20
1582656,19
1583284,30
1583904,34
1584536,35
1585164,37
1585784,27
1586412,13
1587040,11
1587668,13
1588300,16
1588920,27
1589548,28
1590172,23
1590796,17
1591428,27
1592048,40
1592676,43
1593300,69
1593928,53
1594556,16
1595176,23
1595808,35
1596436,26
1597056,11
1597688,10
1598312,12
1598940,18
1599572,29
1600192,28
1600820,37
1601440,33
1602064,36
1602692,17
1603312,20
1603940,11
1604564,11
1605184,16
1605812,21
1606432,25
1607060,20
1607688,21
1608304,35
1608932,41
1609556,39
1610184,43
1610816,39
1611432,39
1612060,46
1612684,40
1613316,18
1613944,12
1614560,12
1615192,17
1615816,20
1616440,28
1617068,33
1617688,35
1618316,35
1618940,36
1619568,27
1620196,27
1620820,16
1621448,16
1622076,40
1622696,30
1623324,20
1623948,13
1624580,16
1625208,49
1625828,48
1626456,40
1627080,34
1627704,25
1628332,35
1628952,49
1629580,43
1630204,20
1630832,12
1631460,15
1632084,28
1632716,29
1633344,33
1633960,35
1634592,33
1635216,36
1635844,21
1636472,15
1637096,15
1637728,17
1638352,26
1638976,31
1639604,24
1640220,19
1640848,15
1641476,36
1642092,57
1642720,52
1643344,46
1643972,39
1644600,11
1645216,11
1645844,15
1646464,36
1647092,37
1647724,25
1648344,11
1648972,13
1649592,17
1650216,31
1650844,32
1651464,36
1652092,37
1652712,20
1653336,11
1653964,10
1654584,10
1655212,25
1655840,27
1656456,34
1657084,28
1657708,19
1658336,34
1658964,43
1659580,43
1660212,43
1660832,36
1661452,31
1662084,38
1662704,37
1663332,28
1663956,24
1664580,14
1665208,30
1665824,34
1666452,31
1667080,33
1667696,36
1668324,36
1668944,36
1669576,13
1670204,14
1670824,15
1671452,13
1672072,15
1672700,17
1673332,20
1673952,33
1674580,26
1675200,35
1675824,40
1676452,42
1677072,39
1677700,36
1678324,36
1678944,36
1679576,31
1680200,14
1680824,12
1681452,11
1682068,19
1682700,17
1683320,32
1683948,35
1684576,33
1685192,37
1685820,19
1686444,12
1687064,14
1687692,14
1688312,20
1688940,32
1689564,29
1690188,14
1690816,20
1691432,30
1692060,43
1692688,49
1693312,36
1693940,35
1694564,41
1695192,50
1695820,48
1696440,32
1697068,20
1697688,18
1698312,14
1698940,28
1699560,20
1700188,28
1700808,35
1701432,36
1702060,37
1702680,21
1703308,30
1703932,28
1704560,17
1705188,11
1705812,18
1706440,13
1707068,44
1707688,58
1708316,28
1708940,40
1709568,45
1710196,42
1710816,35
1711444,55
1712068,67
1712692,53
1713320,22
1713936,11
1714564,17
1715188,32
1715812,31
1716444,29
1717068,34
1717696,34
1718324,34
1718944,35
1719572,18
1720196,17
1720828,11
1721456,15
1722072,11
1722704,28
1723324,51
1723948,59
1724580,28
1725200,39
1725828,44
1726452,43
1727076,39
1727704,29
1728328,18
1728956,24
1729584,44
1730204,31
1730832,19
1731456,12
1732084,10
1732712,16
1733328,32
1733960,35
1734580,36
1735204,33
1735836,19
1736456,18
1737084,16
1737708,12
1738332,11
1738960,16
1739580,27
1740208,25
1740836,22
1741452,33
1742084,44
1742704,53
1743332,48
1743964,42
1744584,25
1745212,23
1745836,16
1746460,17
1747088,12
1747708,11
1748336,17
1748960,19
1749580,17
1750212,28
1750832,35
1751460,36
1752092,34
1752712,24
1753340,15
1753964,11
1754592,10
1755224,17
1755840,20
1756472,21
1757096,16
1757720,15
1758348,40
1758968,49
1759596,47
1760224,41
1760844,19
1761472,12
1762096,15
1762724,47
1763352,35
1763968,15
1764596,16
1765220,31
1765848,25
1766476,32
1767096,38
1767724,34
1768344,35
1768968,32
1769596,16
1770216,12
1770844,11
1771468,11
1772092,18
1772724,18
1773344,21
1773972,27
1774604,26
1775224,35
1775852,40
1776476,39
1777108,44
1777736,42
1778352,47
1778984,46
1779608,34
1780232,13
1780860,12
1781480,21
1782108,27
1782732,19
1783356,28
1783984,34
1784608,35
1785236,35
1785868,24
1786488,15
1787116,12
1787740,17
1788372,35
1789000,44
1789624,45
1790252,24
1790876,17
1791504,40
1792136,37
1792752,41
1793380,38
1794004,34
1794624,37
1795252,45
1795872,45
1796500,29
1797128,14
1797752,11
1798380,24
1799004,23
1799636,26
1800264,31
1800880,34
1801512,33
1802136,35
1802760,11
1803388,11
1804008,11
1804636,11
1805260,19
1805880,24
1806508,29
1807128,34
1807756,17
1808380,42
1809008,57
1809636,55
1810256,48
1810888,40
1811516,34
1812136,33
1812764,24
1813388,10
1814016,10
1814648,18
1815264,27
1815892,22
1816516,32
1817140,36
1817772,36
1818392,36
1819020,24
1819644,20
1820272,26
1820900,18
1821524,12
1822152,11
1822784,33
1823400,35
1824028,39
1824652,31
1825280,40
1825908,49
1826528,53
1827156,38
1827780,24
1828404,39
1829036,34
1829656,23
1830284,11
1830908,13
1831536,13
1832164,23
1832788,16
1833420,27
1834048,33
1834668,35
1835296,36
1835920,24
1836548,21
1837180,12
1837800,13
1838428,12
1839052,17
1839676,20
1840308,11
1840928,15
1841556,29
1842188,34
1842808,34
1843436,42
1844060,52
1844688,59
1845316,58
1845936,48
1846564,24
1847184,10
1847812,17
1848444,35
1849064,37
1849692,35
1850312,36
1850936,33
1851568,34
1852184,34
1852812,15
1853436,11
1854064,11
1854692,10
1855316,15
1855948,19
1856580,30
1857200,29
1857828,15
1858452,47
1859076,52
1859708,44
1860328,41
1860956,27
1861580,22
1862204,28
1862836,24
1863456,12
1864084,10
1864712,12
1865336,23
1865964,17
1866588,31
1867216,34
1867848,36
1868464,36
1869092,16
1869716,14
1870340,13
1870972,10
1871592,12
1872220,19
1872844,33
1873468,32
1874100,23
1874720,32
1875348,35
1875980,40
1876600,47
1877228,48
1877852,39
1878484,37
1879112,37
1879736,24
1880364,13
1880988,10
1881612,19
1882240,26
1882864,23
1883492,33
1884120,37
1884744,37
1885372,38
1885992,24
1886620,12
1887252,10
1887872,11
1888500,11
1889124,17
1889756,12
1890384,12
1891000,15
1891632,35
1892256,37
1892880,46
1893508,48
1894128,49
1894756,49
1895380,42
1896004,32
1896632,10
1897256,17
1897884,22
1898516,36
1899136,27
1899764,32
1900388,33
1901020,33
1901652,33
1902272,28
1902900,12
1903528,15
1904152,18
1904780,18
1905400,26
1906028,24
1906652,20
1907276,17
1907908,26
1908528,42
1909156,48
1909788,42
1910408,39
1911036,19
1911660,26
1912292,33
1912924,36
1913544,24
1914176,18
1914800,13
1915424,24
1916056,23
1916672,32
1917304,34
1917928,35
1918552,34
1919184,18
1919804,21
1920436,13
1921064,10
1921680,12
1922312,11
1922932,18
1923564,20
1924192,29
1924812,31
1925440,40
1926064,37
1926684,35
1927316,26
1927936,22
1928564,32
1929188,37
1929812,25
1930440,10
1931064,12
1931692,19
1932320,10
1932944,39
1933572,38
1934196,40
1934828,43
1935456,40
1936072,15
1936704,14
1937328,11
1937948,19
1938580,36
1939200,36
1939828,26
1940452,14
1941076,17
1941708,52
1942328,52
1942960,39
1943588,34
1944208,23
1944836,45
1945464,53
1946092,37
1946724,16
1947344,13
1947972,11
1948596,20
1949220,20
1949848,30
1950472,35
1951100,35
1951724,39
1952352,19
1952980,23
1953604,24
1954232,29
1954860,20
1955480,12
1956108,13
1956732,26
1957364,33
1957992,34
1958616,44
1959244,45
1959868,40
1960492,43
1961124,40
1961744,41
1962372,28
1962996,12
1963620,15
1964252,12
1964876,17
1965504,15
1966136,17
1966752,32
1967380,33
1968004,38
1968632,38
1969260,23
1969880,15
1970508,13
1971132,10
1971756,13
1972388,24
1973008,40
1973636,35
1974260,13
1974884,44
1975512,49
1976136,44
1976764,37
1977396,30
1978016,38
1978644,49
1979268,40
1979896,16
1980528,10
1981144,11
1981772,11
1982396,18
1983020,36
1983652,34
1984272,37
1984900,39
1985524,39
1986148,32
1986776,14
1987400,11
1988028,15
1988656,31
1989280,37
1989908,29
1990532,25
1991160,28
1991792,33
1992408,38
1993040,51
1993664,53
1994288,42
1994916,46
1995536,44
1996164,37
1996788,21
1997416,12
1998044,21
1998668,24
1999300,15
1999928,30
2000548,35
2001176,37
2001800,37
2002428,17
2003056,10
2003680,16
2004308,17
2004932,13
2005556,23
2006184,31
2006808,29
2007436,25
2008060,32
2008688,38
2009316,40
2009940,44
2010568,38
2011196,32
2011816,40
2012444,37
2013068,31
2013700,22
2014328,10
2014948,33
2015576,32
2016200,31
2016824,43
2017452,38
2018072,37
2018700,41
2019324,31
2019952,13
2020580,11
2021204,15
2021836,31
2022464,29
2023088,25
2023716,18
2024340,14
2024964,39
2025596,46
2026216,44
2026844,37
2027472,15
2028096,21
2028724,40
2029344,46
2029972,25
2030604,16
2031224,15
2031852,28
2032480,21
2033108,32
2033740,32
2034360,37
2034992,37
2035616,22
2036240,12
2036868,18
2037488,18
2038120,12
2038744,14
2039368,26
2039996,30
2040616,31
2041248,33
2041880,36
2042496,40
2043124,40
2043752,42
2044380,40
2045012,44
2045632,42
2046264,45
2046888,24
2047512,11
2048144,37
2048760,39
2049388,25
2050008,31
2050628,34
2051256,36
2051872,38
2052500,13
2053128,16
2053744,20
2054372,11
2054996,10
2055624,10
2056252,15
2056868,21
2057500,38
2058120,34
2058752,35
2059380,40
2060000,46
2060628,43
2061248,48
2061872,55
2062500,42
2063120,15
2063748,11
2064372,11
2064992,10
2065620,11
2066244,32
2066872,33
2067504,35
2068120,34
2068748,33
2069372,11
2070000,12
2070628,11
2071248,14
2071876,15
2072500,15
2073124,21
2073752,33
2074368,31
2074996,37
2075620,45
2076244,49
2076872,46
2077488,45
2078116,39
2078748,31
2079368,36
2079996,27
2080620,19
2081248,17
2081876,28
2082496,21
2083124,30
2083748,34
2084368,35
2085000,36
2085616,20
2086244,13
2086868,11
2087488,11
2088120,16
2088736,32
2089364,39
2089992,35
2090616,24
2091244,33
2091864,43
2092496,46
2093124,47
2093744,46
2094372,38
2094996,40
2095620,29
2096252,18
2096872,10
2097500,11
2098124,19
2098748,20
2099376,16
2099992,31
2100620,35
2101244,36
2101872,37
2102500,24
2103120,15
2103752,12
2104380,11
2105000,12
2105628,18
2106248,18
2106880,15
2107508,12
2108128,36
2108756,40
2109380,42
2110004,43
2110636,33
2111256,24
2111884,48
2112508,52
2113136,18
2113764,10
2114388,10
2115016,17
2115644,18
2116264,33
2116892,34
2117516,35
2118144,36
2118776,32
2119392,17
2120020,12
2120644,11
2121268,17
2121896,36
2122512,46
2123144,33
2123768,19
2124392,23
2125020,45
2125644,48
2126272,40
2126904,36
2127520,38
2128148,44
2128772,31
2129400,18
2130032,16
2130648,15
2131276,17
2131900,23
2132524,15
2133152,31
2133768,34
2134396,35
2135020,37
2135644,17
2136276,12
2136900,10
2137528,15
2138156,14
2138776,11
2139404,13
2140028,13
2140660,21
2141288,31
2141904,34
2142536,42
2143160,55
2143784,42
2144412,26
2145032,24
2145660,21
2146284,20
2146908,19
2147536,15
2148160,16
2148788,36
2149420,44
2150040,32
2150672,36
2151292,36
2151920,35
2152552,15
2153168,15
2153796,10
2154420,12
2155044,11
2155672,14
2156288,23
2156920,23
2157540,19
2158164,33
2158796,42
2159416,45
2160044,36
2160676,17
2161296,11
2161924,25
2162548,43
2163176,34
2163808,12
2164424,11
2165052,11
2165676,12
2166300,35
2166932,34
2167552,36
2168180,37
2168804,25
2169428,17
2170060,11
2170680,12
2171308,11
2171940,20
2172560,39
2173188,41
2173812,31
2174444,31
2175072,40
2175692,47
2176320,53
2176944,53
2177568,36
2178196,24
2178816,16
2179444,22
2180068,16
2180692,11
2181320,33
2181936,27
2182568,14
2183196,32
2183816,35
2184444,33
2185068,36
2185696,20
2186328,22
2186944,12
2187572,12
2188196,11
2188820,11
2189448,18
2190072,31
2190700,38
2191328,29
2191952,41
2192580,49
2193200,51
2193828,43
2194460,26
2195080,27
2195708,34
2196336,25
2196964,12
2197592,10
2198216,16
2198844,11
2199468,33
2200096,33
2200724,36
2201344,37
2201976,35
2202596,27
2203220,23
2203848,12
2204472,11
2205100,21
2205732,30
2206352,31
2206984,32
2207608,30
2208236,37
2208864,42
2209488,48
2210116,41
2210740,36
2211364,34
2211996,35
2212616,34
2213244,19
2213868,16
2214492,11
2215120,10
2215740,11
2216368,30
2216996,34
2217616,37
2218244,35
2218868,22
2219496,11
2220128,13
2220744,11
2221376,14
2222000,23
2222624,24
2223252,19
2223872,25
2224504,33
2225128,38
2225752,41
2226380,46
2227000,47
2227632,44
2228260,32
2228880,28
2229508,24
2230132,11
2230764,11
2231396,35
2232016,46
2232644,23
2233268,33
2233892,35
2234524,36
2235144,37
2235776,18
2236400,21
2237024,16
2237656,13
2238280,20
2238908,27
2239540,30
2240160,42
2240788,23
2241412,46
2242044,55
2242672,52
2243288,47
2243916,40
2244540,34
2245164,31
2245792,30
2246416,19
2247044,17
2247668,24
2248292,10
2248924,23
2249548,31
2250176,35
2250808,34
2251424,35
2252056,28
2252680,14
2253308,20
2253940,28
2254560,31
2255188,19
2255812,14
2256436,15
2257064,23
2257680,25
2258312,41
2258936,45
2259560,41
2260188,40
2260812,31
2261440,47
2262068,50
2262688,44
2263316,17
2263940,11
2264572,23
2265200,11
2265824,21
2266452,32
2267076,33
2267700,38
2268332,41
2268952,32
2269580,26
2270204,12
2270832,11
2271460,11
2272084,11
2272716,19
2273344,33
2273968,33
2274596,33
2275220,44
2275844,48
2276476,40
2277096,23
2277724,11
2278352,23
2278976,43
2279604,25
2280224,11
2280852,11
2281484,10
2282104,17
2282732,32
2283360,37
2283988,35
2284620,35
2285240,36
2285868,20
2286492,23
2287116,14
2287748,10
2288368,11
2288996,16
2289620,20
2290244,20
2290876,12
2291496,38
2292124,38
2292756,36
2293376,43
2294008,43
2294628,43
2295260,45
2295888,36
2296508,15
2297136,11
2297760,23
2298384,32
2299012,26
2299632,31
2300260,35
2300884,34
2301508,36
2302140,18
2302760,11
2303388,11
2304020,12
2304636,14
2305268,18
2305888,14
2306520,13
2307148,23
2307768,35
2308396,33
2309020,44
2309644,50
2310272,53
2310896,40
2311524,21
2312148,21
2312772,25
2313404,19
2314024,15
2314652,19
2315284,18
2315904,16
2316532,33
2317156,35
2317788,36
2318416,34
2319032,14
2319664,14
2320288,26
2320912,24
2321540,20
2322160,15
2322788,33
2323412,43
2324036,29
2324664,35
2325288,48
2325916,47
2326548,39
2327168,29
2327796,34
2328420,43
2329052,40
2329680,21
2330304,14
2330932,13
2331556,13
2332180,18
2332808,31
2333432,34
2334060,37
2334688,37
2335312,33
2335940,11
2336560,11
2337188,12
2337820,32
2338440,37
2339068,18
2339692,11
2340324,12
2340952,24
2341572,48
2342200,42
2342824,37
2343448,34
2344080,22
2344696,37
2345324,39
2345948,33
2346572,20
2347204,12
2347824,23
2348452,34
2349084,16
2349704,37
2350336,37
2350960,35
2351588,35
2352220,20
2352840,21
2353468,18
2354092,16
2354720,11
2355348,11
2355968,38
2356596,43
2357220,19
2357844,35
2358476,48
2359096,51
2359724,44
2360356,35
2360976,19
2361604,26
2362228,39
2362860,33
2363488,17
2364112,10
2364744,21
2365368,30
2365992,29
2366624,34
2367240,34
2367872,36
2368496,37
2369120,11
2369748,14
2370372,21
2371004,28
2371632,24
2372256,27
2372884,33
2373508,38
2374140,25
2374772,39
2375392,51
2376024,55
2376644,47
2377268,32
2377900,34
2378520,33
2379148,26
2379776,14
2380400,12
2381028,12
2381652,18
2382284,24
2382912,30
2383536,36
2384168,33
2384788,35
2385416,19
2386044,14
2386664,14
2387292,21
2387916,27
2388540,30
2389172,26
2389792,17
2390424,13
2391052,35
2391672,43
2392304,41
2392928,40
2393560,35
2394192,15
2394808,27
2395440,41
2396064,31
2396688,18
2397320,18
2397936,12
2398568,18
2399192,16
2399816,32
2400448,33
2401064,34
2401692,35
2402324,11
2402944,11
2403572,10
2404196,10
2404828,11
2405456,15
2406076,38
2406708,53
2407328,43
2407952,31
2408580,48
2409200,53
2409828,39
2410452,27
2411076,25
2411704,31
2412328,31
2412956,17
2413588,12
2414208,17
2414836,11
2415460,11
2416092,31
2416724,34
2417344,37
2417972,37
2418596,31
2419220,13
2419848,12
2420472,15
2421100,17
2421728,24
2422352,31
2422980,29
2423600,23
2424228,23
2424860,40
2425480,43
2426112,45
2426736,40
2427364,26
2427996,28
2428616,37
2429248,33
2429872,11
2430496,11
2431124,12
2431744,11
2432376,14
2433000,32
2433624,37
2434252,34
2434872,37
2435500,15
2436132,12
2436752,15
2437384,28
2438008,26
2438636,22
2439268,20
2439888,33
2440516,26
2441140,33
2441764,38
2442396,36
2443016,40
2443648,37
2444272,35
2444896,44
2445524,36
2446148,23
2446780,15
2447408,10
2448032,15
2448660,15
2449284,29
2449916,34
2450544,34
2451168,37
2451800,41
2452424,39
2453048,19
2453680,18
2454296,24
2454928,12
2455556,24
2456176,23
2456808,14
2457432,14
2458064,41
2458692,34
2459312,37
2459940,39
2460564,21
2461188,19
2461820,22
2462440,35
2463068,27
2463692,18
2464316,11
2464944,15
2465560,15
2466192,32
2466820,38
2467440,37
2468068,35
2468692,19
2469320,12
2469948,14
2470568,26
2471196,30
2471820,16
2472448,17
2473080,25
2473696,24
2474324,30
2474948,44
2475572,47
2476204,44
2476824,42
2477452,36
2478076,26
2478704,24
2479332,24
2479960,19
2480588,13
2481220,12
2481840,15
2482468,15
2483092,31
2483720,33
2484348,36
2484968,37
2485596,15
2486220,12
2486844,11
2487472,14
2488096,29
2488724,35
2489356,30
2489976,15
2490604,13
2491228,41
2491860,46
2492488,40
2493108,38
2493736,30
2494360,19
2494988,20
2495616,18
2496236,15
2496864,20
2497488,10
2498112,29
2498740,26
2499360,33
2499988,36
2500616,37
2501240,36
2501868,31
2502492,14
2503124,12
2503752,10
2504372,11
2505000,18
2505624,34
2506248,36
2506876,28
2507496,20
2508128,48
2508752,51
2509376,44
2510004,36
2510624,15
2511252,30
2511884,39
2512504,34
2513132,15
2513756,9
2514336,17
2514964,23
2515584,14
2516212,32
2516840,35
2517468,34
2518100,33
2518720,25
2519348,21
2519976,12
2520600,10
2521228,11
2521848,13
2522476,28
2523100,37
2523728,35
2524356,35
2524976,57
2525604,54
2526236,56
2526856,51
2527488,37
2528112,30
2528740,24
2529372,22
2529992,13
2530620,17
2531248,34
2531872,24
2532500,22
2533120,33
2533752,33
2534376,37
2535000,37
2535632,18
2536252,12
2536880,17
2537512,27
2538132,25
2538764,19
2539388,30
2540020,28
2540648,21
2541272,36
2541904,46
2542528,40
2543152,37
2543784,35
2544400,39
2545032,46
2545656,42
2546280,12
2546908,12
2547536,11
2548164,11
2548796,12
2549416,34
2550048,35
2550672,39
2551304,35
2551932,22
2552552,21
2553184,28
2553808,26
2554432,18
2555064,17
2555680,19
2556312,23
2556944,23
2557564,30
2558196,41
2558820,44
2559452,44
2560084,40
2560700,30
2561328,35
2561948,35
2562572,27
2563200,19
2563816,13
2564444,11
2565068,11
2565692,16
2566320,32
2566936,36
2567564,45
2568188,42
2568816,27
2569444,23
2570064,24
2570696,31
2571324,20
2571944,11
2572572,13
2573196,18
2573824,18
2574456,42
2575072,63
2575700,61
2576324,43
2576948,26
2577576,16
2578196,19
2578824,33
2579448,26
2580072,18
2580700,16
2581324,11
2581952,18
2582580,29
2583200,33
2583828,35
2584452,36
2585080,36
2585708,11
2586328,12
2586956,14
2587580,13
2588200,34
2588832,47
2589448,56
2590076,53
2590700,19
2591324,43
2591956,48
2592580,52
2593208,47
2593836,38
2594456,31
2595084,29
2595708,35
2596340,16
2596968,10
2597584,16
2598212,20
2598840,16
2599460,32
2600092,35
2600712,37
2601340,33
2601964,21
2602588,19
2603216,12
2603840,11
2604468,11
2605100,12
2605720,20
2606348,23
2606972,26
2607604,32
2608232,45
2608856,47
2609484,39
2610108,40
2610732,42
2611364,53
2611984,60
2612612,46
2613236,21
2613860,15
2614488,33
2615112,45
2615740,20
2616372,32
2616992,36
2617620,35
2618244,34
2618876,13
2619504,11
2620124,19
2620752,30
2621380,36
2622004,45
2622632,48
2623248,35
2623876,20
2624500,36
2625124,44
2625752,41
2626372,39
2627004,35
2627632,33
2628248,44
2628876,42
2629500,20
2630128,16
2630756,19
2631376,11
2632004,25
2632624,32
2633248,39
2633880,35
2634496,37
2635124,38
2635748,13
2636372,10
2637000,22
2637620,36
2638252,27
2638880,21
2639496,22
2640124,17
2640748,20
2641376,38
2642004,38
2642620,43
2643248,44
2643872,30
2644496,24
2645120,28
2645740,23
2646372,11
2646996,10
2647620,13
2648248,18
2648864,14
2649496,31
2650124,35
2650744,35
2651372,33
2651996,19
2652624,12
2653256,10
2653872,18
2654500,21
2655124,16
2655748,18
2656380,26
2657000,28
2657628,33
2658252,38
2658872,38
2659504,42
2660120,37
2660752,25
2661380,25
2662000,29
2662628,21
2663252,15
2663880,17
2664508,18
2665124,35
2665756,32
2666376,31
2667004,35
2667632,36
2668256,35
2668884,12
2669504,11
2670128,13
2670756,14
2671376,10
2672004,11
2672628,19
2673248,23
2673880,17
2674504,35
2675132,41
2675760,38
2676384,35
2677012,36
2677636,52
2678264,40
2678892,23
2679512,17
2680140,17
2680764,10
2681388,15
2682016,11
2682636,35
2683264,36
2683888,42
2684508,45
2685140,29
2685760,11
2686392,11
2687020,16
2687640,23
2688268,35
2688892,39
2689520,21
2690148,12
2690768,29
2691396,43
2692020,36
2692640,40
2693272,46
2693888,37
2694516,24
2695140,12
2695764,18
2696392,26
2697008,26
2697636,11
2698264,10
2698888,18
2699516,32
2700140,33
2700772,38
2701400,34
2702020,15
2702648,13
2703272,14
2703896,11
2704524,21
2705144,40
2705772,42
2706396,35
2707020,28
2707648,31
2708268,31
2708896,39
2709524,42
2710144,42
2710772,24
2711396,31
2712028,34
2712656,34
2713276,27
2713904,11
2714528,21
2715148,36
2715780,30
2716400,31
2717028,35
2717652,35
2718276,36
2718908,17
2719528,15
2720156,17
2720784,14
2721408,20
2722036,21
2722660,21
2723288,20
2723916,20
2724536,32
2725164,41
2725788,45
2726408,46
2727036,41
2727656,37
2728284,38
2728908,45
2729532,35
2730160,22
2730784,13
2731412,30
2732044,30
2732664,32
2733292,34
2733916,33
2734548,35
2735176,32
2735800,24
2736428,14
2737052,11
2737676,13
2738304,20
2738928,27
2739556,22
2740180,20
2740804,31
2741432,41
2742056,42
2742684,41
2743316,44
2743936,34
2744568,37
2745188,35
2745820,22
2746448,15
2747064,12
2747696,17
2748320,19
2748940,15
2749572,30
2750192,37
2750820,37
2751444,36
2752068,12
2752700,12
2753320,19
2753948,14
2754576,19
2755200,21
2755828,28
2756452,24
2757084,15
2757712,33
2758332,42
2758960,43
2759584,42
2760208,36
2760836,37
2761456,30
2762084,23
2762708,22
2763332,23
2763964,14
2764584,21
2765216,34
2765844,32
2766464,33
2767092,35
2767716,37
2768344,31
2768976,29
2769592,40
2770220,20
2770844,11
2771468,11
2772100,18
2772720,24
2773348,26
2773972,21
2774596,36
2775228,42
2775848,47
2776476,37
2777108,32
2777728,47
2778356,49
2778980,45
2779612,24
2780240,13
2780864,14
2781492,17
2782116,21
2782740,30
2783372,35
2783992,41
2784624,41
2785248,26
2785872,11
2786500,14
2787120,15
2787748,15
2788380,10
2789000,21
2789628,27
2790252,31
2790884,33
2791512,34
2792136,37
2792764,38
2793388,42
2794012,46
2794644,40
2795264,32
2795892,22
2796516,17
2797140,20
2797772,14
2798392,25
2799024,21
2799652,30
2800272,33
2800900,34
2801524,35
2802156,13
2802784,11
2803404,12
2804032,13
2804656,13
2805276,19
2805908,30
2806528,41
2807156,35
2807780,30
2808404,40
2809032,44
2809656,46
2810284,32
2810916,20
2811536,25
2812164,32
2812788,20
2813420,11
2814052,14
2814672,21
2815304,16
2815928,32
2816552,36
2817180,34
2817800,34
2818428,24
2819052,11
2819676,16
2820304,23
2820920,11
2821552,32
2822180,37
2822800,19
2823428,13
2824052,28
2824680,47
2825312,41
2825928,45
2826556,44
2827180,32
2827804,29
2828432,32
2829056,31
2829684,12
2830308,10
2830932,17
2831560,19
2832184,13
2832812,30
2833440,33
2834064,33
2834692,36
2835316,14
2835948,13
2836576,12
2837200,17
2837828,23
2838452,17
2839076,11
2839708,13
2840328,25
2840956,33
2841580,34
2842208,41
2842836,43
2843460,39
2844088,37
2844720,48
2845336,54
2845968,34
2846592,15
2847224,15
2847852,24
2848472,21
2849100,32
2849724,33
2850348,35
2850980,38
2851600,37
2852228,17
2852852,13
2853476,13
2854108,17
2854732,25
2855360,22
2855992,20
2856612,19
2857240,15
2857864,41
2858492,40
2859124,38
2859744,42
2860372,39
2861000,39
2861624,42
2862252,48
2862872,29
2863504,12
2864132,17
2864752,26
2865384,16
2866008,33
2866636,35
2867268,36
2867884,35
2868516,20
2869136,21
2869764,18
2870392,19
2871016,21
2871644,21
2872268,19
2872892,12
2873524,16
2874144,34
2874772,38
2875404,44
2876024,49
2876652,42
2877276,23
2877908,24
2878536,21
2879160,20
2879788,17
2880416,11
2881036,24
2881664,27
2882284,20
2882916,31
2883540,32
2884160,34
2884788,34
2885408,17
2886036,23
2886668,21
2887288,11
2887916,10
2888540,12
2889168,27
2889796,26
2890416,14
2891044,37
2891668,40
2892292,41
2892924,36
2893544,25
2894172,25
2894796,25
2895420,37
2896048,34
2896664,26
2897292,11
2897916,19
2898544,19
2899172,33
2899796,32
2900428,38
2901056,40
2901680,28
2902308,15
2902936,13
2903560,10
2904188,12
2904808,19
2905436,20
2906060,20
2906684,21
2907316,29
2907936,37
2908568,43
2909196,46
2909816,47
2910444,47
2911068,45
2911700,40
2912332,24
2912952,11
2913580,11
2914204,9
2914776,21
2915412,39
2916032,37
2916660,33
2917284,36
2917908,34
2918540,16
2919160,13
2919788,11
2920412,10
2921036,16
2921664,22
2922288,24
2922916,19
2923548,18
2924168,33
2924796,35
2925420,45
2926052,51
2926684,48
2927304,42
2927936,36
2928560,41
2929184,32
2929812,14
2930432,33
2931060,43
2931688,25
2932312,31
2932940,35
2933560,36
2934192,37
2934820,35
2935440,12
2936068,13
2936692,11
2937324,12
2937956,20
2938576,21
2939208,23
2939832,30
2940456,18
2941084,32
2941704,38
2942336,45
2942960,44
2943584,29
2944216,26
2944840,44
2945468,47
2946096,28
2946720,16
2947348,13
2947972,21
2948604,17
2949236,32
2949856,35
2950484,35
2951108,37
2951732,23
2952360,16
2952976,18
2953608,21
2954228,19
2954852,22
2955484,23
2956108,18
2956736,13
2957368,33
2957988,38
2958616,42
2959240,43
2959868,43
2960500,39
2961120,45
2961748,32
2962372,25
2962996,29
2963628,17
2964248,22
2964876,41
2965500,25
2966128,30
2966756,34
2967380,35
2968012,33
2968640,22
2969264,25
2969896,19
2970516,14
2971140,15
2971772,14
2972392,28
2973020,33
2973644,22
2974268,33
2974900,47
2975520,58
2976148,48
2976780,27
2977400,16
2978028,21
2978652,31
2979280,24
2979912,17
2980528,15
2981156,15
2981780,36
2982404,43
2983036,38
2983656,37
2984284,44
2984908,35
2985532,11
2986164,10
2986784,11
2987416,11
2988044,16
2988664,24
2989296,31
2989920,38
2990548,23
2991180,40
2991800,42
2992432,39
2993056,37
2993676,36
2994308,49
2994928,47
2995556,34
2996184,12
2996804,11
2997436,16
2998056,19
2998684,17
2999316,30
2999936,34
3000568,35
3001192,38
3001820,17
3002452,14
3003072,19
3003700,13
3004328,13
3004952,19
3005580,16
3006200,21
3006832,32
3007456,34
3008080,39
3008708,44
3009328,43
3009956,28
3010588,10
3011208,28
3011836,53
3012460,32
3013092,10
3013724,11
3014344,14
3014976,19
3015600,28
3016224,32
3016852,34
3017472,36
3018104,36
3018728,18
3019352,12
3019984,11
3020604,10
3021232,11
3021864,20
3022480,29
3023112,29
3023736,19
3024368,37
3024996,40
3025616,47
3026244,44
3026868,34
3027496,31
3028124,32
3028744,29
3029376,12
3030000,12
3030624,11
3031256,18
3031880,19
3032512,33
3033140,35
3033760,39
3034388,40
3035016,23
3035644,24
3036276,27
3036896,15
3037524,17
3038152,19
3038776,21
3039404,35
3040024,42
3040652,35
3041280,38
3041904,43
3042532,40
3043156,37
3043788,25
3044420,42
3045040,58
3045672,56
3046296,17
3046920,11
3047548,17
3048168,11
3048796,15
3049420,29
3050048,40
3050676,38
3051296,38
3051928,17
3052556,20
3053176,24
3053808,21
3054432,17
3055060,13
3055692,14
3056312,21
3056944,24
3057568,30
3058192,35
3058824,40
3059440,42
3060072,36
3060696,31
3061320,34
3061952,35
3062568,21
3063200,13
3063828,10
3064448,18
3065080,19
3065704,33
3066332,37
3066964,36
3067584,35
3068216,31
3068840,15
3069464,13
3070096,12
3070716,14
3071348,21
3071972,26
3072600,29
3073228,30
3073848,23
3074476,41
3075104,46
3075728,46
3076356,38
3076980,27
3077612,34
3078240,33
3078856,29
3079488,14
3080112,13
3080736,13
3081364,16
3081984,15
3082612,30
3083236,33
3083860,37
3084492,35
3085112,15
3085740,11
3086372,10
3086992,11
3087620,12
3088244,19
3088876,18
3089504,17
3090124,23
3090752,32
3091380,35
3092000,55
3092632,66
3093248,43
3093880,12
3094504,14
3095128,23
3095756,41
3096376,42
3097004,22
3097636,24
3098256,32
3098884,28
3099508,30
3100140,35
3100768,35
3101392,35
3102024,12
3102648,11
3103272,13
3103904,13
3104524,19
3105152,34
3105776,48
3106400,44
3107028,24
3107656,41
3108284,49
3108916,44
3109536,37
3110168,19
3110792,32
3111424,37
3112052,34
3112672,13
3113304,9
3113876,10
3114504,17
3115136,21
3115752,31
3116384,35
3117008,33
3117632,37
3118260,23
3118880,15
3119508,11
3120140,11
3120760,11
3121388,16
3122012,21
3122644,28
3123272,22
3123896,29
3124524,37
3125148,37
3125772,41
3126400,36
3127024,14
3127652,26
3128280,49
3128904,47
3129532,28
3130152,26
3130784,12
3131412,14
3132032,15
3132664,31
3133288,35
3133920,35
3134548,34
3135168,14
3135800,11
3136424,13
3137048,30
3137676,53
3138296,44
3138924,33
3139548,18
3140172,14
3140804,32
3141424,39
3142056,43
3142684,42
3143304,35
3143936,40
3144560,48
3145188,43
3145820,26
3146440,15
3147068,15
3147696,36
3148320,29
3148952,32
3149568,36
3150200,36
3150824,35
3151448,34
3152080,18
3152696,22
3153328,16
3153956,13
3154576,20
3155204,14
3155828,16
3156460,32
3157092,29
3157712,38
3158344,39
3158968,46
3159592,42
3160224,31
3160840,34
3161472,37
3162096,29
3162720,12
3163352,11
3163976,15
3164608,21
3165236,15
3165856,30
3166488,33
3167112,35
3167744,36
3168376,16
3168992,15
3169624,13
3170248,13
3170872,15
3171504,19
3172124,25
3172752,24
3173384,21
3174008,33
3174640,42
3175264,45
3175892,46
3176524,35
3177144,31
3177776,37
3178400,37
3179024,29
3179656,14
3180272,10
3180904,28
3181528,34
3182152,28
3182784,33
3183400,36
3184032,36
3184664,35
3185280,15
3185908,13
3186536,14
3187168,12
3187800,17
3188416,17
3189048,20
3189672,21
3190296,13
3190928,41
3191548,45
3192180,48
3192804,49
3193432,29
3194064,33
3194684,51
3195316,36
3195944,12
3196568,28
3197200,29
3197824,27
3198456,19
3199084,32
3199704,34
3200340,35
3200960,40
3201580,29
3202212,11
3202832,14
3203460,23
3204084,25
3204704,31
3205336,31
3205960,16
3206588,33
3207216,33
3207832,39
3208464,41
3209084,44
3209716,43
3210344,41
3210960,43
3211592,45
3212216,45
3212840,30
3213468,12
3214088,23
3214716,19
3215340,15
3215964,29
3216596,36
3217220,37
3217848,37
3218476,34
3219096,32
3219724,18
3220348,13
3220980,23
3221608,40
3222228,44
3222856,15
3223480,13
3224104,33
3224732,41
3225352,46
3225984,48
3226604,44
3227228,47
3227860,44
3228484,27
3229112,13
3229740,11
3230360,11
3230992,25
3231616,29
3232244,32
3232876,35
3233496,35
3234124,37
3234748,34
3235372,18
3236004,16
3236624,11
3237252,12
3237876,19
3238500,21
3239128,16
3239752,16
3240384,16
3241012,41
3241632,41
3242260,40
3242884,53
3243512,53
3244144,43
3244764,30
3245392,30
3246020,31
3246644,38
3247272,27
3247892,11
3248520,24
3249144,30
3249772,36
3250400,45
3251024,38
3251656,33
3252284,24
3252904,12
3253532,11
3254156,11
3254788,17
3255420,28
3256040,33
3256668,33
3257292,31
3257916,45
3258548,48
3259168,46
3259800,33
3260428,24
3261048,35
3261680,35
3262304,24
3262932,10
3263564,10
3264184,15
3264812,15
3265436,26
3266060,35
3266692,34
3267312,36
3267940,35
3268564,15
3269188,17
3269820,14
3270440,13
3271068,17
3271700,18
3272320,23
3272948,17
3273576,14
3274208,43
3274836,40
3275456,38
3276088,41
3276712,43
3277336,38
3277968,25
3278584,24
3279212,12
3279832,10
3280456,11
3281084,20
3281700,24
3282332,31
3282960,34
3283576,37
3284204,39
3284824,30
3285452,11
3286080,10
3286696,19
3287324,25
3287948,36
3288576,33
3289204,22
3289824,15
3290452,28
3291072,44
3291696,56
3292324,62
3292944,61
3293572,37
3294196,15
3294816,21
3295448,37
3296068,36
3296700,28
3297328,19
3297944,40
3298572,43
3299192,52
3299824,51
3300452,39
3301072,36
3301700,15
3302324,13
3302948,11
3303576,13
3304200,13
3304828,23
3305452,26
3306072,27
3306704,30
3307320,32
3307948,40
3308580,58
3309200,60
3309828,50
3310452,44
3311080,46
3311708,31
3312328,12
3312956,17
3313580,20
3314204,23
3314836,18
3315456,29
3316084,32
3316708,36
3317332,35
3317964,35
3318584,14
3319212,11
3319840,10
3320460,10
3321088,14
3321712,17
3322340,26
3322968,30
3323592,21
3324220,38
3324844,43
3325468,44
3326096,41
3326712,31
3327344,40
3327968,46
3328592,45
3329220,24
3329840,12
3330468,17
3331096,22
3331712,18
3332340,34
3332964,36
3333592,35
3334220,37
3334840,23
3335468,11
3336092,10
3336716,10
3337344,13
3337960,29
3338592,43
3339212,39
3339836,29
3340468,32
3341088,45
3341716,48
3342344,50
3342968,46
3343596,29
3344220,24
3344848,43
3345476,48
3346096,40
3346724,15
3347348,18
3347972,25
3348604,20
3349224,34
3349852,35
3350476,35
3351100,34
3351728,19
3352348,11
3352976,11
3353604,13
3354224,19
3354852,18
3355476,19
3356104,18
3356736,13
3357356,32
3357984,33
3358608,35
3359240,39
3359868,44
3360488,41
3361116,35
3361740,30
3362360,17
3362992,11
3363608,11
3364236,23
3364860,13
3365488,33
3366116,37
3366740,35
3367368,37
3367996,33
3368616,12
3369244,18
3369868,17
3370496,12
3371124,16
3371744,26
3372372,47
3372996,42
3373620,16
3374248,42
3374872,51
3375500,43
3376124,38
3376752,16
3377380,14
3378004,22
3378632,43
3379264,20
3379880,13
3380508,12
3381132,20
3381760,17
3382388,32
3383008,35
3383636,35
3384260,35
3384884,18
3385512,21
3386132,26
3386760,19
3387384,11
3388008,11
3388636,14
3389260,20
3389888,27
3390520,35
3391136,56
3391768,63
3392392,42
3393020,32
3393648,27
3394272,57
3394900,53
3395524,40
3396148,15
3396776,18
3397396,48
3398024,39
3398648,19
3399272,37
3399900,37
3400524,33
3401152,36
3401784,32
3402400,35
3403028,15
3403652,11
3404280,15
3404912,23
3405528,40
3406156,43
3406780,36
3407404,40
3408032,55
3408648,55
3409276,52
3409900,56
3410524,37
3411156,24
3411780,20
3412408,11
3413036,10
3413656,13
3414284,16
3414908,19
3415540,31
3416172,34
3416792,33
3417420,37
3418048,29
3418672,17
3419300,17
3419920,17
3420548,15
3421172,21
3421796,28
3422428,24
3423052,20
3423680,27
3424312,47
3424928,53
3425560,47
3426184,40
3426812,27
3427444,32
3428064,38
3428692,32
3429316,22
3429944,18
3430572,12
3431192,24
3431820,22
3432444,27
3433072,36
3433700,35
3434324,35
3434956,19
3435584,17
3436208,17
3436836,15
3437460,12
3438088,16
3438716,28
3439336,32
3439968,25
3440592,37
3441216,51
3441844,51
3442464,42
3443092,29
3443724,26
3444344,35
3444972,38
3445596,23
3446224,12
3446856,10
3447472,25
3448104,29
3448728,31
3449352,36
3449980,39
3450600,39
3451228,36
3451852,11
3452476,12
3453108,16
3453728,33
3454356,34
3454988,24
3455608,31
3456240,32
3456860,17
3457488,40
3458120,46
3458736,47
3459364,45
3459988,43
3460616,43
3461244,30
3461864,25
3462492,13
3463116,9
3463688,10
3464316,14
3464936,13
3465564,32
3466192,34
3466816,34
3467444,36
3468064,30
3468692,26
3469324,22
3469944,23
3470572,15
3471196,16
3471828,29
3472460,16
3473080,13
3473708,29
3474332,38
3474960,43
3475588,48
3476208,49
3476836,43
3477460,29
3478084,22
3478716,18
3479336,14
3479968,12
3480596,11
3481216,13
3481848,15
3482468,29
3483100,34
3483728,35
3484344,35
3484976,15
3485596,19
3486220,20
3486852,22
3487472,25
3488100,19
3488724,17
3489348,18
3489976,19
3490592,33
3491224,43
3491852,44
3492472,42
3493100,33
3493724,29
3494356,48
3494988,47
3495608,25
3496236,11
3496860,18
3497484,22
3498116,22
3498736,33
3499368,33
3499988,35
3500616,36
3501244,34
3501864,26
3502496,16
3503124,16
3503744,15
3504376,11
3505000,25
3505628,29
3506260,27
3506880,21
3507508,40
3508136,47
3508760,49
3509388,42
3510008,38
3510640,31
3511264,19
3511888,13
3512520,10
3513136,27
3513768,17
3514396,14
3515016,16
3515648,32
3516272,35
3516900,34
3517532,35
3518152,20
3518784,11
3519408,18
3520032,20
3520660,17
3521280,48
3521908,55
3522532,48
3523156,37
3523788,34
3524408,40
3525036,41
3525664,46
3526288,55
3526916,57
3527540,29
3528172,11
3528800,10
3529416,13
3530048,17
3530672,11
3531296,16
3531924,25
3532544,29
3533176,33
3533796,37
3534420,37
3535052,10
3535672,11
3536300,13
3536932,16
3537552,17
3538180,25
3538804,35
3539436,22
3540064,17
3540688,35
3541316,41
3541940,45
3542564,43
3543196,40
3543816,38
3544444,30
3545068,25
3545692,16
3546324,12
3546948,10
3547576,16
3548204,11
3548824,34
3549452,34
3550076,36
3550708,36
3551340,24
3551960,11
3552592,13
3553216,11
3553840,12
3554468,11
3555088,28
3555720,56
3556344,63
3556968,37
3557596,41
3558224,43
3558856,50
3559484,49
3560104,40
3560732,36
3561360,35
3561988,30
3562620,14
3563240,11
3563868,25
3564492,21
3565116,14
3565748,30
3566368,34
3567000,34
3567628,36
3568248,15
3568876,15
3569500,22
3570132,20
3570764,22
3571384,26
3572012,27
3572636,20
3573264,15
3573892,38
3574512,42
3575140,39
3575768,39
3576392,33
3577024,37
3577640,48
3578272,45
3578904,26
3579520,15
3580152,13
3580776,31
3581408,29
3582040,32
3582660,33
3583292,34
3583916,37
3584544,36
3585172,14
3585792,13
3586420,11
3587044,16
3587668,25
3588296,28
3588920,34
3589548,29
3590180,21
3590800,43
3591428,55
3592052,57
3592684,51
3593312,40
3593932,21
3594560,11
3595184,10
3595808,11
3596440,16
3597056,14
3597684,13
3598308,13
3598932,32
3599564,34
3600184,36
3600812,35
3601444,18
3602064,34
3602692,38
3603316,32
3603948,20
3604576,13
3605200,17
3605828,20
3606452,17
3607072,32
3607704,40
3608320,45
3608948,48
3609572,44
3610196,45
3610828,50
3611448,46
3612076,36
3612708,22
3613328,19
3613956,18
3614580,31
3615212,27
3615840,30
3616460,38
3617088,37
3617712,37
3618336,18
3618964,23
3619584,17
3620212,12
3620836,13
3621460,13
3622088,26
3622712,50
3623340,43
3623972,33
3624592,51
3625220,57
3625844,48
3626476,44
3627104,41
3627724,42
3628352,42
3628976,29
3629600,13
3630228,26
3630848,39
3631476,26
3632100,31
3632724,35
3633356,37
3633976,36
3634608,29
3635236,22
3635856,17
3636484,11
3637108,12
3637736,14
3638368,28
3638988,37
3639616,25
3640240,29
3640864,49
3641496,48
3642112,47
3642744,45
3643368,32
3643992,37
3644624,37
3645240,22
3645868,12
3646500,10
3647120,12
3647748,18
3648376,17
3649004,29
3649632,35
3650252,34
3650880,40
3651504,28
3652128,23
3652756,13
3653376,15
3654004,14
3654628,12
3655252,23
3655884,18
3656504,15
3657132,35
3657764,44
3658384,51
3659012,46
3659636,36
3660268,29
3660900,30
3661520,21
3662148,10
3662772,15
3663396,13
3664028,22
3664648,28
3665276,32
3665900,33
3666528,34
3667156,35
3667780,35
3668412,15
3669044,18
3669664,12
3670296,11
3670920,21
3671552,24
3672180,19
3672800,23
3673428,18
3674056,37
3674680,44
3675312,51
3675928,49
3676560,35
3677188,39
3677808,45
3678440,39
3679064,15
3679696,10
3680324,13
3680944,12
3681572,13
3682200,31
3682824,37
3683452,38
3684072,33
3684700,20
3685328,19
3685952,11
3686584,13
3687200,11
3687828,21
3688456,30
3689072,24
3689704,14
3690324,36
3690956,43
3691584,37
3692200,38
3692832,37
3693452,31
3694084,39
3694712,33
3695332,16
3695960,10
3696584,11
3697208,15
3697836,22
3698456,19
3699084,33
3699708,34
3700336,35
3700964,39
3701588,40
3702220,31
3702848,14
3703472,11
3704100,11
3704728,11
3705352,21
3705980,26
3706600,18
3707228,34
3707852,42
3708476,43
3709108,40
3709728,39
3710360,49
3710988,42
3711608,37
3712240,25
3712860,15
3713492,14
3714120,34
3714740,27
3715368,32
3715992,34
3716616,37
3717244,38
3717864,29
3718492,15
3719116,13
3719740,11
3720372,10
3720992,10
3721620,13
3722252,16
3722872,21
3723500,26
3724128,36
3724756,38
3725388,38
3726008,37
3726640,35
3727264,43
3727888,41
3728516,20
3729136,11
3729764,11
3730388,17
3731012,14
3731644,15
3732264,34
3732892,36
3733524,34
3734144,34
3734776,15
3735400,11
3736028,16
3736660,14
3737280,23
3737912,28
3738536,33
3739160,29
3739788,20
3740408,32
3741036,37
3741664,37
3742288,37
3742916,36
3743536,36
3744168,39
3744796,36
3745416,22
3746044,15
3746672,11
3747300,12
3747932,10
3748552,29
3749180,33
3749808,35
3750432,37
3751060,36
3751680,32
3752308,24
3752936,12
3753560,12
3754192,13
3754808,25
3755440,26
3756072,16
3756688,18
3757320,54
3757944,45
3758576,44
3759204,42
3759824,32
3760456,30
3761080,41
3761704,34
3762336,10
3762952,14
3763584,32
3764208,48
3764832,34
3765460,33
3766088,34
3766716,35
3767348,33
3767968,21
3768600,21
3769224,12
3769852,18
3770484,12
3771104,11
3771736,21
3772360,35
3772984,29
3773612,33
3774232,43
3774864,54
3775492,52
3776112,43
3776744,35
3777368,40
3777996,37
3778628,26
3779248,18
3779876,13
3780500,21
3781128,23
3781756,22
3782376,33
3783008,33
3783632,35
3784256,37
3784884,15
3785504,32
3786136,24
3786764,13
3787384,18
3788016,18
3788640,15
3789272,13
3789900,15
3790520,35
3791148,41
3791776,44
3792400,45
3793028,46
3793648,27
3794276,26
3794900,20
3795528,15
3796156,10
3796776,15
3797408,41
3798036,39
3798656,33
3799288,36
3799912,35
3800544,37
3801172,28
3801792,29
3802420,15
3803044,22
3803668,23
3804300,13
3804920,26
3805548,21
3806176,18
3806800,29
3807428,36
3808048,42
3808680,46
3809308,43
3809928,22
3810556,17
3811184,25
3811812,35
3812444,21
3813064,11
3813696,31
3814320,35
3814944,15
3815576,29
3816196,35
3816824,37
3817448,36
3818072,14
3818704,10
3819320,11
3819952,10
3820584,18
3821200,16
3821832,18
3822456,29
3823088,33
3823716,29
3824336,37
3824968,41
3825592,39
3826216,33
3826848,31
3827472,39
3828104,41
3828728,30
3829352,16
3829984,12
3830608,22
3831240,15
3831868,31
3832488,37
3833120,35
3833744,35
3834376,35
3835008,18
3835628,19
3836256,21
3836884,13
3837508,14
3838140,18
3838760,20
3839392,23
3840028,16
3840644,38
3841276,37
3841900,40
3842528,39
3843156,24
3843776,31
3844404,38
3845028,37
3845652,19
3846284,16
3846904,11
3847532,11
3848156,13
3848780,29
3849412,34
3850032,36
3850664,35
3851292,16
3851912,17
3852540,12
3853164,10
3853796,12
3854424,31
3855044,43
3855672,25
3856296,19
3856920,33
3857548,38
3858168,47
3858796,45
3859420,45
3860044,39
3860676,44
3861296,46
3861924,21
3862556,21
3863176,18
3863808,23
3864432,29
3865060,27
3865692,33
3866312,33
3866940,34
3867564,34
3868188,15
3868820,10
3869440,12
3870068,12
3870692,21
3871320,32
3871952,26
3872568,22
3873200,16
3873828,37
3874448,41
3875076,44
3875704,43
3876332,44
3876964,46
3877584,43
3878216,34
3878840,16
3879464,13
3880096,10
3880712,19
3881344,24
3881968,33
3882592,36
3883224,37
3883848,36
3884476,23
3885108,14
3885728,13
3886360,11
3886984,12
3887616,24
3888244,35
3888864,37
3889496,19
3890120,38
3890744,49
3891376,43
3891992,38
3892620,43
3893244,30
3893872,31
3894500,25
3895124,16
3895756,10
3896384,10
3897008,21
3897636,23
3898260,16
3898888,33
3899516,36
3900136,35
3900768,35
3901392,16
3902016,15
3902648,18
3903264,20
3903896,27
3904528,27
3905144,19
3905772,18
3906400,17
3907028,43
3907660,60
3908280,57
3908912,43
3909536,34
3910160,28
3910792,29
3911408,28
3912040,15
3912664,11
3913288,11
3913916,30
3914536,24
3915168,30
3915800,33
3916420,34
3917048,36
3917672,36
3918304,23
3918936,22
3919552,15
3920184,12
3920808,22
3921432,29
3922064,26
3922680,14
3923308,27
3923936,56
3924560,47
3925188,35
3925808,37
3926440,29
3927068,38
3927688,36
3928320,25
3928944,11
3929572,19
3930204,27
3930824,22
3931456,14
3932080,33
3932704,35
3933332,36
3933952,35
3934584,17
3935208,13
3935828,14
3936460,12
3937080,17
3937708,19
3938340,28
3938960,34
3939588,35
3940212,32
3940844,43
3941472,42
3942096,39
3942728,29
3943348,27
3943972,37
3944604,42
3945224,26
3945852,13
3946476,13
3947100,43
3947732,30
3948356,34
3948988,45
3949616,39
3950236,35
3950864,37
3951488,19
3952120,11
3952748,11
3953368,14
3953996,19
3954620,31
3955244,31
3955876,19
3956496,15
3957124,33
3957748,33
3958376,36
3959008,44
3959632,50
3960260,45
3960892,44
3961512,37
3962144,21
3962768,21
3963400,11
3964028,20
3964648,25
3965280,33
3965904,37
3966528,39
3967160,35
3967780,21
3968412,11
3969040,12
3969656,15
3970284,24
3970908,33
3971540,35
3972168,30
3972792,20
3973424,33
3974048,46
3974672,48
3975300,50
3975920,49
3976548,46
3977172,43
3977800,32
3978428,18
3979048,11
3979676,10
3980308,13
3980928,14
3981556,14
3982180,32
3982812,34
3983444,36
3984064,35
3984692,15
3985316,14
3985940,13
3986572,10
3987192,12
3987824,18
3988448,28
3989072,31
3989704,25
3990320,36
3990952,39
3991584,37
3992204,39
3992832,35
3993460,31
3994092,30
3994720,26
3995340,16
3995968,10
3996596,10
3997220,25
3997848,24
3998472,32
3999104,35
3999728,35
4000352,35
4000980,32
4001604,11
4002232,11
4002860,11
4003480,11
4004108,20
4004732,29
4005364,31
4005992,31
4006612,23
4007240,40
4007864,39
4008488,47
4009116,42
4009736,39
4010364,43
4010988,41
4011612,33
4012244,21
4012868,14
4013496,13
4014124,26
4014744,24
4015372,29
4015996,34
4016628,36
4017256,34
4017880,20
4018508,14
4019132,11
4019760,15
4020388,26
4021008,28
4021636,18
4022260,13
4022884,14
4023512,34
4024140,46
4024768,43
4025400,40
4026016,32
4026648,26
4027272,37
4027900,38
4028532,24
4029152,10
4029780,10
4030404,21
4031028,24
4031660,28
4032280,34
4032908,33
4033532,36
4034160,36
4034788,25
4035412,25
4036044,18
4036672,11
4037292,15
4037920,17
4038544,21
4039172,24
4039804,19
4040424,30
4041052,36
4041676,39
4042300,47
4042932,51
4043552,53
4044184,57
4044812,32
4045432,12
4046060,27
4046684,29
4047316,25
4047944,17
4048564,31
4049192,34
4049816,36
4050440,37
4051072,20
4051692,17
4052320,19
4052944,15
4053568,12
4054200,15
4054816,26
4055448,41
4056076,38
4056696,33
4057324,36
4057952,43
4058580,45
4059212,44
4059832,41
4060464,44
4061088,40
4061712,34
4062344,17
4062960,11
4063592,12
4064216,15
4064840,15
4065468,35
4066088,35
4066716,43
4067348,40
4067968,16
4068600,10
4069224,11
4069852,9
4070432,11
4071056,23
4071684,31
4072312,28
4072940,20
4073572,32
4074192,43
4074824,40
4075448,40
4076072,31
4076704,26
4077320,26
4077952,25
4078576,18
4079200,15
4079832,17
4080456,11
4081084,15
4081716,30
4082336,33
4082968,35
4083592,34
4084224,33
4084852,18
4085472,19
4086104,21
4086728,17
4087352,19
4087984,21
4088604,18
4089232,14
4089864,21
4090480,45
4091112,41
4091736,41
4092368,40
4093000,34
4093620,35
4094248,31
4094876,33
4095500,17
4096132,10
4096748,24
4097376,40
4097996,27
4098620,31
4099248,34
4099864,34
4100492,35
4101112,21
4101736,13
4102364,12
4102988,30
4103616,30
4104244,22
4104860,22
4105492,18
4106116,15
4106744,34
4107372,38
4107992,43
4108620,43
4109244,43
4109864,37
4110492,41
4111112,45
4111740,30
4112364,21
4112988,19
4113616,12
4114232,24
4114860,23
4115492,31
4116112,36
4116740,37
4117364,36
4117992,14
4118620,13
4119240,12
4119868,14
4120492,27
4121116,25
4121744,17
4122360,15
4122988,13
4123612,40
4124236,39
4124864,41
4125480,40
4126108,33
4126736,27
4127360,35
4127988,35
4128612,20
4129240,11
4129868,10
4130488,18
4131116,18
4131740,31
4132364,36
4132992,35
4133616,36
4134244,32
4134868,29
4135492,39
4136124,33
4136744,24
4137372,23
4138004,24
4138624,24
4139252,19
4139876,21
4140504,44
4141136,46
4141752,44
4142380,41
4143004,36
4143628,34
4144260,36
4144880,33
4145508,15
4146132,13
4146756,11
4147388,22
4148008,24
4148636,29
4149264,35
4149880,33
4150512,36
4151136,16
4151764,12
4152396,10
4153016,11
4153644,24
4154268,40
4154892,33
4155520,21
4156144,13
4156772,35
4157400,39
4158024,43
4158652,45
4159272,40
4159904,32
4160532,36
4161152,37
4161780,28
4162400,19
4163028,12
4163660,15
4164280,15
4164908,27
4165532,30
4166156,34
4166784,35
4167400,35
4168028,26
4168652,25
4169276,19
4169904,27
4170520,23
4171152,14
4171776,14
4172400,15
4173028,19
4173652,39
4174280,35
4174912,34
4175528,37
4176156,37
4176780,53
4177412,46
4178040,27
4178656,13
4179284,12
4179908,13
4180528,21
4181160,25
4181776,32
4182404,34
4183028,36
4183652,35
4184280,25
4184904,12
4185532,10
4186164,10
4186784,10
4187412,16
4188036,23
4188668,25
4189296,19
4189912,31
4190544,41
4191168,43
4191792,40
4192424,43
4193040,37
4193668,37
4194292,27
4194916,19
4195544,10
4196168,10
4196800,15
4197428,16
4198048,14
4198676,29
4199300,34
4199932,34
4200560,37
4201176,13
4201804,13
4202428,16
4203052,24
4203680,15
4204296,22
4204924,35
4205548,28
4206172,13
4206800,50
4207416,55
4208048,39
4208676,34
4209296,21
4209924,20
4210548,31
4211176,30
4211808,18
4212424,13
4213052,13
4213676,14
4214300,14
4214932,32
4215552,36
4216184,33
4216804,35
4217428,36
4218060,18
4218680,14
4219308,14
4219940,20
4220560,15
4221188,36
4221812,34
4222444,22
4223072,28
4223692,34
4224324,37
4224944,50
4225568,49
4226196,39
4226816,28
4227444,15
4228068,28
4228692,22
4229320,11
4229936,25
4230568,29
4231196,16
4231816,32
4232444,36
4233068,34
4233700,41
4234328,29
4234944,12
4235576,30
4236200,21
4236824,12
4237452,12
4238072,17
4238704,13
4239328,13
4239952,34
4240584,41
4241200,51
4241828,53
4242460,39
4243080,13
4243708,15
4244332,13
4244964,11
4245592,10
4246212,13
4246840,11
4247464,12
4248088,27
4248716,38
4249336,34
4249968,42
4250588,37
4251212,16
4251844,12
4252464,11
4253092,11
4253724,12
4254344,14
4254976,33
4255600,49
4256228,40
4256860,34
4257480,47
4258108,53
4258732,53
4259356,46
4259988,28
4260608,30
4261236,43
4261860,23
4262484,10
4263112,14
4263728,20
4264356,16
4264984,32
4265608,33
4266236,35
4266860,35
4267488,32
4268116,19
4268736,17
4269364,12
4269988,10
4270612,19
4271244,27
4271864,27
4272492,18
4273116,18
4273740,37
4274372,39
4274992,44
4275624,41
4276252,23
4276872,29
4277500,32
4278124,29
4278756,14
4279384,13
4280004,10
4280632,12
4281256,13
4281880,29
4282508,37
4283128,35
4283756,38
4284380,28
4285004,16
4285636,23
4286256,52
4286884,34
4287516,30
4288136,35
4288764,27
4289388,18
4290016,37
4290648,46
4291264,45
4291892,45
4292516,39
4293140,26
4293772,32
4294392,33
4295024,25
4295648,17
4296272,15
4296900,16
4297520,21
4298152,25
4298780,33
4299400,36
4300032,35
4300656,40
4301288,41
4301916,16
4302536,37
4303164,27
4303788,24
4304412,27
4305040,19
4305664,27
4306292,20
4306916,40
4307540,43
4308172,42
4308792,42
4309420,21
4310052,11
4310672,25
4311300,30
4311928,15
4312556,10
4313188,26
4313808,40
4314436,30
4315060,31
4315684,36
4316316,34
4316936,36
4317564,22
4318192,14
4318816,15
4319444,13
4320072,11
4320700,15
4321328,20
4321952,16
4322580,15
4323204,31
4323832,38
4324464,49
4325080,45
4325708,37
4326332,22
4326960,33
4327588,43
4328208,43
4328836,27
4329460,11
4330084,23
4330716,13
4331340,16
4331972,30
4332600,35
4333220,35
4333848,33
4334472,25
4335104,27
4335736,16
4336352,13
4336984,15
4337608,17
4338232,26
4338860,23
4339480,26
4340108,30
4340736,38
4341360,43
4341992,46
4342616,37
4343244,34
4343876,44
4344496,43
4345124,23
4345748,15
4346376,11
4347004,20
4347624,17
4348252,32
4348876,36
4349504,33
4350132,34
4350752,37
4351384,29
4352012,21
4352628,12
4353260,11
4353884,21
4354512,27
4355140,27
4355760,24
4356388,20
4357012,46
4357640,51
4358268,50
4358888,41
4359516,20
4360140,25
4360764,33
4361396,32
4362016,22
4362644,26
4363276,12
4363896,16
4364524,16
4365148,29
4365780,36
4366408,38
4367024,37
4367656,15
4368280,13
4368904,24
4369532,22
4370152,17
4370780,15
4371408,24
4372028,24
4372660,20
4373280,34
4373908,45
4374540,52
4375160,47
4375788,31
4376416,11
4377044,20
4377676,32
4378296,32
4378924,25
4379548,22
4380172,11
4380804,14
4381424,23
4382056,32
4382680,32
4383304,35
4383936,35
4384552,34
4385180,21
4385812,14
4386432,13
4387060,14
4387684,29
4388316,34
4388948,32
4389568,23
4390200,39
4390824,49
4391448,53
4392080,48
4392696,43
4393328,33
4393952,15
4394576,11
4395204,10
4395824,19
4396456,15
4397084,10
4397704,14
4398336,32
4398960,33
4399592,35
4400220,34
4400840,27
4401468,12
4402092,11
4402720,11
4403348,12
4403968,21
4404596,21
4405220,12
4405844,12
4406472,31
4407088,38
4407720,37
4408348,35
4408968,37
4409596,30
4410220,40
4410852,22
4411484,16
4412104,11
4412736,11
4413360,12
4413984,21
4414616,16
4415232,34
4415864,32
4416488,37
4417112,35
4417740,18
4418360,16
4418988,17
4419620,16
4420240,11
4420868,13
4421492,13
4422124,35
4422756,28
4423376,30
4424008,36
4424628,40
4425252,48
4425884,52
4426504,45
4427132,42
4427756,39
4428384,25
4429012,17
4429636,10
4430264,23
4430896,11
4431512,33
4432144,32
4432768,35
4433396,41
4434028,38
4434648,28
4435276,20
4435900,11
4436524,14
4437156,11
4437776,21
4438408,32
4439028,24
4439656,15
4440288,37
4440912,39
4441540,39
4442172,38
4442792,35
4443424,39
4444048,50
4444676,47
4445308,16
4445928,11
4446556,17
4447184,20
4447808,15
4448440,32
4449056,36
4449688,41
4450316,38
4450936,15
4451568,13
4452192,19
4452820,22
4453452,22
4454072,25
4454704,28
4455328,24
4455952,19
4456584,38
4457200,48
4457828,49
4458452,40
4459080,33
4459708,23
4460328,39
4460960,49
4461588,35
4462208,19
4462840,11
4463464,28
4464096,31
4464724,27
4465344,35
4465972,35
4466600,33
4467224,38
4467852,26
4468472,13
4469104,17
4469728,15
4470352,14
4470984,23
4471604,32
4472232,46
4472864,40
4473484,31
4474116,47
4474740,48
4475372,44
4476004,35
4476624,33
4477256,38
4477880,37
4478504,18
4479136,11
4479756,12
4480388,17
4481012,15
4481636,33
4482264,34
4482888,35
4483516,39
4484148,22
4484768,11
4485396,19
4486020,18
4486652,15
4487280,45
4487896,62
4488528,48
4489152,27
4489776,32
4490404,38
4491024,45
4491652,48
4492276,41
4492904,28
4493532,34
4494156,31
4494788,19
4495416,11
4496040,23
4496668,14
4497292,11
4497924,15
4498552,30
4499172,33
4499804,33
4500428,35
4501052,13
4501684,10
4502304,14
4502936,14
4503568,24
4504184,32
4504816,47
4505440,40
4506072,21
4506700,32
4507320,40
4507948,44
4508572,39
4509196,25
4509824,26
4510448,51
4511076,60
4511700,25
4512324,11
4512956,10
4513576,18
4514204,24
4514836,32
4515456,35
4516084,34
4516708,34
4517340,30
4517968,11
4518592,21
4519220,21
4519844,10
4520468,11
4521100,20
4521720,32
4522348,31
4522972,21
4523596,44
4524228,50
4524848,48
4525476,43
4526108,38
4526728,48
4527356,38
4527980,29
4528612,20
4529244,12
4529864,14
4530492,19
4531120,15
4531744,31
4532372,39
4532992,37
4533620,36
4534244,19
4534872,12
4535500,11
4536120,11
4536748,17
4537380,22
4538000,30
4538628,28
4539252,23
4539884,35
4540516,51
4541136,47
4541768,39
4542392,32
4543016,27
4543648,29
4544268,31
4544896,24
4545520,22
4546144,19
4546776,16
4547400,25
4548028,31
4548660,32
4549280,35
4549908,35
4550536,35
4551164,18
4551796,20
4552416,20
4553044,13
4553672,11
4554296,19
4554924,28
4555544,37
4556176,28
4556804,35
4557424,45
4558052,44
4558676,47
4559308,36
4559940,31
4560560,35
4561188,39
4561816,26
4562440,17
4563068,11
4563688,12
4564316,12
4564944,33
4565568,41
4566200,39
4566816,34
4567448,20
4568076,12
4568696,19
4569324,17
4569952,17
4570580,17
4571212,25
4571832,29
4572464,24
4573088,34
4573712,45
4574344,46
4574960,37
4575592,33
4576216,13
4576840,25
4577472,48
4578092,68
4578720,58
4579352,21
4579968,29
4580600,46
4581224,28
4581852,30
4582484,32
4583104,35
4583736,37
4584360,18
4584984,13
4585612,20
4586232,17
4586864,29
4587488,33
4588112,28
4588744,19
4589360,12
4589992,36
4590624,38
4591240,45
4591868,42
4592496,36
4593124,37
4593756,36
4594376,41
4595008,28
4595632,28
4596256,25
4596884,14
4597504,37
4598136,41
4598760,33
4599384,36
4600016,36
4600632,31
4601264,16
4601892,11
4602512,11
4603144,17
4603768,34
4604400,36
4605028,30
4605648,31
4606280,27
4606904,41
4607528,45
4608160,46
4608776,47
4609404,48
4610028,57
4610652,51
4611280,43
4611896,18
4612524,17
4613156,34
4613776,37
4614404,28
4615028,30
4615656,35
4616288,36
4616904,35
4617536,14
4618160,14
4618784,19
4619412,20
4620032,13
4620660,15
4621284,37
4621908,36
4622540,16
4623160,37
4623792,39
4624420,41
4625040,39
4625668,28
4626292,22
4626924,28
4627552,40
4628176,31
4628804,13
4629428,12
4630052,15
4630684,20
4631304,27
4631932,32
4632560,32
4633184,39
4633816,34
4634436,17
4635068,21
4635700,18
4636320,15
4636948,17
4637572,16
4638204,22
4638836,30
4639456,21
4640088,37
4640708,39
4641332,41
4641960,39
4642584,36
4643212,24
4643836,30
4644464,39
4645092,29
4645716,29
4646348,13
4646980,23
4647600,23
4648228,31
4648852,35
4649480,34
4650108,38
4650728,31
4651356,15
4651984,14
4652608,15
4653236,11
4653856,18
4654484,25
4655116,26
4655736,22
4656368,32
4656992,44
4657620,40
4658252,38
4658872,39
4659504,24
4660128,21
4660752,32
4661380,36
4662000,24
4662628,18
4663252,11
4663880,20
4664508,34
4665128,32
4665756,37
4666388,34
4667008,35
4667640,14
4668264,44
4668892,43
4669524,20
4670144,17
4670772,11
4671400,15
4672024,20
4672652,30
4673272,29
4673900,34
4674524,34
4675152,37
4675780,33
4676400,30
4677028,37
4677660,40
4678280,25
4678912,15
4679536,13
4680164,11
4680796,12
4681416,33
4682048,33
4682672,36
4683296,35
4683924,30
4684544,12
4685176,22
4685800,20
4686420,20
4687052,32
4687672,32
4688304,14
4688932,12
4689552,24
4690184,53
4690808,53
4691436,50
4692068,50
4692688,43
4693316,38
4693944,31
4694568,32
4695196,15
4695816,13
4696448,19
4697072,30
4697696,28
4698324,31
4698952,35
4699580,35
4700212,36
4700832,23
4701460,16
4702088,15
4702716,24
4703348,24
4703968,21
4704600,27
4705228,26
4705852,21
4706484,38
4707104,48
4707736,53
4708368,40
4708988,33
4709616,31
4710244,36
4710876,26
4711504,13
4712124,10
4712756,10
4713380,11
4714004,11
4714632,32
4715252,37
4715880,34
4716508,36
4717132,33
4717760,21
4718380,29
4719012,37
4719640,32
4720264,28
4720892,14
4721516,12
4722148,11
4722780,13
4723400,36
4724028,36
4724652,41
4725276,51
4725908,50
4726528,38
4727156,35
4727784,20
4728408,17
4729036,18
4729656,12
4730284,23
4730916,23
4731536,31
4732168,33
4732792,38
4733424,39
4734056,31
4734672,23
4735304,11
4735932,13
4736556,11
4737188,27
4737808,37
4738436,23
4739064,15
4739688,36
4740316,54
4740944,55
4741572,46
4742204,41
4742824,27
4743452,24
4744080,20
4744708,22
4745340,10
4745960,22
4746592,34
4747216,19
4747840,22
4748472,34
4749092,42
4749720,40
4750352,34
4750972,23
4751604,34
4752228,30
4752856,19
4753488,27
4754104,25
4754736,29
4755360,35
4755984,24
4756616,39
4757232,43
4757864,37
4758488,40
4759112,42
4759740,41
4760360,41
4760992,33
4761620,13
4762240,15
4762868,19
4763492,11
4764124,25
4764756,31
4765376,37
4766008,33
4766632,35
4767256,25
4767888,16
4768504,11
4769136,11
4769760,16
4770384,11
4771016,15
4771636,19
4772264,22
4772896,30
4773516,33
4774148,35
4774772,39
4775404,44
4776032,47
4776652,39
4777284,19
4777908,11
4778532,15
4779164,12
4779784,23
4780416,34
4781040,21
4781664,31
4782296,35
4782920,37
4783552,35
4784184,13
4784800,17
4785428,16
4786056,17
4786688,23
4787316,28
4787936,35
4788568,33
4789192,21
4789816,34
4790448,45
4791064,56
4791696,61
4792328,58
4792944,31
4793576,14
4794204,15
4794836,20
4795464,21
4796088,26
4796720,19
4797344,12
4797968,31
4798600,34
4799224,35
4799856,36
4800484,37
4801108,13
4801736,19
4802356,30
4802984,36
4803612,30
4804232,36
4804860,33
4805484,29
4806116,22
4806744,39
4807368,48
4807996,51
4808624,52
4809248,37
4809876,35
4810496,33
4811124,20
4811752,11
4812376,17
4813008,20
4813624,11
4814252,18
4814884,29
4815504,34
4816132,35
4816756,36
4817388,21
4818016,21
4818636,14
4819264,17
4819888,27
4820512,32
4821140,29
4821760,17
4822388,16
4823016,31
4823640,36
4824272,42
4824888,44
4825516,52
4826148,35
4826768,24
4827396,32
4828024,32
4828652,17
4829284,10
4829904,33
4830536,34
4831160,27
4831784,32
4832416,35
4833032,34
4833664,35
4834288,12
4834912,11
4835540,11
4836164,19
4836796,25
4837428,22
4838048,32
4838680,32
4839304,14
4839932,56
4840564,64
4841184,54
4841812,46
4842436,40
4843064,31
4843692,27
4844312,32
4844944,17
4845564,10
4846192,18
4846820,32
4847448,25
4848076,31
4848708,32
4849328,37
4849956,37
4850584,29
4851208,16
4851836,10
4852456,10
4853088,27
4853712,30
4854336,28
4854968,25
4855588,25
4856216,33
4856848,57
4857468,53
4858100,48
4858724,43
4859356,25
4859984,26
4860608,36
4861240,28
4861864,13
4862488,11
4863120,19
4863740,24
4864372,14
4864996,31
4865616,34
4866248,34
4866864,38
4867492,26
4868124,16
4868744,14
4869376,11
4870000,18
4870628,25
4871260,28
4871880,27
4872512,26
4873136,32
4873760,44
4874392,41
4875008,39
4875640,22
4876264,27
4876888,46
4877516,54
4878136,32
4878768,10
4879396,20
4880016,23
4880644,12
4881268,35
4881900,35
4882528,34
4883152,37
4883784,35
4884408,25
4885032,24
4885664,18
4886280,14
4886912,19
4887536,22
4888160,19
4888788,15
4889416,23
4890048,44
4890676,48
4891296,42
4891924,35
4892552,27
4893180,42
4893812,46
4894432,35
4895064,27
4895688,24
4896312,14
4896940,24
4897560,25
4898192,29
4898820,34
4899440,38
4900072,35
4900696,19
4901324,19
4901956,10
4902576,38
4903208,39
4903832,24
4904456,25
4905088,25
4905708,31
4906340,30
4906964,34
4907588,36
4908220,36
4908840,40
4909472,45
4910100,41
4910720,29
4911352,11
4911976,10
4912612,10
4913244,14
4913864,10
4914496,31
4915124,35
4915752,35
4916380,34
4917000,35
4917628,21
4918252,15
4918876,10
4919504,15
4920132,11
4920760,34
4921388,60
4922008,50
4922636,26
4923260,49
4923892,65
4924520,52
4925140,41
4925768,29
4926392,32
4927016,35
4927648,23
4928264,11
4928892,15
4929516,13
4930140,10
4930768,14
4931392,32
4932020,33
4932652,34
4933272,36
4933900,19
4934528,18
4935156,19
4935788,30
4936408,44
4937036,49
4937660,27
4938284,13
4938912,12
4939536,38
4940164,57
4940788,54
4941416,51
4942044,44
4942668,35
4943300,44
4943928,36
4944552,17
4945180,10
4945808,11
4946436,22
4947068,20
4947688,22
4948316,30
4948944,33
4949568,36
4950196,37
4950816,12
4951448,12
4952076,12
4952696,11
4953328,13
4953952,16
4954580,47
4955212,58
4955832,29
4956464,40
4957088,51
4957712,64
4958344,54
4958960,44
4959592,23
4960216,21
4960840,24
4961468,10
4962088,15
4962716,20
4963348,32
4963968,27
4964596,31
4965224,32
4965852,34
4966484,34
4967104,27
4967732,15
4968356,42
4968980,35
4969608,13
4970224,11
4970856,17
4971480,19
4972104,17
4972732,28
4973352,64
4973984,65
4974616,42
4975232,37
4975864,12
4976488,11
4977116,22
4977748,27
4978368,10
4979000,15
4979624,31
4980248,21
4980876,27
4981496,48
4982128,35
4982752,36
4983376,36
4984004,19
4984624,16
4985256,12
4985884,14
4986504,24
4987136,27
4987760,28
4988388,24
4989020,17
4989640,35
4990272,45
4990896,45
4991520,42
4992152,31
4992768,32
4993396,36
4994024,33
4994648,26
4995276,29
4995896,16
4996528,23
4997156,30
4997776,30
4998404,32
4999028,34
4999660,35
5000292,35
5000912,21
5001540,29
5002168,19
5002792,11
5003424,10
5004040,17
5004668,28
5005296,31
5005920,22
5006548,39
5007172,49
5007804,47
5008436,40
5009056,30
5009684,35
5010312,42
5010940,30
5011572,16
5012192,15
5012824,17
5013448,27
5014072,21
5014704,30
5015324,33
5015952,35
5016584,34
5017208,16
5017840,14
5018464,13
5019092,12
5019724,24
5020344,40
5020972,40
5021596,29
5022224,24
5022852,30
5023472,41
5024104,48
5024728,43
5025352,37
5025980,30
5026600,38
5027232,29
5027860,25
5028480,29
5029108,29
5029736,12
5030368,20
5031000,23
5031616,35
5032248,35
5032872,37
5033496,37
5034128,12
5034744,26
5035376,24
5036004,19
5036628,25
5037260,17
5037880,19
5038512,31
5039144,27
5039760,32
5040392,44
5041016,53
5041648,43
5042276,30
5042896,15
5043528,21
5044152,36
5044776,25
5045408,13
5046024,12
5046656,11
5047280,17
5047904,32
5048536,36
5049160,36
5049788,37
5050420,23
5051040,12
5051672,12
5052296,13
5052928,16
5053556,28
5054176,43
5054808,39
5055432,23
5056056,30
5056688,45
5057304,43
5057936,41
5058568,42
5059184,32
5059816,37
5060440,35
5061072,37
5061700,35
5062320,31
5062952,12
5063580,29
5064204,23
5064836,32
5065456,36
5066088,35
5066712,35
5067336,29
5067968,59
5068592,61
5069228,26
5069856,10
5070476,12
5071108,18
5071732,18
5072364,14
5072996,38
5073616,38
5074248,39
5074872,41
5075496,47
5076128,58
5076748,67
5077380,60
5078008,24
5078632,14
5079264,11
5079888,39
5080520,34
5081148,32
5081768,32
5082396,35
5083024,37
5083652,35
5084284,24
5084904,17
5085536,11
5086160,11
5086784,15
5087416,24
5088032,30
5088664,27
5089292,22
5089912,41
5090544,47
5091168,42
5091800,40
5092432,35
5093052,39
5093684,37
5094308,27
5094932,10
5095564,10
5096184,11
5096816,18
5097440,15
5098064,36
5098696,34
5099316,34
5099948,33
5100576,26
5101200,35
5101832,27
5102456,19
5103088,21
5103720,24
5104340,29
5104972,14
5105596,13
5106224,32
5106856,36
5107476,48
5108108,47
5108732,31
5109360,16
5109992,25
5110620,28
5111252,16
5111884,11
5112508,10
5113136,16
5113764,15
5114388,33
5115024,39
5115644,35
5116276,34
5116900,35
5117528,20
5118160,27
5118780,21
5119412,10
5120048,10
5120660,23
5121288,34
5121912,31
5122540,21
5123168,38
5123792,43
5124420,40
5125044,43
5125668,38
5126296,43
5126912,50
5127544,48
5128168,19
5128788,10
5129420,18
5130040,31
5130668,31
5131300,30
5131920,37
5132548,41
5133172,39
5133804,17
5134432,10
5135048,12
5135676,13
5136300,13
5136924,16
5137556,22
5138176,29
5138804,24
5139428,31
5140052,35
5140684,42
5141304,47
5141932,42
5142560,38
5143184,46
5143812,28
5144436,11
5145068,13
5145696,13
5146320,10
5146948,12
5147572,19
5148196,31
5148824,33
5149440,33
5150072,37
5150696,19
5151320,16
5151948,13
5152568,11
5153196,10
5153828,18
5154448,34
5155076,24
5155700,14
5156332,38
5156964,48
5157584,43
5158216,37
5158840,18
5159464,27
5160092,31
5160712,28
5161344,15
5161964,19
5162588,13
5163220,21
5163840,23
5164472,32
5165104,34
5165720,35
5166348,34
5166972,29
5167604,13
5168232,10
5168856,11
5169484,15
5170108,28
5170732,27
5171364,14
5171984,19
5172612,38
5173236,43
5173860,36
5174488,35
5175112,36
5175744,13
5176372,23
5176992,21
5177620,17
5178244,13
5178876,12
5179504,12
5180128,18
5180760,17
5181384,28
5182008,35
5182636,42
5183256,38
5183888,13
5184516,24
5185136,36
5185764,25
5186388,15
5187020,17
5187648,32
5188272,27
5188900,17
5189524,33
5190152,38
5190780,49
5191400,50
5192032,42
5192652,33
5193276,34
5193908,27
5194528,15
5195156,14
5195788,16
5196408,14
5197040,15
5197664,31
5198292,37
5198924,34
5199544,36
5200176,35
5200800,11
5201420,10
5202052,11
5202672,23
5203300,45
5203924,55
5204548,39
5205176,17
5205800,19
5206428,39
5207060,45
5207680,43
5208308,36
5208932,26
5209564,36
5210196,38
5210816,29
5211448,17
5212072,13
5212696,24
5213328,35
5213944,23
5214576,32
5215200,35
5215824,34
5216456,35
5217072,19
5217704,14
5218332,12
5218952,13
5219584,13
5220208,22
5220836,27
5221468,27
5222088,15
5222720,39
5223340,47
5223964,37
5224596,36
5225216,34
5225844,29
5226468,38
5227092,40
5227724,27
5228344,11
5228972,13
5229604,21
5230224,16
5230856,19
5231480,32
5232112,33
5232740,34
5233360,35
5233988,19
5234616,18
5235240,16
5235868,22
5236488,43
5237116,37
5237744,17
5238368,19
5239000,35
5239624,64
5240256,48
5240884,37
5241504,34
5242136,15
5242760,29
5243392,50
5244020,44
5244640,20
5245268,15
5245892,11
5246516,20
5247144,24
5247764,30
5248392,35
5249016,37
5249636,35
5250268,24
5250888,10
5251516,14
5252148,12
5252768,11
5253396,21
5254020,26
5254648,24
5255276,24
5255896,29
5256524,40
5257148,38
5257772,40
5258400,43
5259016,48
5259644,19
5260268,11
5260892,11
5261520,11
5262140,10
5262768,13
5263396,19
5264016,17
5264644,28
5265264,33
5265896,35
5266524,34
5267144,16
5267772,15
5268396,15
5269020,12
5269652,14
5270272,15
5270900,19
5271528,25
5272152,22
5272780,31
5273400,33
5274032,32
5274660,34
5275280,33
5275908,39
5276532,48
5277164,54
5277792,40
5278412,18
5279040,11
5279664,20
5280288,19
5280916,28
5281536,33
5282164,35
5282788,43
5283412,37
5284040,12
5284656,10
5285284,10
5285912,10
5286536,21
5287164,32
5287788,35
5288416,30
5289048,14
5289664,49
5290292,60
5290916,54
5291540,46
5292168,37
5292784,39
5293416,44
5294040,29
5294664,11
5295292,10
5295912,11
5296544,10
5297172,10
5297792,30
5298420,35
5299044,35
5299676,35
5300304,19
5300928,11
5301556,15
5302180,21
5302804,23
5303436,26
5304056,32
5304684,29
5305308,24
5305932,31
5306564,37
5307184,39
5307812,41
5308444,35
5309064,27
5309692,46
5310316,47
5310948,42
5311580,20
5312200,11
5312828,21
5313452,30
5314076,28
5314708,32
5315328,34
5315956,34
5316580,33
5317204,13
5317836,11
5318456,11
5319084,12
5319716,18
5320336,21
5320964,25
5321588,21
5322220,13
5322852,42
5323472,43
5324104,45
5324728,43
5325352,43
5325980,39
5326600,42
5327228,32
5327852,10
5328472,15
5329104,17
5329720,23
5330348,12
5330980,34
5331600,37
5332228,34
5332852,34
5333480,33
5334108,13
5334728,12
5335356,21
5335980,15
5336604,31
5337236,52
5337856,64
5338484,64
5339108,31
5339732,67
5340364,72
5340984,47
5341612,38
5342244,25
5342864,39
5343492,37
5344116,24
5344748,16
5345376,18
5345992,11
5346624,11
5347248,15
5347868,27
5348500,34
5349120,35
5349748,35
5350372,15
5351000,19
5351628,15
5352248,11
5352876,18
5353508,22
5354128,33
5354756,29
5355384,20
5356012,34
5356644,48
5357264,54
5357892,49
5358520,49
5359144,54
5359772,43
5360392,40
5361020,37
5361644,28
5362268,17
5362900,38
5363524,73
5364152,59
5364784,34
5365400,35
5366032,43
5366656,41
5367284,13
5367916,10
5368536,11
5369164,10
5369788,12
5370412,15
5371044,22
5371664,24
5372292,14
5372916,39
5373544,42
5374172,40
5374796,41
5375428,43
5376060,36
5376676,32
5377308,33
5377928,16
5378560,11
5379188,11
5379808,19
5380436,19
5381060,31
5381684,35
5382316,35
5382936,38
5383564,25
5384188,14
5384816,32
5385444,21
5386068,12
5386700,15
5387328,30
5387948,31
5388576,28
5389200,33
5389828,41
5390460,41
5391080,43
5391708,45
5392332,38
5392956,43
5393588,41
5394208,34
5394836,13
5395468,10
5396088,11
5396716,13
5397340,15
5397972,31
5398604,34
5399224,35
5399852,35
5400480,21
5401100,18
5401732,14
5402352,11
5402980,10
5403604,23
5404228,41
5404860,38
5405480,24
5406108,35
5406740,44
5407360,49
5407988,44
5408612,38
5409244,44
5409872,53
5410492,42
5411120,22
5411744,23
5412368,19
5412996,18
5413616,23
5414244,32
5414872,32
5415492,35
5416124,36
5416744,35
5417372,19
5418004,23
5418624,21
5419252,26
5419876,32
5420508,30
5421140,34
5421760,28
5422388,20
5423016,41
5423640,36
5424272,34
5424888,41
5425516,42
5426144,49
5426768,49
5427396,26
5428016,17
5428644,25
5429272,14
5429896,19
5430524,20
5431148,33
5431780,33
5432408,34
5433032,35
5433660,15
5434284,19
5434908,17
5435540,10
5436160,11
5436788,11
5437416,20
5438040,25
5438672,28
5439288,31
5439920,33
5440552,38
5441168,41
5441796,46
5442420,57
5443048,72
5443680,63
5444296,36
5444924,18
5445548,55
5446172,55
5446804,22
5447424,24
5448052,34
5448676,33
5449300,33
5449928,35
5450544,14
5451176,12
5451804,10
5452424,13
5453052,12
5453676,11
5454308,24
5454936,30
5455556,21
5456184,38
5456808,43
5457428,53
5458060,50
5458680,41
5459308,27
5459932,35
5460556,45
5461184,38
5461808,16
5462436,27
5463068,50
5463688,32
5464316,31
5464940,33
5465572,35
5466204,34
5466824,26
5467452,21
5468080,15
5468704,11
5469332,10
5469952,17
5470580,25
5471208,27
5471832,23
5472460,31
5473080,43
5473708,52
5474340,46
5474960,38
5475592,12
5476216,25
5476844,49
5477476,42
5478096,34
5478728,18
5479352,28
5479976,24
5480604,14
5481224,32
5481852,34
5482476,34
5483100,36
5483732,19
5484356,13
5484988,13
5485616,10
5486240,17
5486868,31
5487496,41
5488124,33
5488756,13
5489376,46
5490004,46
5490628,38
5491252,37
5491884,36
5492504,39
5493132,46
5493756,50
5494384,18
5495016,21
5495640,35
5496272,26
5496900,10
5497520,33
5498152,33
5498776,35
5499400,36
5500028,33
5500648,11
5501280,12
5501904,15
5502528,14
5503160,18
5503780,22
5504412,22
5505040,25
5505656,35
5506288,34
5506912,37
5507540,42
5508172,43
5508792,33
5509424,25
5510048,35
5510672,38
5511304,20
5511920,11
5512552,13
5513176,12
5513800,21
5514428,30
5515048,33
5515680,35
5516308,36
5516928,15
5517556,16
5518184,26
5518812,26
5519444,12
5520064,10
5520692,27
5521316,19
5521940,13
5522572,34
5523192,43
5523824,49
5524448,51
5525072,47
5525704,31
5526320,17
5526952,11
5527584,12
5528204,13
5528832,10
5529460,27
5530092,31
5530720,29
5531336,31
5531968,34
5532592,37
5533216,36
5533844,14
5534464,15
5535092,10
5535720,21
5536344,12
5536972,30
5537592,30
5538224,15
5538852,13
5539472,35
5540104,41
5540724,42
5541356,39
5541988,29
5542608,28
5543236,32
5543864,33
5544488,21
5545116,12
5545736,11
5546364,12
5546992,16
5547616,32
5548244,34
5548872,39
5549500,36
5550132,24
5550752,13
5551384,10
5552008,11
5552636,19
5553268,38
5553888,33
5554520,15
5555144,12
5555768,32
5556400,41
5557020,39
5557648,44
5558280,55
5558900,62
5559532,46
5560156,21
5560788,11
5561416,12
5562040,12
5562672,11
5563296,15
5563920,15
5564552,33
5565172,31
5565800,34
5566428,37
5567052,17
5567684,20
5568304,18
5568932,11
5569564,18
5570184,23
5570816,30
5571440,32
5572068,24
5572700,34
5573320,40
5573948,45
5574572,43
5575196,43
5575828,33
5576448,35
5577076,31
5577704,23
5578328,23
5578956,15
5579576,13
5580208,29
5580836,30
5581456,30
5582084,34
5582708,34
5583340,30
5583972,15
5584592,12
5585220,11
5585848,21
5586472,27
5587100,26
5587720,23
5588348,31
5588976,29
5589600,34
5590232,40
5590856,45
5591488,47
5592116,42
5592736,43
5593368,47
5593992,44
5594624,11
5595252,12
5595872,16
5596504,11
5597128,13
5597752,34
5598384,35
5599004,35
5599636,39
5600268,20
5600888,22
5601516,29
5602140,34
5602772,33
5603400,30
5604024,37
5604652,26
5605276,14
5605900,40
5606532,39
5607152,40
5607780,37
5608404,31
5609028,25
5609660,30
5610280,37
5610908,26
5611540,14
5612160,11
5612788,18
5613412,18
5614044,31
5614676,34
5615296,33
5615928,41
5616552,38
5617176,17
5617804,11
5618424,11
5619052,11
5619680,12
5620304,13
5620932,22
5621552,33
5622184,19
5622812,43
5623432,49
5624064,44
5624688,40
5625316,33
5625948,33
5626568,39
5627200,38
5627824,21
5628448,11
5629080,28
5629696,43
5630328,29
5630952,31
5631580,33
5632212,35
5632836,35
5633464,17
5634092,10
5634712,12
5635340,11
5635964,19
5636596,25
5637224,31
5637840,24
5638472,13
5639096,32
5639720,33
5640348,43
5640968,49
5641596,45
5642220,37
5642844,41
5643476,42
5644100,30
5644728,12
5645360,10
5645976,17
5646608,11
5647232,21
5647860,32
5648492,33
5649112,33
5649740,33
5650368,23
5650992,34
5651620,39
5652240,25
5652868,19
5653492,13
5654116,12
5654748,16
5655372,14
5656000,43
5656628,38
5657248,39
5657880,35
5658500,25
5659132,19
5659760,24
5660384,31
5661012,21
5661636,13
5662264,13
5662892,24
5663512,17
5664144,32
5664764,34
5665392,36
5666020,35
5666644,29
5667276,23
5667904,28
5668528,14
5669156,11
5669780,20
5670408,31
5671036,22
5671656,13
5672288,28
5672912,29
5673536,37
5674168,51
5674784,64
5675416,61
5676044,32
5676664,12
5677296,14
5677920,13
5678548,12
5679180,14
5679800,24
5680432,21
5681056,33
5681680,34
5682308,35
5682928,35
5683560,14
5684180,15
5684804,11
5685436,10
5686056,17
5686684,25
5687316,32
5687936,32
5688568,20
5689192,33
5689820,47
5690452,52
5691072,46
5691704,39
5692328,31
5692952,30
5693584,27
5694200,19
5694828,11
5695456,14
5696080,37
5696708,44
5697328,36
5697956,32
5698588,34
5699208,34
5699836,35
5700460,11
5701092,12
5701724,16
5702344,19
5702976,18
5703600,28
5704224,32
5704856,28
5705472,14
5706104,51
5706728,49
5707352,51
5707984,47
5708604,28
5709232,16
5709864,18
5710484,21
5711112,24
5711736,34
5712368,22
5713000,10
5713616,24
5714248,33
5714872,37
5715496,36
5716128,36
5716744,18
5717376,27
5718000,23
5718624,13
5719256,12
5719880,22
5720512,27
5721144,25
5721760,16
5722392,33
5723016,41
5723648,43
5724280,42
5724896,37
5725528,24
5726152,31
5726776,34
5727408,23
5728024,13
5728656,14
5729288,11
5729904,11
5730536,21
5731160,31
5731792,38
5732424,39
5733044,37
5733676,12
5734300,16
5734928,12
5735556,16
5736176,31
5736804,25
5737428,19
5738052,17
5738684,12
5739304,39
5739936,39
5740564,38
5741184,38
5741812,35
5742436,48
5743068,55
5743700,37
5744320,11
5744948,14
5745572,18
5746196,20
5746828,10
5747448,38
5748076,38
5748700,35
5749328,35
5749956,38
5750576,31
5751208,21
5751836,15
5752456,18
5753084,32
5753712,32
5754340,17
5754972,11
5755592,29
5756224,36
5756848,39
5757472,49
5758104,42
5758720,34
5759352,36
5759976,29
5760600,16
5761232,11
5761848,13
5762476,17
5763104,13
5763728,15
5764356,32
5764980,33
5765612,34
5766240,33
5766856,13
5767488,11
5768112,21
5768732,24
5769364,20
5769984,32
5770612,37
5771236,20
5771860,14
5772492,40
5773112,47
5773740,52
5774372,43
5774992,29
5775624,17
5776244,24
5776876,29
5777504,22
5778120,34
5778752,35
5779376,24
5780000,59
5780628,34
5781248,35
5781876,35
5782500,33
5783124,33
5783756,10
5784376,12
5785004,11
5785636,12
5786256,29
5786884,33
5787508,31
5788136,30
5788764,19
5789384,41
5790012,46
5790640,44
5791264,40
5791892,33
5792512,48
5793140,53
5793768,37
5794388,11
5795020,29
5795640,17
5796268,11
5796900,12
5797520,35
5798148,35
5798776,33
5799404,36
5800036,21
5800656,15
5801284,16
5801908,13
5802532,11
5803164,16
5803784,19
5804412,14
5805040,16
5805664,33
5806292,41
5806916,39
5807548,40
5808180,38
5808800,25
5809428,27
5810052,24
5810684,23
5811316,32
5811936,40
5812568,12
5813192,27
5813816,29
5814444,32
5815064,39
5815696,35
5816324,35
5816944,17
5817572,14
5818200,11
5818828,10
5819460,21
5820080,28
5820708,25
5821336,18
5821960,13
5822592,38
5823208,46
5823840,45
5824464,41
5825088,39
5825716,41
5826336,44
5826968,40
5827596,16
5828216,11
5828844,13
5829468,19
5830100,12
5830732,32
5831352,33
5831984,38
5832608,38
5833232,32
5833864,20
5834480,17
5835112,17
5835736,14
5836364,19
5836996,30
5837616,37
5838244,25
5838876,33
5839496,55
5840128,55
5840748,50
5841380,45
5842008,14
5842632,21
5843260,31
5843884,30
5844508,13
5845136,10
5845760,20
5846388,19
5847016,15
5847640,30
5848272,34
5848888,33
5849516,34
5850148,14
5850768,11
5851400,12
5852024,12
5852652,14
5853284,16
5853904,19
5854536,17
5855160,15
5855784,33
5856416,39
5857032,48
5857664,49
5858288,43
5858912,38
5859544,29
5860168,16
5860796,13
5861428,16
5862048,20
5862680,14
5863304,31
5863932,35
5864564,34
5865184,34
5865816,35
5866440,34
5867064,12
5867696,10
5868312,11
5868944,15
5869572,20
5870192,32
5870824,43
5871448,41
5872080,18
5872708,47
5873328,53
5873960,46
5874584,44
5875208,33
5875836,31
5876456,38
5877088,47
5877712,29
5878336,11
5878968,23
5879588,34
5880220,35
5880852,30
5881472,35
5882104,34
5882728,35
5883360,25
5883988,22
5884608,14
5885240,13
5885868,13
5886492,11
5887124,16
5887744,25
5888380,23
5889004,32
5889628,44
5890256,51
5890872,48
5891504,39
5892136,25
5892752,23
5893384,17
5894008,17
5894640,12
5895268,10
5895888,13
5896520,12
5897144,29
5897768,32
5898400,35
5899016,34
5899644,36
5900268,11
5900892,11
5901524,10
5902148,10
5902776,11
5903408,13
5904024,23
5904656,31
5905280,23
5905908,36
5906540,36
5907160,36
5907792,37
5908416,21
5909040,27
5909668,40
5910288,46
5910920,28
5911544,12
5912168,11
5912800,15
5913424,19
5914056,31
5914684,32
5915304,35
5915936,35
5916560,24
5917192,14
5917820,10
5918440,11
5919072,11
5919696,17
5920320,29
5920948,41
5921568,33
5922196,33
5922828,44
5923448,51
5924076,51
5924700,47
5925332,37
5925964,34
5926584,30
5927212,27
5927836,17
5928460,14
5929092,13
5929712,20
5930340,15
5930968,29
5931592,35
5932220,38
5932840,37
5933468,14
5934100,12
5934720,14
5935352,10
5935976,22
5936608,41
5937240,69
5937856,54
5938488,19
5939112,39
5939736,41
5940368,45
5940984,41
5941612,22
5942236,24
5942860,38
5943492,35
5944112,19
5944740,11
5945372,10
5945992,17
5946620,15
5947248,31
5947876,35
5948508,32
5949128,36
5949760,31
5950384,15
5951008,11
5951640,11
5952256,18
5952888,32
5953512,33
5954136,25
5954764,20
5955384,22
5956012,37
5956644,36
5957264,37
5957896,42
5958520,38
5959148,53
5959780,39
5960400,31
5961028,17
5961652,10
5962276,16
5962908,20
5963528,17
5964156,30
5964784,34
5965408,34
5966036,34
5966664,19
5967292,18
5967924,16
5968544,16
5969176,15
5969800,15
5970432,17
5971060,11
5971680,12
5972308,37
5972936,35
5973560,40
5974192,41
5974808,39
5975440,29
5976072,22
5976688,19
5977320,23
5977944,16
5978576,10
5979204,22
5979824,23
5980456,27
5981080,35
5981704,35
5982336,33
5982952,34
5983584,12
5984208,11
5984832,11
5985460,13
5986080,31
5986708,45
5987340,46
5987960,35
5988592,16
5989216,45
5989844,45
5990476,46
5991096,44
5991728,41
5992352,45
5992976,44
5993604,33
5994224,20
5994856,14
5995480,26
5996104,38
5996736,23
5997356,31
5997984,36
5998616,35
5999240,36
5999872,19
6000496,14
6001128,12
6001756,11
6002376,18
6003008,19
6003632,23
6004256,12
6004884,12
6005504,33
6006136,33
6006760,39
6007384,39
6008016,37
6008632,30
6009264,37
6009892,32
6010512,28
6011144,24
6011768,22
6012400,11
6013028,22
6013648,27
6014280,33
6014904,38
6015528,39
6016160,35
6016776,13
6017404,14
6018032,12
6018656,11
6019284,13
6019908,21
6020540,35
6021172,26
6021792,13
6022420,37
6023044,49
6023676,51
6024308,40
6024928,35
6025560,24
6026184,25
6026808,29
6027440,19
6028056,13
6028688,11
6029316,15
6029936,10
6030568,37
6031192,33
6031824,35
6032456,36
6033072,31
6033704,17
6034328,18
6034952,14
6035584,10
6036200,10
6036832,18
6037456,33
6038080,39
6038712,31
6039332,38
6039964,52
6040596,47
6041216,50
6041848,37
6042472,43
6043100,47
6043732,43
6044352,13
6044984,28
6045608,49
6046232,35
6046864,15
6047480,28
6048112,36
6048736,37
6049360,36
6049988,16
6050608,13
6051240,11
6051868,11
6052488,13
6053116,11
6053744,18
6054376,36
6055008,35
6055628,31
6056256,40
6056884,44
6057508,41
6058140,29
6058760,29
6059392,35
6060020,37
6060644,27
6061276,17
6061900,11
6062536,21
6063164,18
6063784,31
6064416,38
6065040,35
6065672,33
6066300,33
6066920,14
6067552,16
6068176,12
6068800,14
6069428,33
6070048,43
6070680,45
6071312,29
6071932,17
6072564,41
6073188,40
6073820,43
6074448,38
6075072,31
6075704,44
6076328,41
6076952,35
6077584,22
6078204,18
6078836,12
6079460,25
6080084,15
6080716,32
6081336,36
6081964,39
6082596,36
6083216,25
6083844,18
6084468,15
6085100,10
6085732,11
6086352,16
6086984,17
6087608,24
6088232,37
6088864,31
6089480,42
6090112,51
6090736,49
6091360,41
6091992,34
6092616,34
6093248,26
6093876,16
6094496,25
6095124,21
6095752,17
6096384,19
6097012,28
6097632,38
6098264,40
6098888,41
6099512,36
6100144,37
6100760,28
6101392,11
6102024,11
6102648,33
6103280,44
6103904,43
6104536,27
6105164,16
6105784,40
6106412,50
6107040,41
6107664,36
6108296,23
6108912,12
6109544,21
6110168,28
6110792,11
6111424,10
6112044,11
6112672,15
6113304,13
6113920,32
6114552,35
6115176,34
6115808,35
6116440,19
6117064,16
6117696,17
6118320,11
6118948,10
6119580,10
6120200,26
6120832,49
6121456,47
6122080,33
6122712,46
6123336,52
6123968,59
6124600,50
6125224,37
6125856,39
6126480,36
6127112,31
6127744,19
6128364,16
6128996,11
6129620,21
6130244,22
6130876,28
6131500,35
6132132,37
6132760,35
6133384,17
6134016,12
6134644,13
6135276,16
6135908,20
6136532,20
6137160,38
6137788,48
6138412,34
6139044,31
6139664,40
6140296,43
6140924,42
6141552,45
6142188,42
6142812,47
6143444,44
6144076,16
6144696,12
6145324,18
6145944,23
6146568,14
6147196,31
6147816,35
6148444,37
6149068,37
6149692,26
6150324,11
6150944,11
6151572,13
6152204,16
6152824,15
6153452,13
6154076,12
6154708,13
6155340,28
6155960,33
6156592,37
6157216,37
6157840,39
6158468,41
6159088,44
6159720,43
6160344,35
6160968,23
6161596,18
6162216,13
6162844,11
6163476,14
6164096,28
6164724,38
6165348,43
6165980,39
6166612,16
6167232,13
6167860,28
6168488,19
6169108,16
6169740,38
6170360,43
6170988,28
6171612,19
6172236,32
6172868,38
6173488,40
6174116,37
6174748,35
6175368,57
6175996,67
6176624,50
6177252,21
6177884,10
6178504,15
6179136,16
6179760,13
6180384,31
6181016,32
6181632,34
6182264,37
6182888,35
6183512,22
6184144,24
6184760,27
6185392,20
6186020,19
6186640,23
6187272,20
6187896,20
6188524,18
6189156,40
6189776,54
6190408,55
6191032,40
6191656,14
6192288,15
6192904,28
6193536,32
6194160,15
6194784,9
6195364,16
6195992,23
6196624,16
6197252,32
6197872,37
6198504,37
6199128,39
6199756,21
6200388,10
6201008,16
6201640,15
6202260,15
6202888,21
6203516,33
6204136,40
6204768,43
6205392,32
6206020,44
6206652,51
6207272,45
6207904,43
6208536,50
6209152,60
6209784,48
6210408,12
6211036,31
6211668,38
6212288,49
6212920,42
6213544,21
6214168,37
6214800,39
6215416,39
6216048,35
6216672,13
6217300,33
6217932,50
6218552,41
6219184,24
6219816,21
6220436,19
6221068,14
6221692,13
6222324,41
6222952,48
6223576,48
6224208,43
6224832,40
6225456,47
6226088,46
6226704,37
6227336,17
6227956,10
6228584,12
6229212,14
6229836,12
6230468,36
6231100,36
6231720,34
6232352,36
6232976,24
6233604,21
6234236,24
6234856,22
6235488,21
6236112,17
6236736,13
6237368,19
6237984,35
6238616,44
6239248,35
6239868,45
6240500,56
6241124,56
6241756,44
6242384,22
6243004,10
6243636,14
6244260,16
6244884,15
6245516,10
6246136,17
6246768,18
6247392,29
6248016,33
6248644,35
6249264,33
6249892,13
6250524,14
6251144,12
6251776,20
6252400,13
6253028,34
6253660,50
6254280,45
6254908,25
6255536,39
6256160,51
6256788,51
6257408,49
6258036,33
6258664,18
6259288,17
6259916,16
6260536,11
6261168,10
6261796,10
6262416,18
6263044,17
