tempo_arduino_micro_s,valor_ADC
500,27
1004,28
1504,16
2000,47
2508,44
3000,32
3508,37
4000,40
4508,38
5000,34
5500,17
6000,34
6500,56
7000,51
7500,35
8000,11
8500,29
9000,14
9500,11
10000,22
10508,20
11028,30
11556,32
12076,37
12604,40
13124,33
13652,18
14172,14
14700,12
15220,30
15748,20
16268,13
16796,12
17316,32
17836,66
18356,74
18876,45
19396,33
19916,46
20436,51
20956,60
21476,63
21996,63
22516,59
23036,38
23564,21
24084,11
24612,12
25132,9
25592,11
26128,16
26652,21
27172,15
27700,30
28220,32
28748,33
29268,34
29796,33
30316,30
30844,31
31364,35
31892,35
32416,19
32940,13
33460,11
33988,17
34508,19
35036,19
35556,14
36084,33
36604,43
37132,44
37652,39
38180,42
38700,36
39228,22
39748,34
40276,44
40796,39
41324,18
41844,12
42372,11
42892,18
43420,34
43940,31
44460,34
44980,36
45500,36
46020,35
46540,34
47060,17
47580,17
48100,16
48620,11
49140,10
49660,11
50188,15
50708,12
51236,12
51756,17
52284,21
52804,38
53332,57
53852,68
54380,64
54904,55
55428,38
55948,27
56476,25
56996,10
57524,30
58044,19
58572,12
59092,18
59620,36
60140,31
60668,16
61188,34
61716,35
62236,39
62764,37
63284,35
63812,13
64336,12
64860,11
65380,41
65908,61
66428,55
66956,28
67476,17
67996,12
68516,12
69036,17
69556,34
70080,35
70596,36
71116,42
71640,42
72160,39
72676,47
73196,47
73720,39
74236,29
74764,24
75284,21
75812,12
76336,15
76860,12
77380,22
77908,36
78432,32
78956,49
79480,37
80004,37
80524,36
81052,17
81572,10
82100,11
82620,16
83148,16
83668,16
84196,16
84716,11
85244,16
85764,23
86292,36
86812,36
87340,45
87860,39
88388,33
88908,26
89436,58
89960,76
90484,56
91004,12
91532,33
92052,11
92572,13
93092,14
93612,28
94132,37
94652,33
95176,40
95696,44
96212,51
96732,44
97252,26
97772,17
98292,14
98812,11
99340,10
99860,13
100388,15
100956,18
101536,18
102108,21
102688,30
103256,43
103832,43
104400,46
104976,39
105552,29
106120,25
106696,30
107264,22
107848,13
108416,15
108992,9
109508,11
110080,11
110664,17
111232,31
111816,38
112388,45
112968,53
113536,21
114112,41
114680,37
115256,29
115840,24
116408,29
116984,31
117552,23
118136,15
118704,32
119284,46
119864,35
120436,34
121016,42
121584,58
122168,37
122736,27
123320,16
123888,17
124464,11
125048,10
125616,14
126200,18
126768,14
127352,17
127924,30
128500,34
129080,38
129648,34
130224,33
130792,29
131368,11
131936,9
132460,10
133032,14
133608,17
134192,43
134760,50
135344,30
135912,39
136496,63
137064,46
137648,35
138216,35
138796,23
139376,32
139944,40
140528,42
141096,23
141680,10
142248,11
142824,11
143408,13
143976,19
144560,29
145128,35
145712,35
146284,33
146864,31
147432,15
148008,11
148592,14
149160,16
149744,25
150316,24
150896,23
151464,19
152044,17
152624,36
153196,49
153776,54
154348,51
154928,56
155496,41
156080,9
156600,10
157168,19
157752,18
158324,14
158904,11
159472,13
160056,10
160624,35
161200,67
161768,35
162344,41
162928,50
163496,38
164080,31
164648,21
165224,15
165792,19
166360,21
166936,11
167504,48
168080,52
168648,39
169224,33
169792,51
170376,67
170944,48
171520,45
172104,42
172672,16
173256,15
173824,35
174408,48
174976,16
175552,15
176120,23
176696,14
177272,16
177840,29
178424,34
178992,40
179576,37
180144,32
180720,32
181304,20
181872,10
182456,11
183024,13
183608,13
184176,27
184760,33
185328,29
185904,35
186488,45
187056,40
187640,39
188208,41
188792,37
189364,50
189940,50
190520,49
191092,27
191672,17
192244,11
192824,34
193392,29
193976,19
194544,34
195124,32
195704,34
196272,35
196856,23
197424,24
198008,22
198580,22
199152,11
199736,11
200304,11
200888,17
201456,11
202040,12
202608,33
203192,37
203764,37
204340,34
204920,42
205488,31
206064,28
206632,19
207216,13
207784,11
208360,11
208944,10
209512,18
210088,16
210656,18
211232,36
211800,34
212384,34
212952,33
213528,22
214112,11
214680,11
215264,29
215832,32
216416,34
216984,43
217560,51
218144,25
218712,19
219296,34
219864,39
220448,56
221016,51
221600,37
222168,22
222744,37
223328,42
223900,31
224480,13
225056,14
225640,9
226156,15
226736,23
227304,30
227880,30
228464,33
229036,35
229616,33
230184,22
230768,10
231336,11
231912,11
232496,11
233064,14
233648,11
234216,22
234800,55
235372,62
235952,32
236524,47
237100,51
237680,59
238252,60
238832,56
239404,31
239984,40
240556,49
241132,15
241712,23
242284,14
242864,15
243436,19
244016,16
244584,28
245168,33
245740,36
246316,33
246896,23
247464,12
248048,16
248616,16
249200,14
249768,24
250344,21
250928,24
251496,42
252080,29
252652,36
253232,48
253804,53
254384,49
254956,40
255532,25
256112,37
256684,43
257264,24
257832,10
258416,19
258984,29
259552,11
260136,35
260704,40
261288,39
261856,33
262432,37
263000,35
263584,27
264156,18
264728,11
265312,13
265880,11
266464,37
267032,40
267616,32
268184,14
268760,14
269344,36
269912,42
270496,50
271064,50
271648,40
272216,13
272800,12
273368,37
273936,35
274520,11
275092,10
275672,11
276244,14
276824,12
277392,23
277972,29
278552,35
279124,37
279704,35
280276,21
280856,24
281428,12
282008,24
282576,30
283152,31
283736,39
284308,31
284888,15
285456,13
286040,35
286612,37
287188,46
287768,49
288336,46
288920,25
289488,42
290072,57
290644,51
291224,12
291792,29
292372,19
292952,22
293524,15
294104,29
294676,34
295256,36
295828,34
296404,35
296984,38
297552,32
298136,11
298708,11
299288,13
299860,21
300440,21
301012,33
301588,46
302168,26
302740,36
303320,53
303892,57
304472,44
305052,34
305628,28
306208,44
306780,45
307360,34
307932,18
308512,10
309080,16
309664,21
310236,15
310812,29
311392,29
311964,34
312544,35
313124,35
313704,13
314272,14
314852,19
315432,23
316004,15
316584,13
317156,14
317736,27
318316,38
318896,16
319476,40
320052,42
320632,46
321200,45
321784,51
322352,48
322936,59
323508,42
324084,15
324664,17
325232,29
325816,26
326388,14
326968,11
327548,32
328128,35
328696,37
329264,36
329848,34
330416,16
331000,10
331568,11
332152,11
332724,13
333300,32
333880,43
334448,26
335032,15
335604,20
336184,41
336752,35
337328,40
337896,40
338476,40
339056,36
339628,38
340208,41
340776,36
341360,31
341928,13
342504,22
343088,22
343656,39
344240,47
344808,33
345392,36
345964,34
346544,34
347116,37
347692,37
348272,21
348840,10
349424,13
349996,24
350576,17
351148,20
351724,36
352304,25
352876,36
353456,42
354024,47
354608,48
355176,43
355760,45
356340,47
356916,39
357496,19
358068,11
358648,18
359224,13
359808,13
360376,32
360952,32
361536,34
362108,35
362688,34
363260,34
363840,12
364408,32
364992,30
365560,14
366140,11
366720,11
367288,18
367872,11
368444,12
369024,17
369592,38
370172,34
370752,40
371324,37
371904,30
372476,23
373056,22
373628,26
374208,22
374780,18
375356,19
375936,22
376508,30
377088,13
377660,52
378240,61
378812,39
379388,36
379968,34
380540,12
381120,18
381692,26
382272,30
382844,47
383424,47
383996,45
384576,33
385152,28
385720,24
386304,57
386876,64
387456,60
388028,51
388600,39
389184,24
389752,20
390336,19
390908,14
391488,9
392008,13
392584,19
393156,18
393732,13
394312,33
394884,37
395464,38
396036,34
396616,35
397188,17
397768,29
398344,22
398916,12
399496,12
400068,16
400648,18
401216,14
401800,15
402372,31
402948,35
403528,51
404100,55
404680,45
405248,29
405832,23
406404,27
406984,33
407560,27
408132,14
408712,11
409284,10
409864,11
410432,16
411008,32
411576,34
412152,36
412736,38
413304,36
413888,22
414456,22
415040,21
415608,18
416192,20
416760,27
417328,23
417912,22
418480,19
419064,23
419632,51
420216,53
420784,55
421364,48
421944,33
422516,33
423096,53
423664,36
424248,13
424816,14
425400,16
425968,12
426544,16
427128,19
427700,30
428280,33
428852,37
429432,37
430004,39
430580,30
431160,23
431732,20
432312,18
432884,19
433464,13
434036,16
434616,37
435188,38
435764,30
436344,42
436916,56
437496,77
438068,65
438648,50
439220,35
439796,32
440376,22
440948,11
441528,17
442100,10
442680,16
443252,18
443832,15
444404,29
444976,33
445560,36
446132,34
446712,34
447284,17
447864,15
448436,11
449008,14
449592,11
450164,13
450744,38
451312,34
451896,13
452464,36
453048,46
453620,47
454192,42
454776,35
455348,36
455928,49
456500,43
457080,28
457652,11
458224,29
458808,26
459380,25
459960,22
460532,14
461112,29
461692,35
462272,36
462844,38
463420,32
464000,12
464568,14
465152,15
465724,10
466304,19
466876,23
467452,28
468032,22
468604,19
469184,33
469756,43
470336,51
470916,53
471496,43
472080,49
472648,51
473232,41
473804,33
474384,23
474956,16
475536,9
476056,39
476628,41
477208,17
477780,29
478360,34
478932,38
479512,40
480092,34
480672,23
481240,22
481820,13
482400,12
482968,18
483552,13
484124,23
484704,25
485276,18
485852,33
486432,43
487000,45
487584,53
488156,55
488736,55
489308,40
489888,24
490460,19
491036,20
491616,16
492188,10
492768,39
493340,38
493920,15
494492,30
495064,38
495648,39
496220,35
496800,28
497368,17
497952,14
498524,14
499104,15
499676,15
500252,45
500832,44
501400,29
501984,23
502556,34
503136,46
503708,50
504284,44
504864,38
505436,28
506016,39
506588,45
507168,41
507740,23
508320,13
508900,11
509476,15
510056,35
510628,31
511208,35
511788,34
512372,38
512944,37
513512,21
514096,19
514664,28
515248,31
515816,14
516400,10
516968,11
517552,35
518124,46
518696,35
519280,32
519848,42
520432,44
521000,43
521584,41
522156,36
522732,33
523312,29
523880,21
524464,22
525036,29
525616,19
526184,12
526768,13
527336,22
527916,43
528496,38
529064,40
529648,47
530216,45
530800,13
531372,13
531944,13
532528,22
533096,33
533680,26
534248,23
534832,14
535404,15
535984,32
536556,40
537132,47
537712,41
538280,40
538864,33
539436,39
540016,37
540588,32
541164,14
541744,10
542316,11
542896,19
543468,14
544048,21
544616,34
545192,37
545764,36
546336,38
546920,18
547492,28
548072,49
548644,21
549224,10
549796,21
550372,25
550952,27
551524,22
552104,13
552676,41
553256,53
553828,47
554408,43
554976,37
555556,11
556136,20
556708,31
557288,37
557868,16
558448,10
559028,10
559604,22
560184,23
560756,27
561336,35
561908,34
562488,39
563068,35
563648,15
564232,11
564800,24
565384,38
565956,19
566536,21
567108,23
567688,26
568260,28
568836,21
569416,35
569988,47
570568,54
571140,48
571720,38
572300,26
572880,27
573464,33
574036,43
574616,28
575188,16
575768,11
576348,19
576928,23
577496,31
578076,35
578656,38
579228,37
579808,37
580380,22
580960,26
581532,16
582108,11
582688,37
583260,51
583840,46
584412,42
584992,40
585564,18
586144,39
586724,40
587300,49
587880,51
588452,49
589032,39
589612,48
590192,52
590764,52
591340,37
591920,20
592496,50
593072,50
593644,39
594224,31
594796,35
595376,35
595956,37
596532,38
597112,20
597684,29
598264,21
598844,11
599424,10
600004,10
600580,17
601160,21
601732,26
602312,18
602884,38
603464,34
604036,41
604616,49
605200,51
605772,49
606352,43
606924,32
607504,26
608084,36
608664,49
609236,30
609812,15
610392,40
610964,33
611544,34
612124,34
612704,35
613284,35
613860,11
614440,12
615012,19
615592,33
616164,33
616744,47
617316,43
617896,13
618468,12
619044,32
619624,37
620196,37
620776,54
621348,53
621928,41
622500,35
623076,49
623656,53
624232,44
624808,28
625376,25
625960,17
626532,27
627112,15
627692,34
628268,35
628848,41
629420,45
630000,36
630580,23
631160,22
631732,18
632308,15
632888,20
633460,34
634040,31
634616,30
635192,32
635772,32
636352,47
636936,45
637508,47
638088,41
638660,34
639244,33
639820,45
640404,38
640976,17
641552,11
642136,10
642708,19
643288,25
643856,16
644440,32
645012,35
645588,36
646168,35
646740,34
647320,18
647892,11
648472,17
649044,17
649624,13
650192,13
650772,30
651352,38
651924,29
652504,34
653084,37
653664,38
654236,47
654812,47
655392,37
655960,27
656544,34
657112,37
657696,25
658264,14
658848,9
659364,18
659936,19
660520,14
661088,34
661672,39
662244,37
662824,36
663396,34
663976,17
664548,11
665124,11
665704,17
666272,28
666848,31
667416,30
668000,19
668568,22
669144,32
669728,34
670296,38
670880,41
671448,40
672032,29
672600,29
673176,37
673748,34
674324,22
674904,14
675476,11
676056,22
676624,27
677208,20
677776,31
678352,35
678936,36
679508,36
680088,27
680656,26
681240,23
681808,13
682392,11
682964,24
683536,23
684120,23
684692,39
685272,18
685852,41
686432,41
687000,40
687580,38
688160,36
688728,19
689312,33
689884,37
690464,13
691036,10
691616,10
692192,10
692772,14
693352,11
693924,25
694504,33
695076,34
695656,34
696228,35
696804,24
697384,14
697956,14
698536,11
699108,17
699688,12
700256,24
700840,31
701412,43
701988,27
702568,35
703140,51
703720,45
704300,40
704880,37
705448,19
706028,31
706608,36
707176,26
707760,13
708332,14
708912,12
709484,27
710064,21
710636,17
711212,34
711792,34
712364,37
712944,37
713516,20
714096,11
714676,10
715252,10
715832,21
716408,12
716984,19
717556,48
718136,40
718708,16
719288,40
719860,55
720436,39
721016,37
721588,40
722168,18
722736,18
723320,32
723888,36
724468,20
725048,14
725620,10
726200,15
726772,13
727352,23
727924,32
728504,34
729084,39
729660,35
730240,19
730812,20
731392,17
731964,15
732544,14
733124,19
733700,20
734280,23
734852,22
735432,13
736004,42
736584,48
737156,44
737736,45
738320,40
738892,24
739472,29
740044,25
740624,16
741196,9
741724,10
742300,10
742876,15
743456,16
744028,22
744608,30
745180,35
745760,33
746332,35
746912,25
747484,26
748060,23
748640,10
749212,14
749792,21
750364,29
750944,38
751524,22
752100,18
752680,32
753252,43
753832,52
754404,48
754984,39
755556,22
756136,19
756716,19
757292,25
757872,12
758444,10
759024,12
759596,29
760176,24
760756,27
761332,32
761912,34
762488,35
763064,37
763636,14
764216,11
764796,11
765380,14
765960,20
766536,19
767112,15
767688,12
768268,13
768840,13
769424,32
769996,38
770572,41
771152,41
771724,36
772304,23
772876,15
773456,12
774028,23
774608,16
775184,10
775756,15
776336,26
776908,24
777488,32
778068,34
778648,34
779228,37
779804,35
780384,14
780956,11
781536,11
782108,11
782688,10
783260,24
783836,36
784416,31
784988,24
785568,13
786140,44
786720,45
787292,41
787872,37
788444,42
789020,43
789600,46
790172,34
790752,14
791332,11
791912,10
792492,10
793068,11
793648,17
794220,33
794800,33
795372,35
795952,38
796532,34
797112,14
797692,10
798272,17
798852,11
799420,23
800000,29
800576,17
801152,17
801724,24
802296,18
802880,66
803448,75
804032,58
804604,45
805184,37
805756,14
806336,22
806920,15
807492,26
808072,11
808644,19
809224,33
809796,32
810376,23
810948,30
811524,33
812104,36
812676,38
813256,37
813832,20
814408,26
814988,24
815568,19
816152,17
816724,19
817304,30
817876,27
818456,22
819036,25
819620,49
820192,51
820760,51
821344,42
821912,28
822496,26
823064,42
823648,52
824220,46
824792,12
825376,15
825944,27
826528,25
827096,16
827680,31
828248,34
828832,35
829400,37
829980,35
830560,10
831128,18
831712,23
832284,24
832864,15
833432,15
834008,26
834592,29
835160,21
835744,33
836316,61
836896,64
837468,51
838048,39
838620,25
839192,19
839776,25
840344,25
840928,12
841496,10
842080,9
842596,16
843176,19
843748,15
844324,33
844904,34
845472,34
846056,36
846628,35
847208,11
847776,14
848356,11
848936,14
849504,13
850088,15
850656,25
851240,31
851808,32
852392,37
852964,34
853536,37
854120,65
854692,67
855272,61
855844,55
856424,53
856996,35
857572,18
858152,13
858724,12
859304,14
859876,27
860456,26
861036,32
861616,33
862188,37
862764,36
863344,35
863916,17
864496,23
865072,21
865656,17
866224,14
866804,11
867384,11
867956,14
868536,12
869108,34
869688,46
870268,52
870848,43
871432,39
872004,17
872584,21
873156,26
873736,13
874308,10
874888,11
875460,14
876036,22
876616,21
877188,16
877768,30
878340,33
878920,35
879500,35
880080,30
880664,14
881232,12
881816,19
882388,19
882968,11
883540,15
884120,15
884692,11
885268,15
885848,40
886416,37
887000,37
887572,38
888152,39
888732,17
889308,18
889888,27
890460,43
891040,42
891612,36
892192,12
892772,46
893352,50
893932,15
894508,41
895088,47
895664,37
896244,52
896816,48
897400,14
897972,11
898548,23
899128,23
899700,20
900280,19
900852,25
901432,28
902004,28
902584,33
903152,48
903732,49
904312,42
904884,35
905464,27
906036,47
906616,51
907188,50
907764,31
908344,20
908916,14
909496,14
910068,24
910648,19
911228,32
911808,35
912392,34
912964,39
913544,26
914116,25
914696,25
915268,22
915848,17
916420,22
916996,15
917576,15
918148,14
918728,14
919300,32
919880,39
920460,41
921040,40
921624,44
922196,39
922776,46
923348,50
923928,37
924500,10
925080,9
925600,10
926172,17
926752,16
927324,19
927904,29
928476,33
929056,37
929628,35
930208,17
930780,13
931356,10
931936,12
932508,13
933088,23
933660,27
934240,30
934820,31
935396,26
935976,31
936552,41
937128,47
937700,49
938280,43
938852,35
939432,39
940012,38
940588,34
941168,15
941740,12
942320,15
942900,10
943480,10
944060,33
944636,34
945216,34
945788,33
946368,37
946940,28
947520,30
948100,11
948680,16
949256,18
949828,42
950408,42
950980,34
951560,28
952140,14
952720,38
953300,38
953876,43
954456,42
955032,44
955608,38
956188,44
956768,52
957348,41
957924,15
958504,29
959080,25
959660,35
960232,29
960808,30
961376,36
961960,35
962532,37
963108,37
963688,16
964260,22
964840,33
965412,22
965992,9
966512,11
967088,14
967660,22
968236,25
968816,15
969388,43
969968,46
970548,47
971128,41
971708,33
972284,34
972864,31
973436,31
974016,31
974588,18
975168,9
975688,26
976264,49
976836,30
977412,29
977992,35
978564,34
979144,34
979716,35
980296,15
980876,12
981456,13
982032,13
982608,13
983184,22
983756,25
984336,23
984904,23
985488,15
986060,37
986636,36
987216,41
987788,44
988368,42
988940,32
989520,31
990092,41
990672,36
991248,15
991820,12
992400,18
992972,20
993552,12
994124,37
994704,38
995276,35
995852,35
996432,37
997004,13
997584,13
998164,11
998744,16
999324,12
999900,13
1000480,28
1001096,45
1001724,38
1002348,23
1002976,47
1003604,44
1004224,38
1004852,36
1005472,18
1006096,27
1006724,36
1007344,36
1007972,24
1008596,18
1009220,15
1009848,18
1010472,14
1011100,29
1011732,36
1012352,33
1012980,37
1013604,19
1014236,15
1014864,24
1015480,22
1016112,27
1016736,26
1017360,25
1017988,20
1018608,13
1019236,51
1019860,61
1020484,42
1021112,42
1021736,32
1022364,34
1022996,12
1023616,19
1024248,11
1024868,15
1025496,11
1026124,18
1026740,28
1027368,30
1027992,33
1028612,33
1029244,36
1029860,36
1030488,13
1031112,11
1031732,13
1032364,11
1032980,13
1033608,12
1034232,20
1034856,22
1035484,20
1036108,33
1036736,40
1037364,42
1037980,45
1038612,51
1039236,31
1039864,17
1040492,28
1041108,37
1041740,27
1042360,29
1042980,67
1043612,46
1044232,33
1044860,32
1045480,35
1046104,36
1046732,26
1047352,16
1047980,12
1048608,17
1049224,31
1049852,19
1050476,18
1051104,27
1051732,25
1052352,25
1052980,38
1053604,41
1054224,44
1054852,48
1055472,40
1056100,18
1056720,11
1057344,32
1057972,12
1058592,12
1059220,12
1059848,17
1060464,18
1061092,29
1061716,36
1062344,42
1062976,40
1063592,17
1064220,38
1064844,43
1065472,31
1066100,42
1066720,52
1067348,33
1067972,18
1068592,15
1069224,34
1069840,47
1070468,53
1071092,52
1071716,45
1072344,34
1072968,27
1073596,13
1074224,18
1074840,21
1075472,10
1076092,12
1076724,11
1077352,28
1077968,39
1078596,35
1079220,34
1079840,35
1080472,29
1081088,13
1081716,13
1082340,17
1082964,30
1083592,16
1084208,13
1084836,13
1085464,12
1086088,33
1086716,35
1087340,43
1087968,40
1088596,22
1089212,21
1089844,26
1090464,24
1091088,17
1091716,11
1092336,12
1092964,11
1093588,14
1094208,34
1094840,38
1095456,35
1096084,34
1096712,28
1097336,26
1097964,23
1098588,18
1099216,11
1099844,12
1100464,22
1101092,24
1101716,17
1102340,28
1102972,52
1103592,41
1104220,35
1104844,37
1105468,31
1106100,38
1106720,36
1107348,30
1107976,15
1108592,10
1109224,13
1109848,14
1110476,14
1111104,32
1111728,35
1112356,36
1112980,37
1113604,22
1114236,22
1114856,11
1115484,11
1116108,26
1116732,53
1117364,47
1117984,25
1118612,23
1119244,32
1119864,42
1120496,45
1121116,49
1121748,45
1122376,31
1122992,26
1123624,13
1124248,11
1124872,11
1125500,10
1126120,16
1126748,20
1127372,26
1127996,33
1128624,34
1129240,33
1129872,35
1130492,14
1131120,12
1131748,11
1132372,13
1133000,11
1133632,28
1134248,53
1134876,31
1135500,15
1136132,45
1136760,51
1137376,48
1138004,47
1138628,42
1139252,26
1139880,17
1140496,23
1141124,26
1141748,30
1142372,20
1143004,29
1143628,45
1144256,36
1144888,36
1145504,40
1146136,38
1146760,24
1147388,11
1148016,10
1148640,11
1149268,14
1149892,13
1150516,12
1151144,13
1151768,14
1152400,27
1153020,36
1153648,38
1154276,42
1154896,49
1155524,46
1156156,27
1156776,17
1157404,15
1158028,11
1158656,18
1159288,32
1159904,23
1160532,16
1161156,29
1161780,33
1162408,36
1163024,35
1163652,13
1164276,11
1164900,12
1165528,21
1166152,35
1166780,29
1167408,17
1168032,15
1168660,15
1169280,34
1169912,45
1170540,49
1171160,45
1171788,46
1172412,49
1173036,52
1173668,34
1174288,20
1174916,22
1175540,11
1176168,26
1176796,32
1177420,29
1178052,32
1178680,33
1179296,36
1179928,36
1180552,11
1181180,11
1181812,11
1182432,15
1183060,35
1183684,31
1184308,30
1184940,34
1185560,21
1186188,40
1186812,46
1187440,39
1188068,37
1188692,37
1189320,48
1189952,26
1190568,17
1191196,24
1191820,24
1192452,12
1193080,13
1193696,13
1194328,33
1194952,35
1195576,36
1196204,37
1196824,25
1197452,19
1198076,10
1198704,17
1199332,11
1199960,38
1200592,51
1201220,38
1201840,27
1202468,33
1203092,46
1203720,56
1204348,54
1204968,43
1205596,32
1206220,33
1206844,40
1207472,14
1208096,15
1208724,13
1209356,26
1209976,23
1210604,15
1211228,32
1211860,31
1212488,35
1213104,36
1213736,24
1214360,18
1214984,11
1215612,10
1216232,13
1216860,14
1217484,20
1218108,23
1218736,16
1219360,43
1219988,59
1220620,58
1221240,45
1221868,18
1222492,24
1223124,31
1223752,22
1224372,16
1225000,30
1225624,23
1226248,23
1226876,36
1227496,32
1228128,33
1228752,37
1229376,35
1230004,32
1230624,37
1231252,39
1231880,24
1232496,12
1233128,11
1233748,13
1234380,19
1235008,16
1235624,19
1236256,40
1236880,42
1237508,38
1238136,39
1238760,40
1239388,51
1240012,43
1240636,22
1241264,15
1241880,17
1242512,19
1243132,14
1243760,17
1244388,36
1245012,34
1245640,34
1246272,36
1246888,22
1247516,13
1248140,10
1248772,19
1249400,35
1250016,30
1250644,33
1251268,27
1251892,21
1252520,31
1253140,41
1253768,47
1254392,47
1255016,38
1255644,31
1256268,39
1256900,42
1257528,41
1258148,45
1258776,41
1259400,13
1260028,32
1260660,26
1261280,33
1261908,40
1262532,39
1263156,41
1263788,32
1264408,21
1265036,12
1265660,10
1266288,13
1266916,20
1267540,31
1268172,29
1268800,16
1269424,37
1270056,42
1270676,46
1271304,44
1271932,40
1272552,47
1273180,44
1273808,35
1274432,11
1275060,11
1275680,11
1276308,19
1276940,18
1277560,37
1278192,36
1278816,36
1279444,36
1280076,24
1280692,14
1281320,22
1281940,17
1282564,10
1283192,16
1283808,31
1284436,34
1285060,39
1285680,41
1286308,32
1286928,45
1287556,50
1288180,41
1288800,25
1289428,51
1290052,99
1290684,92
1291312,26
1291928,24
1292556,33
1293180,43
1293808,45
1294436,40
1295056,35
1295684,35
1296308,35
1296928,15
1297556,13
1298176,11
1298804,12
1299428,16
1300052,27
1300680,37
1301296,39
1301924,20
1302556,36
1303176,48
1303804,51
1304428,59
1305060,62
1305688,54
1306304,49
1306932,51
1307556,45
1308180,37
1308808,17
1309432,19
1310060,25
1310684,31
1311308,43
1311940,51
1312560,44
1313188,36
1313816,22
1314432,27
1315060,16
1315684,11
1316312,34
1316940,27
1317560,21
1318188,15
1318812,23
1319432,34
1320060,48
1320676,53
1321308,53
1321928,30
1322548,11
1323180,24
1323800,57
1324428,26
1325052,10
1325672,12
1326304,10
1326924,11
1327556,30
1328184,37
1328800,35
1329428,34
1330052,28
1330680,14
1331308,10
1331924,11
1332552,10
1333176,25
1333796,28
1334428,18
1335044,23
1335676,26
1336296,47
1336920,62
1337548,49
1338168,36
1338796,11
1339424,21
1340048,43
1340676,59
1341300,35
1341928,12
1342556,16
1343176,12
1343804,13
1344428,30
1345052,38
1345680,34
1346296,38
1346924,18
1347548,27
1348168,30
1348800,23
1349416,13
1350044,14
1350672,25
1351292,21
1351920,26
1352544,33
1353172,43
1353800,45
1354416,43
1355044,41
1355668,40
1356292,40
1356924,34
1357540,17
1358172,11
1358792,11
1359416,20
1360044,14
1360660,23
1361288,33
1361912,34
1362536,37
1363164,36
1363788,11
1364416,14
1365044,12
1365664,11
1366292,24
1366916,15
1367544,26
1368172,48
1368792,48
1369420,34
1370044,58
1370668,64
1371296,49
1371912,32
1372540,31
1373164,57
1373788,65
1374416,29
1375032,20
1375664,28
1376292,14
1376912,12
1377540,30
1378164,33
1378792,33
1379420,37
1380040,32
1380668,38
1381292,40
1381916,19
1382544,10
1383160,27
1383788,39
1384412,33
1385036,23
1385664,26
1386280,64
1386908,67
1387540,60
1388160,36
1388788,14
1389412,40
1390040,59
1390672,46
1391288,13
1391920,42
1392544,48
1393168,26
1393796,16
1394416,33
1395044,34
1395668,35
1396292,35
1396920,16
1397536,14
1398164,22
1398796,24
1399416,23
1400044,20
1400668,22
1401296,21
1401924,27
1402544,33
1403172,40
1403796,43
1404424,43
1405052,39
1405672,36
1406300,43
1406924,45
1407548,33
1408180,12
1408796,17
1409428,22
1410056,14
1410672,25
1411300,33
1411924,32
1412552,34
1413184,38
1413800,24
1414428,11
1415052,38
1415680,41
1416308,32
1416928,23
1417556,25
1418180,24
1418804,24
1419432,31
1420056,40
1420684,46
1421308,42
1421936,42
1422564,39
1423188,41
1423820,37
1424448,25
1425064,17
1425696,11
1426320,15
1426948,11
1427576,50
1428200,47
1428828,39
1429452,36
1430076,24
1430708,27
1431328,46
1431956,47
1432588,24
1433208,27
1433840,23
1434460,13
1435088,12
1435716,28
1436336,33
1436964,36
1437588,34
1438216,36
1438844,29
1439464,42
1440092,36
1440716,36
1441336,28
1441964,26
1442584,11
1443212,28
1443832,29
1444456,33
1445084,32
1445708,35
1446336,37
1446964,32
1447584,28
1448212,12
1448836,11
1449464,11
1450092,22
1450712,29
1451340,28
1451964,19
1452588,34
1453220,54
1453840,53
1454468,46
1455092,37
1455716,31
1456344,45
1456968,61
1457596,55
1458224,19
1458848,33
1459476,53
1460100,28
1460728,29
1461360,31
1461976,32
1462604,33
1463228,35
1463852,11
1464480,15
1465104,23
1465732,17
1466356,29
1466980,25
1467608,25
1468232,23
1468860,16
1469492,42
1470112,57
1470740,54
1471364,35
1471996,14
1472628,21
1473248,54
1473876,64
1474500,37
1475124,16
1475756,15
1476376,28
1477004,12
1477628,38
1478256,35
1478884,36
1479508,37
1480136,19
1480764,16
1481384,11
1482012,14
1482636,15
1483264,30
1483892,48
1484512,55
1485140,41
1485764,34
1486388,33
1487016,35
1487632,35
1488264,42
1488884,34
1489508,40
1490136,36
1490760,30
1491388,19
1492016,14
1492640,17
1493268,23
1493892,15
1494520,31
1495152,34
1495768,35
1496396,36
1497020,20
1497644,35
1498272,25
1498888,15
1499516,44
1500140,43
1500764,28
1501396,26
1502020,21
1502648,31
1503280,37
1503896,41
1504528,43
1505152,43
1505780,45
1506412,42
1507032,33
1507660,12
1508284,10
1508908,16
1509540,42
1510160,33
1510792,33
1511416,35
1512040,36
1512668,42
1513292,35
1513920,11
1514552,12
1515168,30
1515800,32
1516424,18
1517052,35
1517684,15
1518304,14
1518932,18
1519556,41
1520184,50
1520812,40
1521432,35
1522060,21
1522684,18
1523312,13
1523940,15
1524564,10
1525196,11
1525824,10
1526444,10
1527072,15
1527696,35
1528324,38
1528956,35
1529576,34
1530208,18
1530832,14
1531456,13
1532084,11
1532704,11
1533336,20
1533964,28
1534584,40
1535216,26
1535840,33
1536472,43
1537100,44
1537720,45
1538348,37
1538972,36
1539596,37
1540224,33
1540840,19
1541468,11
1542092,10
1542716,15
1543344,12
1543960,24
1544592,30
1545220,35
1545840,37
1546468,37
1547092,27
1547720,15
1548352,11
1548968,11
1549596,14
1550220,16
1550848,24
1551480,28
1552096,18
1552728,34
1553348,46
1553972,46
1554604,47
1555224,52
1555852,47
1556476,22
1557104,13
1557732,14
1558356,13
1558988,11
1559616,12
1560240,15
1560868,39
1561492,37
1562120,35
1562748,42
1563368,49
1563996,36
1564620,20
1565244,11
1565872,13
1566496,24
1567124,51
1567756,35
1568376,19
1569004,27
1569628,37
1570256,41
1570884,47
1571504,39
1572132,11
1572756,26
1573384,40
1574012,28
1574632,20
1575260,17
1575884,11
1576508,14
1577140,13
1577760,29
1578388,35
1579020,35
1579640,37
1580268,18
1580892,12
1581524,13
1582152,11
1582772,10
1583400,12
1584024,21
1584648,19
1585276,16
1585896,33
1586528,33
1587152,37
1587776,41
1588408,39
1589024,36
1589652,44
1590284,48
1590904,27
1591532,12
1592160,12
1592788,17
1593420,14
1594040,29
1594668,31
1595296,34
1595920,33
1596548,35
1597168,23
1597800,14
1598424,12
1599048,17
1599676,12
1600296,32
1600924,45
1601552,26
1602168,13
1602796,45
1603420,36
1604048,40
1604676,46
1605296,45
1605924,23
1606548,11
1607172,23
1607804,19
1608424,17
1609052,11
1609672,26
1610296,29
1610924,30
1611544,34
1612172,34
1612796,33
1613424,25
1614052,18
1614676,15
1615304,11
1615936,18
1616552,15
1617184,27
1617808,55
1618436,37
1619064,31
1619688,35
1620316,40
1620940,44
1621564,38
1622192,33
1622816,53
1623444,60
1624076,26
1624696,12
1625324,10
1625948,12
1626576,11
1627208,13
1627824,29
1628452,33
1629076,35
1629704,34
1630332,12
1630952,13
1631580,11
1632208,11
1632828,26
1633460,44
1634080,50
1634708,36
1635340,21
1635960,35
1636588,42
1637212,37
1637844,34
1638476,30
1639092,36
1639720,50
1640340,47
1640964,33
1641592,23
1642208,16
1642836,21
1643456,35
1644080,32
1644708,32
1645328,34
1645956,34
1646576,35
1647200,16
1647828,13
1648452,11
1649080,11
1649708,12
1650324,19
1650956,28
1651576,28
1652204,15
1652832,38
1653452,41
1654084,39
1654704,40
1655328,33
1655956,32
1656576,24
1657204,17
1657828,11
1658448,18
1659080,15
1659696,15
1660324,18
1660952,30
1661568,34
1662196,35
1662820,36
1663448,19
1664076,15
1664692,22
1665320,27
1665940,12
1666564,10
1667192,14
1667808,15
1668436,21
1669060,31
1669680,47
1670308,69
1670928,62
1671556,42
1672180,24
1672800,23
1673428,24
1674052,18
1674680,11
1675308,10
1675928,20
1676556,29
1677180,19
1677808,29
1678436,36
1679056,43
1679684,33
1680308,32
1680928,35
1681556,13
1682176,27
1682804,15
1683424,20
1684048,25
1684676,20
1685292,26
1685924,30
1686552,34
1687168,37
1687796,41
1688420,31
1689048,21
1689676,26
1690292,24
1690920,13
1691544,11
1692164,11
1692792,10
1693416,11
1694044,34
1694668,34
1695292,34
1695920,34
1696536,35
1697168,11
1697788,22
1698416,21
1699044,12
1699664,22
1700296,27
1700924,32
1701544,27
1702172,15
1702796,40
1703424,45
1704052,54
1704672,53
1705300,55
1705920,40
1706544,19
1707172,20
1707792,11
1708420,21
1709044,16
1709668,17
1710296,12
1710920,43
1711548,43
1712180,34
1712800,37
1713428,43
1714052,20
1714680,21
1715312,25
1715928,23
1716556,32
1717180,41
1717804,39
1718432,22
1719056,31
1719684,47
1720308,51
1720932,48
1721560,44
1722184,27
1722812,35
1723440,39
1724064,29
1724692,17
1725316,18
1725944,11
1726576,11
1727192,15
1727820,31
1728448,37
1729068,39
1729696,35
1730320,21
1730948,21
1731572,17
1732196,10
1732824,12
1733444,11
1734076,17
1734704,20
1735320,18
1735952,31
1736576,44
1737204,51
1737836,46
1738456,35
1739084,27
1739708,29
1740332,27
1740964,24
1741580,24
1742212,12
1742832,21
1743456,25
1744084,31
1744708,31
1745336,35
1745964,34
1746584,34
1747212,12
1747832,13
1748464,15
1749092,10
1749712,11
1750340,16
1750964,45
1751588,39
1752220,18
1752840,60
1753468,57
1754092,55
1754716,44
1755344,13
1755968,12
1756596,27
1757228,34
1757848,21
1758476,13
1759100,13
1759732,25
1760364,22
1760984,31
1761612,34
1762232,34
1762856,33
1763484,27
1764104,22
1764732,15
1765356,12
1765980,10
1766608,18
1767224,25
1767852,22
1768480,21
1769104,31
1769732,39
1770356,41
1770984,47
1771612,46
1772232,48
1772860,40
1773484,46
1774104,56
1774736,38
1775352,33
1775984,53
1776608,46
1777232,17
1777860,41
1778480,37
1779108,35
1779740,46
1780360,29
1780988,17
1781612,11
1782244,12
1782872,12
1783492,20
1784120,41
1784744,36
1785368,17
1785996,38
1786616,45
1787244,47
1787868,39
1788492,30
1789124,24
1789744,23
1790372,16
1791004,11
1791624,10
1792256,15
1792876,10
1793504,14
1794136,29
1794752,35
1795380,36
1796004,35
1796628,32
1797256,19
1797872,18
1798504,17
1799128,14
1799748,17
1800380,18
1801000,14
1801628,12
1802256,19
1802872,45
1803500,55
1804124,40
1804752,34
1805384,16
1806000,29
1806628,36
1807252,23
1807876,21
1808508,19
1809128,14
1809756,35
1810380,18
1811000,34
1811632,42
1812248,36
1812876,34
1813500,17
1814128,12
1814756,12
1815380,16
1816008,18
1816640,59
1817256,61
1817884,32
1818508,23
1819136,34
1819768,39
1820384,35
1821016,37
1821640,37
1822264,35
1822892,30
1823512,29
1824140,21
1824764,13
1825392,10
1826020,16
1826644,16
1827272,23
1827900,34
1828520,36
1829148,33
1829772,35
1830400,26
1831032,22
1831648,16
1832276,11
1832900,16
1833524,19
1834156,31
1834776,29
1835404,18
1836028,34
1836656,41
1837284,41
1837908,41
1838540,41
1839172,38
1839792,37
1840424,23
1841044,12
1841668,18
1842300,12
1842920,18
1843548,27
1844172,31
1844796,33
1845424,34
1846040,36
1846668,29
1847292,14
1847912,11
1848544,12
1849168,14
1849796,39
1850424,39
1851040,16
1851672,13
1852296,25
1852924,39
1853552,42
1854176,38
1854804,35
1855428,30
1856052,47
1856680,45
1857296,37
1857924,12
1858548,13
1859172,15
1859800,27
1860424,25
1861052,29
1861684,32
1862304,35
1862932,34
1863556,15
1864188,17
1864816,27
1865432,30
1866064,20
1866688,14
1867308,12
1867940,18
1868560,22
1869188,29
1869812,35
1870436,45
1871064,50
1871688,36
1872320,15
1872948,29
1873568,29
1874196,20
1874820,12
1875452,10
1876080,16
1876696,16
1877328,29
1877952,34
1878576,34
1879204,35
1879824,35
1880456,22
1881076,17
1881704,15
1882332,13
1882956,13
1883584,12
1884216,19
1884832,19
1885460,20
1886084,31
1886712,42
1887344,46
1887960,50
1888592,43
1889212,27
1889836,33
1890468,18
1891088,11
1891716,11
1892340,10
1892964,13
1893596,11
1894220,33
1894852,35
1895480,36
1896104,33
1896732,23
1897356,14
1897988,14
1898616,14
1899232,18
1899864,29
1900488,31
1901112,17
1901740,11
1902360,37
1902992,57
1903620,70
1904240,57
1904868,35
1905492,11
1906124,33
1906752,35
1907372,16
1908000,33
1908624,29
1909252,45
1909884,43
1910504,19
1911132,29
1911760,33
1912384,33
1913012,35
1913632,19
1914260,19
1914892,11
1915512,12
1916144,11
1916768,13
1917400,15
1918028,13
1918648,18
1919280,33
1919904,41
1920528,42
1921160,45
1921776,40
1922404,33
1923028,36
1923652,41
1924280,22
1924900,10
1925528,11
1926156,20
1926776,22
1927404,32
1928028,33
1928656,45
1929284,38
1929904,37
1930532,15
1931156,10
1931784,21
1932412,25
1933032,16
1933660,18
1934284,29
1934908,36
1935540,18
1936160,47
1936788,51
1937420,44
1938040,37
1938668,17
1939292,20
1939920,19
1940552,12
1941168,10
1941800,13
1942424,12
1943048,13
1943676,12
1944296,33
1944928,34
1945552,34
1946176,35
1946804,18
1947424,13
1948052,12
1948684,10
1949304,14
1949932,24
1950556,52
1951188,58
1951820,44
1952440,35
1953068,50
1953692,53
1954316,40
1954948,36
1955568,27
1956196,19
1956820,15
1957444,10
1958076,12
1958696,13
1959324,11
1959956,10
1960576,21
1961204,31
1961828,34
1962460,35
1963088,34
1963712,23
1964340,17
1964968,10
1965588,11
1966220,12
1966840,12
1967468,12
1968092,12
1968712,13
1969344,35
1969960,34
1970588,33
1971220,39
1971836,40
1972468,48
1973092,53
1973720,25
1974348,13
1974968,16
1975596,15
1976220,27
1976844,27
1977476,32
1978096,33
1978724,33
1979348,35
1979972,30
1980604,11
1981224,11
1981852,15
1982484,14
1983104,17
1983732,21
1984360,14
1984988,13
1985616,25
1986232,39
1986860,40
1987484,43
1988108,46
1988736,29
1989360,12
1989988,11
1990612,23
1991236,28
1991864,17
1992488,22
1993116,30
1993748,14
1994368,30
1994996,34
1995624,33
1996252,35
1996884,14
1997500,13
1998132,10
1998756,11
1999380,10
2000008,17
2000624,26
2001252,27
2001876,25
2002500,40
2003128,63
2003752,72
2004380,65
2005012,32
2005632,17
2006260,12
2006884,11
2007516,14
2008144,11
2008760,18
2009392,55
2010016,44
2010636,28
2011268,46
2011888,40
2012516,33
2013140,37
2013764,12
2014392,10
2015016,18
2015644,23
2016276,14
2016896,18
2017524,13
2018148,34
2018776,60
2019408,31
2020024,37
2020652,38
2021276,37
2021900,35
2022532,38
2023152,32
2023780,27
2024404,19
2025028,18
2025656,12
2026280,15
2026908,15
2027540,34
2028160,39
2028788,38
2029412,37
2030044,27
2030672,23
2031292,31
2031920,13
2032548,22
2033172,46
2033800,62
2034424,69
2035052,45
2035680,32
2036304,43
2036932,41
2037552,46
2038184,45
2038812,46
2039432,25
2040064,34
2040688,63
2041316,40
2041948,14
2042568,25
2043196,47
2043824,28
2044448,30
2045080,34
2045696,36
2046328,35
2046952,13
2047576,17
2048208,22
2048820,31
2049448,32
2050076,12
2050692,12
2051320,11
2051944,12
2052572,42
2053200,42
2053816,39
2054444,50
2055064,68
2055688,51
2056316,30
2056936,21
2057564,19
2058188,14
2058808,11
2059440,21
2060056,24
2060684,33
2061308,33
2061928,39
2062556,42
2063180,37
2063808,15
2064436,16
2065056,16
2065684,11
2066304,13
2066936,18
2067564,21
2068184,17
2068812,17
2069432,45
2070056,41
2070684,44
2071304,46
2071932,42
2072556,41
2073180,39
2073808,34
2074424,23
2075052,14
2075684,34
2076304,69
2076932,56
2077556,32
2078184,35
2078812,37
2079432,40
2080060,25
2080680,26
2081304,43
2081932,12
2082548,39
2083180,36
2083804,22
2084428,13
2085056,15
2085672,39
2086300,37
2086932,36
2087552,33
2088180,34
2088804,12
2089432,14
2090060,22
2090680,31
2091308,29
2091932,28
2092552,15
2093180,26
2093800,18
2094428,30
2095052,32
2095672,34
2096304,34
2096920,15
2097548,22
2098172,18
2098800,11
2099428,35
2100052,23
2100680,21
2101308,26
2101928,14
2102556,36
2103180,44
2103808,41
2104436,36
2105056,20
2105684,11
2106308,25
2106932,32
2107560,10
2108176,12
2108804,22
2109428,11
2110052,19
2110680,31
2111304,34
2111936,34
2112568,34
2113184,33
2113812,13
2114436,13
2115064,13
2115696,12
2116312,15
2116940,19
2117564,29
2118188,26
2118820,14
2119440,54
2120068,51
2120692,38
2121316,41
2121944,17
2122568,58
2123196,58
2123828,18
2124448,24
2125076,23
2125700,22
2126332,14
2126960,23
2127576,36
2128208,36
2128832,39
2129452,35
2130084,18
2130700,22
2131332,24
2131952,13
2132576,12
2133204,9
2133776,16
2134404,20
2135028,18
2135652,31
2136280,42
2136904,37
2137536,35
2138164,42
2138784,37
2139412,43
2140036,55
2140668,57
2141296,31
2141912,13
2142544,37
2143168,18
2143792,17
2144420,38
2145040,39
2145668,35
2146292,41
2146916,41
2147544,46
2148168,58
2148796,33
2149428,12
2150048,20
2150680,32
2151300,25
2151928,24
2152560,29
2153176,34
2153804,39
2154428,36
2155052,29
2155680,43
2156304,56
2156932,45
2157556,34
2158180,29
2158808,28
2159432,15
2160060,12
2160692,32
2161312,36
2161940,34
2162564,36
2163192,36
2163824,22
2164440,27
2165068,35
2165692,27
2166316,17
2166948,12
2167568,18
2168196,17
2168820,26
2169444,63
2170076,75
2170700,63
2171328,50
2171960,32
2172576,13
2173204,32
2173828,24
2174460,40
2175088,33
2175708,43
2176336,55
2176960,17
2177580,38
2178212,32
2178832,34
2179460,34
2180084,22
2180708,20
2181336,26
2181960,20
2182588,13
2183216,26
2183832,31
2184464,36
2185088,16
2185716,35
2186344,44
2186968,57
2187596,70
2188220,39
2188844,13
2189472,10
2190092,10
2190720,13
2191344,20
2191968,27
2192596,26
2193220,12
2193852,14
2194480,30
2195104,36
2195732,38
2196360,34
2196988,16
2197616,11
2198240,18
2198868,10
2199492,23
2200120,16
2200748,14
2201368,21
2201996,18
2202620,42
2203248,54
2203876,43
2204500,33
2205128,16
2205760,11
2206376,19
2207008,32
2207632,49
2208260,69
2208892,55
2209512,19
2210140,49
2210764,38
2211388,33
2212020,34
2212640,39
2213268,34
2213896,23
2214520,22
2215148,14
2215772,11
2216400,18
2217032,21
2217648,21
2218276,18
2218900,20
2219528,46
2220156,48
2220776,48
2221408,40
2222032,23
2222656,25
2223284,31
2223904,19
2224536,11
2225164,10
2225784,13
2226412,15
2227036,13
2227668,33
2228300,34
2228920,34
2229548,34
2230176,17
2230800,12
2231428,10
2232048,11
2232676,11
2233300,16
2233924,12
2234556,30
2235176,22
2235808,35
2236436,34
2237056,39
2237688,45
2238308,43
2238940,22
2239572,18
2240192,13
2240820,11
2241444,21
2242068,19
2242696,14
2243320,11
2243948,31
2244572,35
2245196,34
2245824,36
2246448,37
2247076,15
2247708,18
2248328,15
2248956,35
2249580,44
2250212,27
2250844,20
2251464,34
2252096,36
2252720,29
2253344,35
2253972,37
2254592,37
2255220,27
2255844,25
2256468,27
2257096,26
2257712,14
2258344,13
2258972,11
2259592,15
2260220,18
2260844,32
2261472,32
2262104,36
2262720,37
2263348,23
2263972,11
2264596,10
2265228,10
2265848,15
2266476,19
2267100,14
2267724,12
2268356,17
2268976,41
2269604,44
2270236,38
2270856,69
2271484,65
2272112,33
2272740,31
2273368,20
2273992,19
2274620,22
2275244,23
2275868,12
2276496,12
2277120,24
2277748,30
2278376,34
2279000,38
2279628,34
2280248,14
2280876,12
2281508,16
2282128,17
2282756,33
2283380,44
2284012,25
2284644,20
2285264,16
2285892,43
2286516,44
2287140,42
2287772,45
2288392,42
2289020,21
2289644,32
2290268,35
2290900,15
2291524,22
2292156,33
2292784,32
2293408,22
2294040,32
2294660,32
2295292,34
2295920,35
2296540,33
2297168,18
2297792,26
2298416,20
2299044,10
2299664,11
2300292,22
2300916,22
2301540,25
2302172,16
2302796,37
2303428,36
2304060,34
2304676,37
2305308,27
2305928,45
2306556,61
2307188,50
2307808,35
2308436,19
2309060,18
2309684,26
2310312,12
2310936,33
2311564,32
2312188,35
2312816,36
2313444,19
2314068,11
2314700,15
2315328,15
2315944,11
2316576,11
2317200,20
2317828,32
2318460,42
2319080,33
2319708,42
2320332,36
2320956,37
2321588,31
2322208,33
2322836,21
2323468,10
2324088,10
2324716,10
2325340,15
2325972,10
2326600,16
2327216,20
2327848,31
2328472,33
2329096,36
2329724,35
2330344,12
2330972,12
2331596,16
2332220,18
2332852,12
2333472,11
2334100,24
2334732,26
2335352,25
2335980,31
2336608,42
2337236,46
2337868,40
2338488,18
2339116,10
2339740,21
2340364,25
2340996,14
2341616,15
2342244,11
2342868,14
2343492,11
2344124,34
2344744,35
2345372,34
2346004,34
2346624,31
2347252,15
2347876,11
2348508,11
2349136,14
2349760,11
2350388,33
2351016,49
2351640,33
2352272,26
2352888,45
2353516,48
2354144,48
2354768,46
2355400,26
2356016,12
2356644,10
2357276,20
2357896,30
2358524,24
2359148,12
2359780,10
2360412,12
2361032,29
2361660,32
2362284,35
2362908,34
2363540,30
2364160,26
2364788,18
2365416,17
2366040,14
2366668,13
2367288,21
2367916,25
2368548,33
2369168,32
2369796,44
2370420,53
2371052,49
2371680,51
2372304,55
2372936,52
2373560,37
2374184,33
2374812,16
2375432,11
2376064,17
2376684,24
2377308,29
2377940,31
2378564,35
2379192,39
2379824,43
2380440,21
2381072,11
2381692,14
2382324,11
2382956,32
2383576,42
2384204,37
2384828,29
2385452,17
2386084,34
2386704,37
2387332,47
2387956,58
2388584,68
2389212,51
2389836,35
2390468,12
2391096,13
2391720,13
2392352,11
2392976,11
2393604,27
2394236,34
2394856,32
2395488,35
2396112,37
2396736,19
2397368,14
2397984,21
2398616,18
2399244,18
2399864,29
2400496,40
2401116,31
2401748,25
2402380,34
2403000,40
2403628,44
2404252,44
2404876,48
2405508,43
2406128,40
2406760,31
2407380,25
2408004,13
2408632,11
2409256,27
2409884,21
2410516,16
2411136,33
2411768,33
2412392,35
2413020,35
2413652,12
2414272,12
2414900,11
2415524,16
2416152,11
2416780,17
2417400,27
2418028,24
2418652,14
2419276,36
2419904,49
2420528,39
2421156,37
2421788,24
2422408,23
2423036,26
2423660,25
2424292,13
2424924,10
2425544,24
2426176,40
2426800,13
2427424,47
2428052,39
2428672,37
2429304,35
2429928,31
2430552,13
2431184,11
2431804,17
2432436,21
2433064,29
2433680,35
2434312,32
2434936,16
2435564,28
2436196,59
2436816,45
2437444,35
2438068,34
2438692,32
2439324,42
2439944,58
2440576,45
2441196,21
2441824,24
2442452,18
2443076,12
2443708,21
2444336,30
2444960,35
2445588,38
2446212,39
2446844,40
2447476,37
2448096,24
2448724,15
2449348,11
2449972,11
2450604,12
2451224,33
2451852,42
2452476,32
2453104,35
2453736,40
2454360,53
2454992,51
2455624,22
2456240,13
2456872,26
2457496,27
2458120,19
2458752,17
2459368,11
2459996,18
2460620,29
2461244,35
2461872,34
2462492,35
2463120,37
2463748,14
2464368,13
2464996,10
2465620,11
2466248,24
2466876,20
2467496,20
2468124,17
2468748,14
2469376,35
2470008,40
2470624,41
2471256,38
2471880,31
2472500,37
2473132,42
2473752,33
2474380,18
2475004,12
2475632,14
2476260,28
2476884,22
2477516,32
2478144,35
2478768,35
2479396,35
2480020,25
2480644,15
2481272,14
2481896,19
2482524,14
2483148,11
2483772,18
2484404,22
2485024,29
2485652,30
2486284,52
2486904,63
2487532,55
2488156,45
2488788,16
2489416,23
2490036,34
2490664,35
2491288,11
2491912,12
2492540,10
2493160,11
2493788,17
2494412,38
2495036,39
2495668,35
2496288,39
2496916,14
2497548,24
2498168,23
2498796,16
2499420,16
2500052,19
2500680,27
2501296,22
2501928,14
2502552,51
2503176,64
2503804,64
2504424,62
2505052,68
2505676,45
2506300,43
2506932,43
2507552,16
2508180,20
2508812,20
2509432,29
2510060,29
2510684,64
2511316,59
2511948,44
2512568,39
2513196,38
2513824,22
2514448,20
2515076,12
2515696,11
2516324,28
2516952,33
2517576,31
2518208,27
2518824,21
2519456,39
2520084,50
2520704,43
2521332,42
2521960,44
2522588,58
2523220,67
2523840,45
2524468,11
2525096,12
2525720,13
2526348,15
2526968,13
2527596,37
2528224,34
2528848,35
2529476,36
2530096,18
2530724,25
2531356,26
2531976,17
2532608,12
2533232,31
2533860,56
2534492,43
2535112,31
2535744,31
2536368,41
2536992,44
2537620,37
2538240,33
2538868,33
2539496,57
2540120,38
2540748,10
2541368,11
2541996,22
2542628,17
2543248,14
2543880,22
2544504,32
2545132,34
2545764,35
2546384,35
2547016,20
2547640,12
2548264,17
2548892,14
2549512,28
2550144,45
2550768,32
2551392,13
2552024,25
2552648,62
2553276,66
2553908,56
2554528,37
2555160,22
2555784,29
2556416,23
2557048,21
2557664,11
2558296,12
2558924,11
2559548,17
2560180,22
2560796,31
2561424,34
2562056,35
2562672,36
2563300,31
2563920,31
2564548,35
2565176,13
2565792,36
2566420,26
2567040,14
2567672,21
2568300,24
2568920,40
2569548,35
2570172,51
2570796,54
2571424,42
2572040,22
2572672,26
2573292,25
2573916,22
2574548,10
2575168,14
2575800,29
2576428,27
2577048,19
2577676,32
2578300,35
2578928,34
2579556,34
2580176,20
2580804,11
2581428,14
2582052,14
2582680,11
2583296,13
2583924,12
2584548,19
2585172,23
2585800,32
2586424,33
2587052,40
2587680,47
2588296,47
2588928,59
2589548,50
2590180,11
2590808,46
2591432,30
2592060,12
2592684,15
2593308,10
2593936,26
2594552,36
2595180,36
2595808,36
2596432,34
2597060,14
2597680,11
2598308,11
2598940,10
2599560,11
2600188,11
2600812,29
2601444,33
2602072,30
2602688,37
2603320,45
2603944,41
2604568,39
2605196,30
2605816,30
2606444,35
2607068,34
2607692,22
2608324,24
2608944,14
2609572,16
2610204,12
2610824,38
2611456,37
2612076,33
2612708,35
2613336,27
2613956,24
2614584,30
2615208,18
2615832,11
2616460,27
2617080,37
2617708,28
2618332,16
2618956,31
2619588,46
2620208,47
2620836,45
2621468,40
2622084,18
2622716,18
2623336,11
2623968,11
2624596,12
2625212,29
2625844,21
2626464,12
2627084,14
2627716,33
2628336,35
2628964,37
2629584,34
2630208,15
2630840,10
2631456,15
2632084,10
2632712,37
2633328,42
2633960,27
2634580,15
2635212,12
2635840,31
2636456,34
2637088,35
2637708,37
2638340,26
2638968,27
2639584,27
2640212,17
2640836,12
2641460,15
2642088,13
2642704,23
2643332,19
2643956,28
2644576,33
2645204,34
2645828,33
2646456,35
2647088,14
2647704,11
2648332,13
2648956,17
2649584,18
2650212,12
2650832,16
2651460,28
2652084,18
2652708,45
2653336,50
2653960,45
2654588,38
2655212,25
2655836,29
2656468,20
2657088,10
2657720,10
2658348,10
2658968,11
2659596,23
2660220,12
2660848,33
2661480,32
2662096,35
2662724,35
2663348,21
2663968,16
2664600,18
2665216,14
2665844,13
2666464,18
2667088,27
2667716,24
2668336,21
2668964,32
2669592,41
2670208,45
2670836,48
2671460,49
2672088,46
2672716,46
2673336,36
2673964,25
2674588,11
2675208,10
2675836,18
2676456,21
2677084,19
2677708,27
2678332,32
2678960,34
2679584,33
2680212,17
2680844,16
2681464,15
2682092,16
2682716,23
2683344,29
2683976,31
2684592,30
2685220,22
2685844,34
2686468,42
2687100,44
2687720,43
2688352,35
2688972,36
2689596,54
2690224,55
2690840,36
2691468,24
2692092,18
2692720,13
2693348,13
2693972,29
2694600,35
2695228,35
2695848,35
2696476,34
2697100,11
2697728,12
2698356,10
2698976,12
2699604,13
2700228,15
2700852,25
2701480,20
2702096,13
2702728,41
2703352,41
2703976,45
2704604,40
2705228,24
2705856,20
2706488,14
2707104,11
2707732,22
2708356,14
2708988,14
2709616,25
2710236,28
2710864,33
2711488,34
2712112,34
2712740,34
2713360,23
2713988,13
2714612,11
2715236,14
2715864,20
2716488,22
2717116,24
2717748,22
2718368,24
2718996,34
2719620,41
2720252,50
2720880,53
2721496,42
2722124,24
2722748,37
2723372,53
2724000,52
2724616,43
2725244,38
2725868,16
2726492,14
2727120,14
2727736,40
2728364,61
2728992,56
2729616,37
2730244,35
2730864,65
2731496,89
2732124,111
2732796,120
2733476,86
2734100,51
2734720,29
2735348,14
2735972,59
2736604,67
2737232,55
2737852,52
2738480,61
2739104,71
2739728,72
2740356,51
2740976,17
2741604,10
2742228,19
2742852,49
2743480,51
2744104,36
2744732,36
2745364,32
2745984,35
2746612,26
2747236,11
2747864,10
2748496,10
2749112,18
2749744,29
2750368,39
2750992,26
2751624,14
2752240,39
2752868,67
2753492,59
2754116,51
2754744,70
2755368,73
2755996,63
2756628,60
2757248,35
2757876,19
2758500,50
2759132,72
2759760,48
2760384,38
2761012,30
2761636,33
2762260,34
2762888,34
2763512,14
2764144,12
2764768,11
2765392,14
2766020,10
2766640,26
2767268,53
2767900,62
2768520,46
2769148,34
2769772,50
2770400,54
2771032,48
2771648,34
2772280,36
2772904,47
2773528,52
2774156,44
2774776,17
2775404,29
2776028,31
2776652,11
2777284,34
2777904,40
2778532,36
2779164,35
2779784,35
2780416,11
2781040,17
2781668,41
2782300,21
2782920,21
2783548,35
2784176,41
2784796,33
2785428,22
2786048,36
2786676,45
2787300,39
2787924,40
2788552,35
2789168,40
2789800,50
2790428,40
2791048,17
2791676,10
2792300,12
2792932,13
2793560,13
2794180,33
2794808,35
2795432,35
2796056,35
2796684,21
2797304,13
2797932,19
2798556,15
2799180,11
2799812,28
2800432,32
2801060,25
2801692,16
2802312,40
2802940,51
2803564,38
2804196,35
2804824,37
2805444,11
2806072,25
2806696,29
2807320,15
2807948,14
2808568,15
2809196,11
2809820,28
2810444,19
2811076,34
2811696,37
2812324,33
2812956,32
2813576,12
2814204,11
2814832,11
2815460,10
2816092,16
2816708,12
2817340,12
2817960,13
2818584,19
2819212,60
2819832,54
2820460,40
2821084,36
2821708,29
2822336,26
2822956,33
2823584,27
2824212,13
2824832,23
2825460,39
2826084,57
2826716,77
2827344,53
2827960,33
2828592,35
2829216,36
2829836,35
2830468,11
2831088,18
2831716,11
2832340,11
2832964,14
2833592,15
2834212,18
2834840,32
2835468,24
2836088,33
2836716,43
2837340,37
2837972,34
2838600,19
2839224,40
2839852,49
2840476,47
2841100,11
2841732,20
2842352,15
2842980,18
2843604,15
2844228,33
2844856,34
2845480,38
2846108,39
2846740,16
2847360,11
2847988,11
2848612,14
2849244,19
2849872,39
2850492,46
2851120,35
2851744,25
2852368,34
2852996,35
2853616,39
2854244,44
2854872,43
2855496,39
2856124,48
2856744,45
2857376,31
2858004,10
2858624,22
2859252,43
2859880,33
2860508,21
2861140,34
2861760,36
2862392,33
2863016,37
2863640,12
2864272,10
2864888,13
2865516,11
2866144,19
2866768,25
2867400,26
2868016,27
2868644,17
2869272,38
2869888,39
2870520,43
2871144,49
2871772,57
2872404,36
2873024,34
2873652,39
2874276,30
2874900,19
2875528,11
2876144,16
2876776,16
2877400,32
2878024,34
2878652,41
2879272,47
2879900,35
2880532,15
2881152,22
2881780,22
2882400,12
2883032,13
2883660,22
2884280,24
2884908,24
2885532,25
2886156,48
2886784,59
2887400,50
2888032,41
2888652,45
2889276,48
2889904,25
2890520,27
2891152,25
2891780,39
2892400,17
2893028,37
2893652,52
2894280,56
2894908,53
2895528,40
2896156,34
2896780,19
2897408,14
2898040,10
2898656,15
2899284,20
2899908,12
2900532,17
2901160,25
2901776,31
2902408,34
2903032,62
2903656,77
2904288,69
2904908,55
2905540,29
2906172,30
2906792,29
2907420,12
2908048,17
2908676,27
2909308,40
2909928,40
2910556,26
2911184,37
2911808,36
2912436,35
2913056,38
2913684,25
2914316,10
2914936,11
2915564,21
2916192,40
2916820,20
2917448,12
2918072,13
2918704,28
2919328,31
2919952,42
2920580,41
2921200,37
2921828,34
2922452,45
2923076,50
2923704,42
2924328,18
2924956,12
2925588,10
2926208,15
2926836,30
2927460,31
2928092,33
2928720,34
2929344,35
2929972,24
2930596,43
2931220,48
2931848,22
2932472,13
2933100,13
2933728,13
2934352,21
2934984,15
2935600,36
2936232,68
2936860,81
2937480,64
2938112,39
2938736,12
2939368,15
2939996,34
2940616,35
2941248,13
2941872,11
2942496,29
2943128,35
2943744,25
2944376,30
2945000,36
2945624,34
2946252,35
2946872,18
2947500,13
2948132,10
2948752,24
2949384,31
2950004,13
2950636,39
2951264,45
2951880,14
2952512,48
2953136,48
2953760,51
2954388,46
2955008,21
2955636,21
2956260,12
2956884,38
2957516,23
2958136,11
2958764,27
2959396,28
2960016,13
2960644,35
2961268,37
2961896,36
2962524,35
2963144,35
2963776,21
2964396,30
2965024,20
2965652,20
2966272,35
2966900,39
2967528,33
2968152,23
2968780,15
2969400,38
2970032,47
2970660,52
2971280,47
2971908,51
2972532,66
2973160,66
2973792,40
2974408,25
2975036,24
2975660,13
2976284,37
2976916,33
2977536,33
2978164,43
2978788,52
2979412,35
2980044,20
2980664,13
2981292,18
2981924,18
2982544,23
2983172,32
2983796,43
2984428,50
2985056,43
2985680,37
2986308,54
2986932,69
2987556,65
2988188,46
2988808,33
2989436,35
2990060,33
2990688,34
2991316,24
2991940,15
2992572,17
2993204,11
2993824,23
2994452,33
2995080,34
2995708,35
2996340,36
2996960,15
2997588,18
2998212,29
2998836,37
2999468,35
3000088,28
3000716,27
3001344,21
3001968,19
3002596,29
3003220,37
3003852,43
3004484,52
3005104,39
3005736,29
3006360,43
3006984,43
3007616,18
3008232,10
3008864,17
3009488,25
3010112,13
3010744,35
3011360,37
3011988,35
3012620,34
3013240,28
3013868,13
3014496,15
3015124,13
3015756,12
3016376,15
3017004,21
3017628,30
3018256,31
3018884,27
3019504,41
3020136,39
3020760,40
3021384,43
3022016,42
3022632,41
3023264,48
3023896,44
3024512,18
3025144,13
3025768,30
3026400,28
3027028,19
3027648,29
3028280,34
3028904,35
3029528,35
3030160,18
3030776,31
3031408,21
3032032,12
3032656,12
3033284,10
3033904,23
3034536,54
3035164,32
3035784,36
3036416,45
3037040,46
3037668,53
3038300,50
3038920,30
3039552,13
3040176,25
3040800,29
3041428,14
3042048,11
3042676,11
3043300,12
3043928,30
3044556,34
3045176,34
3045808,34
3046436,34
3047056,25
3047684,16
3048308,17
3048940,13
3049572,14
3050192,19
3050824,29
3051448,38
3052072,27
3052704,40
3053320,64
3053952,65
3054576,49
3055200,22
3055832,16
3056456,35
3057088,31
3057716,24
3058336,25
3058968,11
3059592,33
3060224,37
3060852,31
3061472,33
3062104,36
3062728,37
3063352,28
3063984,31
3064604,31
3065232,23
3065864,12
3066484,11
3067116,12
3067740,12
3068372,21
3069004,32
3069624,34
3070256,39
3070880,47
3071504,45
3072136,41
3072752,35
3073380,35
3074004,39
3074628,36
3075256,24
3075872,12
3076500,13
3077132,18
3077752,35
3078380,38
3079004,37
3079636,40
3080264,39
3080888,34
3081516,23
3082140,14
3082764,14
3083396,16
3084016,28
3084644,39
3085268,21
3085892,36
3086524,46
3087144,49
3087772,39
3088404,20
3089024,11
3089652,27
3090276,39
3090908,23
3091536,23
3092156,15
3092784,20
3093408,19
3094032,30
3094664,34
3095284,36
3095912,35
3096536,33
3097160,12
3097792,10
3098408,19
3099036,11
3099668,22
3100288,55
3100916,64
3101544,59
3102172,30
3102804,42
3103424,49
3104056,47
3104676,49
3105300,17
3105932,10
3106552,21
3107184,36
3107808,27
3108432,24
3109064,11
3109680,21
3110312,17
3110944,31
3111564,36
3112192,35
3112820,34
3113452,15
3114080,11
3114700,10
3115328,10
3115952,10
3116576,10
3117208,15
3117828,33
3118460,42
3119084,33
3119708,45
3120336,47
3120960,51
3121588,43
3122220,27
3122840,30
3123472,41
3124092,40
3124724,14
3125352,22
3125972,36
3126600,45
3127224,54
3127848,51
3128476,33
3129096,37
3129728,33
3130348,13
3130976,11
3131604,10
3132228,12
3132860,20
3133492,22
3134112,25
3134744,23
3135368,14
3135996,43
3136628,52
3137248,51
3137876,44
3138500,41
3139128,33
3139756,32
3140376,28
3141008,11
3141632,10
3142256,11
3142888,13
3143512,12
3144144,33
3144772,38
3145392,33
3146024,36
3146648,28
3147272,17
3147900,10
3148520,10
3149152,13
3149776,31
3150400,44
3151028,38
3151648,21
3152280,31
3152912,45
3153528,55
3154160,51
3154784,48
3155412,40
3156044,27
3156664,29
3157292,22
3157920,12
3158544,27
3159172,42
3159792,29
3160424,16
3161048,34
3161672,32
3162300,36
3162920,41
3163552,17
3164180,16
3164800,33
3165428,16
3166056,19
3166684,23
3167316,29
3167936,24
3168568,15
3169192,38
3169820,37
3170452,38
3171072,41
3171704,39
3172328,44
3172952,44
3173584,31
3174204,12
3174836,10
3175464,11
3176088,21
3176716,18
3177344,29
3177972,29
3178604,34
3179224,35
3179856,31
3180480,15
3181104,15
3181736,15
3182352,13
3182984,20
3183612,21
3184236,16
3184868,13
3185492,20
3186124,44
3186752,49
3187376,45
3188008,38
3188632,23
3189256,29
3189888,26
3190504,21
3191136,12
3191760,10
3192388,25
3193020,23
3193640,17
3194272,38
3194904,31
3195520,36
3196152,37
3196776,24
3197408,17
3198040,14
3198660,12
3199292,11
3199916,20
3200544,49
3201172,50
3201792,45
3202420,31
3203044,31
3203664,33
3204296,34
3204912,33
3205540,44
3206172,54
3206792,55
3207420,31
3208044,10
3208672,11
3209300,26
3209920,49
3210548,43
3211172,33
3211796,33
3212428,34
3213048,36
3213676,13
3214300,11
3214924,16
3215556,16
3216176,20
3216804,25
3217432,32
3218056,25
3218684,16
3219308,42
3219940,54
3220568,59
3221184,54
3221816,47
3222440,48
3223064,57
3223692,52
3224312,39
3224944,38
3225568,22
3226192,49
3226820,78
3227440,42
3228068,34
3228700,68
3229320,74
3229948,42
3230572,36
3231204,43
3231836,14
3232456,25
3233084,37
3233708,55
3234332,58
3234964,50
3235584,39
3236216,35
3236836,34
3237460,37
3238092,36
3238712,19
3239340,32
3239972,42
3240592,41
3241220,30
3241844,23
3242476,11
3243104,11
3243724,26
3244352,35
3244976,36
3245600,37
3246228,36
3246848,15
3247476,12
3248100,11
3248724,12
3249356,11
3249976,9
3250552,19
3251184,20
3251808,15
3252440,32
3253064,41
3253692,38
3254324,37
3254944,29
3255576,22
3256200,25
3256828,20
3257460,10
3258080,13
3258708,11
3259332,17
3259960,16
3260588,28
3261208,35
3261840,33
3262464,33
3263088,34
3263720,17
3264344,18
3264972,17
3265604,12
3266224,12
3266856,13
3267480,21
3268104,19
3268732,18
3269352,49
3269984,56
3270608,60
3271232,55
3271864,34
3272480,19
3273112,17
3273744,10
3274360,16
3274992,22
3275616,13
3276248,11
3276876,12
3277492,30
3278120,34
3278744,34
3279364,34
3279992,26
3280616,17
3281244,12
3281864,10
3282488,24
3283116,36
3283736,22
3284364,13
3284984,22
3285608,33
3286236,34
3286860,34
3287488,37
3288116,42
3288736,61
3289364,68
3289988,50
3290616,21
3291244,16
3291860,24
3292492,12
3293112,15
3293736,23
3294368,33
3294984,40
3295612,38
3296236,36
3296860,14
3297488,11
3298104,11
3298732,11
3299360,17
3299976,21
3300604,31
3301228,35
3301856,21
3302488,36
3303104,46
3303732,46
3304352,44
3304976,39
3305604,41
3306220,48
3306852,49
3307476,37
3308100,28
3308728,11
3309344,26
3309976,40
3310604,35
3311224,34
3311852,35
3312476,35
3313108,41
3313736,24
3314356,10
3314984,12
3315608,15
3316232,22
3316860,19
3317480,20
3318108,24
3318732,20
3319356,29
3319984,34
3320608,35
3321236,37
3321868,28
3322488,26
3323116,23
3323740,21
3324372,22
3325000,44
3325616,39
3326248,30
3326872,46
3327496,30
3328128,32
3328740,39
3329368,33
3329992,21
3330616,12
3331244,10
3331860,10
3332492,22
3333112,24
3333736,19
3334368,15
3334992,14
3335620,31
3336252,34
3336872,39
3337500,38
3338124,35
3338752,28
3339384,45
3340000,46
3340628,37
3341252,15
3341876,16
3342504,11
3343120,18
3343752,17
3344376,31
3345000,34
3345628,37
3346252,35
3346880,14
3347508,14
3348128,26
3348756,27
3349380,25
3350012,22
3350640,27
3351256,26
3351888,17
3352512,39
3353136,49
3353764,48
3354384,43
3355012,51
3355636,45
3356260,19
3356888,12
3357512,35
3358140,51
3358772,26
3359392,23
3360020,43
3360640,30
3361268,35
3361900,34
3362520,37
3363148,33
3363772,18
3364396,17
3365024,10
3365640,11
3366268,16
3366892,17
3367516,19
3368144,16
3368760,17
3369392,37
3370020,48
3370640,51
3371268,39
3371892,17
3372520,12
3373148,16
3373768,39
3374396,35
3375020,16
3375644,12
3376276,16
3376896,13
3377524,29
3378148,32
3378772,38
3379404,38
3380024,29
3380648,28
3381280,20
3381896,14
3382524,16
3383148,32
3383776,37
3384404,17
3385024,19
3385652,32
3386276,42
3386896,41
3387528,41
3388144,35
3388772,24
3389396,36
3390024,37
3390652,36
3391272,15
3391900,10
3392532,19
3393152,20
3393780,17
3394404,30
3395032,36
3395660,35
3396280,40
3396908,23
3397532,10
3398156,11
3398784,14
3399408,19
3400036,19
3400660,34
3401284,41
3401912,27
3402528,37
3403156,43
3403788,38
3404408,39
3405036,29
3405660,30
3406288,38
3406920,38
3407536,21
3408164,13
3408788,19
3409412,22
3410044,14
3410664,33
3411292,40
3411916,37
3412540,35
3413168,40
3413788,27
3414416,24
3415044,15
3415664,11
3416292,11
3416916,15
3417548,10
3418180,27
3418800,32
3419428,37
3420052,49
3420680,41
3421308,36
3421928,15
3422556,46
3423180,50
3423808,18
3424436,20
3425056,21
3425684,17
3426316,10
3426936,17
3427564,37
3428188,35
3428820,35
3429448,34
3430072,16
3430704,11
3431328,19
3431952,23
3432580,28
3433200,28
3433828,25
3434452,16
3435076,17
3435708,32
3436328,47
3436956,56
3437588,48
3438208,28
3438836,16
3439464,32
3440092,39
3440724,26
3441344,15
3441972,13
3442596,12
3443220,10
3443848,29
3444464,35
3445092,34
3445716,35
3446340,36
3446972,27
3447592,24
3448220,21
3448852,15
3449472,29
3450100,42
3450724,48
3451356,29
3451984,13
3452608,40
3453236,41
3453864,47
3454488,47
3455116,50
3455736,36
3456368,29
3456988,23
3457612,15
3458240,10
3458864,15
3459492,23
3460120,18
3460744,33
3461372,37
3461996,34
3462628,36
3463256,22
3463872,13
3464504,11
3465128,11
3465748,19
3466380,18
3467000,14
3467628,15
3468252,23
3468876,35
3469508,33
3470128,35
3470756,38
3471388,34
3472008,23
3472636,46
3473260,38
3473892,35
3474520,34
3475144,37
3475776,13
3476400,27
3477024,17
3477652,28
3478272,35
3478904,36
3479528,34
3480152,23
3480784,38
3481400,46
3482032,35
3482660,14
3483280,11
3483908,24
3484532,31
3485160,27
3485788,34
3486408,50
3487036,46
3487660,37
3488284,26
3488912,34
3489536,53
3490164,68
3490788,56
3491412,17
3492044,22
3492664,32
3493292,21
3493920,30
3494544,33
3495172,33
3495796,37
3496428,33
3497056,10
3497680,13
3498308,13
3498932,24
3499556,31
3500188,20
3500808,19
3501436,30
3502064,28
3502688,33
3503316,50
3503944,52
3504572,37
3505204,32
3505824,47
3506452,47
3507080,53
3507708,27
3508340,10
3508960,17
3509588,11
3510216,15
3510840,30
3511468,34
3512088,34
3512720,35
3513344,18
3513968,15
3514596,15
3515224,20
3515852,23
3516484,35
3517104,53
3517736,38
3518360,25
3518984,35
3519616,47
3520236,49
3520864,40
3521488,38
3522112,36
3522740,53
3523360,52
3523988,31
3524616,11
3525240,19
3525868,41
3526492,31
3527120,25
3527752,31
3528368,35
3529000,36
3529624,34
3530244,17
3530876,14
3531496,15
3532128,11
3532752,28
3533376,28
3534004,30
3534624,22
3535252,13
3535884,38
3536504,36
3537132,34
3537756,37
3538388,31
3539016,43
3539640,53
3540268,56
3540892,44
3541516,20
3542148,10
3542768,16
3543396,12
3544020,32
3544644,36
3545276,47
3545896,53
3546524,38
3547156,20
3547776,12
3548408,11
3549028,21
3549660,25
3550292,20
3550912,19
3551544,17
3552168,26
3552792,35
3553420,39
3554040,41
3554668,49
3555292,51
3555916,58
3556548,46
3557168,15
3557796,11
3558428,14
3559048,13
3559676,15
3560304,21
3560932,29
3561564,34
3562184,34
3562816,36
3563440,14
3564064,23
3564692,32
3565312,15
3565940,12
3566568,17
3567192,26
3567820,22
3568440,15
3569068,37
3569700,36
3570320,37
3570952,39
3571576,36
3572204,37
3572836,40
3573456,39
3574088,24
3574712,15
3575336,11
3575968,23
3576584,19
3577216,30
3577840,41
3578464,41
3579096,35
3579720,35
3580352,18
3580980,13
3581600,23
3582232,28
3582856,26
3583488,29
3584120,45
3584736,35
3585364,18
3585988,41
3586612,53
3587240,51
3587856,45
3588484,33
3589108,29
3589732,38
3590364,39
3590988,15
3591616,11
3592248,11
3592864,19
3593492,17
3594120,33
3594748,35
3595380,32
3596000,34
3596628,19
3597256,12
3597880,15
3598508,18
3599128,49
3599760,52
3600388,28
3601008,16
3601636,13
3602260,36
3602892,46
3603520,48
3604140,49
3604768,41
3605392,18
3606020,17
3606648,36
3607272,42
3607900,22
3608524,11
3609148,32
3609776,24
3610392,15
3611024,29
3611648,37
3612272,38
3612900,36
3613524,15
3614152,13
3614784,18
3615400,14
3616028,13
3616652,16
3617280,15
3617908,11
3618528,17
3619156,30
3619780,40
3620404,47
3621036,48
3621656,47
3622284,44
3622908,40
3623536,34
3624164,23
3624788,15
3625420,11
3626048,37
3626668,32
3627296,34
3627920,41
3628548,39
3629180,36
3629800,39
3630428,33
3631052,26
3631676,13
3632308,10
3632928,24
3633556,21
3634188,12
3634808,12
3635440,25
3636060,33
3636692,35
3637320,37
3637940,38
3638568,35
3639192,47
3639816,36
3640448,19
3641064,11
3641692,11
3642316,16
3642940,18
3643572,14
3644192,35
3644820,35
3645452,40
3646072,34
3646700,15
3647324,10
3647956,11
3648588,10
3649208,18
3649836,28
3650460,33
3651084,20
3651712,12
3652336,35
3652964,39
3653588,41
3654212,43
3654844,34
3655464,29
3656092,26
3656724,28
3657344,21
3657972,14
3658596,12
3659228,13
3659860,13
3660480,27
3661108,31
3661736,35
3662360,37
3662988,37
3663608,40
3664236,17
3664860,17
3665484,21
3666116,20
3666736,44
3667364,31
3667996,14
3668616,24
3669244,34
3669872,40
3670500,39
3671132,41
3671752,36
3672384,33
3673008,13
3673632,31
3674260,43
3674880,23
3675508,17
3676136,25
3676760,19
3677392,30
3678012,34
3678640,35
3679272,35
3679892,24
3680524,15
3681148,11
3681776,18
3682408,18
3683024,12
3683656,26
3684280,44
3684904,53
3685536,33
3686152,48
3686784,55
3687408,55
3688028,45
3688656,34
3689280,40
3689908,41
3690536,29
3691156,10
3691784,20
3692408,33
3693036,25
3693668,14
3694288,32
3694916,34
3695540,33
3696164,34
3696796,14
3697416,13
3698044,12
3698668,13
3699292,19
3699920,20
3700544,27
3701172,14
3701804,18
3702424,43
3703052,54
3703676,47
3704308,37
3704940,26
3705560,22
3706192,33
3706816,45
3707440,33
3708068,19
3708688,30
3709320,17
3709944,12
3710568,42
3711196,45
3711824,33
3712456,49
3713084,66
3713704,62
3714332,40
3714956,22
3715588,10
3716216,20
3716836,34
3717464,49
3718088,48
3718712,24
3719340,38
3719960,49
3720588,43
3721212,36
3721840,15
3722468,19
3723092,30
3723724,40
3724356,27
3724976,24
3725604,15
3726228,11
3726856,14
3727484,28
3728104,34
3728732,36
3729356,34
3729980,19
3730608,14
3731232,13
3731860,12
3732492,18
3733112,25
3733744,29
3734368,15
3735000,13
3735628,36
3736248,49
3736880,45
3737504,41
3738128,38
3738756,24
3739376,31
3740004,36
3740632,27
3741256,17
3741884,10
3742504,19
3743136,21
3743764,21
3744384,32
3745012,35
3745636,34
3746268,36
3746900,16
3747520,16
3748148,17
3748772,13
3749400,15
3750028,13
3750648,20
3751276,19
3751904,14
3752528,32
3753160,38
3753776,44
3754404,55
3755036,62
3755656,63
3756288,53
3756912,54
3757544,61
3758172,50
3758792,28
3759424,23
3760048,13
3760672,31
3761300,41
3761920,47
3762548,54
3763176,52
3763800,31
3764432,20
3765048,15
3765676,18
3766308,27
3766928,42
3767560,51
3768184,43
3768816,29
3769444,40
3770064,39
3770692,41
3771320,42
3771944,35
3772572,34
3773192,33
3773824,33
3774448,22
3775072,11
3775704,17
3776328,16
3776956,15
3777588,30
3778208,32
3778840,35
3779464,35
3780092,14
3780720,18
3781344,25
3781972,13
3782600,15
3783224,18
3783852,25
3784472,25
3785104,15
3785732,37
3786352,47
3786984,42
3787608,38
3788240,26
3788868,26
3789488,34
3790116,31
3790740,19
3791368,13
3791996,10
3792616,18
3793248,17
3793872,31
3794496,37
3795124,35
3795744,36
3796376,35
3797008,14
3797624,11
3798256,11
3798880,13
3799512,19
3800140,17
3800760,19
3801392,17
3802016,14
3802640,45
3803268,42
3803888,37
3804520,36
3805144,19
3805768,24
3806396,48
3807016,64
3807648,34
3808280,10
3808896,11
3809528,13
3810152,11
3810784,30
3811412,32
3812032,36
3812660,35
3813288,21
3813912,18
3814544,13
3815160,11
3815792,11
3816416,13
3817040,13
3817668,16
3818288,25
3818916,33
3819548,42
3820168,48
3820796,35
3821424,42
3822056,31
3822688,12
3823304,16
3823936,12
3824564,12
3825188,10
3825820,20
3826440,12
3827072,18
3827696,33
3828320,33
3828952,36
3829576,36
3830208,17
3830840,15
3831456,11
3832088,10
3832716,11
3833344,18
3833976,30
3834600,36
3835232,31
3835856,36
3836480,48
3837112,53
3837732,43
3838364,41
3838996,37
3839620,36
3840252,28
3840872,15
3841504,10
3842132,13
3842752,33
3843380,20
3844004,32
3844628,34
3845256,35
3845880,34
3846508,26
3847132,14
3847756,14
3848388,10
3849008,10
3849636,22
3850268,30
3850888,27
3851516,25
3852140,29
3852768,44
3853400,48
3854016,43
3854648,37
3855272,29
3855896,41
3856524,34
3857144,21
3857772,14
3858396,13
3859020,13
3859652,14
3860272,14
3860900,31
3861532,34
3862152,36
3862784,37
3863408,19
3864036,24
3864668,16
3865288,11
3865916,14
3866540,18
3867168,33
3867796,30
3868416,30
3869044,29
3869668,43
3870296,64
3870924,68
3871544,70
3872176,55
3872804,32
3873424,26
3874052,11
3874676,10
3875308,14
3875940,31
3876560,41
3877188,32
3877816,38
3878440,36
3879068,32
3879688,34
3880316,14
3880944,11
3881568,11
3882200,11
3882824,11
3883452,22
3884084,32
3884704,29
3885336,15
3885960,42
3886592,48
3887220,41
3887840,36
3888472,16
3889096,13
3889720,27
3890352,39
3890968,33
3891600,16
3892232,25
3892848,36
3893476,27
3894100,32
3894732,35
3895360,34
3895984,35
3896616,32
3897240,44
3897864,39
3898492,23
3899112,13
3899744,31
3900368,36
3900992,20
3901624,12
3902240,39
3902872,48
3903500,50
3904120,41
3904752,37
3905376,25
3906004,35
3906636,44
3907256,33
3907884,11
3908508,12
3909136,17
3909764,15
3910384,18
3911016,31
3911640,34
3912264,39
3912896,38
3913512,18
3914144,13
3914776,10
3915396,11
3916028,15
3916652,12
3917284,12
3917912,12
3918536,15
3919168,41
3919792,56
3920416,49
3921044,37
3921664,30
3922296,28
3922920,30
3923544,29
3924172,16
3924792,15
3925424,12
3926056,12
3926672,12
3927304,29
3927928,36
3928560,38
3929188,35
3929808,31
3930440,25
3931064,18
3931688,15
3932320,12
3932936,17
3933564,22
3934188,26
3934812,21
3935444,26
3936068,46
3936696,48
3937324,43
3937944,39
3938572,42
3939196,67
3939828,80
3940456,48
3941080,21
3941712,13
3942336,15
3942960,26
3943588,28
3944208,32
3944836,33
3945460,36
3946084,34
3946716,16
3947340,11
3947968,11
3948600,12
3949216,19
3949848,21
3950472,19
3951100,14
3951732,14
3952352,32
3952984,34
3953604,36
3954228,35
3954860,31
3955480,29
3956108,35
3956732,40
3957360,36
3957992,27
3958616,15
3959244,15
3959876,23
3960496,29
3961124,33
3961748,37
3962376,37
3963004,36
3963624,11
3964252,11
3964880,13
3965504,9
3966080,13
3966708,19
3967336,25
3967964,32
3968588,29
3969220,32
3969840,45
3970468,57
3971100,58
3971720,54
3972352,48
3972976,54
3973604,43
3974236,14
3974856,11
3975484,14
3976108,16
3976732,17
3977364,32
3977984,33
3978616,40
3979236,40
3979860,37
3980492,35
3981112,18
3981744,12
3982372,13
3982992,12
3983624,13
3984248,13
3984876,18
3985508,38
3986128,51
3986756,41
3987384,34
3988008,35
3988636,14
3989256,35
3989888,30
3990512,39
3991136,27
3991768,28
3992392,68
3993024,40
3993656,14
3994272,36
3994900,32
3995524,33
3996156,35
3996788,16
3997408,16
3998040,16
3998664,19
3999288,26
3999920,30
4000540,35
4001168,24
4001796,12
4002416,47
4003044,57
4003668,55
4004300,45
4004928,36
4005544,25
4006176,30
4006800,37
4007428,26
4008056,24
4008680,17
4009308,34
4009932,34
4010556,32
4011188,34
4011808,35
4012440,35
4013068,34
4013688,12
4014316,17
4014940,22
4015572,27
4016200,22
4016824,57
4017452,69
4018076,45
4018700,18
4019328,44
4019952,52
4020580,56
4021204,47
4021828,29
4022456,19
4023080,19
4023708,27
4024340,19
4024960,9
4025536,24
4026160,33
4026788,22
4027420,31
4028040,35
4028668,35
4029296,33
4029924,18
4030556,10
4031176,17
4031808,20
4032432,15
4033056,13
4033684,21
4034304,22
4034932,18
4035556,32
4036180,42
4036812,40
4037432,36
4038064,41
4038692,46
4039312,60
4039944,50
4040568,17
4041196,27
4041828,46
4042448,32
4043076,21
4043700,45
4044328,38
4044956,34
4045576,35
4046204,36
4046828,13
4047452,15
4048084,16
4048704,15
4049336,19
4049964,27
4050584,42
4051212,46
4051836,39
4052468,33
4053100,42
4053720,45
4054352,44
4054976,48
4055600,46
4056228,42
4056848,38
4057476,24
4058104,17
4058728,10
4059356,28
4059980,24
4060612,33
4061244,35
4061864,36
4062496,34
4063120,30
4063748,22
4064380,14
4065000,11
4065628,12
4066252,13
4066876,30
4067508,36
4068128,34
4068760,25
4069388,37
4070008,37
4070640,40
4071264,47
4071892,50
4072524,40
4073144,30
4073776,35
4074400,24
4075024,15
4075656,16
4076272,28
4076904,14
4077528,34
4078152,35
4078784,35
4079400,34
4080032,14
4080660,19
4081280,21
4081908,30
4082536,34
4083164,28
4083796,31
4084416,33
4085048,15
4085672,40
4086296,48
4086928,40
4087544,37
4088176,31
4088800,39
4089424,50
4090056,33
4090672,14
4091304,16
4091936,18
4092552,11
4093184,23
4093812,29
4094444,35
4095076,33
4095696,39
4096332,39
4096952,21
4097572,12
4098200,14
4098820,21
4099448,20
4100072,13
4100692,17
4101324,22
4101940,13
4102572,38
4103200,46
4103816,57
4104444,55
4105064,37
4105696,13
4106324,16
4106940,10
4107572,31
4108192,27
4108816,15
4109444,15
4110060,11
4110692,35
4111316,33
4111940,34
4112568,36
4113184,22
4113816,11
4114444,10
4115064,15
4115692,13
4116316,12
4116944,16
4117576,18
4118192,16
4118820,31
4119444,34
4120068,42
4120700,51
4121320,55
4121948,59
4122572,53
4123196,28
4123824,18
4124440,10
4125072,11
4125692,22
4126320,13
4126948,15
4127572,30
4128200,35
4128832,49
4129448,49
4130076,32
4130700,13
4131328,11
4131956,12
4132576,13
4133204,10
4133828,27
4134452,24
4135080,16
4135696,45
4136328,46
4136952,37
4137576,37
4138204,29
4138828,34
4139456,30
4140088,31
4140704,28
4141336,12
4141960,15
4142588,20
4143220,10
4143840,32
4144468,31
4145092,38
4145716,35
4146348,34
4146968,12
4147596,13
4148220,14
4148848,11
4149476,11
4150100,28
4150728,42
4151356,33
4151976,19
4152608,41
4153228,51
4153860,47
4154488,38
4155112,40
4155740,46
4156368,40
4156992,27
4157620,10
4158240,11
4158868,10
4159500,11
4160120,17
4160748,32
4161372,31
4162000,36
4162628,38
4163248,19
4163876,26
4164496,54
4165124,35
4165752,23
4166376,31
4167004,53
4167628,53
4168252,30
4168880,33
4169504,47
4170132,51
4170764,55
4171384,54
4172012,47
4172636,37
4173268,23
4173896,15
4174516,11
4175144,16
4175768,11
4176392,29
4177020,23
4177640,34
4178268,33
4178892,35
4179516,35
4180144,11
4180760,11
4181388,11
4182012,10
4182640,11
4183268,13
4183892,14
4184520,13
4185152,31
4185768,31
4186396,34
4187020,37
4187648,39
4188280,29
4188896,23
4189524,26
4190148,22
4190772,13
4191400,24
4192024,12
4192652,13
4193276,14
4193904,31
4194532,33
4195156,34
4195788,34
4196420,38
4197040,35
4197668,16
4198292,13
4198920,13
4199548,24
4200168,33
4200796,24
4201420,12
4202040,27
4202672,50
4203288,40
4203916,38
4204540,34
4205168,27
4205796,32
4206420,43
4207048,35
4207680,13
4208296,11
4208924,13
4209548,18
4210180,12
4210808,35
4211424,34
4212056,35
4212680,35
4213304,15
4213932,10
4214552,11
4215180,12
4215804,18
4216432,23
4217060,32
4217684,28
4218316,23
4218944,34
4219568,45
4220196,41
4220820,37
4221444,35
4222076,34
4222696,40
4223328,35
4223952,14
4224576,11
4225204,12
4225824,31
4226452,33
4227080,25
4227704,33
4228332,36
4228956,36
4229588,36
4230216,19
4230836,25
4231464,16
4232088,15
4232708,17
4233340,10
4233960,26
4234588,37
4235212,40
4235836,30
4236468,43
4237088,47
4237716,41
4238348,29
4238968,37
4239596,39
4240220,32
4240852,19
4241480,13
4242096,10
4242728,14
4243352,11
4243976,36
4244604,32
4245224,36
4245852,37
4246476,27
4247100,18
4247732,12
4248352,11
4248980,10
4249612,14
4250232,22
4250860,22
4251484,21
4252112,28
4252744,33
4253364,35
4253992,35
4254616,37
4255240,26
4255868,43
4256488,42
4257116,35
4257740,13
4258364,10
4258996,18
4259616,24
4260244,13
4260876,30
4261496,35
4262124,35
4262748,33
4263376,19
4264004,10
4264624,18
4265252,13
4265876,23
4266500,31
4267132,24
4267752,22
4268380,14
4269004,38
4269628,53
4270260,43
4270880,39
4271508,30
4272140,19
4272760,31
4273388,35
4274012,31
4274644,26
4275272,15
4275888,44
4276520,55
4277144,32
4277768,34
4278396,34
4279016,37
4279648,35
4280272,13
4280896,12
4281524,11
4282144,11
4282772,29
4283404,35
4284024,33
4284652,20
4285276,13
4285908,39
4286540,41
4287160,43
4287792,47
4288416,42
4289040,37
4289668,36
4290288,31
4290916,16
4291540,17
4292164,13
4292792,11
4293416,11
4294044,31
4294676,32
4295296,33
4295924,33
4296552,28
4297180,42
4297812,44
4298432,29
4299060,23
4299688,19
4300312,17
4300940,11
4301560,11
4302188,39
4302812,38
4303436,36
4304064,36
4304680,36
4305312,33
4305940,34
4306560,37
4307188,34
4307812,18
4308444,15
4309072,10
4309696,12
4310324,23
4310952,35
4311576,33
4312208,37
4312824,39
4313452,29
4314076,12
4314700,11
4315332,20
4315952,24
4316584,16
4317212,17
4317832,15
4318464,13
4319088,39
4319716,55
4320348,46
4320968,39
4321596,16
4322220,12
4322844,19
4323472,38
4324096,33
4324724,17
4325348,11
4325972,25
4326604,18
4327224,33
4327852,36
4328484,38
4329104,39
4329732,32
4330356,27
4330988,21
4331616,16
4332240,15
4332868,30
4333492,38
4334116,40
4334748,32
4335368,27
4335996,32
4336624,40
4337248,51
4337876,54
4338504,45
4339132,34
4339764,29
4340384,24
4341016,13
4341640,10
4342268,14
4342900,12
4343520,13
4344148,33
4344772,34
4345396,35
4346028,34
4346648,21
4347276,13
4347900,10
4348528,13
4349156,14
4349784,24
4350412,30
4351044,24
4351664,24
4352296,35
4352920,43
4353540,48
4354172,48
4354792,37
4355420,29
4356044,40
4356668,39
4357296,17
4357920,11
4358548,21
4359180,30
4359800,19
4360428,28
4361052,34
4361684,33
4362312,36
4362928,36
4363560,12
4364180,10
4364804,12
4365436,10
4366056,19
4366684,28
4367308,31
4367932,27
4368564,14
4369184,45
4369812,53
4370444,43
4371064,35
4371696,18
4372320,21
4372948,26
4373580,29
4374200,18
4374832,16
4375456,17
4376080,11
4376708,12
4377328,33
4377960,36
4378580,45
4379204,42
4379836,25
4380456,13
4381084,10
4381716,10
4382336,19
4382968,26
4383592,30
4384220,15
4384852,12
4385472,57
4386100,72
4386724,41
4387348,36
4387980,42
4388600,29
4389228,31
4389852,31
4390480,25
4391108,22
4391728,35
4392360,18
4392988,10
4393608,15
4394236,35
4394860,36
4395492,36
4396124,35
4396744,16
4397376,11
4398000,16
4398624,17
4399256,14
4399872,20
4400504,24
4401128,15
4401752,12
4402384,39
4403000,40
4403632,43
4404260,37
4404880,24
4405508,15
4406132,23
4406760,33
4407392,23
4408008,19
4408640,18
4409264,16
4409888,18
4410516,36
4411136,35
4411768,35
4412392,34
4413016,33
4413648,15
4414264,20
4414892,15
4415524,10
4416144,15
4416772,16
4417396,16
4418028,15
4418656,19
4419276,48
4419904,44
4420528,38
4421152,39
4421780,39
4422400,50
4423028,42
4423656,21
4424280,14
4424908,14
4425528,20
4426156,26
4426788,21
4427408,31
4428036,33
4428660,36
4429292,35
4429920,16
4430544,16
4431172,14
4431800,14
4432424,25
4433052,63
4433672,79
4434304,38
4434928,18
4435548,48
4436180,49
4436804,47
4437432,46
4438064,45
4438684,55
4439312,55
4439940,33
4440568,25
4441200,24
4441820,16
4442448,29
4443072,43
4443696,28
4444324,35
4444944,34
4445572,37
4446196,37
4446824,29
4447452,20
4448076,11
4448708,15
4449336,15
4449956,31
4450584,33
4451208,17
4451836,13
4452468,34
4453088,35
4453720,36
4454344,42
4454968,46
4455600,46
4456216,43
4456848,29
4457476,13
4458096,11
4458724,9
4459300,15
4459936,12
4460564,31
4461184,34
4461816,36
4462440,36
4463068,41
4463700,48
4464320,35
4464952,12
4465576,13
4466200,12
4466832,18
4467448,17
4468076,13
4468700,23
4469328,41
4469956,40
4470576,43
4471208,45
4471836,40
4472456,41
4473088,32
4473712,23
4474344,15
4474972,14
4475592,13
4476224,20
4476848,15
4477472,35
4478104,35
4478720,33
4479352,36
4479976,31
4480604,31
4481232,22
4481856,15
4482484,20
4483116,29
4483736,35
4484364,31
4484988,21
4485620,38
4486248,46
4486868,49
4487496,44
4488120,42
4488744,34
4489372,30
4489992,31
4490620,27
4491244,17
4491868,10
4492500,29
4493124,28
4493752,27
4494384,34
4495004,34
4495636,34
4496260,37
4496888,13
4497516,10
4498136,17
4498764,17
4499392,19
4500016,16
4500644,22
4501264,27
4501896,18
4502520,33
4503144,40
4503776,37
4504400,39
4505032,33
4505660,35
4506280,33
4506908,20
4507532,10
4508160,13
4508788,10
4509408,13
4510036,17
4510660,41
4511288,36
4511916,36
4512536,39
4513164,25
4513788,28
4514416,17
4515044,11
4515668,11
4516300,11
4516932,26
4517552,32
4518184,22
4518808,31
4519428,37
4520060,39
4520680,42
4521308,39
4521932,31
4522556,28
4523188,30
4523808,29
4524436,19
4525068,11
4525688,22
4526316,22
4526940,15
4527572,37
4528204,34
4528824,36
4529452,35
4530076,17
4530700,15
4531332,16
4531952,13
4532580,17
4533204,27
4533828,34
4534460,34
4535080,23
4535708,40
4536340,46
4536960,46
4537588,40
4538216,39
4538844,46
4539476,30
4540096,18
4540728,10
4541352,14
4541976,11
4542608,11
4543224,14
4543856,37
4544480,39
4545104,37
4545736,36
4546352,35
4546984,24
4547612,22
4548232,12
4548860,23
4549484,11
4550116,32
4550748,42
4551368,47
4551996,35
4552624,36
4553248,46
4553880,38
4554496,37
4555128,29
4555752,29
4556376,18
4557008,9
4557572,12
4558204,25
4558832,13
4559456,10
4560084,14
4560708,35
4561340,40
4561968,35
4562592,36
4563220,21
4563844,24
4564476,24
4565104,16
4565728,18
4566360,18
4566984,27
4567608,30
4568240,38
4568856,32
4569484,41
4570112,52
4570736,54
4571368,43
4571992,33
4572624,31
4573252,23
4573872,18
4574504,11
4575128,11
4575752,13
4576384,12
4577004,31
4577632,36
4578256,35
4578880,40
4579508,38
4580128,24
4580760,24
4581392,25
4582012,31
4582644,29
4583264,24
4583896,27
4584528,24
4585144,14
4585776,40
4586400,48
4587024,48
4587656,42
4588272,44
4588900,43
4589524,41
4590148,40
4590780,24
4591400,19
4592028,20
4592660,10
4593280,11
4593908,32
4594536,35
4595164,46
4595796,48
4596416,34
4597048,11
4597672,11
4598296,13
4598928,34
4599544,39
4600176,37
4600800,28
4601424,17
4602056,30
4602672,41
4603304,50
4603936,47
4604552,43
4605184,33
4605808,41
4606440,42
4607068,39
4607688,18
4608320,11
4608940,22
4609564,26
4610192,14
4610816,29
4611444,35
4612068,35
4612692,34
4613320,16
4613944,16
4614572,13
4615200,10
4615824,16
4616452,18
4617076,25
4617708,23
4618336,19
4618956,37
4619584,46
4620208,46
4620832,42
4621460,36
4622080,33
4622708,36
4623332,36
4623956,20
4624588,13
4625208,11
4625836,17
4626468,14
4627088,30
4627720,34
4628344,35
4628972,35
4629604,34
4630224,17
4630852,14
4631476,11
4632104,12
4632732,10
4633352,13
4633984,14
4634608,25
4635232,27
4635860,31
4636484,45
4637116,45
4637744,40
4638368,18
4639000,24
4639624,32
4640252,30
4640884,12
4641504,15
4642132,18
4642756,20
4643380,13
4644008,28
4644632,33
4645260,34
4645884,34
4646512,19
4647140,12
4647764,10
4648396,12
4649024,13
4649648,12
4650276,24
4650900,25
4651528,23
4652156,34
4652776,42
4653408,35
4654032,38
4654656,34
4655288,12
4655904,33
4656536,46
4657164,27
4657784,11
4658412,11
4659040,11
4659668,12
4660300,20
4660920,35
4661548,33
4662172,35
4662796,35
4663428,11
4664048,11
4664676,13
4665300,17
4665924,11
4666556,34
4667176,52
4667808,37
4668436,19
4669056,37
4669688,39
4670312,39
4670940,34
4671572,28
4672192,41
4672820,44
4673444,37
4674068,12
4674696,10
4675320,14
4675948,12
4676572,18
4677196,32
4677828,32
4678448,35
4679076,37
4679708,31
4680328,15
4680956,13
4681580,10
4682212,11
4682844,14
4683464,14
4684096,12
4684720,15
4685344,25
4685972,36
4686592,38
4687220,42
4687848,47
4688472,51
4689100,60
4689720,36
4690352,17
4690980,15
4691600,15
4692228,20
4692852,25
4693484,25
4694116,29
4694736,36
4695368,34
4695992,38
4696616,17
4697248,10
4697864,10
4698496,11
4699120,18
4699744,40
4700376,51
4701000,18
4701632,16
4702260,43
4702880,51
4703512,47
4704136,39
4704768,36
4705396,28
4706016,23
4706648,16
4707272,11
4707896,13
4708528,10
4709144,23
4709776,19
4710408,29
4711024,34
4711656,34
4712280,37
4712908,36
4713540,12
4714160,14
4714792,17
4715416,18
4716040,23
4716668,12
4717288,17
4717916,22
4718544,13
4719168,40
4719800,51
4720420,54
4721048,47
4721676,50
4722296,47
4722924,41
4723552,29
4724180,12
4724812,10
4725432,12
4726064,23
4726688,29
4727312,30
4727944,34
4728564,35
4729192,40
4729816,45
4730440,38
4731072,16
4731688,11
4732320,11
4732948,15
4733568,22
4734200,32
4734824,32
4735456,35
4736088,50
4736704,53
4737332,46
4737956,40
4738580,45
4739212,52
4739832,37
4740464,21
4741088,11
4741712,13
4742344,11
4742960,13
4743592,16
4744224,32
4744840,39
4745472,37
4746096,33
4746728,15
4747356,16
4747976,11
4748608,11
4749232,13
4749856,11
4750488,13
4751104,13
4751736,14
4752364,38
4752984,42
4753616,36
4754232,36
4754864,23
4755496,24
4756112,23
4756744,29
4757368,17
4757996,11
4758628,10
4759248,16
4759880,25
4760504,32
4761128,35
4761760,35
4762376,36
4763004,35
4763628,34
4764256,26
4764884,14
4765508,29
4766140,13
4766768,20
4767392,31
4768024,31
4768648,21
4769276,32
4769908,42
4770528,47
4771160,51
4771784,51
4772408,39
4773036,15
4773656,11
4774288,12
4774916,13
4775536,24
4776168,17
4776792,13
4777424,31
4778052,33
4778672,35
4779304,37
4779928,19
4780552,26
4781184,24
4781804,16
4782432,17
4783060,19
4783684,21
4784316,12
4784936,12
4785568,37
4786200,34
4786820,35
4787452,46
4788076,53
4788708,48
4789336,53
4789960,47
4790592,31
4791216,13
4791844,11
4792472,22
4793096,28
4793728,29
4794352,35
4794976,36
4795608,33
4796232,35
4796864,13
4797496,10
4798112,10
4798744,11
4799368,14
4800000,30
4800628,40
4801248,36
4801876,15
4802500,43
4803124,56
4803756,46
4804376,40
4805004,29
4805628,30
4806256,32
4806888,43
4807512,35
4808140,25
4808772,14
4809392,25
4810024,27
4810648,31
4811272,33
4811900,33
4812520,35
4813152,20
4813776,29
4814400,49
4815028,26
4815648,21
4816276,31
4816908,32
4817528,23
4818156,20
4818784,34
4819412,43
4820044,51
4820664,49
4821292,43
4821916,45
4822544,49
4823172,52
4823792,34
4824424,10
4825044,19
4825672,32
4826300,31
4826920,18
4827548,31
4828180,32
4828800,36
4829428,35
4830056,16
4830684,11
4831316,10
4831936,13
4832568,10
4833192,21
4833820,38
4834448,36
4835072,21
4835704,37
4836328,49
4836952,60
4837580,56
4838200,40
4838832,17
4839460,27
4840080,29
4840708,11
4841332,12
4841964,14
4842592,31
4843216,33
4843848,32
4844472,34
4845096,34
4845724,34
4846344,31
4846976,18
4847600,13
4848224,11
4848852,11
4849476,22
4850108,15
4850740,12
4851360,17
4851988,26
4852616,31
4853244,37
4853876,42
4854496,47
4855124,34
4855752,36
4856376,29
4857008,22
4857624,15
4858252,13
4858880,14
4859504,17
4860136,15
4860760,36
4861392,35
4862024,35
4862644,34
4863276,22
4863900,24
4864528,15
4865156,10
4865776,18
4866404,36
4867028,37
4867652,27
4868284,19
4868904,35
4869532,43
4870164,45
4870784,53
4871416,37
4872040,13
4872668,10
4873300,10
4873920,13
4874552,31
4875176,33
4875800,12
4876428,14
4877048,28
4877676,35
4878304,35
4878928,34
4879556,33
4880176,14
4880804,19
4881436,18
4882056,14
4882684,15
4883312,14
4883940,19
4884572,28
4885192,24
4885820,35
4886448,41
4887072,38
4887700,38
4888320,45
4888948,30
4889576,30
4890200,27
4890828,11
4891448,13
4892080,11
4892708,16
4893328,11
4893960,40
4894584,34
4895216,34
4895844,34
4896464,32
4897092,26
4897720,13
4898344,17
4898972,10
4899592,27
4900224,31
4900848,16
4901472,25
4902104,33
4902728,38
4903360,42
4903988,48
4904608,46
4905240,36
4905864,30
4906496,16
4907124,15
4907744,14
4908376,16
4909000,10
4909628,10
4910256,26
4910880,36
4911512,33
4912144,42
4912764,49
4913396,33
4914020,17
4914652,17
4915284,22
4915900,27
4916532,26
4917156,29
4917780,26
4918408,22
4919024,34
4919652,45
4920280,47
4920904,52
4921532,43
4922152,33
4922780,37
4923412,39
4924032,20
4924660,11
4925284,12
4925916,21
4926544,12
4927168,35
4927800,33
4928424,34
4929044,35
4929676,29
4930296,22
4930924,17
4931548,11
4932172,10
4932800,10
4933424,14
4934052,16
4934684,27
4935304,29
4935936,35
4936560,43
4937188,45
4937816,40
4938440,33
4939068,37
4939692,43
4940316,32
4940948,11
4941568,12
4942196,17
4942820,15
4943444,13
4944076,28
4944696,34
4945324,35
4945956,35
4946576,20
4947204,20
4947828,11
4948460,11
4949088,10
4949712,19
4950344,29
4950968,34
4951592,39
4952224,31
4952840,34
4953472,41
4954096,39
4954720,31
4955352,19
4955976,47
4956608,52
4957236,18
4957856,11
4958484,12
4959112,11
4959740,18
4960372,29
4960992,31
4961620,34
4962244,37
4962868,37
4963500,20
4964120,13
4964748,12
4965372,11
4966000,29
4966632,33
4967252,29
4967884,20
4968512,17
4969132,35
4969760,55
4970384,57
4971012,47
4971644,42
4972264,40
4972892,51
4973516,48
4974140,15
4974772,10
4975392,12
4976024,12
4976652,12
4977272,33
4977904,34
4978528,38
4979156,40
4979788,24
4980408,22
4981036,13
4981664,12
4982288,12
4982920,10
4983536,13
4984168,17
4984792,19
4985416,41
4986048,35
4986664,42
4987296,42
4987924,34
4988544,15
4989176,30
4989800,20
4990432,9
4991008,11
4991636,14
4992268,10
4992892,13
4993520,15
4994152,30
4994772,31
4995400,35
4996024,33
4996648,26
4997276,30
4997896,23
4998524,14
4999148,22
4999772,25
5000404,29
5001028,26
5001656,16
5002288,38
5002904,50
5003536,53
5004160,49
5004788,47
5005420,33
5006040,36
5006672,35
5007296,21
5007920,15
5008552,14
5009168,11
5009796,12
5010424,32
5011048,31
5011680,33
5012304,35
5012932,34
5013564,19
5014184,21
5014816,22
5015440,23
5016072,36
5016700,39
5017320,33
5017952,27
5018576,15
5019200,47
5019828,50
5020448,49
5021076,43
5021708,24
5022328,25
5022960,27
5023584,25
5024216,11
5024844,10
5025464,10
5026092,11
5026716,13
5027344,32
5027976,31
5028592,34
5029224,37
5029848,20
5030472,12
5031100,10
5031720,14
5032352,36
5032980,48
5033600,57
5034228,45
5034856,30
5035488,33
5036120,49
5036736,56
5037372,53
5037996,44
5038620,25
5039252,18
5039872,27
5040504,28
5041128,15
5041752,11
5042384,18
5043000,21
5043632,21
5044260,31
5044880,35
5045508,37
5046136,33
5046764,11
5047396,11
5048016,13
5048648,16
5049272,29
5049896,21
5050524,18
5051144,16
5051776,13
5052400,42
5053024,59
5053656,54
5054280,44
5054912,32
5055544,11
5056164,25
5056792,17
5057416,10
5058048,15
5058676,22
5059296,12
5059924,15
5060552,31
5061176,32
5061808,35
5062424,34
5063056,36
5063688,26
5064304,17
5064936,11
5065560,11
5066192,16
5066824,27
5067444,22
5068076,13
5068700,29
5069328,37
5069960,43
5070576,43
5071208,39
5071832,11
5072456,11
5073088,10
5073708,10
5074340,11
5074972,10
5075592,11
5076224,13
5076852,24
5077480,45
5078112,36
5078736,37
5079368,33
5079996,12
5080620,10
5081252,12
5081872,19
5082500,11
5083128,23
5083752,42
5084384,49
5085008,47
5085640,32
5086268,39
5086888,44
5087520,39
5088144,37
5088776,38
5089404,39
5090024,37
5090656,21
5091280,13
5091904,11
5092536,21
5093156,21
5093784,31
5094416,33
5095040,35
5095672,35
5096296,36
5096928,27
5097556,12
5098176,10
5098808,11
5099436,13
5100060,27
5100692,40
5101312,36
5101944,23
5102572,64
5103196,68
5103828,41
5104456,34
5105088,25
5105720,38
5106340,41
5106972,38
5107596,16
5108228,10
5108860,16
5109480,30
5110112,35
5110736,31
5111364,32
5111996,32
5112620,37
5113252,22
5113884,17
5114504,11
5115136,10
5115764,14
5116396,14
5117028,16
5117652,18
5118284,22
5118908,35
5119536,47
5120168,50
5120784,49
5121412,38
5122036,39
5122656,44
5123284,35
5123908,12
5124536,15
5125164,15
5125784,19
5126412,10
5127032,33
5127664,39
5128292,33
5128912,33
5129540,36
5130164,29
5130788,27
5131416,23
5132040,13
5132668,11
5133292,16
5133916,12
5134544,16
5135168,14
5135800,40
5136428,49
5137048,52
5137676,38
5138300,19
5138932,20
5139560,23
5140180,13
5140808,55
5141432,44
5142056,37
5142684,28
5143304,20
5143932,32
5144560,34
5145180,36
5145812,35
5146436,21
5147064,21
5147692,15
5148312,12
5148940,10
5149564,11
5150196,16
5150824,15
5151448,21
5152076,32
5152700,38
5153324,46
5153952,40
5154576,45
5155204,44
5155828,46
5156456,45
5157084,24
5157708,10
5158340,14
5158972,14
5159592,12
5160224,17
5160848,33
5161476,34
5162108,35
5162728,35
5163356,11
5163980,10
5164604,11
5165236,12
5165856,35
5166484,48
5167116,50
5167736,35
5168368,20
5168988,35
5169620,53
5170248,61
5170872,59
5171504,49
5172128,53
5172752,42
5173380,16
5174000,11
5174628,17
5175252,19
5175876,16
5176508,30
5177128,40
5177756,37
5178388,36
5179008,35
5179636,31
5180264,14
5180892,12
5181524,12
5182144,13
5182772,18
5183396,23
5184024,26
5184652,24
5185272,22
5185900,45
5186524,48
5187152,48
5187780,40
5188400,37
5189028,41
5189660,33
5190280,18
5190912,11
5191536,11
5192168,11
5192796,12
5193416,16
5194048,28
5194672,34
5195296,39
5195928,40
5196544,22
5197176,16
5197800,12
5198424,16
5199052,15
5199672,11
5200304,22
5200932,38
5201552,21
5202184,43
5202804,49
5203436,43
5204064,40
5204688,43
5205316,29
5205940,28
5206564,34
5207196,34
5207816,36
5208448,40
5209068,32
5209696,31
5210324,65
5210948,42
5211576,35
5212208,34
5212828,34
5213456,28
5214080,57
5214708,53
5215340,16
5215960,13
5216592,23
5217216,41
5217840,29
5218468,15
5219088,45
5219720,65
5220344,68
5220968,59
5221600,37
5222224,31
5222852,42
5223484,44
5224104,32
5224732,19
5225356,31
5225988,66
5226620,64
5227240,44
5227868,46
5228492,41
5229116,34
5229748,20
5230368,11
5231000,14
5231628,10
5232248,12
5232876,19
5233500,14
5234132,29
5234764,42
5235384,34
5236012,45
5236636,55
5237264,55
5237892,53
5238512,45
5239144,36
5239768,49
5240392,46
5241024,13
5241640,24
5242272,23
5242904,13
5243520,14
5244148,31
5244772,32
5245400,35
5246032,35
5246648,23
5247276,22
5247900,21
5248528,11
5249156,16
5249776,15
5250404,28
5251024,25
5251648,27
5252276,32
5252896,40
5253524,39
5254152,38
5254772,39
5255400,31
5256024,21
5256652,15
5257280,10
5257896,17
5258528,32
5259152,64
5259780,54
5260412,33
5261032,35
5261660,35
5262284,33
5262908,33
5263536,16
5264160,11
5264788,11
5265416,11
5266036,10
5266664,15
5267288,20
5267916,19
5268544,18
5269168,43
5269796,53
5270420,52
5271044,47
5271676,44
5272296,51
5272924,51
5273552,35
5274176,11
5274804,16
5275424,19
5276052,11
5276684,15
5277304,33
5277932,33
5278556,35
5279188,35
5279820,19
5280440,23
5281068,26
5281692,23
5282312,26
5282944,45
5283560,65
5284192,49
5284812,22
5285436,34
5286064,38
5286688,41
5287316,45
5287944,44
5288568,40
5289196,51
5289820,59
5290448,48
5291076,35
5291696,20
5292324,10
5292948,10
5293572,19
5294204,51
5294824,56
5295452,34
5296076,43
5296700,29
5297328,11
5297948,27
5298576,21
5299204,12
5299824,11
5300452,30
5301076,38
5301708,20
5302336,36
5302960,42
5303588,38
5304216,35
5304840,40
5305468,60
5306088,69
5306716,22
5307340,39
5307964,35
5308596,17
5309216,27
5309844,17
5310476,30
5311096,33
5311728,33
5312352,39
5312980,29
5313612,16
5314232,12
5314864,11
5315484,11
5316108,13
5316740,18
5317360,15
5317988,15
5318616,24
5319240,52
5319868,62
5320488,47
5321116,39
5321748,48
5322368,65
5322996,62
5323624,28
5324252,23
5324884,58
5325500,64
5326132,55
5326752,36
5327376,29
5328004,38
5328620,47
5329252,35
5329872,17
5330496,20
5331128,16
5331744,19
5332372,14
5333004,10
5333624,13
5334252,14
5334876,15
5335508,54
5336136,43
5336760,37
5337388,35
5338012,26
5338636,38
5339268,62
5339888,62
5340516,35
5341140,20
5341764,32
5342396,31
5343016,27
5343644,33
5344276,32
5344896,49
5345524,61
5346148,53
5346780,42
5347408,16
5348024,14
5348652,13
5349276,12
5349900,12
5350532,16
5351152,19
5351780,15
5352404,32
5353028,34
5353660,36
5354280,33
5354908,27
5355540,23
5356160,27
5356788,31
5357416,19
5358044,11
5358676,12
5359296,15
5359928,11
5360552,35
5361176,34
5361804,35
5362424,39
5363052,24
5363680,12
5364304,13
5364932,12
5365552,13
5366184,41
5366812,71
5367432,65
5368060,48
5368684,34
5369316,40
5369944,51
5370564,60
5371192,56
5371816,50
5372444,66
5373072,49
5373696,25
5374324,12
5374952,14
5375576,12
5376208,12
5376824,15
5377452,33
5378080,39
5378696,42
5379328,33
5379948,14
5380580,11
5381208,19
5381828,25
5382456,22
5383080,26
5383704,27
5384332,12
5384952,30
5385580,32
5386208,36
5386832,34
5387460,43
5388080,34
5388708,12
5389340,36
5389960,52
5390588,62
5391212,63
5391844,76
5392472,89
5393096,94
5393724,79
5394348,53
5394972,45
5395604,34
5396224,54
5396856,115
5397536,136
5398204,123
5398884,122
5399560,135
5400236,140
5400916,86
5401536,16
5402160,67
5402788,55
5403408,43
5404036,70
5404664,76
5405288,41
5405916,34
5406540,39
5407172,27
5407804,19
5408424,22
5409052,17
5409676,17
5410304,35
5410932,36
5411552,39
5412180,45
5412804,53
5413428,51
5414060,46
5414680,28
5415308,18
5415932,11
5416560,25
5417188,45
5417812,96
5418444,113
5419124,44
5419744,34
5420372,36
5421000,37
5421624,37
5422252,75
5422872,82
5423504,51
5424132,13
5424752,12
5425380,15
5426008,13
5426636,22
5427268,28
5427888,42
5428516,43
5429140,35
5429764,17
5430396,11
5431016,11
5431648,11
5432272,21
5432896,29
5433524,12
5434144,19
5434772,40
5435404,34
5436024,40
5436652,45
5437280,43
5437908,47
5438540,35
5439160,25
5439792,37
5440416,53
5441040,37
5441668,14
5442288,10
5442916,11
5443540,19
5444164,35
5444792,36
5445408,37
5446040,36
5446668,30
5447288,15
5447916,24
5448540,40
5449168,30
5449800,14
5450416,61
5451044,37
5451668,33
5452296,54
5452924,40
5453544,57
5454172,51
5454796,17
5455420,47
5456048,43
5456664,21
5457296,14
5457920,10
5458544,27
5459172,19
5459796,12
5460428,30
5461056,32
5461680,33
5462308,35
5462936,32
5463560,25
5464188,39
5464808,16
5465436,12
5466064,11
5466684,14
5467316,14
5467936,14
5468568,21
5469196,36
5469816,48
5470444,61
5471068,48
5471700,11
5472332,26
5472952,40
5473584,57
5474208,29
5474832,22
5475460,41
5476080,49
5476708,16
5477336,37
5477960,34
5478592,32
5479208,36
5479836,27
5480468,15
5481088,19
5481716,31
5482340,42
5482972,17
5483600,51
5484224,50
5484852,18
5485476,34
5486100,37
5486732,40
5487352,40
5487984,45
5488608,25
5489232,23
5489860,56
5490480,49
5491108,14
5491740,28
5492360,62
5492988,47
5493612,30
5494244,33
5494872,34
5495496,37
5496128,35
5496752,12
5497376,21
5498008,50
5498624,42
5499256,22
5499880,65
5500504,43
5501132,18
5501752,16
5502384,63
5503016,89
5503632,56
5504264,35
5504888,30
5505520,38
5506148,24
5506768,15
5507396,27
5508024,31
5508648,15
5509276,14
5509896,19
5510524,31
5511152,47
5511776,37
5512404,63
5513028,47
5513660,21
5514288,27
5514912,29
5515544,41
5516168,17
5516796,19
5517428,27
5518048,31
5518680,34
5519304,33
5519928,36
5520560,33
5521176,38
5521808,15
5522436,26
5523056,21
5523688,19
5524312,26
5524944,44
5525572,38
5526192,34
5526824,16
5527448,32
5528072,36
5528704,39
5529320,41
5529952,19
5530576,11
5531196,26
5531828,65
5532448,76
5533076,66
5533708,41
5534328,22
5534960,26
5535584,63
5536212,53
5536844,41
5537464,39
5538092,31
5538716,41
5539344,49
5539972,48
5540592,42
5541220,29
5541848,11
5542472,19
5543100,19
5543720,31
5544352,33
5544980,40
5545600,35
5546228,38
5546856,15
5547484,47
5548116,44
5548736,12
5549368,47
5549992,61
5550616,52
5551248,30
5551868,19
5552500,35
5553124,41
5553748,36
5554380,38
5555000,25
5555632,11
5556260,30
5556880,13
5557508,58
5558136,17
5558768,31
5559396,27
5560016,32
5560648,52
5561268,43
5561896,33
5562524,38
5563144,34
5563776,17
5564400,12
5565024,11
5565656,18
5566280,19
5566912,34
5567544,36
5568164,16
5568792,54
5569416,80
5570048,66
5570676,47
5571296,36
5571924,41
5572548,57
5573172,55
5573804,12
5574424,37
5575052,48
5575676,69
5576304,59
5576936,27
5577560,39
5578192,33
5578820,39
5579440,37
5580072,41
5580696,45
5581320,15
5581948,11
5582568,11
5583196,17
5583824,44
5584448,34
5585076,23
5585696,71
5586328,57
5586956,36
5587576,47
5588208,59
5588832,49
5589460,25
5590092,18
5590712,17
5591344,37
5591968,27
5592592,18
5593224,12
5593840,29
5594472,33
5595096,35
5595720,38
5596352,26
5596968,28
5597600,27
5598232,26
5598848,16
5599480,14
5600104,12
5600732,21
5601364,38
5601984,31
5602612,50
5603236,51
5603860,39
5604488,37
5605112,41
5605744,35
5606368,12
5606992,10
5607620,10
5608240,15
5608868,12
5609500,12
5610120,28
5610748,53
5611376,47
5612004,35
5612636,36
5613256,69
5613884,56
5614512,11
5615136,31
5615764,12
5616384,39
5617012,40
5617636,32
5618264,35
5618892,32
5619512,47
5620144,45
5620772,39
5621392,35
5622024,37
5622648,35
5623276,23
5623908,14
5624528,12
5625156,18
5625784,15
5626408,25
5627036,42
5627656,46
5628288,34
5628912,34
5629536,32
5630168,12
5630792,24
5631424,41
5632056,53
5632672,55
5633300,33
5633924,44
5634552,39
5635180,16
5635800,45
5636428,35
5637052,41
5637676,35
5638308,26
5638928,32
5639556,42
5640180,19
5640804,16
5641436,15
5642060,17
5642688,20
5643316,12
5643936,35
5644564,32
5645188,37
5645820,37
5646448,22
5647072,12
5647700,25
5648324,33
5648948,15
5649580,10
5650200,21
5650828,24
5651456,30
5652080,34
5652708,38
5653332,43
5653964,58
5654592,79
5655216,35
5655844,13
5656468,42
5657096,42
5657724,12
5658344,27
5658972,17
5659596,11
5660220,23
5660852,30
5661472,35
5662100,33
5662732,32
5663352,23
5663984,29
5664608,35
5665236,38
5665868,46
5666488,30
5667116,12
5667744,17
5668368,24
5668996,53
5669616,63
5670244,41
5670872,35
5671496,13
5672124,11
5672744,39
5673376,86
5674004,66
5674624,57
5675256,15
5675880,29
5676508,27
5677140,46
5677760,45
5678392,37
5679016,34
5679640,25
5680272,21
5680888,20
5681520,18
5682144,29
5682768,51
5683400,50
5684016,50
5684644,37
5685276,28
5685896,45
5686524,57
5687148,55
5687780,44
5688412,16
5689032,21
5689660,15
5690284,17
5690912,15
5691540,11
5692160,14
5692788,15
5693416,23
5694040,34
5694672,34
5695292,35
5695920,36
5696552,19
5697172,23
5697800,20
5698424,16
5699056,18
5699684,16
5700304,20
5700936,18
5701560,14
5702184,40
5702816,42
5703432,36
5704064,41
5704688,60
5705312,48
5705944,33
5706568,32
5707196,15
5707828,12
5708448,31
5709080,14
5709704,35
5710336,31
5710964,34
5711584,32
5712216,35
5712840,34
5713464,13
5714096,22
5714712,51
5715344,40
5715976,25
5716592,16
5717224,21
5717848,22
5718480,15
5719108,38
5719728,37
5720360,42
5720984,41
5721608,40
5722236,51
5722856,91
5723488,80
5724112,43
5724736,25
5725368,18
5725988,12
5726620,12
5727252,39
5727872,68
5728508,76
5729132,55
5729764,22
5730392,11
5731016,20
5731648,11
5732276,13
5732900,35
5733532,54
5734152,48
5734788,34
5735412,33
5736036,45
5736664,54
5737288,39
5737916,31
5738548,14
5739168,25
5739800,49
5740424,61
5741052,16
5741684,51
5742304,45
5742932,17
5743560,23
5744184,32
5744812,34
5745432,33
5746060,36
5746684,22
5747312,12
5747940,12
5748564,17
5749196,29
5749828,54
5750448,50
5751076,19
5751700,17
5752328,37
5752956,62
5753576,59
5754208,62
5754832,41
5755456,12
5756088,12
5756704,12
5757336,16
5757964,11
5758584,14
5759216,22
5759840,29
5760472,30
5761100,32
5761720,33
5762348,34
5762972,24
5763596,19
5764224,28
5764840,11
5765472,14
5766092,12
5766716,13
5767348,10
5767968,24
5768596,31
5769228,29
5769848,52
5770476,54
5771100,35
5771732,20
5772360,10
5772984,21
5773612,21
5774236,11
5774860,17
5775492,16
5776112,10
5776740,42
5777364,52
5777988,35
5778616,38
5779240,43
5779868,13
5780500,64
5781120,85
5781748,31
5782372,15
5783004,15
5783636,48
5784256,26
5784884,15
5785508,42
5786136,64
5786764,52
5787384,35
5788012,19
5788636,31
5789260,40
5789892,18
5790512,11
5791144,22
5791772,12
5792392,13
5793020,56
5793644,101
5794328,38
5794952,32
5795568,35
5796200,32
5796824,29
5797448,27
5798076,12
5798696,11
5799324,19
5799956,32
5800576,43
5801204,41
5801828,43
5802460,29
5803088,31
5803712,39
5804344,57
5804968,25
5805592,16
5806220,69
5806840,52
5807468,21
5808096,16
5808716,13
5809348,42
5809968,26
5810596,27
5811228,30
5811848,33
5812476,35
5813100,15
5813732,17
5814364,11
5814984,26
5815616,36
5816240,24
5816864,42
5817492,26
5818112,15
5818740,49
5819368,76
5819992,60
5820620,35
5821240,32
5821872,25
5822500,12
5823120,15
5823752,37
5824376,12
5825004,33
5825636,14
5826256,15
5826884,24
5827508,33
5828136,33
5828764,62
5829384,71
5830016,35
5830640,38
5831264,36
5831896,20
5832520,17
5833152,21
5833780,13
5834400,23
5835028,13
5835656,53
5836288,62
5836916,55
5837536,51
5838164,24
5838788,53
5839412,16
5840044,46
5840664,23
5841292,10
5841916,11
5842544,21
5843172,15
5843800,33
5844428,33
5845060,32
5845680,32
5846312,25
5846936,45
5847560,47
5848188,26
5848808,12
5849436,18
5850064,22
5850688,19
5851320,14
5851936,52
5852568,61
5853196,40
5853816,62
5854448,55
5855072,44
5855704,15
5856332,45
5856952,57
5857584,21
5858208,10
5858832,15
5859460,24
5860080,22
5860708,32
5861336,31
5861960,35
5862592,34
5863208,15
5863836,18
5864468,10
5865088,13
5865716,13
5866344,15
5866972,16
5867604,16
5868224,28
5868856,29
5869480,40
5870104,60
5870732,76
5871352,56
5871984,26
5872608,13
5873236,25
5873864,28
5874488,14
5875120,32
5875752,35
5876372,30
5877000,30
5877628,34
5878260,39
5878888,34
5879512,33
5880144,12
5880768,18
5881392,18
5882024,12
5882644,11
5883272,13
5883900,30
5884524,36
5885156,19
5885780,73
5886412,63
5887044,50
5887664,42
5888296,12
5888920,23
5889544,35
5890176,16
5890796,52
5891424,34
5892048,11
5892672,20
5893304,44
5893924,33
5894552,33
5895184,34
5895804,43
5896436,30
5897060,13
5897692,11
5898320,19
5898944,11
5899572,44
5900196,53
5900820,33
5901448,26
5902072,40
5902704,59
5903328,60
5903952,41
5904584,30
5905200,10
5905832,32
5906464,51
5907080,29
5907712,11
5908336,15
5908968,39
5909596,55
5910216,35
5910848,31
5911472,32
5912096,36
5912728,50
5913344,43
5913976,24
5914600,21
5915224,48
5915852,61
5916472,19
5917104,46
5917732,58
5918352,61
5918984,41
5919608,47
5920240,35
5920868,45
5921488,58
5922116,89
5922740,105
5923416,88
5924048,16
5924664,72
5925292,77
5925924,60
5926544,39
5927172,34
5927800,40
5928428,51
5929060,38
5929680,33
5930308,13
5930932,23
5931556,13
5932188,10
5932808,13
5933436,14
5934064,17
5934688,13
5935320,53
5935944,86
5936576,105
5937260,104
5937932,62
5938560,15
5939184,33
5939808,42
5940440,26
5941064,33
5941692,35
5942324,32
5942944,15
5943572,44
5944200,47
5944828,33
5945460,84
5946080,40
5946708,25
5947332,16
5947960,20
5948588,59
5949208,62
5949840,35
5950468,21
5951088,25
5951720,41
5952344,27
5952972,46
5953604,49
5954224,34
5954852,12
5955480,15
5956104,25
5956732,38
5957352,40
5957984,56
5958608,47
5959232,12
5959864,11
5960480,34
5961108,32
5961740,48
5962360,75
5962992,79
5963616,41
5964244,13
5964876,10
5965496,24
5966124,16
5966748,17
5967376,37
5968004,16
5968624,32
5969256,33
5969880,35
5970504,33
5971136,35
5971752,34
5972384,23
5973016,12
5973632,31
5974264,45
5974888,36
5975520,15
5976148,11
5976768,28
5977400,42
5978024,35
5978648,37
5979280,32
5979896,19
5980528,52
5981152,49
5981780,33
5982408,80
5983032,92
5983664,108
5984348,76
5984968,38
5985596,30
5986224,35
5986848,70
5987480,50
5988096,28
5988728,38
5989352,55
5989976,38
5990608,12
5991224,10
5991852,18
5992484,11
5993104,23
5993736,47
5994360,40
5994992,39
5995620,38
5996240,27
5996872,22
5997496,31
5998120,25
5998752,30
5999368,11
6000000,12
6000624,11
6001248,11
6001876,25
6002504,29
6003132,34
6003764,32
6004384,34
6005016,19
6005640,48
6006272,32
6006900,15
6007520,15
6008152,33
6008776,32
6009400,11
6010032,24
6010648,60
6011280,40
6011912,40
6012528,52
6013160,25
6013784,20
6014416,34
6015044,22
6015664,11
6016296,22
6016920,13
6017544,23
6018176,46
6018796,33
6019428,33
6020052,43
6020676,40
6021308,28
6021928,14
6022556,43
6023188,58
6023808,30
6024440,31
6025064,32
6025692,40
6026324,10
6026944,32
6027576,47
6028200,50
6028824,32
6029452,44
6030072,28
6030704,19
6031328,15
6031952,10
6032584,12
6033208,18
6033840,12
6034468,22
6035088,14
6035720,48
6036344,61
6036976,71
6037608,65
6038224,58
6038856,12
6039484,14
6040108,47
6040740,36
6041360,26
6041992,13
6042616,27
6043240,14
6043868,65
6044496,104
6045176,56
6045808,45
6046424,25
6047056,24
6047680,51
6048304,44
6048932,13
6049552,45
6050184,67
6050808,16
6051432,40
6052064,39
6052688,35
6053320,34
6053952,43
6054568,65
6055200,20
6055824,24
6056456,24
6057084,24
6057704,15
6058336,11
6058960,16
6059584,13
6060216,46
6060836,35
6061464,36
6062096,40
6062716,33
6063348,38
6063972,16
6064604,27
6065236,14
6065856,24
6066488,27
6067112,26
6067736,19
6068368,13
6068988,36
6069616,35
6070244,39
6070868,36
6071500,16
6072120,10
6072752,24
6073384,34
6074004,13
6074632,11
6075260,16
6075888,13
6076520,15
6077144,27
6077776,39
6078400,41
6079024,33
6079656,31
6080276,13
6080904,18
6081532,12
6082156,29
6082788,37
6083412,52
6084040,18
6084668,58
6085288,45
6085916,33
6086544,33
6087172,34
6087804,57
6088424,49
6089052,33
6089680,31
6090304,46
6090932,43
6091552,45
6092184,40
6092816,19
6093432,20
6094064,32
6094688,32
6095320,32
6095948,33
6096568,19
6097200,23
6097824,15
6098448,14
6099080,12
6099696,54
6100328,92
6100952,80
6101576,44
6102208,29
6102828,32
6103460,31
6104088,38
6104712,33
6105344,40
6105968,45
6106596,17
6107228,24
6107848,53
6108480,42
6109104,22
6109728,15
6110360,30
6110980,31
6111612,35
6112236,33
6112860,35
6113492,23
6114116,30
6114748,23
6115380,20
6116000,37
6116632,39
6117256,23
6117888,21
6118520,57
6119136,66
6119768,42
6120392,33
6121016,33
6121648,27
6122264,37
6122896,59
6123528,41
6124144,24
6124776,36
6125404,24
6126036,22
6126668,16
6127288,28
6127920,31
6128544,32
6129172,36
6129804,16
6130424,11
6131056,27
6131680,18
6132308,17
6132940,12
6133560,16
6134192,48
6134824,43
6135448,30
6136080,51
6136708,56
6137340,49
6137972,40
6138592,39
6139228,57
6139852,61
6140476,40
6141112,21
6141732,15
6142364,55
6142996,48
6143620,29
6144252,30
6144876,32
6145504,36
6146132,31
6146752,11
6147380,10
6148004,16
6148628,23
6149256,35
6149872,36
6150504,52
6151128,38
6151752,23
6152380,29
6153000,44
6153628,60
6154260,51
6154880,32
6155508,16
6156132,30
6156764,40
6157396,28
6158016,21
6158648,14
6159272,11
6159896,12
6160528,30
6161144,32
6161772,44
6162396,33
6163024,37
6163656,57
6164272,43
6164904,12
6165532,18
6166152,29
6166784,26
6167408,12
6168036,13
6168668,34
6169288,37
6169920,50
6170540,55
6171164,48
6171796,38
6172416,48
6173044,33
6173672,15
6174296,15
6174924,11
6175544,26
6176176,26
6176804,18
6177424,32
6178052,32
6178680,34
6179308,34
6179940,26
6180560,17
6181188,11
6181816,10
6182440,16
6183068,35
6183688,42
6184316,21
6184944,20
6185568,59
6186200,61
6186824,45
6187452,45
6188084,32
6188704,42
6189336,59
6189960,50
6190592,43
6191220,32
6191840,18
6192472,27
6193096,29
6193720,29
6194352,31
6194968,31
6195600,37
6196232,49
6196848,68
6197480,49
6198104,15
6198736,33
6199364,62
6199984,39
6200616,35
6201240,17
6201864,33
6202496,68
6203112,57
6203744,40
6204368,42
6204992,40
6205624,48
6206240,33
6206872,31
6207500,42
6208120,32
6208752,33
6209376,56
6210004,17
6210636,42
6211256,35
6211888,33
6212512,36
6213136,20
6213764,23
6214384,36
6215016,31
6215640,41
6216268,33
6216896,38
6217520,34
6218152,57
6218784,33
6219400,31
6220032,33
6220660,43
6221292,40
6221920,40
6222544,51
6223176,46
6223800,33
6224424,22
6225056,17
6225676,15
6226308,17
6226932,31
6227556,41
6228184,39
6228808,32
6229440,35
6230068,24
6230688,14
6231320,18
6231944,17
6232576,17
6233204,29
6233824,31
6234456,12
6235080,19
6235704,47
6236336,36
6236952,41
6237584,34
6238216,34
6238836,13
6239464,31
6240092,22
6240720,12
6241348,39
6241968,33
6242596,24
6243220,83
6243848,48
6244476,32
6245096,37
6245728,47
6246352,30
6246976,16
6247608,21
6248224,13
6248852,10
6249484,10
6250104,16
6250732,15
6251360,12
6251988,40
6252620,45
6253240,45
6253868,46
6254496,46
6255120,23
6255748,17
6256368,29
6257000,11
6257624,13
6258248,15
6258876,10
6259496,15
6260128,27
6260756,38
6261376,42
6262008,40
6262632,34
