tempo_arduino_micro_s,valor_ADC
500,15
1004,37
1500,38
2000,40
2504,40
3000,42
3508,46
4000,33
4508,29
5000,23
5500,16
6000,10
6500,10
7000,22
7500,66
8000,64
8500,40
9000,23
9500,38
10000,48
10508,52
11028,51
11556,51
12076,52
12604,43
13124,47
13652,50
14172,43
14700,21
15220,10
15748,10
16268,22
16796,32
17316,34
17836,34
18356,32
18876,40
19396,42
19916,41
20436,39
20956,22
21476,24
21996,17
22516,10
23036,10
23564,15
24084,37
24612,55
25132,49
25660,37
26180,38
26708,51
27228,55
27756,51
28276,45
28804,36
29324,35
29852,40
30372,41
30900,39
31420,18
31948,10
32468,11
32996,10
33516,11
34044,17
34564,45
35092,41
35612,41
36140,41
36660,40
37188,24
37708,23
38236,28
38760,18
39284,14
39804,12
40332,14
40852,39
41372,44
41892,45
42412,30
42932,46
43452,58
43972,51
44492,43
45012,41
45532,22
46052,23
46572,47
47092,48
47612,46
48140,39
48660,43
49188,35
49708,15
50236,44
50760,39
51284,36
51804,38
52332,40
52852,41
53380,44
53900,23
54428,21
54948,17
55476,16
55996,21
56524,29
57044,35
57572,51
58096,62
58620,65
59140,32
59668,47
60188,57
60716,55
61240,58
61764,53
62284,53
62812,75
63332,84
63860,55
64384,22
64908,16
65428,12
65948,10
66468,23
66988,27
67508,17
68028,37
68548,39
69068,40
69588,42
70108,41
70628,23
71148,12
71672,10
72192,19
72716,29
73236,25
73764,15
74284,14
74812,21
75332,52
75860,50
76384,40
76908,69
77428,60
77956,49
78480,44
79004,29
79528,37
80052,45
80572,47
81100,46
81620,28
82148,13
82668,13
83196,31
83720,30
84244,14
84764,41
85292,40
85812,41
86340,41
86860,43
87388,23
87908,23
88436,28
88956,16
89484,11
90004,18
90524,29
91044,44
91564,38
92084,33
92604,20
93124,50
93644,60
94164,65
94684,50
95208,41
95724,35
96248,49
96764,52
97292,43
97812,28
98340,22
98860,21
99388,15
99908,19
100436,37
101000,30
101584,33
102156,42
102736,41
103304,43
103880,30
104456,35
105024,35
105600,27
106168,15
106744,16
107312,18
107896,33
108464,41
109040,35
109624,40
110192,51
110768,54
111336,75
111920,84
112492,56
113072,17
113640,30
114216,49
114800,17
115368,13
115952,13
116520,27
117104,16
117676,22
118252,34
118832,41
119400,46
119984,42
120556,23
121136,16
121704,12
122288,27
122856,18
123436,22
124016,33
124584,31
125168,24
125736,22
126320,39
126892,44
127464,51
128048,60
128616,57
129192,52
129760,59
130344,67
130912,61
131496,25
132064,26
132640,43
133224,35
133792,24
134376,29
134948,34
135528,41
136096,42
136672,41
137248,24
137816,18
138400,15
138968,33
139544,45
140112,47
140696,29
141268,27
141840,27
142424,14
142992,50
143576,49
144144,50
144728,53
145296,60
145872,59
146456,73
147024,86
147608,58
148176,31
148760,33
149328,68
149912,41
150484,21
151056,33
151640,35
152212,42
152792,44
153364,43
153944,39
154512,42
155088,11
155672,11
156244,11
156824,20
157392,32
157976,48
158548,42
159128,21
159700,43
160276,62
160856,59
161424,58
162008,57
162576,61
163160,50
163732,34
164308,38
164888,18
165456,11
166032,19
166600,21
167184,11
167752,38
168336,35
168904,38
169472,43
170056,42
170624,27
171208,24
171776,16
172352,11
172920,14
173504,28
174072,26
174652,21
175232,41
175800,45
176384,37
176952,51
177536,56
178108,53
178680,47
179264,56
179832,75
180408,83
180976,58
181560,16
182128,10
182712,12
183284,12
183856,14
184440,39
185008,48
185584,45
186156,42
186736,43
187304,17
187880,31
188464,41
189032,35
189616,24
190184,32
190768,33
191336,36
191920,47
192500,40
193072,36
193656,48
194224,53
194808,63
195376,70
195960,63
196532,70
197108,62
197688,43
198256,24
198840,29
199408,24
199992,12
200564,23
201144,37
201716,35
202292,42
202872,41
203444,42
204024,36
204596,47
205176,25
205744,12
206312,13
206896,32
207464,34
208040,21
208608,13
209184,13
209752,54
210336,63
210904,62
211480,46
212064,32
212632,26
213216,35
213784,33
214368,31
214940,15
215516,10
216096,16
216664,25
217248,17
217816,39
218400,39
218968,42
219552,42
220120,40
220700,15
221280,35
221848,34
222432,15
223000,17
223584,14
224156,25
224728,62
225312,66
225880,29
226464,46
227032,62
227616,59
228188,51
228768,40
229336,35
229916,36
230496,33
231064,30
231648,13
232216,10
232800,15
233368,19
233944,18
234528,39
235100,40
235680,42
236248,43
236832,41
237400,15
237984,14
238556,11
239132,16
239712,30
240284,30
240864,31
241432,22
242016,19
242584,26
243160,43
243744,46
244316,49
244896,48
245464,24
246048,11
246616,48
247200,60
247768,41
248344,27
248928,16
249496,14
250080,21
250648,18
251232,37
251800,40
252380,41
252960,40
253528,45
254112,13
254684,11
255264,13
255836,23
256416,27
256992,32
257560,44
258136,42
258704,36
259288,26
259856,60
260432,61
261000,51
261584,50
262160,40
262728,35
263312,21
263880,15
264464,20
265032,15
265616,13
266184,12
266764,11
267344,15
267912,38
268496,41
269064,41
269648,41
270216,44
270800,11
271376,17
271944,19
272528,16
273096,30
273680,32
274248,18
274832,24
275404,14
275976,33
276560,44
277128,42
277712,43
278284,41
278864,44
279436,54
280016,53
280592,43
281164,26
281744,13
282312,14
282896,11
283464,15
284048,33
284620,43
285196,43
285776,43
286348,41
286928,40
287496,22
288080,21
288648,21
289224,12
289800,19
290368,27
290952,32
291524,46
292104,51
292672,37
293256,51
293828,54
294404,53
294984,58
295556,58
296136,53
296708,50
297288,51
297856,40
298440,19
299016,10
299588,15
300168,18
300740,14
301320,35
301900,40
302480,42
303060,52
303636,42
304216,11
304788,18
305368,15
305940,37
306520,45
307092,41
307668,52
308248,36
308816,25
309400,41
309972,46
310552,47
311124,51
311704,51
312276,57
312852,60
313432,67
314004,58
314584,31
315156,19
315736,15
316316,11
316892,12
317472,16
318044,42
318624,47
319196,42
319776,43
320356,32
320936,20
321504,20
322080,12
322664,12
323232,13
323816,22
324388,45
324968,46
325536,42
326116,40
326696,54
327268,57
327848,53
328416,46
329000,42
329568,47
330144,56
330712,59
331288,37
331872,19
332444,11
333024,17
333592,9
334116,18
334688,34
335272,41
335844,42
336416,43
337000,41
337568,37
338152,16
338720,11
339304,12
339872,26
340448,35
341032,46
341600,30
342184,30
342756,39
343336,46
343904,42
344488,47
345056,51
345636,45
346216,39
346788,27
347368,28
347936,12
348520,23
349088,14
349664,19
350248,21
350820,19
351400,42
351972,50
352552,45
353128,42
353712,27
354280,22
354856,21
355440,12
356012,12
356592,31
357164,55
357744,45
358316,16
358892,13
359472,39
360044,44
360624,55
361196,72
361776,68
362344,65
362928,52
363500,43
364076,42
364656,41
365228,34
365808,20
366380,23
366960,35
367532,27
368108,39
368688,41
369256,43
369840,44
370408,26
370992,15
371564,24
372144,20
372716,22
373292,42
373872,36
374444,34
375024,31
375596,40
376176,39
376756,42
377332,56
377912,63
378484,63
379064,52
379636,40
380216,39
380788,61
381368,35
381948,17
382524,14
383104,14
383676,22
384260,30
384832,40
385416,45
385988,40
386560,40
387144,27
387716,17
388296,30
388868,35
389448,18
390016,25
390600,37
391176,47
391748,41
392328,25
392896,45
393480,60
394052,56
394632,50
395204,50
395780,63
396360,79
396932,62
397512,32
398084,10
398664,11
399236,15
399816,11
400400,17
400972,31
401552,38
402124,47
402704,47
403276,44
403856,46
404424,40
405004,19
405584,11
406156,20
406736,15
407316,38
407896,38
408476,26
409052,18
409632,38
410204,41
410784,53
411352,51
411936,49
412504,47
413088,39
413656,39
414232,49
414816,32
415384,11
415968,23
416540,38
417120,31
417688,35
418264,39
418840,42
419408,39
419992,38
420560,18
421144,21
421712,13
422296,12
422868,17
423440,19
424024,29
424592,42
425176,48
425744,30
426328,42
426896,47
427472,50
428056,51
428628,46
429208,41
429776,56
430360,59
430932,53
431512,28
432084,11
432656,18
433240,38
433812,34
434392,36
434964,39
435544,41
436112,42
436692,44
437272,22
437844,13
438424,15
438992,21
439576,24
440148,25
440728,13
441296,11
441872,45
442456,33
443028,54
443608,69
444180,51
444760,43
445332,35
445908,33
446488,41
447060,44
447640,22
448212,26
448792,14
449360,11
449944,18
450512,18
451092,36
451672,38
452244,40
452824,43
453392,43
453976,15
454548,23
455120,35
455704,37
456276,26
456856,29
457428,53
458008,57
458588,45
459168,25
459740,49
460316,52
460896,55
461468,52
462048,47
462620,50
463200,44
463772,39
464348,32
464928,22
465496,22
466080,15
466648,11
467232,18
467800,38
468384,39
468956,42
469532,40
470112,40
470684,15
471264,17
471836,22
472416,18
472996,13
473572,10
474152,36
474724,47
475304,51
475876,32
476456,49
477036,48
477616,57
478188,63
478764,65
479344,60
479916,46
480500,28
481072,26
481656,13
482224,14
482804,22
483384,24
483956,14
484536,34
485108,40
485688,46
486268,48
486848,43
487416,22
487996,14
488576,11
489148,11
489728,37
490300,70
490880,61
491452,37
492028,21
492608,33
493180,59
493760,56
494328,54
494912,55
495484,72
496064,77
496632,77
497212,50
497792,11
498364,21
498944,12
499516,24
500096,38
500668,27
501244,34
501824,40
502396,44
502976,42
503548,37
504128,32
504708,24
505288,23
505864,37
506436,51
507016,32
507588,22
508168,15
508740,24
509320,36
509900,49
510476,55
511056,59
511632,51
512212,27
512784,33
513360,55
513928,66
514512,44
515088,22
515656,10
516240,34
516808,43
517392,33
517964,34
518544,39
519112,42
519692,40
520272,34
520840,30
521424,24
521996,22
522576,29
523144,50
523728,59
524304,51
524876,29
525456,15
526024,45
526608,54
527180,65
527760,70
528340,57
528912,39
529496,35
530068,63
530648,65
531220,24
531800,15
532372,11
532948,19
533528,22
534100,19
534680,35
535252,40
535832,40
536404,40
536984,28
537556,11
538132,11
538712,19
539284,37
539864,42
540436,34
541016,40
541588,37
542164,32
542744,37
543312,45
543896,56
544468,62
545048,65
545620,59
546200,40
546772,51
547348,33
547928,18
548500,18
549080,27
549652,19
550232,11
550804,21
551380,42
551960,53
552532,41
553112,39
553684,23
554264,27
554836,34
555416,17
555996,11
556572,10
557152,14
557724,37
558304,33
558884,44
559464,36
560036,47
560608,61
561192,74
561764,59
562344,12
562916,11
563496,37
564076,62
564656,39
565228,17
565804,14
566384,40
566956,27
567536,29
568108,42
568688,43
569256,46
569836,43
570416,18
570988,11
571568,17
572140,15
572720,20
573300,42
573880,49
574460,34
575036,15
575616,14
576188,47
576768,54
577336,46
577920,49
578488,51
579068,51
579648,55
580220,50
580800,41
581368,27
581952,21
582524,11
583104,23
583676,31
584256,33
584832,37
585404,41
585984,41
586556,50
587136,46
587716,17
588292,10
588872,11
589444,15
590024,51
590596,76
591176,71
591756,56
592336,34
592920,48
593492,76
594072,81
594644,71
595224,62
595796,60
596376,67
596956,68
597532,53
598112,14
598684,14
599264,24
599844,46
600424,41
601004,37
601580,40
602164,41
602732,41
603312,39
603884,28
604464,35
605044,18
605624,12
606196,11
606772,12
607352,27
607924,45
608504,39
609084,24
609664,41
610244,51
610820,57
611400,54
611972,41
612552,29
613128,51
613704,57
614284,24
614868,18
615448,14
616020,11
616600,10
617172,15
617752,39
618324,43
618904,40
619476,42
620052,42
620632,21
621204,18
621784,10
622356,12
622936,11
623516,24
624092,31
624672,30
625244,32
625824,24
626396,42
626976,43
627556,42
628136,40
628708,41
629284,65
629864,82
630436,77
631016,46
631596,20
632176,11
632756,29
633332,44
633912,35
634488,40
635064,41
635636,42
636216,43
636796,39
637380,19
637960,20
638536,20
639112,12
639688,12
640268,14
640840,39
641424,56
641996,50
642572,39
643152,46
643724,66
644304,76
644876,67
645456,58
646024,43
646608,23
647184,13
647756,13
648336,21
648904,12
649488,14
650060,11
650640,15
651212,35
651788,41
652368,40
652940,43
653520,37
654092,25
654672,32
655244,14
655824,14
656408,53
656976,65
657552,60
658124,49
658704,25
659276,38
659856,42
660424,51
661004,62
661584,61
662156,61
662736,51
663308,63
663888,64
664460,38
665040,9
665560,21
666132,52
666712,62
667280,25
667864,37
668432,41
669016,41
669584,43
670164,35
670744,14
671312,21
671896,11
672468,21
673048,12
673616,50
674200,69
674772,50
675348,32
675928,38
676496,44
677080,58
677652,72
678232,60
678804,38
679376,36
679960,37
680532,39
681112,19
681684,10
682264,10
682832,14
683416,17
683988,15
684564,37
685144,40
685716,41
686296,40
686868,37
687448,32
688020,11
688592,13
689176,28
689748,28
690328,26
690900,44
691480,53
692052,38
692632,46
693204,67
693780,60
694360,57
694932,50
695512,52
696092,57
696672,47
697240,50
697820,20
698400,11
698968,10
699552,12
700124,23
700704,28
701276,34
701856,39
702436,42
703012,45
703592,29
704168,20
704744,22
705316,18
705896,17
706468,28
707044,27
707624,34
708196,35
708776,36
709348,44
709928,71
710500,55
711080,43
711652,44
712228,52
712808,34
713380,25
713960,35
714540,18
715120,15
715700,10
716276,17
716856,11
717428,35
718008,39
718580,41
719160,41
719732,41
720312,27
720892,14
721464,13
722048,11
722616,10
723200,43
723768,54
724352,42
724924,27
725500,14
726080,41
726652,42
727232,42
727804,50
728384,63
728956,39
729536,31
730120,39
730692,41
731272,26
731844,17
732424,11
733004,31
733584,32
734156,31
734732,35
735312,42
735884,40
736464,42
737044,22
737624,18
738192,12
738772,17
739352,15
739924,11
740504,17
741076,19
741656,25
742228,32
742808,35
743384,56
743964,58
744544,47
745116,43
745696,43
746268,56
746848,52
747420,47
747996,25
748576,10
749148,18
749728,30
750300,22
750880,36
751460,36
752040,42
752620,40
753196,44
753776,37
754348,25
754928,13
755508,10
756088,14
756668,31
757244,43
757824,37
758396,30
758980,14
759552,58
760128,67
760708,51
761288,43
761872,30
762444,18
763024,51
763596,74
764176,47
764756,11
765340,11
765916,14
766492,12
767072,22
767648,40
768228,38
768800,53
769384,51
769956,50
770532,25
771112,11
771684,10
772264,24
772836,32
773416,29
773988,27
774568,22
775148,23
775724,21
776304,44
776876,60
777456,52
778036,44
778616,52
779196,49
779772,35
780352,16
780924,13
781504,16
782076,19
782656,21
783236,11
783816,14
784400,37
784972,40
785552,38
786124,41
786704,39
787276,11
787856,16
788428,14
789004,17
789584,36
790156,23
790736,32
791316,62
791896,70
792476,35
793052,66
793632,76
794204,55
794784,44
795356,47
795936,38
796516,25
797096,27
797676,28
798252,32
798836,11
799408,45
799984,35
800564,15
801144,35
801716,43
802292,39
802872,41
803444,40
804024,20
804592,11
805176,11
805748,10
806328,23
806908,27
807484,31
808064,29
808636,31
809216,37
809796,56
810376,57
810948,50
811524,44
812104,34
812676,39
813256,46
813828,46
814408,26
814988,20
815568,27
816152,11
816724,10
817304,15
817876,32
818456,42
819036,39
819620,41
820192,27
820760,37
821344,44
821912,46
822496,30
823064,29
823648,24
824220,27
824792,28
825376,29
825944,38
826528,56
827096,67
827680,56
828248,48
828832,42
829400,42
829980,30
830560,28
831128,19
831712,29
832284,17
832864,37
833432,40
834008,19
834592,34
835160,39
835744,43
836316,46
836896,21
837464,47
838048,53
838620,24
839192,14
839776,20
840344,17
840928,26
841496,42
842080,41
842648,40
843224,52
843808,57
844380,49
844960,46
845528,47
846104,51
846672,53
847256,50
847828,15
848404,18
848984,11
849552,19
850136,31
850708,29
851288,32
851856,40
852436,40
853016,39
853588,22
854168,10
854740,10
855320,10
855892,11
856472,31
857044,35
857620,30
858200,26
858772,16
859352,43
859924,55
860504,56
861084,47
861660,41
862240,30
862812,36
863392,35
863964,26
864544,14
865124,16
865704,12
866272,15
866852,11
867432,34
868004,35
868584,43
869156,43
869736,40
870308,17
870884,17
871464,17
872036,12
872616,14
873188,24
873768,41
874336,38
874920,33
875492,29
876068,35
876648,47
877220,56
877800,50
878372,52
878952,63
879532,40
880108,12
880688,15
881256,11
881840,10
882412,15
882992,10
883564,14
884144,33
884716,35
885292,56
885872,46
886444,41
887024,16
887596,15
888176,29
888756,34
889332,21
889912,35
890484,31
891064,13
891636,17
892216,17
892788,39
893368,61
893948,59
894528,54
895104,57
895680,48
896256,43
896832,29
897416,20
897988,19
898564,26
899144,12
899716,42
900296,25
900868,39
901448,43
902016,43
902600,37
903176,40
903748,26
904328,24
904896,14
905480,16
906052,31
906632,37
907204,33
907780,23
908360,16
908932,13
909512,46
910084,62
910664,68
911236,42
911816,31
912400,12
912972,39
913552,34
914124,26
914704,13
915276,15
915856,37
916428,35
917004,13
917584,41
918156,46
918736,40
919316,39
919896,41
920476,37
921052,35
921632,31
922204,13
922784,14
923356,11
923936,25
924508,20
925088,30
925660,45
926236,38
926816,41
927388,45
927968,49
928540,60
929120,63
929692,58
930268,40
930848,15
931420,11
932000,16
932572,20
933152,13
933724,12
934304,38
934884,39
935460,41
936040,38
936612,41
937192,14
937772,13
938352,29
938924,15
939500,10
940080,23
940656,44
941232,37
941808,21
942384,30
942964,56
943544,48
944124,43
944700,46
945280,29
945852,34
946432,54
947012,53
947596,48
948172,28
948748,10
949328,47
949900,43
950480,29
951060,35
951640,40
952220,43
952796,41
953376,36
953952,12
954528,14
955100,14
955680,17
956260,12
956840,54
957420,95
957996,90
958580,61
959152,36
959732,49
960308,57
960888,56
961460,50
962036,45
962616,45
963188,43
963768,41
964340,23
964920,13
965492,10
966072,20
966644,17
967220,15
967800,35
968372,36
968952,39
969524,37
970104,31
970684,35
971260,32
971840,18
972412,17
972992,36
973564,38
974144,46
974716,42
975296,34
975880,39
976452,62
977032,56
977604,58
978184,56
978756,38
979336,37
979916,53
980492,43
981072,19
981644,16
982224,18
982804,13
983384,26
983964,20
984540,34
985120,38
985692,39
986272,40
986844,21
987424,12
987996,18
988576,45
989156,39
989732,16
990312,12
990884,12
991464,21
992036,36
992616,35
993188,49
993764,53
994344,43
994916,47
995496,36
996068,46
996648,44
997220,38
997800,12
998372,24
998948,38
999528,31
1000100,23
1000724,30
1001348,37
1001976,43
1002604,38
1003224,43
1003852,55
1004476,27
1005100,13
1005728,23
1006344,11
1006972,35
1007596,40
1008220,35
1008848,30
1009472,36
1010100,52
1010728,47
1011348,42
1011976,40
1012600,46
1013228,48
1013860,48
1014480,21
1015108,17
1015732,11
1016356,15
1016984,20
1017608,35
1018236,37
1018860,39
1019484,40
1020116,23
1020740,17
1021368,23
1022000,14
1022616,11
1023248,21
1023872,47
1024504,51
1025132,22
1025748,39
1026376,61
1027000,59
1027620,43
1028248,41
1028868,34
1029496,34
1030120,43
1030740,25
1031372,14
1031992,15
1032620,17
1033248,25
1033864,17
1034492,31
1035116,38
1035744,42
1036372,40
1036992,15
1037620,10
1038240,11
1038864,11
1039492,14
1040112,45
1040740,53
1041360,26
1041980,14
1042612,44
1043232,58
1043860,61
1044488,49
1045104,43
1045732,30
1046356,33
1046984,30
1047612,16
1048232,11
1048860,10
1049480,30
1050112,23
1050740,36
1051360,42
1051988,38
1052612,41
1053232,41
1053860,14
1054480,15
1055108,15
1055732,12
1056352,18
1056984,15
1057604,25
1058232,48
1058860,35
1059480,45
1060108,54
1060732,39
1061360,41
1061988,27
1062608,38
1063236,38
1063860,41
1064480,32
1065112,27
1065728,13
1066356,29
1066980,17
1067600,34
1068228,38
1068848,37
1069476,41
1070104,27
1070720,27
1071348,11
1071972,33
1072600,24
1073232,17
1073848,21
1074476,25
1075100,40
1075724,35
1076352,40
1076968,47
1077596,53
1078220,49
1078844,26
1079472,30
1080096,32
1080724,33
1081352,25
1081976,15
1082604,22
1083228,31
1083856,21
1084484,30
1085104,38
1085732,42
1086356,37
1086980,15
1087612,10
1088232,15
1088860,23
1089480,25
1090104,14
1090732,16
1091352,31
1091980,31
1092604,36
1093224,45
1093856,47
1094476,47
1095108,43
1095736,43
1096352,43
1096984,43
1097604,28
1098232,17
1098864,10
1099480,23
1100108,44
1100732,35
1101356,39
1101988,38
1102608,38
1103236,39
1103860,13
1104484,31
1105112,11
1105736,29
1106368,14
1106996,48
1107616,32
1108244,13
1108868,14
1109496,33
1110124,39
1110744,43
1111372,44
1111996,34
1112620,20
1113252,22
1113872,41
1114500,41
1115124,41
1115748,21
1116380,11
1117004,17
1117632,34
1118260,39
1118880,41
1119508,38
1120136,25
1120764,14
1121392,12
1122008,19
1122640,19
1123260,17
1123884,30
1124516,47
1125136,35
1125764,36
1126388,44
1127012,51
1127644,54
1128264,42
1128896,20
1129524,30
1130144,34
1130772,25
1131396,13
1132024,12
1132656,32
1133272,35
1133900,23
1134524,35
1135148,37
1135780,38
1136400,41
1137028,19
1137652,14
1138276,11
1138904,22
1139528,19
1140156,13
1140788,30
1141408,32
1142036,29
1142660,33
1143292,38
1143920,46
1144544,54
1145172,41
1145796,50
1146420,59
1147052,48
1147672,20
1148300,16
1148924,12
1149552,26
1150180,25
1150804,35
1151432,36
1152064,38
1152680,39
1153308,31
1153928,18
1154560,23
1155188,26
1155808,31
1156436,26
1157060,21
1157684,21
1158312,15
1158928,28
1159560,60
1160184,54
1160804,50
1161432,42
1162056,22
1162688,21
1163316,28
1163936,34
1164564,28
1165188,11
1165816,28
1166448,34
1167064,16
1167692,36
1168316,36
1168940,39
1169568,38
1170192,16
1170820,33
1171444,49
1172068,34
1172696,24
1173320,25
1173948,26
1174580,27
1175200,20
1175828,43
1176452,46
1177084,42
1177712,48
1178336,55
1178964,45
1179588,40
1180212,15
1180840,14
1181456,35
1182084,27
1182708,40
1183332,72
1183964,31
1184588,43
1185216,43
1185848,42
1186464,46
1187092,28
1187716,20
1188348,20
1188976,11
1189600,16
1190228,14
1190852,19
1191476,18
1192104,14
1192728,37
1193356,42
1193980,40
1194608,47
1195236,51
1195860,38
1196492,33
1197120,40
1197744,32
1198372,16
1199000,13
1199624,13
1200252,13
1200872,37
1201500,36
1202124,43
1202748,39
1203376,23
1204000,13
1204628,15
1205256,14
1205872,11
1206504,18
1207128,46
1207756,31
1208388,19
1209008,35
1209636,49
1210260,38
1210884,40
1211516,39
1212136,40
1212764,64
1213392,52
1214016,15
1214644,15
1215264,19
1215892,19
1216524,11
1217144,22
1217772,33
1218396,36
1219028,40
1219656,38
1220280,17
1220908,20
1221532,13
1222156,12
1222788,16
1223408,35
1224036,33
1224660,17
1225284,26
1225916,36
1226536,41
1227164,61
1227796,57
1228416,53
1229048,31
1229668,31
1230296,29
1230924,10
1231544,13
1232172,12
1232796,28
1233416,30
1234048,35
1234664,39
1235292,35
1235916,39
1236540,35
1237168,15
1237784,15
1238412,11
1239036,10
1239664,23
1240292,32
1240916,30
1241548,32
1242176,26
1242792,36
1243420,42
1244044,46
1244672,60
1245304,50
1245920,23
1246548,19
1247172,41
1247796,33
1248428,22
1249048,12
1249676,32
1250300,31
1250928,32
1251556,38
1252180,36
1252808,39
1253440,21
1254056,18
1254684,11
1255308,10
1255940,14
1256568,28
1257184,18
1257816,12
1258440,24
1259060,33
1259692,38
1260312,49
1260940,55
1261564,38
1262192,37
1262820,53
1263444,37
1264076,12
1264704,12
1265320,12
1265952,46
1266576,63
1267204,32
1267836,35
1268456,39
1269084,41
1269712,43
1270336,17
1270964,28
1271584,17
1272212,22
1272844,16
1273464,15
1274092,30
1274716,35
1275348,32
1275980,36
1276600,41
1277232,45
1277856,47
1278480,52
1279108,63
1279728,45
1280360,27
1280984,12
1281604,18
1282232,10
1282848,14
1283476,11
1284104,40
1284720,38
1285348,37
1285972,42
1286600,37
1287228,20
1287844,11
1288476,10
1289096,11
1289728,23
1290356,26
1290976,25
1291604,31
1292224,29
1292848,47
1293476,49
1294096,53
1294724,43
1295344,18
1295968,27
1296596,50
1297220,51
1297848,15
1298476,12
1299096,22
1299724,20
1300348,16
1300976,30
1301608,35
1302224,38
1302852,40
1303476,15
1304100,10
1304732,14
1305352,17
1305980,32
1306604,49
1307228,54
1307856,37
1308476,24
1309104,35
1309732,38
1310352,40
1310984,39
1311604,32
1312232,66
1312860,80
1313476,53
1314108,40
1314728,41
1315348,13
1315980,30
1316600,19
1317228,31
1317848,37
1318472,43
1319100,42
1319720,37
1320348,17
1320976,13
1321592,14
1322220,11
1322844,16
1323472,27
1324100,38
1324720,39
1325348,22
1325972,36
1326596,53
1327228,56
1327848,45
1328476,25
1329100,33
1329724,46
1330352,46
1330968,18
1331596,10
1332220,11
1332844,30
1333472,29
1334096,36
1334724,38
1335352,37
1335968,37
1336600,29
1337220,18
1337852,25
1338480,10
1339096,17
1339724,42
1340348,52
1340972,34
1341600,15
1342216,37
1342844,55
1343468,43
1344092,39
1344716,40
1345332,49
1345964,57
1346592,38
1347208,19
1347836,16
1348460,30
1349088,36
1349716,22
1350336,15
1350964,35
1351588,37
1352212,38
1352840,37
1353456,33
1354084,43
1354708,22
1355332,11
1355960,11
1356576,16
1357208,17
1357836,20
1358456,17
1359084,44
1359708,65
1360336,55
1360964,42
1361580,27
1362212,18
1362832,42
1363460,46
1364088,35
1364708,13
1365340,25
1365960,27
1366584,32
1367212,31
1367832,33
1368460,38
1369084,39
1369704,39
1370336,12
1370956,13
1371588,11
1372216,11
1372832,27
1373460,35
1374084,37
1374712,26
1375340,14
1375960,44
1376588,48
1377212,41
1377836,38
1378464,51
1379084,55
1379712,61
1380336,57
1380960,22
1381588,11
1382212,11
1382844,29
1383472,20
1384088,35
1384716,40
1385340,41
1385968,40
1386596,35
1387216,39
1387844,31
1388468,27
1389092,11
1389720,10
1390336,18
1390968,23
1391592,18
1392216,31
1392844,37
1393460,38
1394092,39
1394720,41
1395336,36
1395964,53
1396588,44
1397216,34
1397844,16
1398464,11
1399092,12
1399716,13
1400340,15
1400968,35
1401584,40
1402212,37
1402836,40
1403460,22
1404092,43
1404712,29
1405340,19
1405972,32
1406592,37
1407220,36
1407844,27
1408476,13
1409104,38
1409720,39
1410352,43
1410972,43
1411596,41
1412228,59
1412848,77
1413476,49
1414100,31
1414724,21
1415352,13
1415968,29
1416596,21
1417228,34
1417848,37
1418476,42
1419100,37
1419728,38
1420360,15
1420976,14
1421604,17
1422228,28
1422856,33
1423484,22
1424104,15
1424732,12
1425356,15
1425980,37
1426608,39
1427224,45
1427856,43
1428476,32
1429104,32
1429732,34
1430360,37
1430988,16
1431620,10
1432240,13
1432868,18
1433496,15
1434120,33
1434748,34
1435368,38
1435996,37
1436620,22
1437244,12
1437872,12
1438488,15
1439120,13
1439740,14
1440368,21
1440996,21
1441616,14
1442248,35
1442876,34
1443496,43
1444124,39
1444748,41
1445376,65
1446004,63
1446624,50
1447252,35
1447876,16
1448496,11
1449124,27
1449744,23
1450372,16
1450996,35
1451620,35
1452248,39
1452872,39
1453500,12
1454128,13
1454752,18
1455380,12
1456004,29
1456632,27
1457260,34
1457880,21
1458508,13
1459132,49
1459756,45
1460388,39
1461008,40
1461636,19
1462260,27
1462884,56
1463512,51
1464136,30
1464764,17
1465396,10
1466016,23
1466644,21
1467268,34
1467896,37
1468528,37
1469144,39
1469776,37
1470400,11
1471020,14
1471652,10
1472272,14
1472900,15
1473524,16
1474148,17
1474776,21
1475400,25
1476028,36
1476656,38
1477272,47
1477904,47
1478528,35
1479156,40
1479784,46
1480408,31
1481036,10
1481660,10
1482280,11
1482908,11
1483528,14
1484156,34
1484780,38
1485404,41
1486036,38
1486656,19
1487288,15
1487916,10
1488536,20
1489164,11
1489788,31
1490416,36
1491048,14
1491664,14
1492292,37
1492916,47
1493540,46
1494172,39
1494792,41
1495420,25
1496044,15
1496668,24
1497296,35
1497916,25
1498544,11
1499172,26
1499792,29
1500420,26
1501044,38
1501676,36
1502304,39
1502924,41
1503552,25
1504176,16
1504800,16
1505428,36
1506048,27
1506676,38
1507300,58
1507924,33
1508556,12
1509176,45
1509804,47
1510436,46
1511056,47
1511684,48
1512308,44
1512940,42
1513568,30
1514192,15
1514824,15
1515448,14
1516072,29
1516700,25
1517320,35
1517948,39
1518572,40
1519196,39
1519828,31
1520452,15
1521084,11
1521712,20
1522332,19
1522960,22
1523584,24
1524212,15
1524844,18
1525464,32
1526092,42
1526716,53
1527340,51
1527972,52
1528592,45
1529220,33
1529848,34
1530472,32
1531100,18
1531724,25
1532356,12
1532988,32
1533608,27
1534236,33
1534864,39
1535496,38
1536128,39
1536740,15
1537372,11
1537992,19
1538616,15
1539244,11
1539860,25
1540492,33
1541112,37
1541736,23
1542368,42
1542992,45
1543620,45
1544252,52
1544872,53
1545500,45
1546124,49
1546756,54
1547384,16
1548000,10
1548632,11
1549256,11
1549880,17
1550508,33
1551128,38
1551756,46
1552380,52
1553008,43
1553636,11
1554260,12
1554892,10
1555520,12
1556136,11
1556768,15
1557392,37
1558020,45
1558652,15
1559272,64
1559900,72
1560524,61
1561148,48
1561780,23
1562400,13
1563028,15
1563656,30
1564280,13
1564908,11
1565532,19
1566160,39
1566792,34
1567408,35
1568040,37
1568660,39
1569284,39
1569912,21
1570536,24
1571164,21
1571792,18
1572416,15
1573044,18
1573664,41
1574292,42
1574924,29
1575544,38
1576172,43
1576796,49
1577428,55
1578060,58
1578680,52
1579308,54
1579932,35
1580560,21
1581188,10
1581808,11
1582436,14
1583060,17
1583684,18
1584316,31
1584936,38
1585564,37
1586196,40
1586816,27
1587448,31
1588068,33
1588700,13
1589328,11
1589948,12
1590576,24
1591200,35
1591824,31
1592456,33
1593072,48
1593700,48
1594328,47
1594952,22
1595580,20
1596200,32
1596828,37
1597460,16
1598080,17
1598708,13
1599332,19
1599964,25
1600596,36
1601216,39
1601844,38
1602464,40
1603088,35
1603716,10
1604336,13
1604964,22
1605588,18
1606208,18
1606840,33
1607456,31
1608084,14
1608712,22
1609332,50
1609960,40
1610584,40
1611212,46
1611840,39
1612456,33
1613088,37
1613712,34
1614340,26
1614968,25
1615592,19
1616220,40
1616844,23
1617468,35
1618096,40
1618712,39
1619340,38
1619964,16
1620592,14
1621220,25
1621844,27
1622472,23
1623104,29
1623720,27
1624348,12
1624972,17
1625600,39
1626232,39
1626848,47
1627476,49
1628100,45
1628724,21
1629356,14
1629976,27
1630604,20
1631228,12
1631856,17
1632488,11
1633108,11
1633740,26
1634368,35
1634992,42
1635620,39
1636248,40
1636872,12
1637500,13
1638120,21
1638752,27
1639372,58
1639992,50
1640624,19
1641236,19
1641864,16
1642488,44
1643108,54
1643736,59
1644360,60
1644988,52
1645616,23
1646232,22
1646860,39
1647480,22
1648112,11
1648740,9
1649304,16
1649940,13
1650560,36
1651188,39
1651820,38
1652440,39
1653068,36
1653688,13
1654308,11
1654940,26
1655560,47
1656188,37
1656812,22
1657432,17
1658060,28
1658680,27
1659308,43
1659936,47
1660552,43
1661180,45
1661804,51
1662432,47
1663060,28
1663680,29
1664308,14
1664932,18
1665552,16
1666180,13
1666796,15
1667428,33
1668048,40
1668668,40
1669296,37
1669916,24
1670548,18
1671176,25
1671792,12
1672420,11
1673044,20
1673672,24
1674300,12
1674920,15
1675548,37
1676172,38
1676800,44
1677428,43
1678048,47
1678676,24
1679300,22
1679924,33
1680552,40
1681168,24
1681796,11
1682416,22
1683040,26
1683668,20
1684292,33
1684920,40
1685548,38
1686168,40
1686796,21
1687420,19
1688048,11
1688676,14
1689296,19
1689924,15
1690544,14
1691164,16
1691796,24
1692416,33
1693044,43
1693664,41
1694288,42
1694916,34
1695536,38
1696164,45
1696792,45
1697408,34
1698036,22
1698660,13
1699288,29
1699916,18
1700536,35
1701164,37
1701784,36
1702408,40
1703036,38
1703656,12
1704284,16
1704908,11
1705532,40
1706160,51
1706776,40
1707404,33
1708028,32
1708656,23
1709284,61
1709908,58
1710536,46
1711168,38
1711784,38
1712412,54
1713036,51
1713668,26
1714296,10
1714912,10
1715544,15
1716168,19
1716788,15
1717420,34
1718040,40
1718668,39
1719292,39
1719920,25
1720548,11
1721172,14
1721800,14
1722428,16
1723048,11
1723676,30
1724300,44
1724928,33
1725556,36
1726176,43
1726804,45
1727428,45
1728052,38
1728680,15
1729296,41
1729924,54
1730548,30
1731172,12
1731800,10
1732424,17
1733052,15
1733680,30
1734304,39
1734932,38
1735556,39
1736188,40
1736816,29
1737432,24
1738064,13
1738688,13
1739312,27
1739940,24
1740560,21
1741188,25
1741812,17
1742436,41
1743064,53
1743688,49
1744316,43
1744944,35
1745560,42
1746192,49
1746816,33
1747444,13
1748072,19
1748688,16
1749320,13
1749940,19
1750564,36
1751196,44
1751816,48
1752444,41
1753068,35
1753692,13
1754320,12
1754944,15
1755572,13
1756204,32
1756824,35
1757452,19
1758076,13
1758708,30
1759336,40
1759960,46
1760592,57
1761212,67
1761836,52
1762468,31
1763088,20
1763716,21
1764340,20
1764964,11
1765592,18
1766216,30
1766844,15
1767472,31
1768096,39
1768724,39
1769348,42
1769976,16
1770604,25
1771224,33
1771852,21
1772476,22
1773100,31
1773728,43
1774348,45
1774976,15
1775600,45
1776224,53
1776852,50
1777476,46
1778104,45
1778736,42
1779352,46
1779980,47
1780604,33
1781236,15
1781864,11
1782480,31
1783112,41
1783736,33
1784360,37
1784988,37
1785608,41
1786236,39
1786860,19
1787484,13
1788116,16
1788740,12
1789368,16
1790000,24
1790620,35
1791248,38
1791876,22
1792508,43
1793136,53
1793752,59
1794380,59
1795004,58
1795628,23
1796256,23
1796872,40
1797504,17
1798128,10
1798748,19
1799380,16
1800004,22
1800632,39
1801260,38
1801880,39
1802508,41
1803132,28
1803760,45
1804388,34
1805008,27
1805636,15
1806256,17
1806880,35
1807508,44
1808128,26
1808756,42
1809376,53
1810000,43
1810628,44
1811248,50
1811876,31
1812504,23
1813128,33
1813756,33
1814380,25
1815008,15
1815640,17
1816256,29
1816884,18
1817508,39
1818132,38
1818760,43
1819384,41
1820012,18
1820636,13
1821260,10
1821888,14
1822512,33
1823140,38
1823772,50
1824392,45
1825020,20
1825644,44
1826272,60
1826900,54
1827520,48
1828148,37
1828772,39
1829396,45
1830024,38
1830648,19
1831276,11
1831900,12
1832524,15
1833156,21
1833776,35
1834404,37
1835036,38
1835656,39
1836284,37
1836908,21
1837540,28
1838168,16
1838792,28
1839420,45
1840048,34
1840668,17
1841300,14
1841920,17
1842548,43
1843172,47
1843800,47
1844428,48
1845048,45
1845676,44
1846304,46
1846920,26
1847552,15
1848172,18
1848804,13
1849432,10
1850048,17
1850680,45
1851300,40
1851924,37
1852556,38
1853176,27
1853804,34
1854428,32
1855052,14
1855680,14
1856304,26
1856932,38
1857560,28
1858184,24
1858812,35
1859436,47
1860064,47
1860692,46
1861312,41
1861940,37
1862564,49
1863188,51
1863820,36
1864440,19
1865068,13
1865692,17
1866316,39
1866944,23
1867560,34
1868192,40
1868820,40
1869436,40
1870068,36
1870692,31
1871320,11
1871952,21
1872572,13
1873200,42
1873824,48
1874448,31
1875076,18
1875696,37
1876324,42
1876948,45
1877572,43
1878204,30
1878824,26
1879452,38
1880084,42
1880704,28
1881332,16
1881956,11
1882588,12
1883216,11
1883840,39
1884468,40
1885092,39
1885716,41
1886348,30
1886968,20
1887596,20
1888220,11
1888844,12
1889472,26
1890096,32
1890724,32
1891356,43
1891976,35
1892604,53
1893228,54
1893860,39
1894492,42
1895112,38
1895740,54
1896364,63
1896988,51
1897616,12
1898232,26
1898860,21
1899488,17
1900112,15
1900740,33
1901360,38
1901988,37
1902620,44
1903240,26
1903868,11
1904496,11
1905124,12
1905756,20
1906376,36
1907008,27
1907632,23
1908252,28
1908884,36
1909504,53
1910136,64
1910760,59
1911384,40
1912012,46
1912632,41
1913264,21
1913892,20
1914512,27
1915144,11
1915768,32
1916400,60
1917028,36
1917648,40
1918276,38
1918904,40
1919528,40
1920160,16
1920776,22
1921404,14
1922028,11
1922652,14
1923280,19
1923896,31
1924524,41
1925156,29
1925776,40
1926404,57
1927024,47
1927656,47
1928284,34
1928904,42
1929532,44
1930156,37
1930780,29
1931412,33
1932032,17
1932660,18
1933284,29
1933908,37
1934540,40
1935160,41
1935792,39
1936420,28
1937040,27
1937668,34
1938292,38
1938920,43
1939552,32
1940168,35
1940800,33
1941420,16
1942044,36
1942676,56
1943296,57
1943924,63
1944552,61
1945176,21
1945804,18
1946424,33
1947052,29
1947680,44
1948296,55
1948928,20
1949552,39
1950180,25
1950812,36
1951432,41
1952060,41
1952684,42
1953308,15
1953936,21
1954560,13
1955188,11
1955812,15
1956436,27
1957068,32
1957688,38
1958316,34
1958948,34
1959568,47
1960196,51
1960820,53
1961452,48
1962080,53
1962704,56
1963336,53
1963960,13
1964584,21
1965212,18
1965832,37
1966464,23
1967084,35
1967708,39
1968340,38
1968960,40
1969588,38
1970220,14
1970840,25
1971468,21
1972092,19
1972720,29
1973348,31
1973968,30
1974596,40
1975220,31
1975844,44
1976472,46
1977096,45
1977724,44
1978348,31
1978972,29
1979600,22
1980216,16
1980848,12
1981476,11
1982096,13
1982724,12
1983348,14
1983980,40
1984612,40
1985232,40
1985860,39
1986484,19
1987108,11
1987740,10
1988360,13
1988988,11
1989612,13
1990236,19
1990864,31
1991492,31
1992120,38
1992748,54
1993368,53
1993996,43
1994620,37
1995252,21
1995884,26
1996504,35
1997136,30
1997756,11
1998380,11
1999012,32
1999632,43
2000260,29
2000884,33
2001508,42
2002136,36
2002760,41
2003388,19
2004016,11
2004636,13
2005264,15
2005888,11
2006516,14
2007148,50
2007768,61
2008396,24
2009020,41
2009644,47
2010272,46
2010888,43
2011516,47
2012140,58
2012764,57
2013396,35
2014020,20
2014648,12
2015276,16
2015896,31
2016528,24
2017148,35
2017780,39
2018408,40
2019024,39
2019656,34
2020280,18
2020904,24
2021532,18
2022152,17
2022784,27
2023404,35
2024028,31
2024660,27
2025280,31
2025912,57
2026540,45
2027160,37
2027792,41
2028416,41
2029044,46
2029672,42
2030296,32
2030924,13
2031548,11
2032176,19
2032804,34
2033424,16
2034052,39
2034676,41
2035304,37
2035932,38
2036556,18
2037188,29
2037816,23
2038440,13
2039068,25
2039692,16
2040324,37
2040952,52
2041576,45
2042208,37
2042832,44
2043456,47
2044084,44
2044704,46
2045336,45
2045964,33
2046584,32
2047216,15
2047840,11
2048472,11
2049100,19
2049716,13
2050344,35
2050968,39
2051588,40
2052216,38
2052836,44
2053464,39
2054088,28
2054708,19
2055336,12
2055960,17
2056588,17
2057208,23
2057832,53
2058460,47
2059084,38
2059712,61
2060340,68
2060960,56
2061588,30
2062208,24
2062836,46
2063468,48
2064088,15
2064712,16
2065336,33
2065960,31
2066588,16
2067208,35
2067836,41
2068460,39
2069080,44
2069708,29
2070328,15
2070956,11
2071588,15
2072208,12
2072836,14
2073460,25
2074088,24
2074716,20
2075336,36
2075964,43
2076588,42
2077212,43
2077840,49
2078456,51
2079088,58
2079712,54
2080336,54
2080964,51
2081580,32
2082212,19
2082840,39
2083456,17
2084084,38
2084708,40
2085336,40
2085964,38
2086584,16
2087212,17
2087832,11
2088456,13
2089084,14
2089700,29
2090328,47
2090952,44
2091576,19
2092204,46
2092824,46
2093452,39
2094072,41
2094696,28
2095328,35
2095952,44
2096580,40
2097208,28
2097832,11
2098460,17
2099084,24
2099712,10
2100340,40
2100960,42
2101588,40
2102212,39
2102836,44
2103464,44
2104080,35
2104708,22
2105332,20
2105956,35
2106584,48
2107208,62
2107836,40
2108464,17
2109088,53
2109716,61
2110340,57
2110972,54
2111600,38
2112220,35
2112848,35
2113468,27
2114092,11
2114720,11
2115344,13
2115972,22
2116596,16
2117220,36
2117848,39
2118472,41
2119100,45
2119732,19
2120352,31
2120980,19
2121604,19
2122232,27
2122860,28
2123480,33
2124108,33
2124732,30
2125356,38
2125988,50
2126608,52
2127236,59
2127860,60
2128484,56
2129112,46
2129736,31
2130368,32
2130996,11
2131616,19
2132244,25
2132868,13
2133496,23
2134124,34
2134744,39
2135372,42
2135996,43
2136620,18
2137248,14
2137872,18
2138500,24
2139124,39
2139748,32
2140380,25
2141000,25
2141632,17
2142260,44
2142880,61
2143508,51
2144132,45
2144764,37
2145392,43
2146008,39
2146640,37
2147260,21
2147884,15
2148512,13
2149136,32
2149764,22
2150388,41
2151016,41
2151644,40
2152268,39
2152896,37
2153524,19
2154144,14
2154772,11
2155396,16
2156028,31
2156656,35
2157272,24
2157904,13
2158528,29
2159152,45
2159780,45
2160400,43
2161028,43
2161652,35
2162276,33
2162904,43
2163528,46
2164156,23
2164784,11
2165408,14
2166036,24
2166660,33
2167292,34
2167920,39
2168540,40
2169168,42
2169792,20
2170416,11
2171044,12
2171664,19
2172292,35
2172916,47
2173540,28
2174168,19
2174792,29
2175424,36
2176056,45
2176668,48
2177300,47
2177920,49
2178548,63
2179176,66
2179800,62
2180428,29
2181052,10
2181676,11
2182304,23
2182928,18
2183556,33
2184180,37
2184804,38
2185432,39
2186056,39
2186684,21
2187316,20
2187936,20
2188564,15
2189188,34
2189820,37
2190448,34
2191068,39
2191696,24
2192320,44
2192944,45
2193572,44
2194192,45
2194820,49
2195444,49
2196068,50
2196700,48
2197324,20
2197952,12
2198580,13
2199200,24
2199828,16
2200452,40
2201084,39
2201716,42
2202336,43
2202964,30
2203588,15
2204212,36
2204840,33
2205456,16
2206088,23
2206712,37
2207336,33
2207968,25
2208592,36
2209220,44
2209852,46
2210472,53
2211100,64
2211728,61
2212356,44
2212988,33
2213608,35
2214236,22
2214860,14
2215484,11
2216112,16
2216736,16
2217364,32
2217996,38
2218616,41
2219244,38
2219868,13
2220500,11
2221128,14
2221752,19
2222384,22
2223008,46
2223632,66
2224260,46
2224880,25
2225508,36
2226132,43
2226756,49
2227388,48
2228008,41
2228636,51
2229268,56
2229888,23
2230516,24
2231140,11
2231772,12
2232404,14
2233024,12
2233652,42
2234276,40
2234900,41
2235532,39
2236152,39
2236784,21
2237408,30
2238032,15
2238664,12
2239280,28
2239912,41
2240544,49
2241160,27
2241788,22
2242412,48
2243040,52
2243672,57
2244288,56
2244916,40
2245540,53
2246164,57
2246796,43
2247416,11
2248044,47
2248668,42
2249292,11
2249920,29
2250544,37
2251172,41
2251804,38
2252424,39
2253056,18
2253676,13
2254304,11
2254936,10
2255552,21
2256180,37
2256804,51
2257428,46
2258056,27
2258672,40
2259300,59
2259924,53
2260548,44
2261176,34
2261800,38
2262428,57
2263060,64
2263680,17
2264308,20
2264932,19
2265560,23
2266192,27
2266808,27
2267440,36
2268064,39
2268688,40
2269316,41
2269936,20
2270564,19
2271188,18
2271816,11
2272444,12
2273064,16
2273692,35
2274324,38
2274944,27
2275572,36
2276196,47
2276828,53
2277456,44
2278080,32
2278708,33
2279332,42
2279956,43
2280588,19
2281208,11
2281836,11
2282460,12
2283084,10
2283716,36
2284336,40
2284964,40
2285596,37
2286216,31
2286844,11
2287468,12
2288100,19
2288728,30
2289352,50
2289980,57
2290604,41
2291228,17
2291860,34
2292480,41
2293108,41
2293736,45
2294360,55
2294988,80
2295608,83
2296236,56
2296868,36
2297488,21
2298116,17
2298740,12
2299372,13
2300000,16
2300620,33
2301248,42
2301872,42
2302496,42
2303128,24
2303748,22
2304380,24
2305000,16
2305624,17
2306252,35
2306872,40
2307500,21
2308128,16
2308752,39
2309380,49
2310004,47
2310632,46
2311264,39
2311880,43
2312508,48
2313132,40
2313756,26
2314388,13
2315008,12
2315636,18
2316260,17
2316884,33
2317512,38
2318136,39
2318764,41
2319396,40
2320016,13
2320644,12
2321268,12
2321896,31
2322524,57
2323144,47
2323772,23
2324396,13
2325020,15
2325652,40
2326272,47
2326900,41
2327524,45
2328148,46
2328780,48
2329400,40
2330032,29
2330660,12
2331280,11
2331908,17
2332532,24
2333164,17
2333792,37
2334416,40
2335044,37
2335668,41
2336292,22
2336924,11
2337544,11
2338172,13
2338796,20
2339420,34
2340052,42
2340676,38
2341304,22
2341932,39
2342552,45
2343180,40
2343804,45
2344436,54
2345064,61
2345688,55
2346316,15
2346940,12
2347564,11
2348196,14
2348816,13
2349444,11
2350068,27
2350696,41
2351324,37
2351948,41
2352580,39
2353212,20
2353832,18
2354464,20
2355088,23
2355720,23
2356348,20
2356968,37
2357596,45
2358220,28
2358844,40
2359476,52
2360096,57
2360724,61
2361356,75
2361976,49
2362604,39
2363228,34
2363860,22
2364488,10
2365112,17
2365744,35
2366368,47
2366992,36
2367624,40
2368240,40
2368872,41
2369496,36
2370116,25
2370748,33
2371368,40
2371996,32
2372628,22
2373248,22
2373876,32
2374504,41
2375132,33
2375764,50
2376384,58
2377012,57
2377636,55
2378260,34
2378892,33
2379512,32
2380144,23
2380768,22
2381392,13
2382020,21
2382640,28
2383268,17
2383900,35
2384520,41
2385148,43
2385772,45
2386404,15
2387032,23
2387656,24
2388284,11
2388908,11
2389536,16
2390164,40
2390784,39
2391416,31
2392040,37
2392664,49
2393292,55
2393912,50
2394544,35
2395172,30
2395792,40
2396424,45
2397048,25
2397676,13
2398308,14
2398928,12
2399560,12
2400184,33
2400808,38
2401436,38
2402056,41
2402684,39
2403308,24
2403932,11
2404564,15
2405188,37
2405816,37
2406444,32
2407064,43
2407692,43
2408316,16
2408944,59
2409572,66
2410192,49
2410820,45
2411448,45
2412072,55
2412700,47
2413320,36
2413948,11
2414576,10
2415200,11
2415828,11
2416452,15
2417084,37
2417716,40
2418336,43
2418964,40
2419588,37
2420220,46
2420848,22
2421472,12
2422100,11
2422724,21
2423348,39
2423980,34
2424600,27
2425228,37
2425856,45
2426480,44
2427108,47
2427732,48
2428364,27
2428996,23
2429616,25
2430244,23
2430872,20
2431496,19
2432128,10
2432744,11
2433372,23
2433996,34
2434620,40
2435252,40
2435872,42
2436500,33
2437132,19
2437752,13
2438380,11
2439008,12
2439636,18
2440268,38
2440888,37
2441516,19
2442144,38
2442768,45
2443396,50
2444016,53
2444644,24
2445272,24
2445896,42
2446524,48
2447144,25
2447776,11
2448404,17
2449024,26
2449652,22
2450276,37
2450908,39
2451540,38
2452160,40
2452788,33
2453416,15
2454040,13
2454672,13
2455288,16
2455920,17
2456544,20
2457168,13
2457800,14
2458416,27
2459044,39
2459672,39
2460288,38
2460920,42
2461540,23
2462172,44
2462800,39
2463416,25
2464044,13
2464668,13
2465288,13
2465920,22
2466536,19
2467164,32
2467788,38
2468412,43
2469040,40
2469664,16
2470292,11
2470924,14
2471544,21
2472172,11
2472796,13
2473428,21
2474056,27
2474676,15
2475304,37
2475928,40
2476552,41
2477180,46
2477800,39
2478428,36
2479052,46
2479676,47
2480308,26
2480928,14
2481556,10
2482188,16
2482808,19
2483436,31
2484060,33
2484688,39
2485320,39
2485936,39
2486564,24
2487188,24
2487816,23
2488444,12
2489064,16
2489692,17
2490316,21
2490940,23
2491568,14
2492192,49
2492820,53
2493452,46
2494072,43
2494700,33
2495328,27
2495956,34
2496588,45
2497208,29
2497836,11
2498460,37
2499084,45
2499716,16
2500336,38
2500964,39
2501588,39
2502212,39
2502844,26
2503464,15
2504092,26
2504724,20
2505344,15
2505972,22
2506600,39
2507228,40
2507860,36
2508480,37
2509108,48
2509732,54
2510356,51
2510988,42
2511608,35
2512236,50
2512860,47
2513484,25
2514116,10
2514736,14
2515364,13
2515996,17
2516616,16
2517244,35
2517872,40
2518500,41
2519132,40
2519752,17
2520384,14
2521008,11
2521628,17
2522260,24
2522880,17
2523508,15
2524132,23
2524760,29
2525388,36
2526008,49
2526636,46
2527268,42
2527888,37
2528520,43
2529144,55
2529772,46
2530404,32
2531024,27
2531656,14
2532280,36
2532904,22
2533536,35
2534152,36
2534784,39
2535408,41
2536032,39
2536660,21
2537284,17
2537916,23
2538548,22
2539168,29
2539800,29
2540424,31
2541056,30
2541684,22
2542304,51
2542936,51
2543560,43
2544184,45
2544812,39
2545432,43
2546064,43
2546688,34
2547312,17
2547940,19
2548568,12
2549196,19
2549828,27
2550448,36
2551076,40
2551704,39
2552328,40
2552956,24
2553576,24
2554208,22
2554836,13
2555460,23
2556092,35
2556712,33
2557344,22
2557976,20
2558596,40
2559228,54
2559852,56
2560484,52
2561112,42
2561728,33
2562356,39
2562980,35
2563604,12
2564232,12
2564848,13
2565476,11
2566100,16
2566720,30
2567348,35
2567968,41
2568596,41
2569224,40
2569848,11
2570476,13
2571100,11
2571728,11
2572356,17
2572976,28
2573604,43
2574228,53
2574852,34
2575484,41
2576104,49
2576732,47
2577356,40
2577976,31
2578608,34
2579224,35
2579852,39
2580476,26
2581104,22
2581732,13
2582356,16
2582988,13
2583616,35
2584232,39
2584864,39
2585488,39
2586116,25
2586744,13
2587360,16
2587992,13
2588616,36
2589240,33
2589868,24
2590488,23
2591116,34
2591740,36
2592368,44
2592996,49
2593620,51
2594248,45
2594876,28
2595496,37
2596124,33
2596748,23
2597380,13
2598008,10
2598628,21
2599256,26
2599880,14
2600504,33
2601132,40
2601752,41
2602380,40
2603004,13
2603632,21
2604260,14
2604884,11
2605512,12
2606144,21
2606760,28
2607392,35
2608016,27
2608644,37
2609272,42
2609896,45
2610524,48
2611152,46
2611776,47
2612404,54
2613024,49
2613652,21
2614284,10
2614904,11
2615532,15
2616156,15
2616788,36
2617420,38
2618040,45
2618668,42
2619292,42
2619916,28
2620548,26
2621168,15
2621800,13
2622420,37
2623044,35
2623672,18
2624288,34
2624916,19
2625544,50
2626168,58
2626796,65
2627420,76
2628048,73
2628676,16
2629296,11
2629924,23
2630544,23
2631172,14
2631804,14
2632424,35
2633052,24
2633672,34
2634296,41
2634924,38
2635544,40
2636172,19
2636796,14
2637424,18
2638052,12
2638676,18
2639304,27
2639936,28
2640552,34
2641184,41
2641804,40
2642436,73
2643064,58
2643680,43
2644308,37
2644932,19
2645552,31
2646184,33
2646800,36
2647428,25
2648052,24
2648672,10
2649304,19
2649928,19
2650556,32
2651184,39
2651804,38
2652432,39
2653056,28
2653684,20
2654312,10
2654936,20
2655564,25
2656188,47
2656812,51
2657440,41
2658056,21
2658684,37
2659308,48
2659932,50
2660560,50
2661184,39
2661812,39
2662444,42
2663060,41
2663688,13
2664308,14
2664940,17
2665568,15
2666184,24
2666812,36
2667436,38
2668060,39
2668688,46
2669304,42
2669932,15
2670556,12
2671180,12
2671808,14
2672428,27
2673056,27
2673684,26
2674304,32
2674932,25
2675556,49
2676184,62
2676812,62
2677432,58
2678060,38
2678684,36
2679308,35
2679936,14
2680556,11
2681184,10
2681808,19
2682432,23
2683060,16
2683680,35
2684308,41
2684936,41
2685556,40
2686184,29
2686808,31
2687436,22
2688068,20
2688684,29
2689312,24
2689932,14
2690564,14
2691192,26
2691808,39
2692436,59
2693060,61
2693684,47
2694312,41
2694932,34
2695560,33
2696184,21
2696804,28
2697436,14
2698060,13
2698688,29
2699316,22
2699936,22
2700564,33
2701188,42
2701820,42
2702448,40
2703064,25
2703696,17
2704320,24
2704940,32
2705572,11
2706192,18
2706820,28
2707444,36
2708068,28
2708696,35
2709320,45
2709948,50
2710576,45
2711200,45
2711828,47
2712452,49
2713084,42
2713712,23
2714328,13
2714960,13
2715580,31
2716204,22
2716832,36
2717456,41
2718084,39
2718708,40
2719332,34
2719964,11
2720588,25
2721216,33
2721844,37
2722464,57
2723092,41
2723716,19
2724344,15
2724976,28
2725592,43
2726220,41
2726844,41
2727468,46
2728096,38
2728720,43
2729348,61
2729972,64
2730596,28
2731224,14
2731848,29
2732476,45
2733108,30
2733728,33
2734356,38
2734980,41
2735612,41
2736240,19
2736864,11
2737492,14
2738116,12
2738740,12
2739368,15
2739992,34
2740620,42
2741244,26
2741872,40
2742500,45
2743124,51
2743756,46
2744384,38
2745000,36
2745632,61
2746252,60
2746884,23
2747512,11
2748128,12
2748760,43
2749384,40
2750008,32
2750636,37
2751256,44
2751884,39
2752516,38
2753136,13
2753764,15
2754388,16
2755020,11
2755648,14
2756272,19
2756900,22
2757524,28
2758152,22
2758780,36
2759400,44
2760028,56
2760652,58
2761276,46
2761908,28
2762528,28
2763156,34
2763788,24
2764408,15
2765036,12
2765660,31
2766292,34
2766920,36
2767536,41
2768164,41
2768788,39
2769412,23
2770044,26
2770664,22
2771292,11
2771916,12
2772540,13
2773168,28
2773788,33
2774416,36
2775048,36
2775664,45
2776292,45
2776916,42
2777548,43
2778180,32
2778800,42
2779428,46
2780052,39
2780680,20
2781308,10
2781928,21
2782556,22
2783184,19
2783808,35
2784440,38
2785056,40
2785684,39
2786316,14
2786936,13
2787564,11
2788188,14
2788816,34
2789448,30
2790064,40
2790692,37
2791316,20
2791944,40
2792572,44
2793192,44
2793820,41
2794444,38
2795068,56
2795700,72
2796320,40
2796948,20
2797580,12
2798200,40
2798828,15
2799452,55
2800084,38
2800712,33
2801328,37
2801960,40
2802584,40
2803204,11
2803836,16
2804456,30
2805084,33
2805708,40
2806332,33
2806964,30
2807584,26
2808212,22
2808844,50
2809464,50
2810092,51
2810716,48
2811348,44
2811980,50
2812600,51
2813232,37
2813856,19
2814480,15
2815108,13
2815728,18
2816360,15
2816980,34
2817604,38
2818232,44
2818848,48
2819480,28
2820108,16
2820728,11
2821356,10
2821980,17
2822608,18
2823240,26
2823856,40
2824484,36
2825108,37
2825736,46
2826364,54
2826984,52
2827612,48
2828236,31
2828860,30
2829488,43
2830104,48
2830732,41
2831356,10
2831984,18
2832612,19
2833236,39
2833868,45
2834496,42
2835120,40
2835748,37
2836376,17
2837000,12
2837628,11
2838248,17
2838876,31
2839500,29
2840124,29
2840756,32
2841376,25
2842008,45
2842636,50
2843256,44
2843884,41
2844508,40
2845140,38
2845768,44
2846384,49
2847016,32
2847640,24
2848264,21
2848892,20
2849512,26
2850140,32
2850764,35
2851388,38
2852020,38
2852640,31
2853268,13
2853900,12
2854520,11
2855148,13
2855772,14
2856404,34
2857032,38
2857656,43
2858284,44
2858908,37
2859532,43
2860164,54
2860784,50
2861416,42
2862040,53
2862664,43
2863292,19
2863912,10
2864544,16
2865172,11
2865792,11
2866424,16
2867048,35
2867680,39
2868308,40
2868928,41
2869556,15
2870180,31
2870804,31
2871432,21
2872052,26
2872680,35
2873304,49
2873928,39
2874556,20
2875176,47
2875804,61
2876436,61
2877056,58
2877684,48
2878308,50
2878940,51
2879568,33
2880192,18
2880820,12
2881440,19
2882064,53
2882692,46
2883312,33
2883940,45
2884560,43
2885184,40
2885812,39
2886432,16
2887060,12
2887688,27
2888304,33
2888936,33
2889556,27
2890188,38
2890816,37
2891436,18
2892064,53
2892688,48
2893316,48
2893944,47
2894568,33
2895196,38
2895820,45
2896444,33
2897072,14
2897696,11
2898324,13
2898952,23
2899576,19
2900204,31
2900828,36
2901456,37
2902088,41
2902704,36
2903336,16
2903960,13
2904584,13
2905212,16
2905832,25
2906460,35
2907084,25
2907708,15
2908340,44
2908960,72
2909588,56
2910216,41
2910840,39
2911468,26
2912092,54
2912724,60
2913352,25
2913972,15
2914600,23
2915224,24
2915848,21
2916476,20
2917096,37
2917728,36
2918352,41
2918976,41
2919604,18
2920224,17
2920852,22
2921484,40
2922104,32
2922732,25
2923356,25
2923988,22
2924620,22
2925240,39
2925868,54
2926492,54
2927116,46
2927748,42
2928368,46
2928996,44
2929620,38
2930244,26
2930872,22
2931496,12
2932124,28
2932756,27
2933376,35
2934008,37
2934632,41
2935260,41
2935892,35
2936512,19
2937140,17
2937768,13
2938392,12
2939020,22
2939640,29
2940268,29
2940896,23
2941520,24
2942148,55
2942768,57
2943400,55
2944032,45
2944648,38
2945276,30
2945900,29
2946532,33
2947160,20
2947784,15
2948412,15
2949040,25
2949664,17
2950292,33
2950912,39
2951540,41
2952164,41
2952788,28
2953416,17
2954040,12
2954668,11
2955300,12
2955920,21
2956548,31
2957176,27
2957804,19
2958432,45
2959056,53
2959684,48
2960308,43
2960932,37
2961560,44
2962184,53
2962812,47
2963436,31
2964060,13
2964692,10
2965312,19
2965944,16
2966572,32
2967192,37
2967820,39
2968448,43
2969076,43
2969708,27
2970324,25
2970956,22
2971580,18
2972200,11
2972832,20
2973448,45
2974076,47
2974700,22
2975324,61
2975956,76
2976580,60
2977212,44
2977840,34
2978456,35
2979088,33
2979712,22
2980340,12
2980972,10
2981592,11
2982220,15
2982848,19
2983468,37
2984100,39
2984720,37
2985348,40
2985972,27
2986596,21
2987228,23
2987852,11
2988480,11
2989108,18
2989728,37
2990360,34
2990984,24
2991612,39
2992244,56
2992864,65
2993492,62
2994116,40
2994740,20
2995372,38
2995992,53
2996620,45
2997244,19
2997872,26
2998500,41
2999124,37
2999756,21
3000388,32
3001008,38
3001636,41
3002260,39
3002888,21
3003516,14
3004136,11
3004768,13
3005392,11
3006016,17
3006648,41
3007264,42
3007896,19
3008528,37
3009144,42
3009772,47
3010396,55
3011028,56
3011660,57
3012280,63
3012908,51
3013536,32
3014160,12
3014788,30
3015408,51
3016040,22
3016660,42
3017288,41
3017916,38
3018536,41
3019168,39
3019800,16
3020420,11
3021048,11
3021672,16
3022304,28
3022936,32
3023552,35
3024184,33
3024808,31
3025432,39
3026060,43
3026680,46
3027312,44
3027936,35
3028560,37
3029188,42
3029808,36
3030440,17
3031068,11
3031688,11
3032316,11
3032944,15
3033572,33
3034204,39
3034824,45
3035456,42
3036080,17
3036704,26
3037336,31
3037952,25
3038584,47
3039208,58
3039832,44
3040464,33
3041080,29
3041712,37
3042340,43
3042960,50
3043588,47
3044212,40
3044844,38
3045472,44
3046096,37
3046728,21
3047348,16
3047976,16
3048604,12
3049224,14
3049852,34
3050480,41
3051104,41
3051736,38
3052360,38
3052988,11
3053620,10
3054240,17
3054868,26
3055496,47
3056124,48
3056756,32
3057376,28
3058008,26
3058632,37
3059256,49
3059884,47
3060504,48
3061132,36
3061764,32
3062384,35
3063016,35
3063640,18
3064272,17
3064900,11
3065520,11
3066152,23
3066776,39
3067400,37
3068032,40
3068652,39
3069284,24
3069908,19
3070536,18
3071168,14
3071788,10
3072420,11
3073048,19
3073664,19
3074292,15
3074916,35
3075544,43
3076176,54
3076792,51
3077420,43
3078044,27
3078668,27
3079300,34
3079920,47
3080548,34
3081172,11
3081796,44
3082428,32
3083048,18
3083676,37
3084308,38
3084928,43
3085556,43
3086180,23
3086808,20
3087440,18
3088056,12
3088684,12
3089308,15
3089932,30
3090560,33
3091184,19
3091816,43
3092440,52
3093064,40
3093692,42
3094312,41
3094944,40
3095572,43
3096192,42
3096820,19
3097448,10
3098076,10
3098708,10
3099328,11
3099956,36
3100584,39
3101208,39
3101836,38
3102456,41
3103088,25
3103712,16
3104336,16
3104964,13
3105584,13
3106216,13
3106844,26
3107464,39
3108096,31
3108720,41
3109348,45
3109980,60
3110600,62
3111228,52
3111856,43
3112480,23
3113112,22
3113728,15
3114356,11
3114980,23
3115604,31
3116236,26
3116856,32
3117484,40
3118116,39
3118736,42
3119364,31
3119992,35
3120624,24
3121252,14
3121872,17
3122504,27
3123128,26
3123752,23
3124380,21
3125000,40
3125628,51
3126252,59
3126876,55
3127508,56
3128132,49
3128764,39
3129392,26
3130012,12
3130640,11
3131264,11
3131896,27
3132528,27
3133144,31
3133776,37
3134400,39
3135024,40
3135656,43
3136272,13
3136904,27
3137528,15
3138152,13
3138780,32
3139404,41
3140036,62
3140664,56
3141288,24
3141916,41
3142544,50
3143172,45
3143804,48
3144424,43
3145052,44
3145680,41
3146300,36
3146932,16
3147552,14
3148184,11
3148812,17
3149432,15
3150064,39
3150688,39
3151320,38
3151948,41
3152568,27
3153200,21
3153824,23
3154448,26
3155076,20
3155696,15
3156324,22
3156952,32
3157576,33
3158208,37
3158824,44
3159456,51
3160084,53
3160704,49
3161336,32
3161960,47
3162588,63
3163220,66
3163840,40
3164472,11
3165096,67
3165720,59
3166352,18
3166968,37
3167600,41
3168224,38
3168848,38
3169476,17
3170096,14
3170728,13
3171356,13
3171976,26
3172608,29
3173232,32
3173864,39
3174496,22
3175112,41
3175744,55
3176368,49
3176992,51
3177620,45
3178240,47
3178868,44
3179496,27
3180120,13
3180752,11
3181368,10
3182000,22
3182632,20
3183248,36
3183880,39
3184508,40
3185136,40
3185768,38
3186388,16
3187020,11
3187644,11
3188268,12
3188900,16
3189520,24
3190152,31
3190776,34
3191400,30
3192032,42
3192656,53
3193288,60
3193920,52
3194536,38
3195172,35
3195796,32
3196424,30
3197056,11
3197672,11
3198304,14
3198932,22
3199556,16
3200188,30
3200804,41
3201432,40
3202064,40
3202680,24
3203308,18
3203932,16
3204560,21
3205188,34
3205808,34
3206436,42
3207056,36
3207684,29
3208312,38
3208936,49
3209564,51
3210188,53
3210812,54
3211444,44
3212064,41
3212692,40
3213324,36
3213944,25
3214572,12
3215196,20
3215828,21
3216460,34
3217080,39
3217708,40
3218332,40
3218956,41
3219588,12
3220208,15
3220836,27
3221460,25
3222084,28
3222712,26
3223336,29
3223964,23
3224596,14
3225216,47
3225848,47
3226468,46
3227096,39
3227728,27
3228344,35
3228976,51
3229600,37
3230224,11
3230852,10
3231472,12
3232100,21
3232724,20
3233348,36
3233980,36
3234600,41
3235228,41
3235860,22
3236480,28
3237108,35
3237732,21
3238364,14
3238992,18
3239616,21
3240244,23
3240868,25
3241492,35
3242124,46
3242744,55
3243372,53
3243996,47
3244624,39
3245252,33
3245872,44
3246504,37
3247132,15
3247752,11
3248384,20
3249008,21
3249636,16
3250264,31
3250888,39
3251516,40
3252144,41
3252768,13
3253396,10
3254016,15
3254644,24
3255268,25
3255896,29
3256524,36
3257144,26
3257772,18
3258404,35
3259024,47
3259652,52
3260280,57
3260908,55
3261540,27
3262160,33
3262792,37
3263416,15
3264040,13
3264668,14
3265288,25
3265916,27
3266540,38
3267168,38
3267796,40
3268420,38
3269052,45
3269684,16
3270304,17
3270936,27
3271560,10
3272192,19
3272820,17
3273440,22
3274072,29
3274696,34
3275320,44
3275952,47
3276572,46
3277200,50
3277828,41
3278444,28
3279072,48
3279696,47
3280324,24
3280952,12
3281568,25
3282196,23
3282820,15
3283448,35
3284076,37
3284696,39
3285324,37
3285944,18
3286564,17
3287196,20
3287816,15
3288444,13
3289064,12
3289688,18
3290316,18
3290936,21
3291564,36
3292192,47
3292808,48
3293436,51
3294060,44
3294688,32
3295316,34
3295936,35
3296564,23
3297188,10
3297812,10
3298440,23
3299056,24
3299684,29
3300308,36
3300932,38
3301560,41
3302176,41
3302808,18
3303436,19
3304056,12
3304684,11
3305308,21
3305936,30
3306564,38
3307184,38
3307812,29
3308436,39
3309060,53
3309692,56
3310312,52
3310940,39
3311564,44
3312188,50
3312816,48
3313440,24
3314068,10
3314696,14
3315320,26
3315948,17
3316572,39
3317204,43
3317832,38
3318448,40
3319080,35
3319700,27
3320324,26
3320956,20
3321576,19
3322204,13
3322828,17
3323452,30
3324084,38
3324704,31
3325332,43
3325964,45
3326584,50
3327212,47
3327836,31
3328468,34
3329096,53
3329720,53
3330348,11
3330968,22
3331592,30
3332220,27
3332840,15
3333468,36
3334092,37
3334712,37
3335344,40
3335960,22
3336588,23
3337212,18
3337840,13
3338468,22
3339092,31
3339720,38
3340352,35
3340968,29
3341596,39
3342220,50
3342848,52
3343476,52
3344096,40
3344724,39
3345348,47
3345972,50
3346600,36
3347216,20
3347844,12
3348468,11
3349092,11
3349720,35
3350344,39
3350972,40
3351604,39
3352224,38
3352852,18
3353476,11
3354108,11
3354736,10
3355360,12
3355988,14
3356612,34
3357236,71
3357868,51
3358488,36
3359116,41
3359740,42
3360368,41
3360996,19
3361620,24
3362248,47
3362876,60
3363496,43
3364124,39
3364748,18
3365376,12
3366004,14
3366624,37
3367252,38
3367876,37
3368500,41
3369128,28
3369744,20
3370372,29
3370996,33
3371620,24
3372248,19
3372872,25
3373500,33
3374128,26
3374752,38
3375380,49
3376004,52
3376632,56
3377260,43
3377880,33
3378508,49
3379132,43
3379756,22
3380388,11
3381008,10
3381636,21
3382260,30
3382884,15
3383512,39
3384136,39
3384764,40
3385392,40
3386016,16
3386644,19
3387268,14
3387896,18
3388528,30
3389144,22
3389772,32
3390396,29
3391020,17
3391652,40
3392272,45
3392900,47
3393524,53
3394148,39
3394776,38
3395400,39
3396028,34
3396656,14
3397280,12
3397908,19
3398532,11
3399164,10
3399792,35
3400408,38
3401040,37
3401660,41
3402284,38
3402912,22
3403528,18
3404160,15
3404784,14
3405408,25
3406036,31
3406660,36
3407288,47
3407920,26
3408536,51
3409164,55
3409788,52
3410416,48
3411048,48
3411664,55
3412292,54
3412916,41
3413540,12
3414172,12
3414792,22
3415420,15
3416048,21
3416668,39
3417300,37
3417924,43
3418552,42
3419180,21
3419800,12
3420432,14
3421052,11
3421684,21
3422312,46
3422936,47
3423564,35
3424192,45
3424812,37
3425444,42
3426064,51
3426692,45
3427316,39
3427940,40
3428572,55
3429196,53
3429824,33
3430456,18
3431072,17
3431700,11
3432324,10
3432956,33
3433584,40
3434208,41
3434836,41
3435464,40
3436088,26
3436716,35
3437336,41
3437964,35
3438596,36
3439216,33
3439848,40
3440472,40
3441100,29
3441732,38
3442352,48
3442980,51
3443604,46
3444228,52
3444860,58
3445480,73
3446108,51
3446732,34
3447356,23
3447984,13
3448604,51
3449232,41
3449864,35
3450480,39
3451112,40
3451736,40
3452364,26
3452996,30
3453616,31
3454244,12
3454868,12
3455496,15
3456124,37
3456744,43
3457372,27
3457996,35
3458620,47
3459248,42
3459864,49
3460492,59
3461116,62
3461744,63
3462372,52
3462996,27
3463628,11
3464256,10
3464880,25
3465508,39
3466132,29
3466760,37
3467388,37
3468008,41
3468636,40
3469260,15
3469884,15
3470516,12
3471136,32
3471768,34
3472396,24
3473016,22
3473644,20
3474268,22
3474900,39
3475528,57
3476152,60
3476784,50
3477408,47
3478032,43
3478660,49
3479280,27
3479908,12
3480536,11
3481160,15
3481788,13
3482408,30
3483036,35
3483664,38
3484284,38
3484912,43
3485536,39
3486164,15
3486792,25
3487416,12
3488044,12
3488668,27
3489292,25
3489920,19
3490536,25
3491164,18
3491792,44
3492416,51
3493044,50
3493664,49
3494292,37
3494924,32
3495544,33
3496172,31
3496796,11
3497428,13
3498056,26
3498680,28
3499308,15
3499936,42
3500560,41
3501188,39
3501808,42
3502436,23
3503060,22
3503688,26
3504316,12
3504936,11
3505564,16
3506196,21
3506816,14
3507448,13
3508068,43
3508700,43
3509332,41
3509952,49
3510584,49
3511208,44
3511832,52
3512464,68
3513080,63
3513712,35
3514336,14
3514960,44
3515588,28
3516208,21
3516840,39
3517468,50
3518088,46
3518716,40
3519344,19
3519976,45
3520608,62
3521224,44
3521856,44
3522480,46
3523104,41
3523732,34
3524352,21
3524980,49
3525604,72
3526228,73
3526860,51
3527480,42
3528108,47
3528740,42
3529360,39
3529988,20
3530612,19
3531244,13
3531872,48
3532492,27
3533120,38
3533744,45
3534368,45
3534996,40
3535616,31
3536244,11
3536868,17
3537492,27
3538124,33
3538744,15
3539372,30
3540004,42
3540624,27
3541252,29
3541876,47
3542508,40
3543136,41
3543760,41
3544388,11
3545012,21
3545636,23
3546268,15
3546888,15
3547516,11
3548140,25
3548768,21
3549396,19
3550020,43
3550652,40
3551284,41
3551904,42
3552536,17
3553160,11
3553792,13
3554420,19
3555040,11
3555672,25
3556296,30
3556920,27
3557548,18
3558168,47
3558800,62
3559424,62
3560048,51
3560676,39
3561300,35
3561932,60
3562564,59
3563184,38
3563816,14
3564440,24
3565064,34
3565692,36
3566312,36
3566944,39
3567568,40
3568192,38
3568820,40
3569440,12
3570068,11
3570700,10
3571320,17
3571948,39
3572576,43
3573204,40
3573836,40
3574456,27
3575084,41
3575712,47
3576336,45
3576964,43
3577584,29
3578216,43
3578840,55
3579464,55
3580096,29
3580712,16
3581344,22
3581976,47
3582596,31
3583228,33
3583852,43
3584484,43
3585116,42
3585736,47
3586364,48
3586988,17
3587612,13
3588240,14
3588864,13
3589492,13
3590116,15
3590740,15
3591372,44
3591992,65
3592624,64
3593252,48
3593872,39
3594504,11
3595124,19
3595756,22
3596388,12
3597008,22
3597636,18
3598260,37
3598884,71
3599516,88
3600136,44
3600764,38
3601388,42
3602012,40
3602640,22
3603264,25
3603896,12
3604524,48
3605144,48
3605772,13
3606392,19
3607024,34
3607652,23
3608272,45
3608900,56
3609524,49
3610148,42
3610780,55
3611400,54
3612028,40
3612652,15
3613276,12
3613904,18
3614528,11
3615156,16
3615788,16
3616408,39
3617036,40
3617660,41
3618288,63
3618916,78
3619536,56
3620164,16
3620788,11
3621412,16
3622044,30
3622664,29
3623292,15
3623916,16
3624540,44
3625172,69
3625796,57
3626424,53
3627052,50
3627672,49
3628300,71
3628924,89
3629556,63
3630184,12
3630808,11
3631436,25
3632060,39
3632684,43
3633316,50
3633936,47
3634564,47
3635188,50
3635816,29
3636444,15
3637068,28
3637700,27
3638328,20
3638952,14
3639580,17
3640208,21
3640836,16
3641468,44
3642088,50
3642716,51
3643340,45
3643968,37
3644596,36
3645216,27
3645844,32
3646476,31
3647096,27
3647724,33
3648352,15
3648980,15
3649608,34
3650224,36
3650856,41
3651480,40
3652104,40
3652732,12
3653352,32
3653980,43
3654608,14
3655228,39
3655860,35
3656480,27
3657108,19
3657740,16
3658360,42
3658988,46
3659612,41
3660244,41
3660876,31
3661496,46
3662124,73
3662748,60
3663372,18
3664004,12
3664624,39
3665252,56
3665880,47
3666504,44
3667132,38
3667752,39
3668384,41
3669012,38
3669632,46
3670264,38
3670888,37
3671516,30
3672148,34
3672768,33
3673400,24
3674024,15
3674648,46
3675276,87
3675896,106
3676580,114
3677260,103
3677932,80
3678560,69
3679184,64
3679808,26
3680440,13
3681060,35
3681688,104
3682368,105
3683036,96
3683664,84
3684288,69
3684912,46
3685544,33
3686160,13
3686792,45
3687416,58
3688036,33
3688664,11
3689288,19
3689916,19
3690544,28
3691168,37
3691796,43
3692420,39
3693052,41
3693680,39
3694296,34
3694928,57
3695552,63
3696176,78
3696804,54
3697424,27
3698052,12
3698676,17
3699300,17
3699928,32
3700552,38
3701180,39
3701812,43
3702432,52
3703060,49
3703684,27
3704316,10
3704944,10
3705568,15
3706200,14
3706824,13
3707448,15
3708076,58
3708696,54
3709328,43
3709956,46
3710576,51
3711208,29
3711832,11
3712464,21
3713092,28
3713712,37
3714340,20
3714964,16
3715592,13
3716220,32
3716840,40
3717468,43
3718092,40
3718716,39
3719348,32
3719968,34
3720600,24
3721228,29
3721848,35
3722476,24
3723100,27
3723732,26
3724364,14
3724984,45
3725612,41
3726236,53
3726860,56
3727492,59
3728112,79
3728740,99
3729364,85
3729988,29
3730620,10
3731240,22
3731868,23
3732500,30
3733120,57
3733748,69
3734376,73
3735004,81
3735636,65
3736256,46
3736888,48
3737512,53
3738136,28
3738764,21
3739384,117
3740064,190
3740744,167
3741420,112
3742100,78
3742728,42
3743344,47
3743976,32
3744600,13
3745228,30
3745860,42
3746480,23
3747108,13
3747736,40
3748360,51
3748988,15
3749608,62
3750236,49
3750864,40
3751488,43
3752120,40
3752736,24
3753368,23
3753996,12
3754616,26
3755248,14
3755872,21
3756504,27
3757132,23
3757752,29
3758384,75
3759008,74
3759632,62
3760264,43
3760880,14
3761508,45
3762136,68
3762760,47
3763392,48
3764008,45
3764636,28
3765268,16
3765888,14
3766516,33
3767144,40
3767772,41
3768404,41
3769024,19
3769652,11
3770276,12
3770900,13
3771532,10
3772152,13
3772784,23
3773408,16
3774032,17
3774664,35
3775280,40
3775912,52
3776544,49
3777160,48
3777788,46
3778412,57
3779044,50
3779676,36
3780296,17
3780924,17
3781552,18
3782176,36
3782808,34
3783424,44
3784056,43
3784680,41
3785304,42
3785932,16
3786552,11
3787184,11
3787812,11
3788432,29
3789064,19
3789688,21
3790316,18
3790948,16
3791568,60
3792200,55
3792824,57
3793444,70
3794076,87
3794696,71
3795328,61
3795952,87
3796576,77
3797208,54
3797828,12
3798460,33
3799092,34
3799712,34
3800344,40
3800968,46
3801596,54
3802228,50
3802848,29
3803480,16
3804104,11
3804728,17
3805360,12
3805976,27
3806608,111
3807292,157
3807964,66
3808592,40
3809216,40
3809840,51
3810468,42
3811088,41
3811720,62
3812344,51
3812968,12
3813596,11
3814224,15
3814856,23
3815484,35
3816104,64
3816736,74
3817360,67
3817988,62
3818620,58
3819240,31
3819872,21
3820496,72
3821120,104
3821800,105
3822476,106
3823156,97
3823784,54
3824404,27
3825032,83
3825660,102
3826340,120
3827020,92
3827640,47
3828268,48
3828896,66
3829520,45
3830152,33
3830776,74
3831400,135
3832084,115
3832756,38
3833376,37
3834008,42
3834632,47
3835264,41
3835888,18
3836512,15
3837144,36
3837768,39
3838400,31
3839032,30
3839652,18
3840288,13
3840908,15
3841540,59
3842168,71
3842784,53
3843416,50
3844040,63
3844664,73
3845292,84
3845912,55
3846540,13
3847164,27
3847792,39
3848420,83
3849044,92
3849676,58
3850304,42
3850928,41
3851556,41
3852180,27
3852804,27
3853436,16
3854056,11
3854684,12
3855308,21
3855932,27
3856564,29
3857184,33
3857812,35
3858444,46
3859064,45
3859692,43
3860316,48
3860948,47
3861576,66
3862200,86
3862828,71
3863456,36
3864080,35
3864708,36
3865328,47
3865960,45
3866580,53
3867204,56
3867836,60
3868456,50
3869084,19
3869716,46
3870336,67
3870968,55
3871592,39
3872224,46
3872852,48
3873472,33
3874100,14
3874724,48
3875348,55
3875980,46
3876600,45
3877228,49
3877856,35
3878480,15
3879108,21
3879728,31
3880360,23
3880988,18
3881608,25
3882236,12
3882860,40
3883492,48
3884124,47
3884744,44
3885376,43
3886000,28
3886624,39
3887256,49
3887872,71
3888504,70
3889128,59
3889752,67
3890384,62
3891004,41
3891636,72
3892264,102
3892932,77
3893556,44
3894180,13
3894804,12
3895436,15
3896056,40
3896684,18
3897308,44
3897932,76
3898564,178
3899236,184
3899912,129
3900596,63
3901216,50
3901848,49
3902476,23
3903096,12
3903728,11
3904352,11
3904980,12
3905612,26
3906232,24
3906864,24
3907488,29
3908112,37
3908744,41
3909360,45
3909992,43
3910616,35
3911240,32
3911872,17
3912488,35
3913120,15
3913748,20
3914368,32
3915000,24
3915624,12
3916252,40
3916884,46
3917504,45
3918136,44
3918760,43
3919384,17
3920016,15
3920632,13
3921264,25
3921888,70
3922512,83
3923144,59
3923760,33
3924392,21
3925024,48
3925640,68
3926272,86
3926896,63
3927528,35
3928156,34
3928776,52
3929408,48
3930032,23
3930656,23
3931288,12
3931904,11
3932536,15
3933160,35
3933784,39
3934412,38
3935032,46
3935664,23
3936292,10
3936912,12
3937540,33
3938164,52
3938796,58
3939424,58
3940048,34
3940676,29
3941300,64
3941928,66
3942556,62
3943176,79
3943804,71
3944428,57
3945052,69
3945684,36
3946304,47
3946936,101
3947616,99
3948240,98
3948868,71
3949492,35
3950116,42
3950748,40
3951368,44
3951996,39
3952624,29
3953248,33
3953876,13
3954500,20
3955132,17
3955764,19
3956384,31
3957016,31
3957640,42
3958268,100
3958952,149
3959620,149
3960300,108
3960980,104
3961652,86
3962276,51
3962908,18
3963528,34
3964156,121
3964836,210
3965508,166
3966188,96
3966808,51
3967440,39
3968068,44
3968688,43
3969316,15
3969940,13
3970564,32
3971196,17
3971816,22
3972448,51
3973072,87
3973696,79
3974324,35
3974944,40
3975572,47
3976204,74
3976824,80
3977452,75
3978080,97
3978708,120
3979392,98
3980008,29
3980636,17
3981264,12
3981888,17
3982516,20
3983136,35
3983768,48
3984396,65
3985016,77
3985648,69
3986268,32
3986900,17
3987532,28
3988152,24
3988784,24
3989408,27
3990032,31
3990664,21
3991284,40
3991912,63
3992536,87
3993164,95
3993796,88
3994416,73
3995044,43
3995676,14
3996296,49
3996924,49
3997548,23
3998180,32
3998812,20
3999432,37
4000064,40
4000684,43
4001308,40
4001936,42
4002552,11
4003184,14
4003808,11
4004432,10
4005060,10
4005680,25
4006308,48
4006940,50
4007560,37
4008188,37
4008812,42
4009440,45
4010072,49
4010688,54
4011320,61
4011944,81
4012568,57
4013200,32
4013816,28
4014444,24
4015068,50
4015692,40
4016324,36
4016944,53
4017572,94
4018204,134
4018876,111
4019556,51
4020176,25
4020800,39
4021428,16
4022048,32
4022676,22
4023308,69
4023928,138
4024612,172
4025284,98
4025904,43
4026532,42
4027152,43
4027780,25
4028408,28
4029032,42
4029660,31
4030284,12
4030916,12
4031544,35
4032168,47
4032796,38
4033420,40
4034052,43
4034680,42
4035300,44
4035928,12
4036552,11
4037176,27
4037804,11
4038424,37
4039052,52
4039676,30
4040304,24
4040932,21
4041560,43
4042188,62
4042820,60
4043440,49
4044072,49
4044696,41
4045320,30
4045948,30
4046568,19
4047196,19
4047820,11
4048448,29
4049076,17
4049696,40
4050324,45
4050956,42
4051576,45
4052204,20
4052832,14
4053460,44
4054092,60
4054712,70
4055344,57
4055968,44
4056592,13
4057220,19
4057840,37
4058468,40
4059092,43
4059716,41
4060348,42
4060968,46
4061596,49
4062228,24
4062848,29
4063476,40
4064104,70
4064732,75
4065364,50
4065984,28
4066612,33
4067236,41
4067860,54
4068492,56
4069112,37
4069744,35
4070368,28
4070992,30
4071624,25
4072244,25
4072872,12
4073504,33
4074124,59
4074756,36
4075380,51
4076012,46
4076640,55
4077264,63
4077896,42
4078520,33
4079144,18
4079776,28
4080396,29
4081024,31
4081648,18
4082272,21
4082904,48
4083528,42
4084156,46
4084788,42
4085408,30
4086040,30
4086664,72
4087292,35
4087924,11
4088544,26
4089176,54
4089800,71
4090424,77
4091056,38
4091672,65
4092304,119
4092988,123
4093660,90
4094288,88
4094912,115
4095588,85
4096216,18
4096836,78
4097464,168
4098144,206
4098808,138
4099488,57
4100108,50
4100724,54
4101356,44
4101976,39
4102608,40
4103236,20
4103856,29
4104484,41
4105104,34
4105732,16
4106360,13
4106976,15
4107608,23
4108228,72
4108852,89
4109480,94
4110096,108
4110776,137
4111452,165
4112124,158
4112800,143
4113472,85
4114096,32
4114724,36
4115348,39
4115972,40
4116604,51
4117224,66
4117852,89
4118476,135
4119148,172
4119824,161
4120500,146
4121172,114
4121848,41
4122468,14
4123100,15
4123728,15
4124344,32
4124976,36
4125596,46
4126220,52
4126852,50
4127472,12
4128100,11
4128724,20
4129344,49
4129972,62
4130592,67
4131220,51
4131848,50
4132472,87
4133100,68
4133724,47
4134356,44
4134984,41
4135608,18
4136236,42
4136860,37
4137484,13
4138112,40
4138736,41
4139364,30
4139988,18
4140612,34
4141240,44
4141864,67
4142492,64
4143124,54
4143744,46
4144372,39
4144996,20
4145628,11
4146256,29
4146872,79
4147504,67
4148128,58
4148748,67
4149380,56
4150000,41
4150628,41
4151252,42
4151876,43
4152508,30
4153128,15
4153756,21
4154388,11
4155008,21
4155636,26
4156260,25
4156892,23
4157520,14
4158144,64
4158772,99
4159396,104
4160072,69
4160700,48
4161316,32
4161948,49
4162576,57
4163192,33
4163820,21
4164444,17
4165072,23
4165704,55
4166320,40
4166948,52
4167572,44
4168200,43
4168828,24
4169448,13
4170076,26
4170700,33
4171324,51
4171952,30
4172576,18
4173204,59
4173836,60
4174456,40
4175084,49
4175708,60
4176336,46
4176968,38
4177584,17
4178212,37
4178836,57
4179460,60
4180092,44
4180712,31
4181340,31
4181964,50
4182588,48
4183216,37
4183832,45
4184464,55
4185088,62
4185712,22
4186340,17
4186964,33
4187592,11
4188220,31
4188840,40
4189468,47
4190092,38
4190720,57
4191348,59
4191968,69
4192600,82
4193224,67
4193848,25
4194476,16
4195096,12
4195724,16
4196352,32
4196976,41
4197604,29
4198228,16
4198860,18
4199488,44
4200112,42
4200740,42
4201364,41
4201988,40
4202620,26
4203240,12
4203868,17
4204492,20
4205116,11
4205744,28
4206364,51
4206992,24
4207620,30
4208240,58
4208868,74
4209492,71
4210120,42
4210752,55
4211368,61
4211996,30
4212620,14
4213252,10
4213880,10
4214504,15
4215132,16
4215756,36
4216380,64
4217012,75
4217632,61
4218260,41
4218892,68
4219512,105
4220192,91
4220816,85
4221444,47
4222072,42
4222696,60
4223328,77
4223952,88
4224576,45
4225204,51
4225824,66
4226452,78
4227080,83
4227704,71
4228332,69
4228956,53
4229588,17
4230216,19
4230836,13
4231464,11
4232088,15
4232712,41
4233340,41
4233960,48
4234588,47
4235212,41
4235836,16
4236468,14
4237088,17
4237716,18
4238348,19
4238968,14
4239596,13
4240220,16
4240852,23
4241480,39
4242096,71
4242728,81
4243348,56
4243972,30
4244604,12
4245224,23
4245852,54
4246476,23
4247100,13
4247732,13
4248352,19
4248980,16
4249612,40
4250232,41
4250860,47
4251484,50
4252112,25
4252744,14
4253364,18
4253992,10
4254616,11
4255240,12
4255868,22
4256488,28
4257116,56
4257740,41
4258364,52
4258996,72
4259616,61
4260244,46
4260876,28
4261496,32
4262124,35
4262748,26
4263376,19
4264004,20
4264620,27
4265252,30
4265876,30
4266500,50
4267132,52
4267752,60
4268380,49
4269004,12
4269628,29
4270256,22
4270880,25
4271508,36
4272140,60
4272760,70
4273388,63
4274012,25
4274644,36
4275272,40
4275888,59
4276520,73
4277144,64
4277768,45
4278396,24
4279016,37
4279648,36
4280272,17
4280896,11
4281524,18
4282144,44
4282772,46
4283404,42
4284024,41
4284652,43
4285276,37
4285908,27
4286536,32
4287160,18
4287792,13
4288416,29
4289040,34
4289668,23
4290288,14
4290916,35
4291540,73
4292164,93
4292796,87
4293416,75
4294048,91
4294676,93
4295296,68
4295924,35
4296552,12
4297180,64
4297812,96
4298432,81
4299060,28
4299688,40
4300312,41
4300944,45
4301560,43
4302188,23
4302812,16
4303436,11
4304064,21
4304680,41
4305312,44
4305940,67
4306560,104
4307240,74
4307856,38
4308484,47
4309112,48
4309736,43
4310368,24
4310992,35
4311616,57
4312248,32
4312864,28
4313492,30
4314124,12
4314744,56
4315376,41
4315996,33
4316628,42
4317260,46
4317880,47
4318508,47
4319136,13
4319760,34
4320392,39
4321008,29
4321636,11
4322260,26
4322884,41
4323512,16
4324132,34
4324760,68
4325392,63
4326012,49
4326640,44
4327264,38
4327892,53
4328524,30
4329144,15
4329772,11
4330396,41
4331020,39
4331652,12
4332272,38
4332900,40
4333524,42
4334148,40
4334780,54
4335400,43
4336028,36
4336660,37
4337280,40
4337908,22
4338532,32
4339164,74
4339796,85
4340416,108
4341096,104
4341780,47
4342400,51
4343028,42
4343652,33
4344284,13
4344912,33
4345536,60
4346168,55
4346792,47
4347416,43
4348044,14
4348664,12
4349296,46
4349920,41
4350544,41
4351172,45
4351792,58
4352424,51
4353056,28
4353672,17
4354300,11
4354924,19
4355556,24
4356184,24
4356800,25
4357432,14
4358056,62
4358680,86
4359308,78
4359928,49
4360556,17
4361180,42
4361804,76
4362436,62
4363056,15
4363684,12
4364312,22
4364936,21
4365564,13
4366188,37
4366820,41
4367448,39
4368068,45
4368696,27
4369320,16
4369940,15
4370572,30
4371192,37
4371824,31
4372448,29
4373072,44
4373700,33
4374320,41
4374952,39
4375580,43
4376200,44
4376828,41
4377452,12
4378084,11
4378716,12
4379336,11
4379968,10
4380592,11
4381216,17
4381844,11
4382464,22
4383096,41
4383720,41
4384344,45
4384972,45
4385592,32
4386220,37
4386852,51
4387472,59
4388104,21
4388724,17
4389356,65
4389988,54
4390608,30
4391236,36
4391864,41
4392488,67
4393116,72
4393736,68
4394364,52
4394992,31
4395616,22
4396244,56
4396868,27
4397500,19
4398132,48
4398752,49
4399384,37
4400008,41
4400636,42
4401268,42
4401888,39
4402520,17
4403144,18
4403768,28
4404400,11
4405016,55
4405644,50
4406268,44
4406896,23
4407524,36
4408148,80
4408780,65
4409408,41
4410032,42
4410660,12
4411284,20
4411912,29
4412540,26
4413160,20
4413792,13
4414416,15
4415040,15
4415668,50
4416288,61
4416916,46
4417548,41
4418168,41
4418796,17
4419424,26
4420052,38
4420684,24
4421304,12
4421932,41
4422560,41
4423184,13
4423812,22
4424432,41
4425060,49
4425684,50
4426308,42
4426936,32
4427556,21
4428184,34
4428812,23
4429432,16
4430060,23
4430684,14
4431316,38
4431944,22
4432568,42
4433196,49
4433820,42
4434448,52
4435076,55
4435696,25
4436324,13
4436948,11
4437572,23
4438204,42
4438824,19
4439452,27
4440084,48
4440704,30
4441332,43
4441960,44
4442588,52
4443220,79
4443840,16
4444468,22
4445092,17
4445720,33
4446348,32
4446968,36
4447600,37
4448224,29
4448844,17
4449476,36
4450096,40
4450724,43
4451356,45
4451976,26
4452608,17
4453232,17
4453864,23
4454492,33
4455112,18
4455740,36
4456364,61
4456992,78
4457620,52
4458240,47
4458868,44
4459496,43
4460120,43
4460752,23
4461368,48
4462000,67
4462632,56
4463248,38
4463880,28
4464504,12
4465136,11
4465764,25
4466384,46
4467016,42
4467640,41
4468264,49
4468892,32
4469512,22
4470144,12
4470768,19
4471392,24
4472024,27
4472648,18
4473276,18
4473908,30
4474528,87
4475160,82
4475784,53
4476416,47
4477044,35
4477664,23
4478296,22
4478920,22
4479544,11
4480176,13
4480792,15
4481420,13
4482044,28
4482672,53
4483300,60
4483924,81
4484552,80
4485184,73
4485800,60
4486432,39
4487052,15
4487684,15
4488312,13
4488932,17
4489560,23
4490184,20
4490808,34
4491436,66
4492056,56
4492684,51
4493312,56
4493936,51
4494568,55
4495192,55
4495824,23
4496452,20
4497072,12
4497700,16
4498328,57
4498952,36
4499580,36
4500200,40
4500828,42
4501452,43
4502080,23
4502708,51
4503328,35
4503960,13
4504592,12
4505212,18
4505844,28
4506464,47
4507092,45
4507720,34
4508344,39
4508972,49
4509596,45
4510220,36
4510852,47
4511472,60
4512100,57
4512724,39
4513348,21
4513980,10
4514600,31
4515228,31
4515860,33
4516480,39
4517108,41
4517732,43
4518364,44
4518992,14
4519616,21
4520244,28
4520868,17
4521492,13
4522124,25
4522744,46
4523372,48
4523996,45
4524624,40
4525252,46
4525872,47
4526504,48
4527132,60
4527752,81
4528384,87
4529008,70
4529636,47
4530264,17
4530888,31
4531520,37
4532140,33
4532764,35
4533396,46
4534016,60
4534644,54
4535272,53
4535896,24
4536524,14
4537144,13
4537772,13
4538404,23
4539024,30
4539656,19
4540280,13
4540908,41
4541540,52
4542160,53
4542792,47
4543416,49
4544040,59
4544668,68
4545288,70
4545916,36
4546540,21
4547168,49
4547796,28
4548420,10
4549052,26
4549684,43
4550304,42
4550936,44
4551560,45
4552192,37
4552820,35
4553440,25
4554072,11
4554696,11
4555320,21
4555952,30
4556572,13
4557200,13
4557832,36
4558452,42
4559080,44
4559704,46
4560336,40
4560964,46
4561584,74
4562216,88
4562840,54
4563464,17
4564092,27
4564712,33
4565344,16
4565968,37
4566592,39
4567220,44
4567840,41
4568468,38
4569100,19
4569720,29
4570348,36
4570972,49
4571604,38
4572236,16
4572856,17
4573484,19
4574112,30
4574736,45
4575364,43
4575984,92
4576616,86
4577244,37
4577868,22
4578496,20
4579120,37
4579752,35
4580384,11
4581000,10
4581632,20
4582256,15
4582888,45
4583516,52
4584136,43
4584768,42
4585392,17
4586016,20
4586648,31
4587264,37
4587896,13
4588520,31
4589144,77
4589772,107
4590444,98
4591068,45
4591700,42
4592320,51
4592948,53
4593572,64
4594200,65
4594828,34
4595448,13
4596076,20
4596700,21
4597328,25
4597956,28
4598576,34
4599204,43
4599836,54
4600456,49
4601084,43
4601712,42
4602340,37
4602972,24
4603592,13
4604224,13
4604848,14
4605472,37
4606100,77
4606720,68
4607352,31
4607976,46
4608600,55
4609232,50
4609848,47
4610476,27
4611104,23
4611728,42
4612356,43
4612980,17
4613612,11
4614240,22
4614856,29
4615488,19
4616112,38
4616736,41
4617364,45
4617984,43
4618612,19
4619236,11
4619860,20
4620492,26
4621112,17
4621740,23
4622372,26
4622992,13
4623620,20
4624244,40
4624876,45
4625504,46
4626124,42
4626752,36
4627380,15
4628000,14
4628632,16
4629248,13
4629880,12
4630504,10
4631128,31
4631756,51
4632376,25
4633004,45
4633636,43
4634256,47
4634884,42
4635508,22
4636140,27
4636768,27
4637388,19
4638020,24
4638644,17
4639268,16
4639900,17
4640520,18
4641148,41
4641772,51
4642396,55
4643028,56
4643652,69
4644280,59
4644912,35
4645528,32
4646156,18
4646784,12
4647412,26
4648044,36
4648664,27
4649292,40
4649916,43
4650540,42
4651172,41
4651792,32
4652424,25
4653048,25
4653672,13
4654300,12
4654924,18
4655556,21
4656188,23
4656808,22
4657436,33
4658064,61
4658692,64
4659324,62
4659944,62
4660572,77
4661196,46
4661820,12
4662452,22
4663072,20
4663700,16
4664332,12
4664952,11
4665580,17
4666208,49
4666836,57
4667468,43
4668088,42
4668716,16
4669344,12
4669968,11
4670596,12
4671216,13
4671848,17
4672472,33
4673096,20
4673724,13
4674344,45
4674972,47
4675604,50
4676224,55
4676852,32
4677476,14
4678108,40
4678740,52
4679360,51
4679988,24
4680616,11
4681236,19
4681868,34
4682488,38
4683116,36
4683744,49
4684368,63
4685000,50
4685616,13
4686244,19
4686876,18
4687496,33
4688128,13
4688748,14
4689380,19
4690012,12
4690632,24
4691260,51
4691884,56
4692512,45
4693140,42
4693760,21
4694388,31
4695016,47
4695640,56
4696272,29
4696888,16
4697520,39
4698152,39
4698768,15
4699400,41
4700024,40
4700656,42
4701284,41
4701904,21
4702536,11
4703160,13
4703784,27
4704416,34
4705036,20
4705664,34
4706288,38
4706912,36
4707544,39
4708168,50
4708800,46
4709428,47
4710048,50
4710680,49
4711304,61
4711936,42
4712568,18
4713184,19
4713816,21
4714440,20
4715064,25
4715692,25
4716312,38
4716944,41
4717572,44
4718192,43
4718824,33
4719448,18
4720076,13
4720708,18
4721328,12
4721956,13
4722580,21
4723208,24
4723836,14
4724456,43
4725088,52
4725712,70
4726336,53
4726968,23
4727584,16
4728216,32
4728848,35
4729464,25
4730096,27
4730720,20
4731352,24
4731980,24
4732600,38
4733232,41
4733856,39
4734480,40
4735112,35
4735732,33
4736364,37
4736988,29
4737612,26
4738240,38
4738860,45
4739488,36
4740120,33
4740740,35
4741368,53
4741992,49
4742624,46
4743252,49
4743872,45
4744504,53
4745128,51
4745752,42
4746384,25
4747000,22
4747632,13
4748256,13
4748880,18
4749508,37
4750128,43
4750760,40
4751388,41
4752008,21
4752636,11
4753260,13
4753892,30
4754524,18
4755144,14
4755776,38
4756400,39
4757024,34
4757656,40
4758272,42
4758904,44
4759528,42
4760152,25
4760784,9
4761348,20
4761984,32
4762608,11
4763232,15
4763860,22
4764484,40
4765116,27
4765748,36
4766368,43
4767000,43
4767624,41
4768256,42
4768884,12
4769504,18
4770136,33
4770760,34
4771384,24
4772016,16
4772632,13
4773264,15
4773892,14
4774512,54
4775140,76
4775768,88
4776396,82
4777028,72
4777648,43
4778276,27
4778904,22
4779528,75
4780160,101
4780828,119
4781504,112
4782188,68
4782808,46
4783440,44
4784064,41
4784688,49
4785320,44
4785936,43
4786568,39
4787192,30
4787820,13
4788448,23
4789076,24
4789708,26
4790336,33
4790960,37
4791592,43
4792220,48
4792844,42
4793476,38
4794096,78
4794728,73
4795352,67
4795976,35
4796608,16
4797232,17
4797864,11
4798496,22
4799116,36
4799748,40
4800376,41
4801004,41
4801632,40
4802256,28
4802884,27
4803508,13
4804132,23
4804764,51
4805384,61
4806012,29
4806640,12
4807260,23
4807892,40
4808516,45
4809148,56
4809776,54
4810396,56
4811028,57
4811652,52
4812284,44
4812912,23
4813536,20
4814164,46
4814788,48
4815412,16
4816044,38
4816664,42
4817292,45
4817916,45
4818544,21
4819172,23
4819800,23
4820428,37
4821060,53
4821680,61
4822312,31
4822936,13
4823560,16
4824188,37
4824808,45
4825436,55
4826064,55
4826688,47
4827316,40
4827936,49
4828568,52
4829196,36
4829816,14
4830448,12
4831072,12
4831704,12
4832332,28
4832952,38
4833584,42
4834208,45
4834832,46
4835460,23
4836080,11
4836708,11
4837332,11
4837960,21
4838588,15
4839208,20
4839836,16
4840468,14
4841088,47
4841716,46
4842340,45
4842972,54
4843604,70
4844224,77
4844852,77
4845476,47
4846100,16
4846732,10
4847352,17
4847984,28
4848608,19
4849232,39
4849864,42
4850480,39
4851112,44
4851744,67
4852360,58
4852992,48
4853616,32
4854248,17
4854876,20
4855496,29
4856128,37
4856752,38
4857376,42
4858008,43
4858624,60
4859256,54
4859880,47
4860504,37
4861136,44
4861752,58
4862384,53
4863020,30
4863640,13
4864272,23
4864896,44
4865524,17
4866156,44
4866776,41
4867404,45
4868028,58
4868652,57
4869284,54
4869904,33
4870536,11
4871160,12
4871784,16
4872416,19
4873040,15
4873668,14
4874300,50
4874920,84
4875548,91
4876172,86
4876804,84
4877432,81
4878056,75
4878688,47
4879312,13
4879936,15
4880568,33
4881184,52
4881816,57
4882444,58
4883064,56
4883696,53
4884320,47
4884948,42
4885580,14
4886200,17
4886832,29
4887456,29
4888080,12
4888708,18
4889328,29
4889960,17
4890584,37
4891208,74
4891836,50
4892456,42
4893088,41
4893720,14
4894336,11
4894968,13
4895592,31
4896224,52
4896856,45
4897472,34
4898104,23
4898728,14
4899352,43
4899984,41
4900600,43
4901232,47
4901856,34
4902480,30
4903108,18
4903728,12
4904360,12
4904988,13
4905608,20
4906236,17
4906864,13
4907496,54
4908128,70
4908748,69
4909380,59
4910004,64
4910628,72
4911260,70
4911884,53
4912516,27
4913140,13
4913764,13
4914396,12
4915024,11
4915656,30
4916284,36
4916904,43
4917532,46
4918156,41
4918784,83
4919416,94
4920036,45
4920664,15
4921288,31
4921908,54
4922540,56
4923160,65
4923788,44
4924412,48
4925040,70
4925668,58
4926292,46
4926924,29
4927552,37
4928176,56
4928804,68
4929428,60
4930052,21
4930684,29
4931304,27
4931932,12
4932556,41
4933180,42
4933812,39
4934432,39
4935060,26
4935692,14
4936312,17
4936940,14
4937564,20
4938196,45
4938828,64
4939448,50
4940080,31
4940700,37
4941328,51
4941956,55
4942576,51
4943204,47
4943828,40
4944452,53
4945084,56
4945704,45
4946332,26
4946964,16
4947584,14
4948212,33
4948840,35
4949468,40
4950100,39
4950720,40
4951352,41
4951976,13
4952600,13
4953232,11
4953848,12
4954480,10
4955104,12
4955728,35
4956360,45
4956976,37
4957604,35
4958236,60
4958856,76
4959488,55
4960112,50
4960740,73
4961372,96
4961992,95
4962620,31
4963244,13
4963868,15
4964500,27
4965120,31
4965748,36
4966376,40
4967000,41
4967628,51
4968248,82
4968876,74
4969508,38
4970128,20
4970756,11
4971384,11
4972012,18
4972644,14
4973264,14
4973892,25
4974520,48
4975144,47
4975776,43
4976392,41
4977024,17
4977648,16
4978268,31
4978900,16
4979524,23
4980152,18
4980784,23
4981404,16
4982036,68
4982660,75
4983288,40
4983920,38
4984540,42
4985168,17
4985792,12
4986416,31
4987048,30
4987664,23
4988296,11
4988920,31
4989544,40
4990176,33
4990800,47
4991432,56
4992064,75
4992680,69
4993308,39
4993932,14
4994564,22
4995192,22
4995812,22
4996444,13
4997068,11
4997692,11
4998324,10
4998944,30
4999572,37
5000204,38
5000824,43
5001452,43
5002076,13
5002708,12
5003340,12
5003960,14
5004592,13
5005216,18
5005840,23
5006468,15
5007088,15
5007720,43
5008344,59
5008968,66
5009596,60
5010216,55
5010848,47
5011480,49
5012096,51
5012728,13
5013352,11
5013984,13
5014612,31
5015232,45
5015864,46
5016488,47
5017112,53
5017744,42
5018360,25
5018992,21
5019616,12
5020240,11
5020868,11
5021488,11
5022116,14
5022748,12
5023368,21
5023996,37
5024624,46
5025256,57
5025884,51
5026504,65
5027136,72
5027760,19
5028384,11
5029016,12
5029632,27
5030264,12
5030888,35
5031512,30
5032144,22
5032760,36
5033392,41
5034024,39
5034644,42
5035276,14
5035900,10
5036532,11
5037164,18
5037784,28
5038416,23
5039040,21
5039664,15
5040296,13
5040912,47
5041544,57
5042168,48
5042792,47
5043424,41
5044048,51
5044676,73
5045308,64
5045928,34
5046560,17
5047184,14
5047812,24
5048444,67
5049064,66
5049696,50
5050320,49
5050944,47
5051576,40
5052192,21
5052824,11
5053456,12
5054076,12
5054708,11
5055332,14
5055964,12
5056596,15
5057216,35
5057848,73
5058472,84
5059096,76
5059728,70
5060344,69
5060976,39
5061600,28
5062224,23
5062856,25
5063472,36
5064104,39
5064736,31
5065356,61
5065988,62
5066612,46
5067244,44
5067876,42
5068496,29
5069128,25
5069752,18
5070380,26
5071012,18
5071632,10
5072264,19
5072892,26
5073516,24
5074148,40
5074772,59
5075404,57
5076036,40
5076656,26
5077288,19
5077912,41
5078536,62
5079168,56
5079792,32
5080424,19
5081048,11
5081672,19
5082300,34
5082920,39
5083552,39
5084180,39
5084800,42
5085428,12
5086056,11
5086688,11
5087320,10
5087936,14
5088568,14
5089196,12
5089820,17
5090452,18
5091072,43
5091704,41
5092328,40
5092952,41
5093584,33
5094204,47
5094836,54
5095468,24
5096088,17
5096716,32
5097344,40
5097976,27
5098608,19
5099224,39
5099856,41
5100484,40
5101108,41
5101740,18
5102360,14
5102992,22
5103624,15
5104244,30
5104876,32
5105500,35
5106136,39
5106764,35
5107388,37
5108016,44
5108644,46
5109268,42
5109900,35
5110520,28
5111152,43
5111780,39
5112408,26
5113036,16
5113656,11
5114288,21
5114920,24
5115544,31
5116180,37
5116804,38
5117436,41
5118068,40
5118692,12
5119324,11
5119952,17
5120580,26
5121208,13
5121824,50
5122452,49
5123080,42
5123704,25
5124332,49
5124956,49
5125584,51
5126212,60
5126832,53
5127460,36
5128084,28
5128708,30
5129340,12
5129960,11
5130588,13
5131212,21
5131836,26
5132464,34
5133088,37
5133716,37
5134348,40
5134968,24
5135596,18
5136220,12
5136852,13
5137480,20
5138096,23
5138728,29
5139352,24
5139976,17
5140604,40
5141224,59
5141852,63
5142476,55
5143100,50
5143728,26
5144352,20
5144980,31
5145612,30
5146232,13
5146860,11
5147484,21
5148112,19
5148744,15
5149364,38
5149992,39
5150616,42
5151244,39
5151872,30
5152492,22
5153120,15
5153744,12
5154368,14
5154996,19
5155616,35
5156248,22
5156876,14
5157496,41
5158128,42
5158752,50
5159380,56
5160012,59
5160632,49
5161260,40
5161884,36
5162508,22
5163140,17
5163760,21
5164388,15
5165012,53
5165636,61
5166268,43
5166888,42
5167516,51
5168148,46
5168768,17
5169396,32
5170020,28
5170652,13
5171284,19
5171904,51
5172532,48
5173156,37
5173780,23
5174408,49
5175032,59
5175660,53
5176288,49
5176912,28
5177540,31
5178160,43
5178788,34
5179420,12
5180040,12
5180668,26
5181296,36
5181924,20
5182556,32
5183176,41
5183808,41
5184432,42
5185056,17
5185684,19
5186304,18
5186932,23
5187556,14
5188180,20
5188812,30
5189432,34
5190060,40
5190692,35
5191312,49
5191944,61
5192568,59
5193196,75
5193828,80
5194448,69
5195076,39
5195704,38
5196328,42
5196960,12
5197576,41
5198208,51
5198832,33
5199456,39
5200088,39
5200708,41
5201340,45
5201968,34
5202592,41
5203220,37
5203844,28
5204472,42
5205100,48
5205720,37
5206352,27
5206976,14
5207600,53
5208228,71
5208848,75
5209476,51
5210104,35
5210728,16
5211356,40
5211980,54
5212612,33
5213244,16
5213864,11
5214496,13
5215120,13
5215748,34
5216380,36
5217000,40
5217628,43
5218252,25
5218880,31
5219508,46
5220128,52
5220760,48
5221388,44
5222008,46
5222640,32
5223260,22
5223892,36
5224524,42
5225144,43
5225772,41
5226396,47
5227020,47
5227652,50
5228272,33
5228904,27
5229524,22
5230152,24
5230780,11
5231400,19
5232032,17
5232660,35
5233280,38
5233908,44
5234536,42
5235164,19
5235796,40
5236416,22
5237048,12
5237672,11
5238296,14
5238928,28
5239544,42
5240176,33
5240800,38
5241424,49
5242056,64
5242676,59
5243304,37
5243936,37
5244552,43
5245180,31
5245804,13
5246432,14
5247064,11
5247680,23
5248308,20
5248932,35
5249556,39
5250184,38
5250800,40
5251428,40
5252052,11
5252672,11
5253304,12
5253920,13
5254548,29
5255176,29
5255800,31
5256428,29
5257052,19
5257680,49
5258308,48
5258928,49
5259556,45
5260180,39
5260804,43
5261432,39
5262056,29
5262684,14
5263308,11
5263932,18
5264564,30
5265184,29
5265812,34
5266440,36
5267064,40
5267692,41
5268316,20
5268948,11
5269576,11
5270192,14
5270824,31
5271448,26
5272072,16
5272700,21
5273320,16
5273952,44
5274572,40
5275196,46
5275828,52
5276448,45
5277076,42
5277708,45
5278328,39
5278960,27
5279580,13
5280212,11
5280840,22
5281464,28
5282092,25
5282716,39
5283340,40
5283968,41
5284584,42
5285212,12
5285836,16
5286460,12
5287088,24
5287704,39
5288332,28
5288956,38
5289580,61
5290208,45
5290832,39
5291460,51
5292092,68
5292712,77
5293344,33
5293964,15
5294596,17
5295224,36
5295848,33
5296476,19
5297100,13
5297724,29
5298356,18
5298976,40
5299604,41
5300236,38
5300856,42
5301484,35
5302108,31
5302740,28
5303368,15
5303988,11
5304616,27
5305240,39
5305864,35
5306496,27
5307112,33
5307744,51
5308368,58
5308992,53
5309620,52
5310240,58
5310868,56
5311500,56
5312120,60
5312752,49
5313376,14
5314004,61
5314636,36
5315256,26
5315884,53
5316508,39
5317132,50
5317764,46
5318384,31
5319016,11
5319640,16
5320264,11
5320892,27
5321512,39
5322144,49
5322772,51
5323392,34
5324024,44
5324648,52
5325276,52
5325908,48
5326528,44
5327156,38
5327780,31
5328404,17
5329032,15
5329648,17
5330276,13
5330900,24
5331524,23
5332152,31
5332768,36
5333400,41
5334028,42
5334648,41
5335276,14
5335900,24
5336532,20
5337160,18
5337780,17
5338408,16
5339032,24
5339656,28
5340284,16
5340904,45
5341532,38
5342156,40
5342780,40
5343412,48
5344032,61
5344660,53
5345288,34
5345912,15
5346540,10
5347164,16
5347796,17
5348424,13
5349044,37
5349672,36
5350296,41
5350920,39
5351548,25
5352168,16
5352796,14
5353420,11
5354044,13
5354676,10
5355296,16
5355924,16
5356556,14
5357176,40
5357804,51
5358428,52
5359060,58
5359692,64
5360312,52
5360944,27
5361564,11
5362192,11
5362820,16
5363440,21
5364068,40
5364692,51
5365316,31
5365948,42
5366568,47
5367196,43
5367828,42
5368448,15
5369076,11
5369700,16
5370332,16
5370960,26
5371584,27
5372212,25
5372836,22
5373464,13
5374092,42
5374712,45
5375344,49
5375968,49
5376592,38
5377224,40
5377840,53
5378468,45
5379096,30
5379720,25
5380348,25
5380972,11
5381604,11
5382232,35
5382848,37
5383480,39
5384104,41
5384728,50
5385356,29
5385976,20
5386604,20
5387228,25
5387852,40
5388480,25
5389104,33
5389732,36
5390364,28
5390984,45
5391612,48
5392236,49
5392868,42
5393496,29
5394120,39
5394748,43
5395372,38
5395996,18
5396628,14
5397248,16
5397876,20
5398500,14
5399124,40
5399756,38
5400376,43
5401004,40
5401636,16
5402256,14
5402884,14
5403508,13
5404140,17
5404768,17
5405388,14
5406020,11
5406644,17
5407268,42
5407896,51
5408520,61
5409148,55
5409772,32
5410396,28
5411028,34
5411652,23
5412280,12
5412908,28
5413528,39
5414156,40
5414784,36
5415412,33
5416044,35
5416664,40
5417292,40
5417916,39
5418540,28
5419172,16
5419792,17
5420424,21
5421048,32
5421672,15
5422300,19
5422924,26
5423556,15
5424188,70
5424808,72
5425436,45
5426060,41
5426692,39
5427324,38
5427944,33
5428572,41
5429196,39
5429820,25
5430448,14
5431064,10
5431696,13
5432324,64
5432944,81
5433572,73
5434200,58
5434828,59
5435460,67
5436080,53
5436712,51
5437336,22
5437960,62
5438592,149
5439260,200
5439940,231
5440620,151
5441292,82
5441916,41
5442540,40
5443164,35
5443796,56
5444420,67
5445048,55
5445676,38
5446296,21
5446924,13
5447548,11
5448180,12
5448808,34
5449424,36
5450056,40
5450680,41
5451304,39
5451932,16
5452552,11
5453180,12
5453804,18
5454428,15
5455056,38
5455680,33
5456308,16
5456940,16
5457560,48
5458188,55
5458812,54
5459444,52
5460072,42
5460696,48
5461324,36
5461948,26
5462572,10
5463204,12
5463824,11
5464452,11
5465076,15
5465704,37
5466332,38
5466956,42
5467588,41
5468216,37
5468836,44
5469464,29
5470088,12
5470716,12
5471348,14
5471968,24
5472600,39
5473224,25
5473848,35
5474476,43
5475096,50
5475728,61
5476356,51
5476976,40
5477608,50
5478232,45
5478864,27
5479492,13
5480112,11
5480740,26
5481364,26
5481992,23
5482620,38
5483240,41
5483868,41
5484492,41
5485120,27
5485748,16
5486368,13
5487000,11
5487628,32
5488248,39
5488876,39
5489500,23
5490132,13
5490760,50
5491380,54
5492008,58
5492632,48
5493256,33
5493884,42
5494504,63
5495132,41
5495756,25
5496384,15
5497012,10
5497632,19
5498260,18
5498892,34
5499512,37
5500144,41
5500768,40
5501400,35
5502032,29
5502648,24
5503280,14
5503904,11
5504528,15
5505160,35
5505776,46
5506408,40
5507032,33
5507656,55
5508288,54
5508904,49
5509532,49
5510164,55
5510784,51
5511412,43
5512040,40
5512668,35
5513300,41
5513920,22
5514548,13
5515176,17
5515800,40
5516432,39
5517048,44
5517680,46
5518304,54
5518928,53
5519560,34
5520176,23
5520808,26
5521436,36
5522056,43
5522684,28
5523312,15
5523940,49
5524572,58
5525192,53
5525824,51
5526448,58
5527072,35
5527704,35
5528320,43
5528952,27
5529576,12
5530204,14
5530832,16
5531456,12
5532084,36
5532716,37
5533336,40
5533968,43
5534592,43
5535220,25
5535852,18
5536472,15
5537100,11
5537724,11
5538348,19
5538980,42
5539600,40
5540228,25
5540852,51
5541476,55
5542108,51
5542732,54
5543364,39
5543992,42
5544616,53
5545248,32
5545872,13
5546500,20
5547132,19
5547752,16
5548384,13
5549008,35
5549632,40
5550264,43
5550880,43
5551508,21
5552140,18
5552760,13
5553392,11
5554016,29
5554644,45
5555276,40
5555896,20
5556524,13
5557152,47
5557776,57
5558404,54
5559024,43
5559656,35
5560280,36
5560908,56
5561536,62
5562156,42
5562788,12
5563420,20
5564040,17
5564672,17
5565296,30
5565928,37
5566560,44
5567176,42
5567808,42
5568436,14
5569060,14
5569692,14
5570312,37
5570944,49
5571568,32
5572192,35
5572820,32
5573444,16
5574076,46
5574704,52
5575328,58
5575960,54
5576584,44
5577212,34
5577844,45
5578464,46
5579092,13
5579720,13
5580344,19
5580976,12
5581592,23
5582220,36
5582848,51
5583472,58
5584104,48
5584724,35
5585356,19
5585988,10
5586608,15
5587236,11
5587860,27
5588488,36
5589116,28
5589736,20
5590368,35
5590992,42
5591620,53
5592248,56
5592872,57
5593504,46
5594136,48
5594752,45
5595384,29
5596008,23
5596640,15
5597268,27
5597888,32
5598520,24
5599144,40
5599768,43
5600400,41
5601016,40
5601644,13
5602268,12
5602892,11
5603524,10
5604144,11
5604772,21
5605404,43
5606024,46
5606656,33
5607280,35
5607908,51
5608540,51
5609160,51
5609788,33
5610412,25
5611036,49
5611668,61
5612288,41
5612916,13
5613540,20
5614164,23
5614796,16
5615416,37
5616048,39
5616676,39
5617296,42
5617924,42
5618548,19
5619180,11
5619812,10
5620432,11
5621064,15
5621688,31
5622312,39
5622944,33
5623560,21
5624192,52
5624816,52
5625440,63
5626072,49
5626696,40
5627328,31
5627956,24
5628576,17
5629208,19
5629832,20
5630464,29
5631096,28
5631716,16
5632348,39
5632968,38
5633592,41
5634220,39
5634840,24
5635468,21
5636092,10
5636720,11
5637348,10
5637972,11
5638604,24
5639232,34
5639852,28
5640480,37
5641104,49
5641732,54
5642364,44
5642984,33
5643612,43
5644236,72
5644860,61
5645492,12
5646112,13
5646740,11
5647372,28
5647992,19
5648624,29
5649248,40
5649876,40
5650508,40
5651128,43
5651760,17
5652384,17
5653008,27
5653636,18
5654256,20
5654884,13
5655508,27
5656132,40
5656764,26
5657384,42
5658016,43
5658644,40
5659264,41
5659892,48
5660516,75
5661148,74
5661780,45
5662400,28
5663028,29
5663652,14
5664280,19
5664908,22
5665528,37
5666156,55
5666780,42
5667404,42
5668036,20
5668656,26
5669284,43
5669916,46
5670536,33
5671164,29
5671792,33
5672420,41
5673052,42
5673672,37
5674300,47
5674924,56
5675552,57
5676180,51
5676800,35
5677428,42
5678056,49
5678680,31
5679312,13
5679928,10
5680560,11
5681188,10
5681808,17
5682436,35
5683064,39
5683696,40
5684324,42
5684944,30
5685572,17
5686200,11
5686824,12
5687452,13
5688072,13
5688700,35
5689328,73
5689952,51
5690580,37
5691204,49
5691836,49
5692468,50
5693088,62
5693720,67
5694344,47
5694972,15
5695604,10
5696224,14
5696852,11
5697476,18
5698100,19
5698732,34
5699352,38
5699980,41
5700612,44
5701232,47
5701864,37
5702488,24
5703116,15
5703748,19
5704368,29
5704996,28
5705624,27
5706248,27
5706876,28
5707496,51
5708128,67
5708752,63
5709376,53
5710008,47
5710628,69
5711260,72
5711892,38
5712512,11
5713144,22
5713768,39
5714400,42
5715028,18
5715648,37
5716280,37
5716904,44
5717528,43
5718160,19
5718780,15
5719412,15
5720036,13
5720660,13
5721292,24
5721912,29
5722544,24
5723176,22
5723796,34
5724428,43
5725052,55
5725684,59
5726312,51
5726936,46
5727568,42
5728196,25
5728820,17
5729452,10
5730072,11
5730704,29
5731336,54
5731956,34
5732588,37
5733212,41
5733844,42
5734476,38
5735096,12
5735724,15
5736348,13
5736972,11
5737600,16
5738216,26
5738848,28
5739472,20
5740096,14
5740724,41
5741344,40
5741972,40
5742604,44
5743224,41
5743856,52
5744480,57
5745108,52
5745740,32
5746360,22
5746988,11
5747616,11
5748240,23
5748868,36
5749488,38
5750120,41
5750744,41
5751368,31
5751996,20
5752616,29
5753248,38
5753880,32
5754496,29
5755128,38
5755752,34
5756384,17
5757012,51
5757632,77
5758264,59
5758888,48
5759512,45
5760144,47
5760760,62
5761388,44
5762012,17
5762636,10
5763264,11
5763880,17
5764512,19
5765140,19
5765760,40
5766388,38
5767012,42
5767640,45
5768272,22
5768888,16
5769520,19
5770144,23
5770768,29
5771396,19
5772016,21
5772644,37
5773268,37
5773892,38
5774524,48
5775144,45
5775776,43
5776404,38
5777024,49
5777652,64
5778276,51
5778904,17
5779536,11
5780152,20
5780780,11
5781404,10
5782032,34
5782660,37
5783280,39
5783908,41
5784536,45
5785160,58
5785788,62
5786408,44
5787036,20
5787664,20
5788288,24
5788916,21
5789540,33
5790172,28
5790800,52
5791420,61
5792048,57
5792672,53
5793296,41
5793924,32
5794544,27
5795176,34
5795800,29
5796424,28
5797052,13
5797672,27
5798300,20
5798932,37
5799552,37
5800184,41
5800804,39
5801436,15
5802068,18
5802688,33
5803316,19
5803944,15
5804568,18
5805196,48
5805816,46
5806448,17
5807072,56
5807696,51
5808328,41
5808944,44
5809572,56
5810204,57
5810824,45
5811456,42
5812080,20
5812708,10
5813340,12
5813960,25
5814592,52
5815216,42
5815840,36
5816472,38
5817088,41
5817716,41
5818340,26
5818964,37
5819596,30
5820216,12
5820844,11
5821476,16
5822096,32
5822728,33
5823352,15
5823980,54
5824616,63
5825232,55
5825864,49
5826484,44
5827112,35
5827740,44
5828360,61
5828992,45
5829616,24
5830240,11
5830868,23
5831492,37
5832124,36
5832756,40
5833376,44
5834008,43
5834632,35
5835264,32
5835896,16
5836512,13
5837144,13
5837768,19
5838392,24
5839020,19
5839640,26
5840272,37
5840896,52
5841520,61
5842148,63
5842776,49
5843404,50
5844036,83
5844656,76
5845284,19
5845908,33
5846536,38
5847164,34
5847784,30
5848416,20
5849036,37
5849664,38
5850292,41
5850912,41
5851540,24
5852172,23
5852792,19
5853424,15
5854048,16
5854680,14
5855308,20
5855928,31
5856560,20
5857184,39
5857812,50
5858440,52
5859064,52
5859696,32
5860320,23
5860944,43
5861572,41
5862192,16
5862824,14
5863452,12
5864072,15
5864700,23
5865328,33
5865956,35
5866588,38
5867208,40
5867836,37
5868464,11
5869088,18
5869720,11
5870336,21
5870968,26
5871592,74
5872216,72
5872848,45
5873468,32
5874096,44
5874728,58
5875348,63
5875980,62
5876604,58
5877236,51
5877868,44
5878488,36
5879120,19
5879744,20
5880368,11
5880996,22
5881616,29
5882244,37
5882872,40
5883496,41
5884128,39
5884752,16
5885384,11
5886016,17
5886636,23
5887268,24
5887892,32
5888520,33
5889152,23
5889768,23
5890400,35
5891024,38
5891648,43
5892276,53
5892896,51
5893528,40
5894160,46
5894776,45
5895408,31
5896032,26
5896660,30
5897292,11
5897912,11
5898544,33
5899168,39
5899792,41
5900420,40
5901040,40
5901668,35
5902292,22
5902916,16
5903548,18
5904168,28
5904796,33
5905428,30
5906048,25
5906676,14
5907300,50
5907932,49
5908564,50
5909184,46
5909812,39
5910440,36
5911064,31
5911692,29
5912312,25
5912944,15
5913568,11
5914192,12
5914824,17
5915444,31
5916076,36
5916704,39
5917324,38
5917956,22
5918580,15
5919212,17
5919844,22
5920464,11
5921092,12
5921716,31
5922340,37
5922972,14
5923592,36
5924224,45
5924848,47
5925468,47
5926100,46
5926724,39
5927356,45
5927984,42
5928608,33
5929240,17
5929864,11
5930492,22
5931124,29
5931744,19
5932376,37
5933000,40
5933624,41
5934256,39
5934872,12
5935504,22
5936136,18
5936752,14
5937384,32
5938008,17
5938640,73
5939268,65
5939888,25
5940516,47
5941140,45
5941764,45
5942396,44
5943016,35
5943648,37
5944272,51
5944896,41
5945524,11
5946144,21
5946772,17
5947404,24
5948024,20
5948652,34
5949280,37
5949908,38
5950540,40
5951160,33
5951792,21
5952416,17
5953040,11
5953668,10
5954288,12
5954916,21
5955544,25
5956168,27
5956796,29
5957416,39
5958048,44
5958676,46
5959296,58
5959928,53
5960552,56
5961180,47
5961812,34
5962432,28
5963060,21
5963688,14
5964312,23
5964944,19
5965560,44
5966188,38
5966816,47
5967440,45
5968068,21
5968688,11
5969316,10
5969948,12
5970568,19
5971196,15
5971824,13
5972456,19
5973084,37
5973704,31
5974336,38
5974960,39
5975588,42
5976216,32
5976840,34
5977472,44
5978096,54
5978720,35
5979352,14
5979976,25
5980608,41
5981236,31
5981856,37
5982488,36
5983112,40
5983744,41
5984376,42
5984992,38
5985624,20
5986244,13
5986868,11
5987500,15
5988120,23
5988752,26
5989380,30
5990000,20
5990632,49
5991256,61
5991888,55
5992516,50
5993136,28
5993768,21
5994392,51
5995016,59
5995648,16
5996264,9
5996844,14
5997472,22
5998096,28
5998728,31
5999344,34
5999976,37
6000604,37
6001228,21
6001860,12
6002480,13
6003108,11
6003740,20
6004360,17
6004988,24
6005616,36
6006244,40
6006876,38
6007496,70
6008128,74
6008752,75
6009376,54
6010008,12
6010624,12
6011256,19
6011880,14
6012504,11
6013136,10
6013752,25
6014384,31
6015016,18
6015640,36
6016276,36
6016900,41
6017528,43
6018156,27
6018776,24
6019408,13
6020032,11
6020656,21
6021284,26
6021904,29
6022536,25
6023160,15
6023784,45
6024412,54
6025036,63
6025668,65
6026296,58
6026920,35
6027552,33
6028176,37
6028804,23
6029436,19
6030056,23
6030688,12
6031312,11
6031936,37
6032568,35
6033192,54
6033824,68
6034456,59
6035072,48
6035704,38
6036332,28
6036964,20
6037592,16
6038216,19
6038848,20
6039476,18
6040100,30
6040732,48
6041352,55
6041984,64
6042608,63
6043236,58
6043864,41
6044488,15
6045116,10
6045748,10
6046368,20
6047000,12
6047624,17
6048256,15
6048884,36
6049504,40
6050136,39
6050760,39
6051384,21
6052016,15
6052632,11
6053264,11
6053896,10
6054512,14
6055144,12
6055768,40
6056400,48
6057028,38
6057648,65
6058280,49
6058904,38
6059528,27
6060160,34
6060776,48
6061408,50
6062036,26
6062660,12
6063292,11
6063912,24
6064544,12
6065176,55
6065792,71
6066424,41
6067048,63
6067680,65
6068308,45
6068928,27
6069556,28
6070184,30
6070808,36
6071440,30
6072056,27
6072688,28
6073312,22
6073940,48
6074572,54
6075192,57
6075824,51
6076456,34
6077076,36
6077708,37
6078332,35
6078964,12
6079596,10
6080220,22
6080848,21
6081472,14
6082096,35
6082724,37
6083344,38
6083972,40
6084596,16
6085224,12
6085852,16
6086476,15
6087108,13
6087736,20
6088360,26
6088988,25
6089612,36
6090244,37
6090876,58
6091496,51
6092128,40
6092756,38
6093380,51
6094012,53
6094632,28
6095264,11
6095892,19
6096512,13
6097144,19
6097768,17
6098400,33
6099028,39
6099648,37
6100280,41
6100904,40
6101528,15
6102160,19
6102780,20
6103412,11
6104036,18
6104660,23
6105292,22
6105912,30
6106544,27
6107172,42
6107792,62
6108424,74
6109048,48
6109680,19
6110308,16
6110928,22
6111560,38
6112188,23
6112812,19
6113444,10
6114064,18
6114696,19
6115320,31
6115944,35
6116576,40
6117200,51
6117832,40
6118464,23
6119080,12
6119712,11
6120336,11
6120968,18
6121596,26
6122216,25
6122848,19
6123476,35
6124100,40
6124732,43
6125352,42
6125984,42
6126616,51
6127236,57
6127868,43
6128496,24
6129124,15
6129756,12
6130376,27
6131008,26
6131636,21
6132260,37
6132892,38
6133512,36
6134148,37
6134772,12
6135396,24
6136028,29
6136656,15
6137288,29
6137920,64
6138540,63
6139172,48
6139796,35
6140424,37
6141056,41
6141676,46
6142308,47
6142936,40
6143564,43
6144196,50
6144816,50
6145444,28
6146072,34
6146688,32
6147320,15
6147940,42
6148572,33
6149200,35
6149824,39
6150452,38
6151076,27
6151700,18
6152332,28
6152952,19
6153584,13
6154208,16
6154832,18
6155460,14
6156080,29
6156708,34
6157340,38
6157960,37
6158592,40
6159216,44
6159844,41
6160476,46
6161096,54
6161724,41
6162348,15
6162972,11
6163604,15
6164224,19
6164852,18
6165476,37
6166100,39
6166732,38
6167352,37
6167984,14
6168612,16
6169232,56
6169864,45
6170488,15
6171116,15
6171748,48
6172368,52
6173000,23
6173624,45
6174248,56
6174876,43
6175496,41
6176128,39
6176752,37
6177376,45
6178004,51
6178628,31
6179260,21
6179888,16
6180512,24
6181144,40
6181768,34
6182396,35
6183028,37
6183648,39
6184280,39
6184904,19
6185528,18
6186156,16
6186776,15
6187408,21
6188036,26
6188656,28
6189288,31
6189912,21
6190544,45
6191172,55
6191792,52
6192424,42
6193048,26
6193676,36
6194304,32
6194928,27
6195560,16
6196184,15
6196808,11
6197436,10
6198056,13
6198688,33
6199316,37
6199936,40
6200568,38
6201192,22
6201824,13
6202452,14
6203072,17
6203704,12
6204328,35
6204952,53
6205584,50
6206200,43
6206832,38
6207456,43
6208080,49
6208708,54
6209328,57
6209956,53
6210588,51
6211208,52
6211836,31
6212464,24
6213092,20
6213724,26
6214344,19
6214976,27
6215600,43
6216224,35
6216856,37
6217472,38
6218104,12
6218728,11
6219352,11
6219984,10
6220604,14
6221236,14
6221868,19
6222488,19
6223120,19
6223744,34
6224376,41
6225008,51
6225624,38
6226256,19
6226880,25
6227504,24
6228132,25
6228752,12
6229384,11
6230008,10
6230632,21
6231264,24
6231888,33
6232520,37
6233148,38
6233768,39
6234400,25
6235024,11
6235656,14
6236284,14
6236904,11
6237536,16
6238160,26
6238784,40
6239416,30
6240036,34
6240664,47
6241292,45
6241912,45
6242544,45
6243168,31
6243800,35
6244432,39
6245048,25
6245680,11
6246304,15
6246928,10
6247560,11
6248176,16
6248804,35
6249428,35
6250052,39
6250684,37
6251304,14
6251936,13
6252564,33
6253184,26
6253812,11
6254440,12
6255068,16
6255700,16
6256320,28
6256948,36
6257576,39
6258200,39
6258832,43
6259448,29
6260080,25
6260704,30
6261328,39
6261960,40
6262576,33
6263208,25
