tempo_arduino_micro_s,valor_ADC
500,28
1004,23
1504,20
2000,14
2508,17
3000,18
3508,28
4000,32
4508,39
5000,40
5500,46
6000,56
6500,62
7000,62
7500,60
8000,44
8500,53
9000,70
9500,70
10000,56
10508,17
11028,10
11556,11
12076,14
12604,25
13124,26
13648,48
14172,47
14700,53
15220,50
15748,53
16268,28
16796,21
17316,22
17836,30
18356,27
18876,23
19396,25
19916,34
20436,33
20956,40
21476,29
21996,49
22516,64
23036,64
23564,64
24084,60
24612,49
25132,61
25660,82
26180,76
26708,57
27228,16
27756,10
28276,10
28804,15
29324,25
29852,28
30372,51
30900,56
31420,60
31948,60
32472,55
32996,22
33516,20
34044,21
34564,22
35092,12
35612,10
36140,11
36660,27
37188,24
37708,29
38236,22
38760,49
39284,60
39804,54
40332,59
40852,56
41372,37
41892,32
42412,41
42932,46
43452,41
43972,24
44492,22
45012,17
45532,16
46052,20
46572,18
47092,49
47612,53
48140,56
48660,57
49188,52
49708,30
50236,28
50760,23
51284,17
51804,13
52332,23
52852,33
53380,52
53900,42
54428,34
54948,20
55476,54
55996,67
56524,66
57044,65
57572,61
58096,55
58620,54
59140,64
59668,74
60188,61
60716,30
61240,10
61764,26
62284,62
62812,58
63332,32
63860,45
64384,54
64908,54
65428,54
65948,52
66468,14
66988,19
67508,23
68028,37
68548,25
69068,21
69588,28
70108,53
70632,49
71148,48
71668,40
72192,48
72716,58
73236,70
73764,68
74284,65
74812,53
75336,62
75860,72
76384,70
76908,46
77428,29
77956,34
78480,23
79004,12
79528,30
80052,36
80572,45
81100,51
81620,54
82148,57
82668,55
83196,16
83716,22
84244,36
84764,46
85292,47
85812,54
86340,45
86860,48
87388,45
87908,46
88436,49
88956,47
89484,61
90008,61
90524,60
91044,59
91564,52
92084,63
92604,69
93124,67
93644,45
94164,29
94684,19
95204,11
95724,20
96248,26
96764,45
97292,46
97812,57
98340,55
98860,53
99388,54
99908,22
100436,20
101000,16
101584,13
102156,17
102736,21
103304,33
103880,37
104456,49
105024,53
105600,46
106168,61
106744,65
107312,70
107896,51
108464,48
109040,56
109624,53
110192,32
110776,15
111344,23
111928,13
112500,11
113080,16
113648,52
114224,52
114808,55
115376,54
115960,55
116528,19
117112,17
117684,14
118256,12
118840,23
119408,34
119992,54
120564,66
121144,75
121716,56
122296,52
122864,69
123444,74
124024,70
124592,73
125176,64
125744,44
126328,34
126896,27
127472,26
128056,27
128624,11
129200,31
129768,39
130344,51
130912,54
131496,55
132064,57
132640,56
133224,30
133792,29
134368,29
134936,23
135520,23
136088,30
136664,47
137240,45
137808,35
138392,42
138960,62
139544,69
140112,61
140696,64
141268,60
141840,43
142424,59
142992,72
143576,61
144144,48
144728,34
145296,12
145872,19
146456,17
147024,50
147608,52
148176,57
148760,59
149328,63
149912,43
150484,46
151056,45
151640,53
152212,58
152792,53
153364,53
153944,44
154520,38
155096,48
155680,68
156248,64
156832,64
157400,66
157984,65
158556,64
159136,64
159708,54
160284,26
160864,13
161432,11
162016,24
162584,27
163168,17
163740,50
164316,51
164896,55
165464,57
166040,51
166608,21
167192,12
167760,14
168344,17
168912,33
169480,41
170064,47
170632,40
171216,27
171784,49
172368,65
172936,70
173520,62
174096,67
174664,62
175248,57
175816,56
176400,39
176968,14
177552,11
178124,12
178696,14
179280,17
179848,19
180424,50
180992,51
181576,56
182148,61
182728,53
183304,22
183872,27
184456,26
185024,14
185608,18
186176,35
186752,67
187324,61
187896,40
188480,49
189048,59
189632,69
190200,61
190784,59
191356,56
191936,63
192520,70
193092,61
193672,35
194240,26
194824,15
195392,19
195976,25
196548,20
197120,47
197704,57
198276,62
198856,58
199428,43
200008,21
200576,12
201152,10
201724,10
202296,24
202880,38
203448,68
204032,57
204604,45
205184,48
205752,61
206320,63
206904,65
207472,65
208056,53
208624,61
209200,65
209768,63
210352,41
210920,27
211496,14
212080,28
212648,31
213232,20
213800,45
214384,53
214956,56
215532,54
216112,33
216680,22
217264,24
217836,25
218416,19
218984,31
219568,32
220140,51
220716,56
221296,43
221864,50
222448,57
223016,66
223600,64
224172,64
224744,66
225328,80
225896,66
226472,40
227040,19
227624,10
228192,24
228776,38
229348,34
229924,23
230504,42
231072,57
231656,53
232228,57
232808,29
233376,17
233956,23
234536,32
235108,29
235688,48
236256,48
236840,48
237408,46
237992,30
238564,58
239140,65
239720,64
240292,59
240872,64
241440,62
242024,71
242596,66
243172,51
243752,23
244324,17
244904,17
245476,27
246056,47
246624,36
247208,47
247776,56
248352,58
248936,56
249508,38
250088,25
250656,20
251240,19
251808,22
252388,49
252968,43
253536,41
254120,38
254692,27
255272,52
255852,62
256432,61
257008,63
257576,70
258152,70
258720,83
259304,73
259872,46
260456,20
261024,15
261600,11
262184,27
262752,30
263336,39
263904,45
264488,56
265056,58
265640,53
266208,25
266784,22
267368,18
267936,15
268520,15
269088,29
269672,48
270240,62
270816,63
271400,43
271968,51
272552,62
273124,59
273704,65
274276,83
274856,82
275428,74
276004,66
276584,58
277152,32
277736,28
278308,15
278888,29
279456,34
280036,46
280616,47
281188,60
281768,63
282336,58
282920,30
283488,20
284072,12
284644,16
285216,20
285800,34
286372,39
286952,35
287532,32
288112,38
288680,52
289256,55
289840,62
290408,57
290992,48
291564,53
292144,72
292716,70
293296,59
293868,38
294444,27
295024,14
295596,22
296176,23
296744,50
297328,47
297896,58
298476,59
299056,57
299628,27
300208,23
300780,18
301360,16
301940,14
302520,27
303100,34
303676,33
304256,42
304828,41
305408,48
305980,59
306560,66
307140,63
307716,61
308296,63
308868,53
309448,46
310016,47
310600,31
311172,24
311752,12
312328,30
312900,27
313480,49
314052,51
314632,55
315204,57
315784,56
316356,23
316932,21
317512,21
318084,25
318664,37
319236,38
319816,39
320396,30
320976,27
321552,36
322124,48
322704,59
323276,66
323856,65
324424,54
325008,54
325580,65
326156,74
326736,52
327304,14
327888,36
328456,39
329040,27
329608,17
330184,52
330760,53
331328,58
331912,57
332484,57
333064,13
333632,12
334208,21
334776,22
335352,22
335936,21
336508,40
337088,51
337656,51
338240,37
338808,51
339392,61
339960,63
340536,60
341120,48
341688,42
342272,58
342844,65
343424,41
343992,13
344572,11
345152,14
345724,21
346304,18
346872,53
347456,56
348028,54
348608,53
349180,58
349756,13
350336,22
350908,35
351488,45
352060,42
352640,41
353208,54
353788,46
354368,41
354940,37
355520,58
356092,67
356672,76
357244,71
357824,51
358396,46
358972,75
359552,90
360124,64
360704,43
361272,43
361856,19
362424,11
363000,19
363584,50
364156,59
364736,59
365308,64
365888,68
366460,62
367040,55
367612,47
368188,32
368768,25
369336,26
369920,34
370488,31
371072,41
371644,48
372216,54
372800,72
373368,73
373952,66
374524,67
375104,65
375676,67
376256,51
376840,30
377412,18
377992,16
378564,13
379144,29
379716,30
380296,48
380868,54
381444,54
382024,55
382596,53
383176,21
383748,16
384332,12
384904,17
385488,11
386064,35
386636,78
387216,94
387784,85
388368,53
388940,57
389520,62
390092,63
390668,66
391248,58
391820,58
392400,61
392968,54
393552,33
394124,29
394704,15
395280,17
395852,20
396432,22
397004,51
397584,51
398156,57
398736,56
399316,47
399892,13
400472,20
401044,45
401624,37
402192,47
402776,43
403348,58
403924,55
404504,37
405076,50
405656,73
406228,72
406808,69
407388,66
407968,57
408540,39
409116,45
409696,45
410268,25
410848,10
411416,16
412000,28
412568,18
413136,23
413720,46
414288,56
414872,56
415440,58
416024,43
416592,26
417168,24
417736,19
418312,12
418896,23
419464,32
420048,47
420616,47
421192,41
421760,51
422344,53
422920,63
423488,67
424072,67
424640,58
425224,67
425792,75
426376,76
426948,42
427520,18
428104,11
428676,27
429256,28
429824,21
430408,50
430976,53
431560,55
432136,54
432704,35
433288,30
433856,38
434440,25
435012,11
435592,16
436168,27
436744,55
437328,62
437900,50
438480,48
439048,62
439632,61
440204,64
440784,63
441360,43
441932,46
442512,66
443084,74
443664,52
444236,26
444816,9
445332,34
445908,44
446488,22
447056,46
447640,54
448212,59
448792,60
449364,37
449944,13
450512,12
451092,11
451672,10
452244,22
452824,30
453392,42
453976,48
454548,53
455124,48
455704,64
456272,65
456856,64
457428,69
458008,63
458580,70
459160,63
459732,57
460308,28
460888,15
461460,10
462040,30
462612,36
463192,28
463764,51
464340,56
464920,53
465488,57
466072,28
466644,14
467224,17
467792,14
468376,21
468948,37
469524,49
470104,70
470676,76
471256,64
471836,47
472416,55
472996,66
473572,66
474152,64
474724,56
475304,55
475876,57
476456,53
477036,38
477616,25
478188,10
478764,29
479344,33
479916,45
480500,52
481076,56
481656,53
482224,55
482804,24
483384,18
483952,11
484536,10
485108,10
485688,33
486260,41
486840,51
487420,62
487996,43
488576,55
489148,66
489728,67
490300,58
490880,56
491452,36
492028,62
492608,67
493180,59
493760,35
494328,25
494912,16
495484,16
496064,13
496632,49
497212,53
497792,54
498364,55
498944,55
499516,35
500096,57
500668,62
501244,49
501824,27
502396,35
502976,49
503548,55
504128,57
504708,35
505288,51
505864,63
506436,72
507016,69
507588,56
508168,45
508748,58
509328,64
509908,49
510484,26
511064,29
511636,15
512220,25
512792,24
513368,45
513936,56
514512,59
515088,54
515656,54
516240,19
516808,14
517392,13
517964,14
518544,10
519112,19
519692,47
520272,56
520844,49
521424,27
521996,53
522576,65
523144,74
523728,65
524304,48
524876,38
525456,60
526024,65
526608,57
527180,36
527760,30
528340,19
528912,14
529496,23
530068,47
530648,57
531220,55
531800,57
532372,56
532948,30
533528,33
534100,26
534680,18
535248,21
535832,32
536404,47
536984,48
537556,48
538132,30
538712,61
539284,69
539864,65
540436,64
541016,57
541588,69
542164,86
542744,88
543312,67
543896,23
544468,12
545048,24
545620,27
546200,18
546772,48
547348,54
547928,57
548500,59
549080,69
549652,62
550232,42
550804,28
551380,25
551960,26
552532,27
553112,45
553684,50
554264,44
554832,35
555416,57
555996,67
556572,71
557152,70
557724,59
558304,62
558884,70
559464,64
560036,51
560612,35
561192,29
561764,16
562344,11
562916,19
563496,44
564072,55
564656,56
565228,55
565804,54
566384,46
566956,51
567536,43
568116,43
568696,45
569268,48
569844,62
570424,52
570996,31
571576,46
572148,66
572728,70
573308,73
573888,69
574472,58
575044,53
575624,56
576196,51
576776,35
577348,32
577928,29
578496,11
579076,13
579656,16
580228,50
580808,57
581376,55
581960,59
582532,54
583112,31
583688,37
584260,47
584840,51
585412,50
585992,35
586564,42
587144,37
587716,34
588292,48
588872,64
589440,69
590024,66
590596,67
591176,54
591756,38
592336,46
592920,50
593492,35
594072,23
594644,18
595224,13
595792,23
596376,18
596948,48
597524,52
598104,55
598676,52
599256,44
599836,34
600416,33
600996,15
601572,14
602156,45
602728,48
603304,53
603876,46
604456,38
605036,49
605616,70
606196,69
606772,64
607352,62
607928,44
608508,47
609084,64
609664,74
610244,58
610820,35
611400,11
611972,37
612552,45
613128,31
613704,50
614284,55
614868,58
615448,58
616020,31
616600,20
617172,18
617752,13
618324,11
618904,28
619476,34
620052,44
620632,40
621204,23
621784,53
622356,70
622936,62
623516,62
624092,60
624672,45
625244,40
625824,32
626396,29
626976,11
627556,14
628136,16
628708,18
629284,15
629864,46
630436,48
631016,53
631588,58
632172,57
632748,26
633324,27
633904,20
634480,16
635056,13
635628,26
636208,38
636788,41
637372,34
637948,20
638528,52
639104,67
639680,64
640260,63
640832,51
641416,39
641984,49
642560,46
643144,35
643716,16
644296,14
644864,11
645448,19
646016,19
646600,49
647176,54
647748,54
648328,58
648896,56
649480,25
650052,32
650632,26
651212,19
651788,19
652368,31
652940,39
653520,49
654092,53
654672,29
655244,52
655824,68
656408,69
656976,69
657552,55
658124,61
658704,87
659272,90
659856,69
660424,22
661000,10
661584,11
662156,19
662736,33
663308,51
663888,52
664460,56
665040,55
665616,66
666184,71
666760,67
667328,51
667912,31
668484,23
669064,27
669632,45
670208,43
670792,50
671364,33
671944,54
672516,68
673096,69
673668,69
674248,49
674824,55
675396,75
675976,62
676548,46
677128,11
677696,11
678280,13
678852,22
679424,15
680008,55
680576,54
681160,58
681732,57
682312,59
682884,29
683464,24
684040,15
684612,11
685192,10
685764,23
686344,35
686916,44
687496,59
688068,39
688640,51
689224,67
689796,69
690376,64
690948,52
691528,43
692104,29
692688,29
693264,35
693836,19
694416,20
694984,12
695568,12
696140,17
696720,52
697292,52
697868,58
698448,54
699020,58
699600,23
700168,28
700752,25
701324,29
701904,35
702488,39
703060,55
703640,39
704212,31
704792,37
705364,60
705944,65
706516,59
707092,57
707672,45
708244,54
708824,58
709396,60
709976,49
710556,31
711132,25
711712,11
712284,33
712864,34
713436,55
714016,57
714596,53
715176,55
715756,56
716332,29
716912,28
717484,23
718064,16
718636,19
719216,30
719788,44
720364,49
720944,50
721516,49
722096,64
722664,69
723248,64
723816,59
724400,55
724972,55
725548,71
726128,67
726700,36
727280,19
727856,16
728440,17
729012,18
729588,18
730168,50
730740,54
731320,58
731892,63
732472,56
733052,34
733632,17
734216,11
734788,10
735368,21
735940,35
736524,56
737100,56
737680,53
738256,54
738836,63
739416,67
739988,64
740568,63
741140,50
741720,59
742292,67
742868,63
743448,40
744020,30
744600,24
745172,12
745752,17
746324,20
746904,47
747476,56
748052,58
748632,60
749204,48
749784,33
750356,29
750936,32
751516,32
752092,40
752672,35
753244,41
753824,45
754396,51
754980,53
755556,59
756136,71
756716,70
757292,68
757872,56
758444,59
759024,57
759596,46
760176,17
760756,11
761332,10
761912,25
762488,26
763064,26
763636,47
764216,58
764796,56
765380,56
765964,31
766536,26
767112,15
767688,10
768268,11
768840,32
769424,37
769996,40
770572,45
771152,38
771724,55
772304,54
772876,56
773456,62
774028,65
774608,55
775192,58
775764,57
776344,51
776916,22
777496,11
778076,11
778656,29
779236,27
779812,41
780392,48
780964,55
781544,55
782116,59
782696,45
783268,50
783844,31
784424,13
784996,11
785576,19
786148,46
786728,61
787300,42
787880,21
788452,60
789028,65
789608,66
790180,65
790760,61
791340,57
791920,70
792500,64
793076,55
793656,19
794228,11
794808,14
795380,30
795960,30
796540,47
797120,51
797704,58
798280,58
798860,58
799432,24
800008,22
800584,24
801160,18
801732,12
802304,22
802888,35
803460,44
804040,51
804608,33
805192,48
805764,62
806344,69
806920,64
807492,56
808072,60
808644,65
809224,59
809796,52
810376,36
810948,24
811524,13
812104,21
812676,21
813256,49
813828,54
814408,58
814988,59
815568,58
816152,42
816724,51
817304,55
817876,49
818456,34
819036,34
819620,46
820192,41
820760,38
821344,23
821912,65
822496,75
823064,77
823648,76
824220,76
824796,68
825376,73
825948,66
826528,51
827100,22
827680,9
828196,31
828776,58
829348,39
829924,47
830504,53
831076,56
831656,56
832228,58
832808,20
833376,19
833952,20
834520,24
835100,26
835680,35
836248,37
836832,23
837400,40
837984,39
838556,48
839132,70
839712,70
840284,67
840864,46
841432,42
842016,55
842584,59
843168,38
843740,12
844316,11
844896,11
845464,20
846040,21
846612,50
847192,53
847764,58
848340,51
848920,56
849492,26
850072,26
850640,28
851224,24
851792,19
852376,36
852948,63
853524,57
854104,33
854676,22
855256,66
855828,71
856408,64
856988,65
857564,61
858144,61
858716,60
859296,57
859868,49
860448,31
861020,22
861600,15
862168,33
862748,24
863328,50
863900,54
864480,56
865056,57
865640,61
866208,42
866788,34
867368,24
867940,21
868520,20
869092,25
869672,35
870252,41
870832,47
871408,47
871988,56
872568,69
873140,68
873720,58
874292,47
874872,49
875444,65
876020,72
876600,41
877172,17
877752,10
878324,21
878904,26
879476,15
880056,51
880636,55
881212,58
881792,56
882364,56
882944,36
883516,36
884096,25
884664,22
885240,28
885824,35
886396,48
886976,37
887548,27
888128,50
888700,51
889280,65
889864,65
890436,71
891016,71
891588,70
892168,80
892748,74
893328,44
893908,23
894484,10
895064,24
895636,27
896220,18
896792,50
897376,52
897948,56
898524,60
899104,64
899676,50
900256,36
900828,32
901408,27
901980,35
902560,52
903128,57
903708,25
904288,15
904860,55
905440,63
906012,63
906592,63
907164,69
907740,56
908320,52
908892,62
909472,65
910044,34
910624,16
911204,10
911784,37
912364,34
912940,18
913520,47
914092,56
914672,55
915244,58
915824,42
916396,20
916972,15
917552,28
918124,24
918704,40
919280,56
919856,66
920436,55
921016,32
921596,57
922176,72
922752,67
923324,67
923904,65
924476,52
925056,57
925628,57
926204,53
926784,34
927356,24
927936,11
928512,17
929088,16
929660,25
930240,49
930812,54
931388,56
931968,57
932540,30
933120,26
933692,44
934272,54
934852,37
935428,45
936008,50
936580,67
937160,68
937732,48
938312,52
938884,64
939464,64
940048,70
940624,72
941204,72
941776,76
942352,68
942932,59
943512,29
944092,13
944668,10
945248,25
945820,22
946400,43
946980,51
947560,59
948140,66
948716,68
949296,29
949868,18
950448,18
951020,15
951600,13
952180,21
952760,35
953340,40
953920,41
954496,34
955068,53
955648,62
956228,59
956808,63
957388,62
957964,57
958544,70
959120,71
959700,64
960276,29
960856,12
961428,24
962004,51
962584,35
963152,52
963736,58
964308,53
964888,56
965460,57
966040,33
966612,37
967188,37
967768,31
968340,34
968920,37
969492,55
970072,68
970652,59
971228,36
971808,52
972380,63
972960,68
973532,73
974112,70
974684,72
975264,74
975844,53
976420,43
977000,27
977572,16
978152,14
978732,36
979312,42
979892,48
980468,53
981048,55
981620,56
982200,61
982776,28
983352,24
983932,16
984512,14
985096,26
985668,43
986248,48
986816,43
987400,46
987972,34
988552,62
989132,69
989708,70
990288,66
990860,64
991440,66
992020,66
992600,61
993172,45
993748,33
994328,28
994900,15
995480,33
996052,22
996632,49
997204,53
997784,58
998356,57
998932,54
999512,27
1000084,22
1000708,20
1001332,27
1001960,42
1002588,52
1003208,69
1003836,55
1004460,29
1005080,56
1005712,68
1006328,69
1006956,67
1007580,54
1008204,58
1008832,61
1009456,56
1010084,43
1010712,35
1011332,21
1011960,29
1012584,35
1013212,52
1013844,56
1014464,57
1015092,57
1015716,60
1016340,48
1016968,41
1017584,36
1018216,19
1018840,28
1019464,41
1020092,45
1020712,48
1021344,42
1021972,67
1022592,68
1023224,71
1023848,67
1024476,56
1025104,63
1025724,61
1026352,52
1026972,20
1027596,11
1028224,24
1028840,28
1029468,17
1030088,45
1030708,56
1031340,54
1031960,57
1032588,27
1033208,20
1033832,15
1034460,18
1035084,31
1035712,33
1036340,40
1036960,46
1037588,41
1038208,53
1038836,58
1039464,69
1040080,65
1040708,60
1041332,57
1041952,67
1042580,61
1043196,29
1043828,11
1044452,10
1045072,23
1045700,41
1046320,33
1046948,47
1047576,55
1048192,55
1048820,54
1049444,25
1050072,23
1050700,14
1051320,10
1051948,15
1052572,27
1053192,47
1053824,55
1054440,41
1055068,52
1055692,65
1056312,70
1056944,70
1057560,59
1058188,53
1058812,51
1059432,54
1060064,40
1060684,16
1061312,10
1061944,24
1062560,22
1063188,52
1063812,57
1064440,60
1065068,56
1065684,57
1066312,38
1066936,25
1067560,21
1068188,22
1068804,35
1069432,37
1070056,42
1070680,53
1071308,40
1071928,60
1072556,79
1073188,77
1073808,77
1074436,57
1075060,50
1075688,36
1076320,35
1076936,17
1077564,11
1078188,16
1078808,46
1079440,31
1080056,47
1080684,53
1081308,58
1081928,53
1082556,21
1083176,15
1083804,17
1084432,15
1085056,13
1085684,25
1086308,59
1086936,57
1087564,44
1088184,50
1088812,72
1089432,84
1090056,71
1090684,54
1091304,31
1091932,60
1092556,67
1093176,48
1093808,24
1094424,14
1095052,31
1095676,39
1096300,31
1096928,51
1097552,56
1098180,57
1098812,58
1099432,25
1100060,16
1100684,24
1101316,19
1101944,16
1102560,15
1103192,37
1103816,68
1104440,59
1105068,50
1105688,66
1106316,71
1106940,63
1107568,38
1108196,32
1108820,59
1109448,61
1110076,36
1110696,19
1111324,12
1111948,26
1112580,27
1113208,50
1113832,54
1114460,55
1115084,57
1115708,44
1116336,12
1116960,12
1117588,11
1118220,10
1118840,26
1119468,48
1120092,51
1120724,45
1121352,44
1121968,55
1122596,58
1123220,59
1123844,60
1124476,60
1125096,84
1125724,80
1126348,66
1126972,32
1127604,16
1128224,16
1128852,25
1129480,17
1130096,44
1130728,54
1131348,60
1131980,70
1132608,75
1133232,65
1133860,27
1134484,11
1135108,17
1135740,13
1136360,27
1136988,44
1137612,34
1138236,49
1138864,61
1139484,69
1140112,73
1140740,57
1141360,51
1141988,65
1142612,65
1143244,36
1143872,14
1144496,11
1145124,36
1145748,48
1146372,49
1147004,52
1147624,57
1148252,55
1148876,60
1149496,27
1150128,25
1150744,22
1151372,13
1151996,28
1152624,41
1153252,54
1153876,48
1154504,23
1155132,58
1155752,73
1156380,72
1157004,68
1157632,49
1158264,48
1158880,57
1159508,64
1160132,31
1160756,12
1161384,24
1162000,46
1162632,27
1163252,51
1163876,55
1164508,56
1165132,55
1165760,40
1166388,30
1167008,19
1167636,18
1168260,21
1168888,34
1169520,46
1170136,44
1170764,37
1171388,48
1172012,60
1172640,63
1173256,62
1173888,63
1174512,49
1175136,62
1175764,64
1176388,53
1177020,30
1177648,15
1178264,22
1178892,34
1179516,22
1180148,48
1180776,56
1181396,55
1182024,54
1182648,19
1183272,17
1183900,22
1184520,23
1185148,25
1185772,43
1186396,59
1187028,56
1187652,35
1188280,55
1188912,76
1189528,73
1190156,70
1190780,62
1191412,69
1192040,82
1192656,76
1193288,42
1193912,24
1194536,21
1195164,13
1195784,19
1196412,48
1197036,55
1197664,61
1198292,72
1198916,75
1199548,71
1200176,42
1200792,22
1201420,22
1202044,44
1202676,45
1203304,40
1203920,41
1204548,27
1205172,59
1205796,76
1206424,73
1207048,68
1207676,62
1208300,78
1208924,89
1209552,78
1210180,34
1210808,14
1211436,18
1212056,47
1212684,37
1213308,54
1213940,59
1214572,58
1215192,57
1215824,32
1216448,22
1217072,12
1217700,10
1218320,18
1218948,48
1219572,80
1220196,73
1220828,46
1221448,52
1222076,74
1222708,58
1223328,63
1223956,55
1224584,65
1225212,85
1225840,76
1226464,60
1227092,38
1227720,23
1228344,23
1228972,26
1229588,29
1230220,49
1230840,60
1231464,67
1232092,61
1232716,44
1233344,34
1233972,27
1234592,25
1235220,29
1235840,25
1236472,31
1237100,41
1237720,25
1238348,61
1238972,71
1239596,78
1240228,70
1240848,59
1241476,55
1242100,57
1242724,49
1243352,28
1243976,17
1244604,13
1245236,19
1245856,23
1246484,51
1247108,57
1247740,57
1248368,57
1248984,49
1249616,36
1250236,20
1250860,12
1251492,10
1252112,23
1252740,45
1253364,58
1253988,53
1254620,46
1255240,51
1255872,63
1256500,68
1257120,69
1257748,61
1258372,53
1259004,27
1259632,12
1260248,14
1260880,12
1261500,11
1262124,21
1262756,18
1263376,49
1264004,53
1264628,54
1265252,55
1265884,26
1266508,24
1267136,19
1267768,12
1268388,15
1269016,30
1269640,49
1270268,49
1270900,36
1271520,51
1272148,63
1272776,66
1273400,72
1274028,64
1274648,62
1275276,55
1275900,42
1276528,32
1277156,21
1277784,17
1278412,15
1279044,27
1279664,43
1280296,50
1280916,57
1281540,56
1282168,55
1282784,22
1283412,30
1284032,35
1284656,44
1285284,56
1285900,60
1286532,60
1287152,61
1287776,49
1288404,49
1289028,61
1289656,66
1290284,66
1290900,50
1291532,50
1292152,53
1292780,51
1293412,26
1294032,24
1294660,13
1295284,19
1295908,17
1296536,50
1297152,53
1297784,58
1298404,54
1299028,32
1299660,10
1300280,13
1300908,15
1301536,14
1302156,35
1302784,63
1303408,69
1304036,53
1304668,51
1305288,63
1305916,71
1306540,63
1307164,61
1307792,62
1308416,73
1309044,65
1309668,51
1310292,27
1310920,13
1311540,26
1312172,40
1312800,25
1313412,45
1314044,57
1314664,53
1315292,57
1315920,20
1316536,12
1317164,14
1317788,19
1318408,12
1319036,28
1319656,52
1320284,67
1320908,70
1321528,54
1322160,56
1322776,57
1323404,56
1324028,50
1324648,61
1325276,76
1325900,72
1326528,35
1327156,14
1327776,13
1328404,38
1329028,31
1329656,46
1330284,55
1330904,57
1331532,60
1332156,58
1332776,18
1333404,11
1334024,12
1334652,15
1335272,30
1335896,40
1336524,59
1337144,66
1337772,36
1338400,56
1339016,71
1339644,67
1340268,69
1340896,67
1341524,74
1342144,63
1342772,45
1343392,18
1344016,12
1344644,12
1345260,36
1345892,22
1346512,48
1347136,52
1347764,52
1348384,54
1349012,37
1349640,33
1350256,32
1350888,27
1351512,26
1352140,23
1352768,37
1353384,50
1354016,36
1354636,47
1355268,63
1355896,64
1356512,64
1357144,60
1357764,45
1358388,53
1359016,61
1359640,47
1360268,21
1360892,12
1361512,17
1362144,28
1362764,19
1363392,51
1364024,55
1364640,57
1365268,61
1365888,26
1366520,16
1367148,13
1367768,14
1368396,15
1369020,21
1369640,42
1370268,50
1370888,54
1371516,49
1372140,57
1372764,81
1373392,72
1374012,70
1374640,67
1375268,62
1375888,41
1376516,15
1377140,16
1377768,16
1378400,15
1379016,19
1379644,45
1380268,56
1380892,66
1381520,65
1382140,62
1382768,33
1383392,23
1384016,20
1384644,30
1385264,42
1385892,41
1386520,35
1387140,39
1387768,27
1388392,60
1389020,70
1389652,70
1390272,63
1390900,51
1391524,47
1392148,56
1392780,58
1393400,31
1394028,24
1394648,17
1395272,16
1395900,15
1396520,49
1397148,55
1397776,63
1398400,60
1399028,34
1399652,23
1400280,17
1400908,19
1401528,26
1402156,43
1402780,54
1403404,43
1404032,28
1404656,51
1405284,61
1405908,62
1406532,61
1407160,62
1407784,53
1408416,62
1409044,62
1409664,51
1410292,31
1410912,21
1411544,19
1412172,28
1412792,21
1413420,49
1414044,57
1414668,54
1415296,57
1415912,42
1416544,36
1417168,19
1417788,11
1418420,22
1419040,39
1419668,54
1420296,54
1420920,48
1421548,48
1422172,59
1422800,64
1423432,64
1424048,48
1424676,44
1425300,59
1425924,65
1426556,36
1427176,19
1427808,13
1428432,21
1429056,32
1429684,46
1430304,54
1430936,55
1431564,54
1432184,55
1432812,32
1433436,31
1434068,20
1434696,14
1435320,35
1435948,49
1436572,42
1437192,44
1437824,45
1438440,57
1439072,63
1439696,68
1440316,61
1440948,62
1441568,73
1442196,73
1442824,66
1443440,38
1444072,17
1444692,19
1445320,37
1445952,19
1446568,45
1447196,51
1447820,57
1448448,63
1449076,44
1449696,28
1450324,23
1450944,36
1451568,33
1452196,28
1452816,29
1453444,30
1454068,36
1454692,51
1455320,58
1455944,65
1456572,66
1457204,68
1457824,53
1458452,51
1459076,45
1459704,36
1460336,17
1460952,11
1461580,15
1462204,14
1462828,31
1463456,55
1464080,53
1464708,55
1465332,58
1465956,17
1466584,19
1467208,15
1467836,11
1468464,14
1469088,19
1469716,37
1470340,56
1470972,44
1471600,51
1472224,72
1472852,74
1473476,68
1474100,47
1474728,34
1475352,21
1475980,20
1476604,17
1477224,10
1477852,19
1478476,47
1479104,35
1479736,50
1480352,55
1480980,55
1481604,55
1482232,46
1482860,33
1483480,35
1484108,23
1484732,11
1485356,30
1485988,72
1486608,72
1487236,47
1487860,44
1488484,78
1489112,71
1489736,72
1490364,71
1490992,52
1491616,62
1492244,72
1492868,55
1493496,22
1494128,15
1494744,15
1495372,31
1495996,19
1496620,47
1497252,55
1497872,61
1498500,65
1499124,48
1499748,42
1500376,30
1501000,18
1501632,20
1502260,26
1502880,43
1503508,50
1504136,39
1504764,54
1505392,66
1506016,69
1506644,72
1507268,57
1507892,61
1508520,63
1509144,49
1509772,26
1510396,25
1511024,28
1511656,11
1512280,25
1512908,45
1513540,54
1514160,56
1514792,55
1515416,65
1516040,33
1516668,17
1517288,12
1517916,13
1518540,29
1519168,39
1519796,48
1520416,62
1521044,31
1521676,60
1522296,67
1522924,64
1523548,64
1524180,53
1524808,66
1525432,70
1526064,48
1526684,28
1527308,22
1527940,10
1528560,29
1529188,19
1529812,48
1530436,52
1531068,54
1531688,58
1532316,32
1532948,27
1533568,30
1534200,25
1534824,29
1535452,48
1536084,63
1536700,54
1537328,53
1537952,55
1538576,53
1539204,64
1539820,78
1540452,73
1541076,75
1541700,83
1542328,74
1542944,64
1543576,33
1544204,28
1544824,11
1545452,42
1546076,43
1546708,51
1547336,52
1547952,53
1548584,57
1549208,27
1549832,38
1550460,42
1551080,35
1551708,36
1552332,55
1552956,71
1553588,58
1554208,42
1554836,48
1555468,60
1556088,66
1556716,64
1557340,60
1557972,60
1558600,67
1559216,60
1559848,43
1560472,22
1561092,17
1561724,12
1562344,16
1562972,49
1563596,56
1564220,57
1564848,57
1565464,56
1566096,35
1566716,34
1567344,39
1567972,42
1568600,57
1569228,58
1569856,57
1570480,53
1571108,33
1571732,69
1572360,72
1572988,67
1573608,64
1574236,47
1574864,61
1575488,68
1576116,60
1576736,36
1577364,19
1577996,16
1578616,30
1579244,19
1579868,47
1580500,53
1581128,58
1581752,58
1582384,29
1583008,31
1583632,21
1584260,14
1584880,14
1585508,22
1586132,49
1586756,62
1587388,50
1588008,51
1588636,69
1589268,73
1589888,68
1590516,66
1591140,49
1591772,58
1592404,57
1593024,35
1593652,28
1594276,23
1594900,13
1595532,23
1596152,38
1596784,56
1597408,57
1598032,59
1598664,58
1599280,24
1599908,22
1600540,30
1601160,39
1601788,56
1602408,57
1603036,59
1603664,51
1604288,28
1604916,60
1605540,69
1606160,66
1606792,65
1607408,61
1608036,50
1608660,45
1609280,41
1609912,30
1610528,25
1611156,11
1611788,28
1612408,25
1613036,49
1613660,55
1614288,56
1614920,60
1615536,47
1616164,21
1616788,19
1617412,16
1618044,15
1618664,25
1619292,44
1619912,58
1620536,53
1621168,43
1621784,65
1622412,68
1623036,68
1623664,64
1624292,46
1624916,51
1625548,38
1626176,20
1626800,15
1627428,15
1628052,11
1628680,15
1629308,18
1629928,47
1630556,51
1631180,57
1631808,58
1632436,26
1633056,29
1633684,22
1634316,12
1634936,18
1635564,29
1636188,38
1636820,60
1637448,52
1638072,51
1638704,65
1639324,72
1639948,73
1640576,76
1641188,65
1641816,74
1642440,65
1643060,30
1643688,24
1644308,30
1644936,14
1645560,43
1646180,53
1646808,59
1647432,56
1648060,60
1648688,57
1649304,26
1649932,30
1650552,25
1651180,16
1651812,18
1652432,27
1653060,47
1653680,52
1654304,32
1654932,53
1655552,69
1656180,68
1656804,70
1657424,64
1658052,69
1658672,80
1659300,72
1659928,34
1660544,16
1661172,10
1661796,27
1662424,35
1663052,50
1663672,56
1664300,58
1664924,58
1665544,45
1666172,26
1666788,26
1667416,26
1668040,30
1668660,45
1669288,44
1669908,40
1670536,40
1671160,46
1671784,65
1672412,69
1673032,63
1673664,60
1674292,46
1674908,58
1675540,67
1676160,60
1676792,36
1677420,18
1678040,16
1678668,20
1679292,24
1679916,54
1680544,61
1681164,57
1681796,55
1682416,29
1683036,26
1683668,36
1684288,37
1684916,34
1685544,43
1686160,78
1686788,108
1687464,112
1688132,52
1688756,67
1689376,73
1690004,81
1690632,84
1691248,71
1691876,68
1692500,63
1693128,49
1693756,25
1694376,17
1695004,64
1695628,54
1696256,50
1696884,55
1697500,60
1698132,58
1698752,55
1699376,23
1700004,19
1700620,15
1701252,11
1701872,22
1702496,33
1703124,35
1703748,38
1704376,29
1705004,54
1705624,67
1706252,66
1706872,66
1707504,56
1708132,57
1708752,59
1709380,52
1710004,30
1710628,23
1711260,12
1711880,20
1712508,19
1713132,49
1713756,52
1714388,58
1715012,57
1715640,35
1716272,45
1716888,37
1717516,23
1718140,20
1718772,30
1719400,50
1720016,45
1720648,47
1721268,51
1721892,66
1722520,72
1723144,73
1723772,64
1724396,42
1725020,55
1725648,62
1726264,52
1726896,27
1727524,14
1728144,19
1728772,28
1729396,29
1730024,53
1730652,58
1731272,57
1731900,57
1732524,35
1733144,30
1733776,23
1734392,20
1735020,31
1735648,31
1736268,41
1736900,47
1737520,44
1738148,48
1738780,68
1739400,76
1740028,72
1740652,69
1741284,53
1741912,54
1742528,59
1743160,31
1743780,18
1744404,9
1744980,27
1745604,25
1746232,51
1746856,54
1747480,57
1748108,54
1748728,61
1749356,49
1749980,35
1750604,14
1751232,10
1751848,31
1752480,45
1753108,54
1753728,61
1754356,43
1754980,55
1755612,68
1756240,71
1756856,71
1757488,54
1758108,54
1758732,70
1759364,59
1759984,23
1760616,12
1761240,10
1761860,10
1762492,22
1763112,52
1763740,55
1764372,53
1764992,56
1765620,25
1766244,22
1766872,28
1767500,23
1768120,33
1768748,64
1769372,90
1769996,72
1770624,49
1771240,53
1771868,61
1772492,64
1773116,69
1773744,58
1774368,50
1774996,56
1775628,55
1776248,56
1776876,39
1777500,14
1778128,39
1778760,38
1779376,31
1780008,51
1780628,56
1781256,56
1781884,57
1782504,22
1783132,20
1783756,20
1784380,22
1785008,38
1785632,47
1786260,72
1786892,82
1787512,63
1788140,51
1788764,64
1789396,75
1790028,80
1790648,71
1791280,65
1791904,65
1792528,65
1793156,32
1793776,16
1794404,11
1795028,29
1795648,30
1796280,49
1796896,53
1797524,55
1798156,53
1798776,51
1799404,30
1800028,25
1800656,17
1801288,11
1801904,14
1802532,33
1803156,29
1803780,28
1804412,36
1805032,58
1805660,71
1806284,72
1806904,68
1807536,63
1808152,68
1808780,63
1809404,44
1810032,11
1810660,25
1811284,59
1811912,83
1812540,57
1813160,47
1813788,58
1814412,54
1815040,55
1815668,22
1816288,19
1816916,16
1817540,11
1818164,12
1818792,23
1819416,37
1820044,44
1820668,38
1821296,54
1821924,74
1822548,85
1823180,75
1823808,57
1824428,38
1825056,36
1825680,16
1826308,13
1826936,12
1827552,12
1828184,28
1828808,36
1829428,39
1830060,47
1830680,57
1831308,57
1831932,54
1832560,24
1833188,18
1833812,15
1834444,13
1835072,25
1835692,40
1836320,61
1836944,65
1837572,45
1838204,48
1838824,66
1839452,66
1840076,58
1840700,52
1841332,61
1841952,68
1842580,61
1843212,26
1843828,21
1844456,13
1845080,18
1845708,18
1846336,52
1846960,58
1847588,57
1848212,54
1848836,33
1849468,16
1850088,21
1850716,24
1851340,16
1851964,32
1852592,50
1853216,54
1853844,55
1854476,54
1855096,56
1855724,68
1856348,67
1856980,64
1857608,47
1858224,62
1858852,60
1859476,45
1860100,26
1860732,18
1861352,22
1861980,38
1862604,19
1863228,47
1863856,54
1864480,58
1865108,56
1865736,27
1866360,24
1866988,17
1867612,14
1868240,19
1868872,29
1869488,45
1870116,49
1870740,37
1871368,49
1871996,60
1872616,63
1873244,60
1873868,63
1874492,67
1875124,72
1875744,59
1876372,30
1877004,27
1877624,23
1878252,22
1878876,28
1879508,48
1880140,54
1880760,55
1881388,58
1882016,64
1882636,44
1883268,22
1883888,17
1884516,14
1885140,29
1885764,33
1886396,36
1887016,55
1887644,45
1888276,48
1888896,63
1889524,66
1890148,64
1890776,58
1891408,64
1892024,59
1892652,48
1893276,31
1893900,23
1894532,14
1895152,29
1895780,17
1896404,48
1897028,55
1897656,58
1898272,55
1898904,28
1899532,18
1900152,13
1900780,12
1901408,11
1902036,38
1902668,64
1903288,59
1903920,49
1904544,51
1905168,70
1905796,71
1906416,66
1907044,53
1907668,39
1908292,43
1908924,34
1909544,19
1910172,10
1910804,15
1911424,15
1912056,15
1912680,33
1913308,48
1913940,55
1914560,57
1915192,56
1915816,20
1916440,21
1917072,19
1917688,21
1918320,46
1918944,60
1919568,72
1920200,54
1920816,29
1921444,57
1922072,69
1922688,69
1923320,75
1923940,63
1924572,49
1925200,62
1925816,62
1926444,24
1927068,12
1927688,10
1928320,41
1928936,37
1929564,49
1930188,57
1930812,55
1931444,53
1932064,49
1932692,24
1933324,12
1933944,13
1934572,22
1935196,41
1935828,58
1936460,54
1937080,59
1937708,50
1938332,56
1938956,71
1939588,70
1940208,66
1940836,50
1941460,58
1942084,73
1942712,63
1943336,32
1943968,17
1944596,17
1945216,32
1945848,17
1946468,49
1947100,56
1947728,54
1948348,60
1948976,32
1949600,28
1950224,17
1950852,18
1951472,23
1952100,36
1952724,50
1953348,54
1953980,38
1954600,52
1955228,60
1955860,57
1956480,59
1957108,56
1957732,59
1958364,73
1958996,64
1959616,34
1960244,11
1960868,11
1961492,27
1962124,30
1962744,43
1963372,54
1964000,57
1964624,57
1965252,56
1965872,29
1966504,29
1967132,20
1967752,12
1968380,22
1969004,31
1969632,38
1970260,43
1970880,35
1971508,47
1972132,60
1972756,74
1973384,74
1974004,66
1974632,57
1975256,58
1975880,39
1976508,10
1977128,11
1977756,15
1978384,28
1979008,18
1979636,50
1980260,55
1980892,53
1981520,57
1982136,33
1982768,20
1983392,14
1984016,11
1984644,10
1985264,22
1985892,47
1986516,67
1987140,70
1987772,54
1988392,60
1989020,73
1989652,66
1990272,61
1990900,36
1991524,47
1992156,49
1992784,46
1993408,33
1994036,17
1994660,22
1995284,40
1995916,24
1996536,48
1997168,54
1997788,58
1998412,57
1999044,22
1999664,32
2000292,28
2000924,26
2001544,24
2002172,26
2002796,49
2003424,49
2004056,34
2004672,53
2005300,62
2005924,65
2006548,71
2007180,66
2007800,52
2008428,53
2009052,61
2009676,36
2010304,18
2010920,14
2011548,23
2012180,32
2012800,50
2013428,55
2014052,54
2014680,55
2015312,57
2015932,19
2016560,18
2017184,18
2017808,30
2018436,39
2019056,44
2019684,43
2020308,40
2020932,32
2021564,57
2022184,84
2022816,85
2023444,76
2024064,61
2024692,60
2025316,77
2025948,72
2026576,13
2027192,16
2027824,27
2028448,53
2029072,41
2029700,45
2030320,57
2030948,61
2031576,62
2032200,31
2032828,15
2033448,11
2034076,10
2034708,12
2035328,31
2035956,44
2036580,40
2037212,34
2037844,52
2038464,59
2039092,58
2039716,56
2040344,61
2040972,56
2041592,68
2042224,60
2042848,50
2043472,27
2044104,16
2044720,19
2045352,29
2045980,33
2046600,53
2047232,60
2047856,64
2048488,64
2049116,42
2049732,36
2050360,29
2050984,12
2051604,11
2052232,14
2052852,30
2053480,27
2054104,19
2054724,56
2055352,68
2055976,69
2056604,65
2057232,56
2057848,53
2058476,62
2059100,61
2059728,29
2060356,32
2060976,28
2061604,22
2062224,35
2062852,51
2063480,56
2064096,53
2064724,59
2065348,49
2065968,22
2066600,12
2067216,25
2067844,62
2068464,71
2069088,59
2069716,48
2070340,39
2070972,38
2071600,68
2072216,74
2072848,76
2073468,67
2074100,57
2074728,68
2075344,65
2075976,48
2076600,20
2077220,13
2077852,38
2078472,49
2079100,25
2079724,49
2080348,54
2080976,55
2081592,59
2082220,26
2082848,24
2083472,14
2084100,11
2084720,10
2085352,31
2085980,67
2086600,57
2087228,41
2087852,54
2088472,67
2089104,71
2089720,68
2090348,54
2090968,46
2091592,58
2092220,62
2092840,44
2093468,19
2094096,10
2094712,37
2095340,43
2095964,34
2096596,50
2097224,56
2097840,58
2098472,57
2099096,23
2099720,19
2100348,11
2100968,10
2101596,18
2102220,44
2102840,66
2103472,63
2104088,45
2104716,50
2105340,64
2105968,69
2106596,67
2107220,59
2107848,54
2108476,64
2109096,63
2109724,40
2110348,26
2110980,17
2111608,25
2112228,31
2112856,51
2113476,56
2114100,53
2114732,58
2115352,47
2115980,23
2116604,21
2117232,24
2117860,29
2118484,38
2119112,45
2119740,46
2120360,43
2120988,43
2121612,50
2122240,61
2122868,58
2123488,59
2124116,44
2124740,63
2125364,66
2125996,54
2126616,31
2127244,16
2127868,20
2128496,26
2129124,15
2129748,48
2130376,53
2131008,57
2131624,57
2132252,23
2132876,18
2133504,15
2134132,13
2134752,23
2135380,29
2136004,40
2136628,52
2137256,61
2137876,50
2138504,69
2139128,77
2139752,64
2140380,53
2141004,57
2141632,52
2142264,35
2142880,19
2143508,16
2144132,12
2144760,26
2145392,19
2146008,45
2146636,52
2147260,57
2147884,54
2148512,54
2149132,12
2149760,11
2150384,13
2151008,10
2151636,46
2152260,71
2152888,63
2153520,61
2154136,49
2154764,49
2155388,69
2156020,71
2156648,82
2157264,78
2157896,74
2158520,64
2159144,38
2159772,12
2160392,19
2161020,21
2161644,36
2162268,26
2162896,53
2163512,55
2164144,60
2164772,60
2165392,51
2166020,39
2166644,12
2167272,26
2167904,23
2168520,15
2169152,40
2169776,52
2170400,45
2171028,48
2171648,65
2172276,64
2172900,65
2173524,59
2174152,30
2174776,52
2175404,66
2176036,56
2176652,31
2177284,17
2177904,13
2178532,19
2179164,18
2179784,49
2180412,54
2181036,54
2181660,59
2182288,34
2182912,43
2183540,32
2184164,19
2184788,23
2185416,28
2186040,54
2186668,49
2187300,33
2187920,51
2188548,66
2189172,73
2189804,65
2190432,56
2191052,62
2191680,64
2192304,57
2192928,31
2193556,16
2194176,13
2194804,23
2195428,24
2196052,49
2196684,52
2197304,57
2197932,60
2198564,56
2199184,32
2199816,21
2200440,17
2201068,18
2201700,30
2202320,40
2202948,47
2203572,53
2204196,35
2204824,56
2205440,71
2206072,70
2206696,73
2207320,64
2207952,64
2208568,66
2209196,61
2209828,38
2210448,21
2211076,30
2211704,56
2212332,30
2212964,50
2213584,57
2214212,60
2214836,57
2215460,27
2216092,10
2216712,12
2217340,17
2217964,34
2218588,39
2219220,49
2219840,45
2220468,36
2221100,50
2221720,61
2222352,64
2222976,67
2223604,62
2224236,41
2224856,45
2225484,53
2226108,43
2226732,22
2227364,19
2227984,14
2228612,28
2229236,30
2229860,54
2230492,55
2231116,60
2231744,56
2232376,23
2232996,23
2233624,33
2234248,28
2234876,30
2235508,32
2236128,52
2236760,54
2237384,39
2238008,54
2238640,69
2239256,70
2239888,65
2240520,62
2241136,61
2241764,66
2242388,61
2243016,30
2243648,14
2244264,16
2244892,23
2245516,39
2246148,54
2246776,52
2247396,55
2248024,57
2248648,48
2249268,37
2249900,30
2250520,27
2251148,23
2251776,30
2252400,27
2253032,27
2253652,29
2254280,44
2254912,54
2255528,70
2256156,70
2256780,64
2257408,47
2258040,61
2258656,70
2259284,55
2259908,23
2260532,12
2261160,22
2261776,27
2262404,15
2263028,48
2263652,53
2264284,57
2264908,58
2265536,42
2266164,48
2266784,41
2267412,24
2268036,22
2268668,29
2269296,50
2269916,51
2270544,42
2271168,53
2271796,68
2272424,74
2273048,65
2273676,52
2274300,55
2274928,70
2275556,72
2276180,50
2276812,31
2277440,18
2278064,25
2278696,34
2279320,46
2279944,53
2280572,56
2281192,57
2281820,57
2282448,43
2283068,30
2283700,24
2284320,29
2284948,44
2285580,62
2286200,65
2286828,52
2287452,29
2288084,61
2288712,72
2289332,80
2289960,79
2290584,77
2291208,80
2291836,92
2292456,83
2293088,52
2293712,23
2294336,12
2294964,28
2295584,39
2296212,59
2296844,78
2297464,79
2298092,63
2298716,45
2299348,31
2299976,27
2300600,19
2301228,17
2301856,28
2302480,37
2303108,29
2303728,25
2304360,51
2304980,67
2305604,66
2306232,72
2306848,71
2307480,62
2308108,62
2308728,51
2309356,23
2309980,9
2310560,15
2311188,30
2311808,30
2312436,18
2313060,48
2313692,55
2314320,57
2314940,59
2315568,22
2316192,25
2316816,24
2317444,12
2318064,11
2318692,19
2319316,40
2319940,58
2320572,50
2321192,56
2321820,65
2322452,68
2323072,67
2323700,57
2324324,54
2324956,63
2325584,49
2326208,27
2326836,17
2327460,11
2328084,34
2328716,36
2329336,52
2329968,53
2330588,53
2331212,58
2331844,54
2332464,31
2333092,26
2333724,12
2334344,11
2334976,19
2335600,29
2336228,36
2336856,52
2337480,41
2338108,55
2338732,67
2339356,77
2339988,71
2340608,65
2341236,67
2341860,69
2342484,58
2343116,20
2343736,23
2344364,48
2344996,42
2345616,17
2346244,47
2346868,53
2347500,57
2348128,61
2348748,26
2349380,28
2350004,25
2350628,16
2351256,18
2351880,35
2352512,49
2353136,40
2353760,31
2354392,55
2355016,63
2355648,71
2356276,70
2356896,57
2357524,42
2358148,49
2358780,49
2359408,34
2360032,20
2360660,10
2361284,27
2361908,24
2362540,39
2363160,51
2363792,57
2364420,64
2365040,64
2365672,24
2366296,15
2366924,13
2367556,12
2368176,26
2368804,37
2369428,54
2370056,46
2370684,24
2371304,56
2371932,75
2372556,71
2373184,62
2373812,44
2374432,49
2375060,60
2375692,58
2376312,24
2376940,12
2377564,10
2378196,26
2378828,20
2379448,51
2380080,53
2380700,53
2381328,59
2381956,40
2382576,27
2383204,18
2383828,15
2384456,13
2385084,26
2385704,53
2386332,55
2386964,51
2387584,45
2388212,64
2388840,69
2389468,73
2390100,70
2390720,57
2391352,69
2391976,79
2392600,64
2393232,30
2393848,18
2394480,15
2395104,19
2395728,18
2396360,51
2396976,54
2397608,58
2398236,62
2398856,54
2399488,47
2400112,19
2400740,11
2401372,18
2401992,36
2402620,56
2403244,49
2403868,44
2404496,50
2405120,61
2405748,65
2406376,63
2407000,68
2407628,60
2408248,61
2408876,59
2409508,37
2410128,17
2410756,11
2411380,19
2412012,15
2412644,51
2413264,55
2413892,57
2414520,59
2415144,61
2415772,60
2416392,53
2417024,46
2417644,30
2418268,36
2418900,46
2419524,45
2420152,40
2420780,24
2421400,62
2422032,66
2422656,61
2423284,59
2423916,50
2424536,65
2425164,78
2425792,71
2426416,43
2427044,26
2427664,13
2428292,22
2428916,19
2429544,51
2430172,56
2430796,55
2431428,61
2432060,46
2432680,53
2433308,45
2433932,29
2434560,14
2435188,27
2435808,50
2436440,58
2437064,52
2437688,49
2438316,67
2438936,70
2439568,71
2440192,63
2440816,56
2441444,69
2442068,67
2442700,43
2443332,16
2443952,11
2444584,34
2445208,36
2445832,28
2446460,48
2447080,57
2447712,57
2448336,58
2448960,15
2449588,24
2450208,35
2450840,26
2451468,18
2452088,24
2452716,37
2453344,39
2453972,31
2454604,48
2455224,72
2455856,65
2456480,68
2457104,67
2457736,60
2458352,64
2458980,58
2459604,12
2460224,24
2460856,36
2461472,44
2462100,24
2462728,50
2463352,55
2463980,59
2464604,57
2465236,48
2465864,22
2466480,17
2467108,13
2467732,15
2468360,34
2468988,42
2469608,39
2470236,35
2470860,43
2471484,53
2472112,71
2472736,75
2473364,72
2473996,50
2474616,52
2475244,53
2475868,41
2476500,22
2477128,18
2477752,17
2478384,37
2479008,24
2479632,47
2480260,55
2480880,57
2481508,56
2482132,29
2482756,36
2483384,21
2484008,13
2484636,15
2485264,19
2485884,34
2486512,38
2487136,36
2487764,52
2488396,58
2489016,63
2489644,64
2490268,45
2490892,31
2491520,52
2492136,66
2492768,39
2493392,21
2494016,14
2494644,24
2495264,27
2495896,43
2496524,52
2497144,59
2497772,55
2498396,58
2499028,36
2499656,28
2500280,18
2500908,11
2501532,13
2502156,44
2502788,60
2503408,53
2504036,32
2504660,59
2505284,65
2505916,62
2506536,63
2507168,52
2507796,52
2508416,71
2509048,71
2509668,30
2510300,19
2510928,11
2511552,35
2512184,27
2512804,48
2513428,52
2514060,55
2514680,55
2515308,35
2515932,24
2516556,19
2517188,12
2517808,13
2518436,36
2519068,50
2519688,51
2520316,45
2520944,48
2521572,64
2522204,66
2522824,58
2523456,59
2524080,52
2524704,72
2525332,67
2525952,51
2526584,25
2527208,14
2527832,24
2528464,24
2529080,20
2529708,48
2530340,54
2530960,58
2531592,56
2532216,24
2532844,18
2533476,18
2534096,21
2534728,43
2535352,45
2535976,47
2536608,45
2537224,43
2537856,50
2538480,66
2539104,63
2539736,61
2540360,40
2540988,45
2541620,56
2542240,57
2542868,36
2543492,31
2544124,17
2544756,30
2545376,36
2546008,48
2546632,55
2547256,55
2547884,59
2548504,55
2549132,25
2549760,19
2550384,16
2551016,15
2551640,29
2552272,44
2552904,39
2553520,37
2554152,37
2554776,59
2555400,67
2556032,71
2556652,74
2557284,71
2557908,82
2558532,86
2559164,73
2559788,42
2560420,21
2561048,17
2561664,32
2562292,19
2562912,47
2563540,58
2564168,67
2564784,82
2565412,79
2566036,49
2566660,17
2567288,10
2567912,13
2568540,24
2569164,28
2569784,28
2570416,52
2571032,51
2571660,61
2572284,74
2572912,68
2573540,52
2574164,35
2574792,35
2575420,53
2576040,52
2576668,31
2577288,20
2577920,18
2578548,30
2579168,33
2579796,51
2580420,58
2581044,59
2581676,54
2582296,25
2582924,18
2583548,13
2584176,11
2584804,25
2585428,41
2586060,57
2586688,49
2587304,23
2587932,59
2588556,70
2589188,65
2589816,57
2590432,32
2591064,36
2591688,46
2592312,42
2592940,14
2593560,11
2594188,11
2594812,26
2595440,22
2596068,48
2596692,53
2597324,58
2597952,58
2598572,41
2599200,29
2599824,29
2600452,26
2601084,18
2601704,32
2602332,41
2602956,36
2603580,31
2604208,46
2604824,64
2605456,67
2606076,74
2606704,71
2607332,54
2607960,62
2608588,57
2609220,42
2609840,20
2610468,12
2611092,23
2611720,31
2612348,17
2612968,46
2613596,54
2614220,59
2614844,57
2615476,30
2616096,27
2616724,21
2617356,18
2617976,27
2618604,30
2619228,37
2619860,33
2620488,22
2621112,64
2621744,72
2622364,61
2622988,55
2623616,50
2624240,51
2624868,56
2625488,56
2626108,39
2626740,17
2627356,10
2627988,31
2628616,32
2629232,49
2629860,54
2630484,56
2631112,56
2631740,53
2632360,21
2632988,25
2633608,24
2634236,15
2634868,24
2635488,44
2636116,55
2636740,64
2637364,56
2637996,48
2638616,65
2639244,71
2639868,71
2640496,64
2641124,57
2641748,54
2642376,53
2643004,28
2643624,22
2644252,11
2644872,28
2645500,20
2646132,48
2646752,58
2647380,54
2648004,55
2648624,33
2649256,30
2649872,25
2650500,22
2651124,19
2651748,24
2652376,45
2653000,42
2653628,33
2654256,52
2654880,67
2655508,69
2656132,64
2656760,59
2657388,37
2658008,53
2658636,59
2659260,43
2659884,20
2660512,14
2661128,15
2661756,23
2662380,21
2663008,47
2663636,60
2664256,60
2664884,56
2665512,20
2666136,17
2666764,14
2667388,14
2668016,27
2668644,34
2669264,48
2669892,46
2670516,34
2671136,51
2671768,55
2672384,60
2673016,66
2673636,61
2674260,62
2674888,58
2675512,42
2676140,21
2676768,15
2677392,10
2678020,27
2678644,27
2679272,51
2679900,57
2680520,53
2681148,57
2681772,56
2682396,16
2683024,31
2683644,32
2684272,24
2684896,29
2685516,35
2686148,41
2686768,42
2687396,28
2688028,53
2688644,66
2689272,73
2689896,71
2690524,53
2691152,60
2691772,64
2692400,59
2693024,32
2693648,24
2694276,10
2694896,30
2695524,20
2696148,49
2696772,53
2697400,61
2698020,58
2698648,41
2699276,30
2699896,22
2700524,19
2701148,25
2701780,36
2702408,49
2703024,44
2703656,39
2704276,53
2704900,61
2705528,68
2706152,65
2706780,69
2707404,60
2708028,60
2708656,55
2709280,41
2709908,25
2710536,21
2711160,15
2711788,25
2712412,29
2713044,52
2713672,58
2714288,60
2714920,61
2715540,37
2716164,27
2716796,26
2717416,23
2718044,33
2718668,40
2719292,53
2719924,52
2720544,37
2721172,46
2721800,60
2722424,65
2723052,68
2723676,57
2724304,43
2724932,55
2725552,62
2726180,40
2726804,32
2727428,19
2728060,23
2728680,25
2729308,50
2729932,57
2730552,55
2731184,55
2731800,53
2732432,31
2733060,23
2733680,18
2734308,12
2734932,25
2735564,49
2736192,73
2736808,79
2737440,52
2738060,56
2738692,71
2739320,79
2739944,67
2740572,42
2741196,43
2741820,55
2742448,50
2743072,26
2743700,15
2744332,16
2744952,27
2745580,16
2746204,48
2746836,53
2747464,57
2748084,60
2748712,25
2749336,21
2749960,17
2750588,23
2751208,35
2751836,37
2752464,51
2753084,42
2753716,34
2754336,52
2754964,63
2755596,66
2756216,65
2756844,62
2757468,54
2758100,57
2758728,50
2759344,35
2759976,23
2760600,19
2761224,16
2761852,20
2762472,44
2763100,53
2763728,57
2764352,61
2764980,55
2765600,27
2766228,33
2766856,27
2767480,17
2768108,35
2768732,40
2769360,53
2769988,62
2770608,49
2771236,55
2771860,80
2772484,77
2773116,66
2773736,54
2774368,46
2774992,67
2775616,61
2776244,13
2776864,15
2777492,24
2778124,30
2778744,19
2779372,49
2779996,54
2780628,52
2781260,56
2781880,41
2782508,20
2783136,23
2783760,25
2784392,23
2785008,37
2785636,43
2786260,37
2786884,35
2787512,46
2788132,69
2788760,77
2789388,70
2790008,63
2790636,40
2791260,55
2791892,51
2792520,29
2793136,11
2793768,12
2794392,17
2795016,25
2795644,19
2796264,55
2796892,52
2797516,52
2798140,59
2798772,34
2799392,31
2800020,21
2800652,22
2801272,35
2801900,44
2802524,56
2803156,47
2803784,34
2804408,53
2805036,67
2805660,70
2806284,79
2806916,76
2807536,61
2808164,48
2808788,38
2809412,28
2810044,20
2810664,15
2811292,18
2811924,14
2812544,51
2813176,54
2813800,60
2814428,57
2815060,55
2815680,26
2816312,35
2816932,35
2817556,27
2818184,24
2818808,27
2819436,37
2820060,63
2820684,46
2821312,62
2821928,66
2822556,70
2823188,69
2823808,66
2824436,63
2825060,53
2825692,45
2826320,24
2826936,19
2827564,13
2828188,29
2828812,17
2829440,46
2830056,55
2830684,60
2831308,58
2831932,33
2832564,30
2833184,24
2833812,15
2834444,17
2835064,27
2835692,42
2836316,41
2836948,33
2837580,52
2838200,68
2838828,71
2839456,67
2840076,62
2840708,60
2841328,73
2841960,55
2842580,25
2843204,11
2843832,10
2844456,24
2845084,32
2845716,34
2846336,55
2846968,56
2847592,57
2848220,58
2848848,19
2849472,29
2850100,30
2850724,26
2851348,35
2851980,31
2852600,44
2853228,51
2853852,39
2854476,52
2855108,66
2855728,73
2856356,72
2856988,62
2857608,55
2858236,49
2858860,40
2859492,11
2860124,10
2860744,10
2861376,27
2862000,18
2862624,51
2863256,52
2863872,53
2864504,58
2865128,45
2865752,31
2866384,24
2867000,16
2867632,20
2868264,37
2868880,40
2869508,33
2870132,40
2870760,46
2871388,62
2872008,67
2872636,64
2873260,64
2873884,48
2874512,57
2875136,57
2875764,55
2876388,42
2877012,25
2877644,30
2878264,46
2878892,19
2879524,48
2880144,56
2880772,57
2881396,56
2882024,28
2882652,33
2883272,32
2883900,25
2884524,28
2885144,35
2885772,48
2886392,41
2887020,30
2887644,56
2888268,69
2888896,67
2889520,64
2890148,54
2890776,43
2891400,46
2892028,37
2892652,17
2893284,10
2893912,13
2894528,12
2895156,21
2895780,46
2896404,53
2897032,54
2897656,58
2898284,61
2898908,36
2899532,30
2900160,14
2900776,16
2901408,33
2902036,39
2902656,45
2903284,39
2903908,25
2904540,59
2905168,72
2905792,70
2906420,65
2907044,40
2907668,44
2908300,60
2908920,68
2909548,26
2910172,11
2910796,16
2911428,34
2912048,22
2912676,46
2913304,54
2913928,58
2914556,58
2915180,43
2915812,28
2916444,18
2917064,18
2917692,16
2918320,29
2918944,45
2919572,42
2920192,37
2920820,52
2921444,61
2922068,63
2922696,62
2923320,65
2923948,56
2924580,62
2925200,62
2925828,45
2926452,13
2927084,12
2927712,27
2928336,30
2928964,21
2929588,51
2930212,55
2930844,58
2931464,59
2932092,15
2932716,31
2933340,37
2933972,23
2934596,33
2935228,48
2935856,63
2936476,50
2937104,29
2937732,51
2938360,61
2938992,65
2939608,67
2940236,63
2940860,61
2941484,64
2942116,68
2942736,41
2943368,30
2943992,23
2944616,14
2945248,13
2945872,52
2946500,53
2947132,54
2947752,59
2948384,64
2949008,66
2949636,62
2950268,44
2950888,32
2951516,35
2952140,43
2952764,48
2953392,48
2954016,41
2954644,61
2955276,74
2955896,72
2956528,65
2957148,53
2957780,67
2958408,68
2959032,44
2959660,17
2960288,13
2960908,14
2961540,22
2962160,18
2962788,46
2963412,54
2964036,61
2964668,60
2965288,27
2965916,18
2966548,14
2967168,19
2967796,40
2968420,45
2969052,51
2969680,43
2970300,33
2970932,55
2971552,65
2972176,71
2972808,65
2973424,57
2974052,58
2974676,68
2975300,50
2975932,27
2976552,15
2977180,12
2977812,22
2978432,27
2979060,41
2979684,51
2980316,55
2980944,56
2981568,57
2982196,26
2982824,21
2983444,15
2984076,14
2984696,35
2985324,41
2985948,55
2986572,54
2987204,33
2987824,50
2988456,73
2989084,77
2989704,63
2990336,38
2990960,45
2991588,60
2992220,56
2992840,27
2993468,15
2994092,12
2994716,25
2995348,18
2995968,49
2996596,53
2997220,58
2997844,57
2998476,38
2999096,27
2999724,34
3000356,20
3000976,22
3001604,45
3002228,66
3002860,63
3003492,54
3004112,52
3004744,69
3005368,69
3005992,70
3006624,67
3007240,53
3007872,65
3008496,65
3009120,52
3009748,18
3010376,11
3011004,17
3011636,20
3012256,21
3012884,53
3013508,54
3014140,57
3014772,54
3015392,25
3016024,27
3016644,34
3017272,32
3017900,29
3018520,36
3019152,62
3019784,74
3020400,58
3021032,50
3021656,63
3022284,65
3022916,66
3023536,66
3024168,74
3024792,82
3025416,76
3026048,39
3026664,26
3027292,18
3027920,17
3028544,14
3029172,49
3029792,49
3030424,55
3031052,65
3031672,64
3032304,40
3032928,25
3033560,16
3034188,19
3034808,40
3035436,50
3036064,53
3036688,53
3037320,39
3037936,57
3038568,65
3039192,68
3039816,67
3040448,52
3041072,59
3041704,64
3042332,48
3042952,19
3043580,18
3044208,11
3044836,25
3045468,20
3046088,46
3046716,54
3047344,56
3047968,54
3048596,23
3049216,20
3049844,20
3050472,19
3051096,25
3051728,40
3052344,59
3052976,59
3053604,42
3054224,51
3054856,67
3055480,81
3056108,73
3056740,60
3057360,53
3057992,56
3058616,45
3059240,28
3059868,17
3060488,12
3061116,21
3061744,24
3062368,43
3063000,53
3063624,59
3064256,64
3064888,60
3065504,29
3066136,32
3066760,27
3067392,17
3068024,27
3068640,35
3069272,47
3069896,48
3070520,31
3071152,56
3071780,71
3072412,68
3073040,61
3073656,58
3074284,58
3074908,45
3075536,38
3076164,28
3076784,25
3077412,11
3078036,25
3078664,19
3079292,48
3079912,51
3080540,56
3081164,56
3081788,39
3082420,22
3083040,29
3083668,23
3084296,18
3084920,41
3085548,56
3086172,45
3086800,39
3087432,47
3088048,66
3088680,66
3089300,74
3089928,67
3090556,64
3091176,66
3091808,71
3092432,62
3093056,41
3093684,10
3094304,27
3094936,26
3095564,22
3096184,50
3096812,58
3097436,57
3098068,62
3098700,38
3099320,30
3099948,20
3100576,17
3101200,24
3101828,27
3102448,32
3103080,39
3103704,45
3104328,54
3104956,66
3105576,68
3106208,61
3106836,52
3107456,57
3108088,53
3108712,60
3109340,49
3109972,19
3110592,10
3111220,36
3111848,41
3112472,49
3113104,55
3113720,58
3114348,59
3114972,59
3115600,29
3116228,31
3116848,17
3117476,13
3118108,16
3118728,48
3119356,52
3119984,41
3120616,29
3121244,51
3121864,59
3122496,69
3123120,72
3123744,65
3124372,66
3124992,44
3125620,48
3126244,11
3126868,12
3127500,16
3128120,29
3128748,17
3129380,48
3130000,55
3130628,53
3131256,55
3131884,23
3132516,18
3133136,22
3133768,19
3134392,28
3135016,47
3135648,64
3136264,44
3136896,35
3137520,49
3138144,55
3138772,63
3139396,70
3140028,61
3140656,47
3141280,57
3141908,60
3142536,41
3143164,13
3143796,10
3144416,24
3145044,23
3145668,37
3146292,51
3146924,54
3147544,57
3148176,59
3148804,23
3149424,23
3150052,17
3150680,17
3151308,29
3151940,36
3152560,51
3153192,53
3153816,31
3154444,57
3155072,74
3155692,72
3156324,68
3156948,55
3157572,41
3158204,57
3158824,58
3159456,35
3160084,15
3160704,11
3161336,31
3161960,18
3162588,49
3163220,58
3163840,61
3164472,57
3165096,39
3165720,28
3166352,30
3166972,23
3167600,19
3168224,32
3168848,44
3169476,41
3170096,37
3170728,49
3171356,61
3171976,69
3172608,62
3173232,64
3173864,56
3174496,73
3175112,73
3175744,48
3176368,29
3176992,12
3177620,22
3178240,22
3178868,19
3179496,47
3180120,63
3180752,57
3181368,55
3182000,15
3182632,15
3183248,41
3183880,37
3184504,29
3185136,30
3185768,48
3186384,43
3187016,32
3187640,55
3188268,64
3188896,68
3189520,64
3190152,52
3190776,55
3191400,72
3192032,62
3192656,32
3193288,14
3193920,10
3194536,18
3195168,12
3195796,51
3196424,55
3197056,55
3197672,59
3198304,55
3198932,40
3199556,16
3200188,12
3200804,25
3201432,38
3202064,44
3202680,52
3203308,57
3203932,45
3204560,52
3205188,68
3205808,71
3206436,68
3207060,51
3207684,60
3208316,72
3208936,59
3209564,16
3210188,10
3210812,19
3211440,42
3212064,25
3212692,49
3213324,52
3213944,57
3214572,56
3215196,31
3215828,23
3216456,19
3217080,12
3217708,14
3218332,26
3218956,52
3219588,56
3220208,59
3220836,51
3221460,57
3222084,65
3222712,64
3223336,57
3223964,48
3224596,57
3225216,58
3225848,49
3226468,27
3227100,12
3227728,23
3228344,20
3228976,41
3229600,53
3230220,54
3230852,58
3231472,57
3232104,23
3232724,16
3233348,13
3233980,20
3234600,34
3235228,41
3235860,47
3236480,48
3237108,38
3237732,49
3238364,74
3238992,72
3239616,62
3240244,37
3240868,47
3241492,58
3242124,44
3242744,11
3243372,10
3243996,10
3244624,32
3245252,32
3245872,49
3246504,55
3247132,54
3247752,56
3248384,44
3249004,26
3249636,19
3250264,14
3250888,14
3251516,29
3252140,44
3252764,37
3253396,32
3254016,47
3254644,61
3255272,65
3255896,62
3256528,60
3257144,45
3257772,62
3258404,64
3259024,53
3259656,31
3260280,13
3260908,35
3261540,41
3262160,19
3262792,49
3263416,55
3264040,55
3264668,54
3265288,23
3265916,22
3266540,15
3267168,11
3267796,11
3268420,16
3269052,34
3269684,34
3270304,43
3270936,51
3271560,56
3272192,59
3272820,59
3273440,55
3274072,54
3274696,59
3275320,52
3275952,33
3276572,26
3277204,17
3277832,19
3278448,23
3279076,49
3279696,55
3280324,55
3280952,54
3281576,56
3282204,25
3282824,21
3283452,27
3284080,29
3284700,45
3285332,52
3285952,49
3286576,52
3287204,32
3287820,57
3288452,69
3289072,73
3289696,68
3290324,48
3290944,56
3291572,64
3292200,59
3292824,37
3293448,26
3294072,15
3294700,11
3295332,20
3295952,49
3296580,60
3297204,58
3297828,58
3298456,47
3299072,36
3299704,31
3300324,20
3300948,25
3301576,58
3302200,79
3302828,53
3303456,42
3304080,49
3304708,61
3305332,71
3305960,65
3306588,66
3307208,58
3307836,61
3308460,58
3309084,46
3309712,16
3310328,11
3310960,28
3311584,28
3312208,24
3312836,48
3313456,52
3314084,59
3314712,59
3315336,25
3315964,25
3316588,21
3317220,20
3317848,28
3318464,35
3319092,45
3319716,43
3320340,37
3320968,49
3321584,68
3322212,65
3322836,66
3323460,63
3324092,64
3324712,65
3325340,50
3325972,25
3326592,13
3327220,14
3327844,20
3328476,22
3329104,50
3329728,58
3330356,58
3330976,58
3331600,56
3332228,28
3332848,22
3333476,14
3334100,11
3334720,29
3335352,50
3335968,52
3336596,43
3337228,34
3337848,54
3338476,66
3339100,69
3339728,63
3340356,50
3340976,59
3341604,62
3342228,53
3342852,26
3343484,12
3344104,18
3344732,26
3345356,16
3345980,48
3346608,54
3347224,57
3347856,59
3348476,27
3349104,24
3349732,19
3350356,17
3350988,18
3351616,23
3352240,40
3352868,51
3353492,54
3354120,53
3354748,66
3355368,68
3355996,67
3356620,60
3357244,69
3357876,76
3358496,66
3359124,31
3359756,14
3360376,14
3361004,38
3361628,35
3362252,33
3362884,52
3363504,55
3364132,58
3364756,57
3365380,30
3366012,26
3366632,20
3367260,18
3367884,29
3368504,40
3369136,49
3369752,56
3370380,37
3371004,53
3371632,73
3372260,73
3372884,69
3373512,65
3374140,66
3374760,69
3375388,64
3376012,38
3376640,20
3377268,12
3377888,48
3378516,44
3379140,49
3379768,53
3380396,53
3381016,57
3381644,45
3382268,16
3382888,15
3383520,15
3384140,12
3384772,21
3385400,31
3386020,34
3386648,40
3387268,60
3387900,56
3388528,56
3389152,59
3389780,63
3390404,51
3391028,63
3391660,55
3392280,42
3392908,23
3393532,23
3394160,12
3394788,26
3395412,15
3396040,50
3396672,56
3397288,57
3397916,56
3398540,18
3399172,12
3399800,19
3400416,24
3401048,39
3401668,49
3402292,57
3402920,51
3403544,35
3404172,53
3404796,72
3405424,68
3406052,57
3406676,37
3407308,50
3407936,65
3408552,48
3409184,15
3409808,11
3410436,11
3411064,25
3411688,26
3412316,47
3412940,52
3413564,53
3414196,56
3414816,60
3415444,17
3416076,24
3416696,23
3417324,16
3417948,27
3418580,35
3419208,43
3419832,53
3420464,37
3421088,51
3421712,65
3422340,66
3422960,70
3423588,60
3424216,59
3424840,56
3425468,50
3426088,23
3426716,18
3427348,10
3427968,19
3428596,15
3429220,51
3429852,56
3430484,58
3431104,56
3431732,33
3432356,29
3432980,24
3433608,16
3434232,19
3434860,31
3435488,49
3436112,43
3436740,41
3437360,54
3437992,61
3438620,71
3439240,61
3439872,58
3440496,48
3441124,63
3441756,59
3442376,43
3443004,21
3443628,13
3444252,19
3444880,27
3445496,22
3446128,51
3446752,56
3447376,58
3448004,54
3448624,22
3449252,15
3449884,16
3450504,14
3451132,28
3451756,49
3452388,75
3453020,70
3453640,45
3454268,50
3454896,64
3455520,64
3456148,68
3456768,60
3457396,58
3458020,60
3458640,56
3459272,29
3459888,18
3460516,14
3461148,26
3461768,27
3462396,49
3463020,53
3463652,55
3464280,60
3464900,57
3465528,23
3466152,12
3466776,11
3467404,18
3468024,39
3468652,44
3469276,37
3469900,37
3470532,38
3471152,51
3471784,61
3472412,68
3473032,67
3473660,73
3474284,73
3474916,52
3475544,27
3476168,14
3476796,14
3477424,19
3478048,34
3478676,18
3479296,48
3479928,55
3480552,59
3481176,59
3481808,32
3482424,33
3483052,19
3483680,11
3484296,21
3484928,43
3485552,42
3486180,20
3486812,22
3487432,55
3488060,53
3488684,69
3489308,74
3489936,64
3490552,56
3491180,65
3491808,64
3492432,39
3493060,15
3493680,11
3494308,26
3494940,26
3495560,43
3496188,53
3496812,57
3497444,59
3498072,55
3498696,25
3499324,31
3499952,24
3500576,25
3501204,31
3501824,34
3502456,45
3503076,59
3503704,48
3504332,51
3504952,68
3505580,61
3506212,59
3506832,44
3507464,61
3508088,90
3508716,79
3509348,22
3509968,10
3510596,12
3511224,11
3511848,14
3512476,48
3513096,54
3513728,53
3514352,62
3514976,52
3515608,35
3516232,24
3516860,20
3517492,22
3518112,42
3518744,60
3519368,56
3520000,51
3520628,46
3521248,63
3521876,70
3522504,69
3523128,65
3523756,76
3524376,90
3525004,81
3525628,62
3526256,27
3526884,11
3527508,21
3528140,25
3528768,21
3529384,47
3530016,57
3530640,66
3531268,72
3531900,65
3532520,52
3533152,35
3533772,23
3534396,22
3535028,24
3535648,39
3536276,45
3536908,38
3537528,54
3538156,64
3538780,68
3539412,66
3540040,60
3540664,61
3541292,73
3541916,68
3542540,35
3543172,30
3543792,28
3544420,20
3545044,26
3545668,52
3546300,55
3546920,58
3547548,59
3548180,52
3548800,32
3549428,30
3550052,30
3550684,22
3551316,34
3551936,45
3552568,51
3553192,50
3553816,41
3554444,48
3555064,60
3555696,57
3556320,63
3556944,52
3557572,63
3558192,66
3558824,66
3559452,34
3560072,12
3560700,21
3561324,35
3561956,19
3562588,48
3563208,55
3563840,56
3564460,58
3565088,29
3565716,17
3566336,11
3566968,10
3567592,16
3568216,29
3568844,42
3569464,47
3570092,35
3570724,50
3571344,66
3571976,57
3572600,57
3573228,48
3573860,45
3574480,60
3575108,53
3575736,24
3576360,11
3576988,10
3577608,20
3578236,15
3578864,38
3579488,51
3580120,54
3580744,57
3581376,59
3582008,15
3582624,13
3583256,12
3583884,21
3584516,24
3585144,36
3585764,63
3586392,79
3587016,57
3587640,52
3588268,78
3588888,79
3589516,66
3590140,51
3590768,58
3591396,68
3592020,61
3592652,19
3593280,14
3593904,25
3594536,48
3595160,35
3595784,53
3596412,53
3597032,57
3597660,57
3598284,40
3598908,18
3599540,16
3600160,11
3600788,15
3601420,12
3602040,52
3602668,63
3603292,48
3603924,50
3604552,62
3605176,61
3605804,69
3606428,68
3607048,63
3607680,74
3608296,85
3608924,64
3609548,30
3610172,15
3610800,12
3611424,15
3612052,27
3612684,48
3613304,57
3613932,57
3614556,56
3615188,37
3615816,58
3616440,65
3617068,63
3617692,59
3618316,56
3618944,60
3619564,57
3620192,39
3620816,51
3621440,59
3622068,64
3622688,63
3623316,67
3623948,78
3624568,93
3625196,73
3625820,42
3626452,31
3627080,28
3627696,11
3628328,13
3628952,54
3629576,57
3630204,55
3630824,64
3631452,75
3632080,92
3632700,77
3633332,56
3633952,34
3634584,34
3635212,38
3635832,45
3636460,40
3637084,22
3637716,67
3638344,99
3638968,111
3639648,104
3640332,103
3641004,91
3641628,78
3642252,64
3642884,32
3643512,14
3644132,24
3644760,55
3645388,65
3646012,71
3646644,79
3647264,75
3647896,61
3648524,54
3649144,46
3649772,37
3650396,37
3651028,38
3651656,53
3652272,64
3652904,47
3653528,34
3654152,57
3654784,73
3655400,85
3656028,83
3656652,83
3657276,74
3657908,77
3658528,73
3659156,46
3659788,26
3660408,29
3661040,11
3661660,30
3662292,55
3662924,63
3663544,63
3664176,59
3664796,64
3665424,59
3666052,53
3666672,40
3667300,29
3667924,25
3668548,37
3669180,30
3669800,23
3670428,30
3671060,68
3671680,77
3672312,84
3672936,86
3673568,61
3674200,59
3674816,67
3675448,56
3676072,13
3676696,32
3677328,44
3677944,36
3678576,19
3679200,50
3679824,58
3680456,58
3681072,54
3681704,29
3682332,32
3682952,32
3683584,13
3684208,11
3684836,15
3685468,36
3686088,51
3686720,51
3687340,51
3687964,62
3688592,55
3689216,60
3689844,51
3690468,52
3691088,67
3691720,70
3692336,54
3692968,36
3693596,16
3694216,24
3694844,35
3695468,33
3696100,54
3696728,54
3697344,60
3697976,66
3698600,50
3699224,31
3699852,18
3700472,16
3701100,27
3701728,45
3702352,63
3702980,51
3703600,25
3704228,61
3704860,78
3705480,80
3706112,69
3706736,64
3707364,76
3707996,89
3708616,80
3709248,34
3709872,11
3710496,24
3711124,44
3711744,37
3712376,52
3713000,53
3713624,55
3714252,56
3714872,49
3715500,17
3716132,34
3716752,34
3717384,18
3718004,18
3718636,33
3719268,41
3719888,63
3720516,66
3721140,56
3721764,56
3722396,56
3723016,61
3723648,40
3724272,41
3724896,47
3725524,40
3726148,35
3726780,20
3727408,14
3728032,24
3728660,20
3729284,58
3729912,51
3730544,55
3731160,59
3731792,27
3732416,19
3733040,13
3733668,16
3734288,29
3734920,37
3735544,57
3736168,46
3736796,19
3737424,71
3738056,101
3738736,107
3739404,104
3740080,110
3740760,101
3741436,76
3742064,70
3742688,27
3743312,12
3743944,39
3744564,73
3745192,41
3745824,51
3746440,73
3747072,79
3747696,68
3748328,56
3748956,52
3749576,30
3750208,11
3750832,11
3751456,11
3752088,18
3752704,26
3753336,58
3753960,53
3754584,60
3755216,60
3755832,60
3756464,59
3757096,32
3757712,58
3758344,75
3758972,61
3759600,45
3760232,31
3760852,14
3761480,11
3762104,26
3762728,56
3763360,78
3763976,79
3764608,79
3765232,78
3765856,61
3766484,39
3767108,18
3767740,22
3768372,18
3768992,13
3769620,13
3770244,21
3770876,63
3771504,70
3772128,75
3772760,73
3773384,65
3774008,80
3774636,98
3775256,99
3775888,84
3776520,62
3777136,35
3777768,22
3778388,33
3779020,54
3779652,66
3780272,73
3780904,72
3781528,84
3782152,103
3782832,97
3783456,63
3784088,33
3784716,47
3785336,58
3785968,54
3786592,36
3787224,48
3787852,76
3788472,79
3789104,73
3789728,64
3790352,49
3790984,65
3791600,74
3792232,67
3792856,38
3793480,15
3794112,25
3794728,20
3795356,29
3795988,56
3796608,54
3797236,54
3797864,58
3798492,17
3799124,12
3799744,12
3800376,14
3801000,28
3801624,41
3802252,58
3802872,45
3803504,31
3804128,47
3804752,56
3805384,62
3806004,60
3806632,40
3807264,34
3807884,47
3808512,66
3809140,40
3809768,22
3810400,24
3811016,10
3811648,10
3812272,53
3812900,52
3813528,63
3814148,67
3814780,75
3815404,69
3816028,55
3816660,37
3817280,31
3817908,29
3818540,31
3819160,30
3819792,28
3820416,27
3821048,67
3821676,67
3822296,70
3822928,71
3823552,50
3824176,49
3824808,49
3825424,45
3826056,33
3826680,24
3827304,12
3827936,13
3828560,21
3829192,50
3829824,54
3830440,57
3831072,59
3831696,41
3832328,32
3832956,26
3833576,29
3834208,23
3834836,15
3835460,25
3836092,25
3836712,31
3837344,53
3837976,68
3838600,68
3839232,62
3839860,39
3840492,11
3841120,18
3841744,29
3842372,23
3842996,18
3843620,11
3844248,50
3844872,46
3845500,43
3846124,53
3846748,56
3847380,56
3848004,57
3848632,15
3849260,10
3849880,18
3850508,29
3851132,27
3851764,33
3852392,42
3853012,36
3853640,17
3854264,84
3854888,83
3855516,74
3856136,72
3856764,97
3857388,121
3858064,131
3858740,111
3859412,54
3860032,17
3860660,43
3861280,113
3861960,81
3862588,57
3863208,60
3863836,62
3864464,77
3865092,77
3865724,47
3866344,31
3866972,37
3867596,61
3868220,71
3868852,81
3869472,64
3870104,25
3870732,66
3871352,91
3871984,101
3872660,100
3873336,121
3874008,138
3874684,166
3875360,116
3876040,44
3876664,27
3877292,13
3877924,35
3878544,50
3879172,54
3879800,57
3880428,114
3881112,188
3881780,203
3882456,177
3883140,138
3883812,89
3884440,56
3885068,36
3885688,38
3886320,27
3886944,17
3887572,81
3888204,107
3888876,100
3889556,109
3890236,104
3890908,119
3891588,128
3892264,80
3892888,50
3893516,22
3894140,19
3894772,33
3895400,34
3896024,55
3896652,57
3897276,58
3897900,58
3898532,24
3899152,31
3899784,48
3900408,69
3901032,82
3901664,87
3902288,91
3902916,82
3903548,68
3904168,50
3904800,66
3905420,77
3906052,78
3906684,72
3907304,58
3907932,51
3908560,57
3909184,42
3909812,42
3910432,25
3911060,25
3911692,34
3912312,47
3912944,53
3913568,64
3914200,62
3914828,43
3915448,43
3916080,93
3916704,118
3917380,116
3918060,77
3918680,57
3919312,30
3919940,18
3920560,60
3921192,75
3921816,71
3922440,63
3923068,63
3923688,40
3924316,54
3924944,61
3925568,54
3926200,44
3926816,34
3927448,17
3928076,17
3928696,34
3929328,54
3929952,62
3930584,60
3931212,56
3931832,29
3932464,25
3933088,12
3933712,12
3934340,11
3934960,11
3935588,16
3936216,36
3936840,39
3937468,56
3938088,94
3938716,98
3939348,100
3940020,76
3940644,38
3941268,58
3941896,96
3942524,73
3943144,30
3943772,17
3944396,36
3945020,85
3945648,107
3946324,75
3946948,63
3947580,56
3948200,45
3948828,30
3949452,27
3950084,10
3950712,13
3951332,45
3951964,97
3952588,153
3953264,170
3953940,90
3954560,59
3955188,66
3955820,72
3956440,72
3957072,91
3957696,125
3958372,116
3959052,94
3959672,88
3960304,84
3960932,50
3961552,35
3962184,62
3962808,55
3963432,59
3964064,61
3964680,69
3965312,79
3965936,116
3966612,94
3967240,85
3967864,67
3968496,25
3969124,14
3969744,17
3970372,53
3971000,96
3971624,89
3972252,66
3972872,62
3973504,38
3974128,35
3974752,61
3975380,28
3976004,20
3976632,18
3977264,11
3977884,15
3978512,24
3979136,47
3979768,55
3980396,66
3981016,59
3981644,29
3982268,75
3982896,131
3983576,130
3984244,78
3984868,49
3985500,46
3986120,32
3986748,18
3987376,104
3988052,173
3988732,162
3989404,136
3990076,152
3990756,166
3991428,158
3992108,118
3992788,25
3993408,35
3994040,98
3994672,188
3995340,198
3996020,98
3996640,79
3997264,76
3997896,70
3998512,18
3999144,61
3999776,67
4000392,88
4001024,103
4001700,71
4002320,19
4002948,45
4003568,20
4004196,52
4004820,88
4005444,135
4006124,100
4006796,60
4007420,15
4008052,68
4008672,97
4009300,69
4009924,20
4010548,62
4011176,99
4011800,68
4012432,49
4013056,56
4013680,62
4014308,75
4014932,65
4015564,49
4016192,28
4016816,13
4017444,11
4018068,21
4018692,24
4019324,32
4019944,33
4020572,60
4021196,82
4021820,80
4022448,67
4023072,71
4023700,81
4024332,76
4024952,69
4025580,38
4026204,25
4026836,16
4027468,13
4028088,15
4028716,30
4029344,56
4029968,59
4030600,60
4031216,61
4031848,29
4032472,30
4033096,23
4033724,24
4034344,27
4034976,19
4035604,35
4036224,47
4036852,24
4037476,62
4038108,85
4038736,78
4039360,77
4039988,90
4040616,91
4041240,117
4041920,117
4042596,76
4043224,61
4043852,14
4044472,69
4045104,79
4045728,71
4046352,81
4046980,90
4047600,77
4048228,39
4048852,15
4049476,12
4050108,28
4050728,40
4051356,41
4051988,16
4052608,24
4053236,53
4053864,112
4054544,119
4055220,89
4055840,60
4056468,40
4057100,32
4057720,89
4058348,83
4058972,64
4059604,20
4060232,10
4060856,11
4061484,48
4062108,111
4062784,121
4063468,81
4064088,63
4064716,60
4065348,56
4065968,97
4066596,119
4067272,91
4067896,142
4068576,156
4069252,108
4069932,66
4070560,56
4071176,83
4071808,96
4072432,98
4073056,115
4073740,124
4074412,146
4075084,138
4075764,117
4076436,114
4077112,128
4077788,82
4078408,70
4079040,51
4079668,74
4080288,71
4080920,60
4081544,33
4082176,120
4082856,258
4083524,238
4084200,113
4084884,56
4085504,63
4086136,82
4086760,62
4087384,59
4088016,58
4088632,63
4089264,64
4089896,59
4090512,62
4091144,72
4091768,75
4092400,55
4093032,33
4093652,28
4094280,13
4094904,17
4095532,74
4096164,79
4096780,61
4097408,57
4098028,57
4098652,17
4099280,22
4099892,25
4100520,31
4101152,11
4101768,60
4102396,91
4103020,84
4103648,81
4104276,68
4104896,73
4105524,65
4106144,60
4106768,74
4107396,95
4108016,93
4108644,77
4109268,40
4109888,15
4110520,12
4111136,29
4111764,17
4112396,52
4113016,84
4113644,66
4114268,58
4114896,33
4115524,12
4116144,13
4116772,11
4117396,17
4118020,42
4118652,76
4119272,76
4119900,65
4120524,57
4121148,65
4121776,81
4122392,102
4123072,117
4123748,95
4124368,51
4124996,10
4125620,22
4126240,19
4126872,17
4127488,64
4128116,77
4128740,47
4129364,56
4129992,58
4130608,62
4131236,59
4131864,14
4132488,13
4133116,14
4133740,13
4134368,11
4135000,15
4135616,25
4136248,30
4136872,17
4137496,69
4138124,92
4138744,102
4139424,89
4140048,57
4140664,15
4141292,31
4141916,17
4142548,26
4143176,20
4143796,35
4144424,59
4145048,30
4145672,51
4146300,57
4146920,61
4147548,57
4148172,34
4148796,11
4149424,10
4150044,11
4150672,27
4151300,26
4151920,19
4152548,15
4153172,19
4153804,72
4154432,90
4155056,61
4155684,63
4156308,60
4156936,51
4157564,39
4158184,19
4158812,16
4159436,48
4160060,47
4160688,13
4161308,46
4161940,77
4162568,94
4163184,87
4163812,75
4164436,75
4165064,42
4165696,13
4166312,54
4166940,57
4167564,25
4168196,14
4168824,48
4169440,51
4170068,27
4170692,58
4171316,71
4171948,62
4172568,69
4173196,55
4173820,54
4174448,89
4175076,77
4175700,29
4176328,17
4176960,10
4177576,20
4178204,25
4178828,53
4179456,60
4180088,98
4180704,101
4181384,76
4182000,27
4182624,15
4183252,33
4183876,37
4184504,38
4185136,44
4185752,58
4186380,68
4187004,45
4187632,56
4188264,70
4188880,72
4189508,75
4190132,59
4190756,70
4191388,87
4192008,88
4192636,49
4193260,19
4193884,12
4194512,14
4195136,40
4195768,68
4196396,68
4197016,62
4197648,57
4198268,30
4198900,13
4199528,12
4200148,17
4200776,60
4201400,121
4202072,130
4202752,73
4203376,20
4204004,77
4204632,89
4205256,75
4205884,67
4206508,43
4207132,45
4207760,46
4208384,36
4209012,11
4209636,11
4210260,23
4210888,56
4211508,34
4212136,58
4212764,71
4213384,67
4214012,70
4214640,69
4215268,32
4215896,21
4216520,14
4217148,53
4217772,109
4218448,150
4219128,157
4219804,132
4220476,66
4221100,64
4221720,71
4222348,77
4222980,76
4223600,66
4224232,77
4224852,82
4225484,77
4226112,64
4226728,62
4227356,40
4227980,25
4228612,50
4229240,68
4229856,61
4230488,57
4231108,65
4231732,55
4232364,40
4232984,63
4233612,67
4234236,58
4234864,65
4235492,61
4236120,20
4236748,19
4237380,62
4238000,63
4238628,65
4239252,78
4239880,71
4240508,71
4241128,86
4241756,62
4242380,14
4243004,31
4243636,38
4244256,47
4244884,45
4245516,52
4246136,65
4246764,65
4247388,69
4248020,62
4248648,28
4249272,23
4249904,78
4250524,122
4251200,131
4251876,111
4252548,72
4253172,39
4253804,54
4254424,82
4255052,97
4255676,92
4256304,91
4256932,86
4257552,85
4258180,55
4258808,43
4259432,64
4260060,48
4260684,23
4261312,27
4261940,47
4262560,55
4263188,59
4263812,67
4264440,108
4265120,147
4265788,121
4266464,70
4267088,39
4267704,61
4268332,86
4268956,75
4269580,48
4270212,21
4270832,61
4271460,81
4272084,79
4272708,79
4273340,98
4273960,116
4274640,121
4275320,70
4275944,14
4276572,10
4277196,29
4277820,39
4278452,16
4279072,52
4279700,58
4280332,78
4280952,95
4281580,66
4282204,31
4282836,12
4283464,10
4284084,11
4284712,12
4285336,17
4285960,36
4286588,49
4287208,55
4287836,78
4288464,90
4289088,69
4289716,50
4290336,25
4290964,67
4291596,80
4292216,71
4292844,49
4293468,46
4294100,13
4294728,26
4295352,36
4295984,68
4296608,67
4297232,71
4297864,61
4298480,31
4299108,81
4299736,96
4300360,61
4300992,55
4301608,81
4302236,106
4302916,86
4303536,68
4304164,50
4304788,68
4305416,89
4306044,79
4306664,54
4307292,31
4307916,25
4308540,22
4309168,11
4309792,11
4310420,15
4311052,30
4311672,17
4312304,57
4312928,64
4313556,61
4314188,61
4314808,34
4315436,20
4316060,26
4316688,13
4317316,14
4317936,44
4318568,61
4319192,38
4319816,21
4320448,58
4321064,92
4321692,102
4322376,88
4322992,59
4323620,20
4324244,44
4324868,42
4325500,42
4326120,26
4326748,24
4327372,55
4327996,39
4328628,30
4329248,63
4329876,64
4330508,65
4331128,75
4331760,57
4332384,48
4333012,59
4333644,48
4334264,16
4334892,66
4335516,135
4336196,126
4336872,67
4337496,50
4338128,63
4338756,84
4339376,85
4340004,69
4340628,49
4341256,39
4341884,12
4342504,37
4343132,18
4343756,10
4344380,21
4345012,16
4345632,52
4346260,57
4346892,60
4347512,62
4348144,39
4348768,43
4349396,31
4350028,18
4350648,19
4351280,23
4351904,38
4352528,42
4353160,41
4353776,53
4354404,75
4355028,83
4355652,89
4356280,92
4356904,100
4357584,92
4358208,76
4358828,78
4359456,61
4360080,42
4360708,14
4361340,42
4361960,41
4362588,53
4363212,56
4363836,60
4364468,61
4365088,62
4365716,81
4366348,58
4366968,29
4367596,37
4368220,67
4368852,97
4369480,94
4370100,55
4370728,55
4371352,77
4371976,112
4372660,137
4373332,155
4374012,150
4374692,128
4375364,93
4375988,46
4376620,13
4377240,52
4377872,124
4378548,117
4379220,70
4379848,70
4380464,64
4381096,65
4381724,19
4382344,34
4382976,36
4383600,14
4384228,41
4384860,52
4385480,55
4386108,52
4386732,40
4387356,49
4387988,57
4388608,63
4389236,66
4389864,72
4390488,77
4391116,88
4391736,83
4392368,60
4392996,54
4393616,35
4394244,17
4394868,24
4395500,51
4396132,55
4396752,59
4397384,64
4398008,54
4398632,13
4399264,32
4399880,45
4400512,57
4401136,46
4401764,19
4402392,47
4403016,64
4403648,79
4404276,64
4404896,85
4405524,67
4406148,69
4406776,93
4407408,107
4408076,76
4408704,31
4409324,10
4409948,13
4410580,14
4411204,16
4411832,48
4412464,48
4413084,62
4413716,68
4414340,71
4414968,73
4415600,95
4416220,90
4416848,68
4417472,44
4418096,44
4418724,52
4419344,45
4419972,30
4420600,56
4421224,93
4421852,95
4422476,80
4423108,52
4423740,39
4424360,31
4424988,37
4425612,19
4426240,15
4426872,14
4427488,32
4428120,21
4428740,55
4429368,59
4429996,60
4430616,59
4431244,60
4431868,24
4432496,14
4433124,12
4433748,17
4434380,10
4435008,23
4435632,24
4436260,21
4436884,19
4437508,61
4438140,68
4438760,77
4439392,77
4440016,76
4440640,84
4441268,85
4441888,81
4442516,32
4443148,12
4443768,26
4444400,77
4445024,107
4445704,97
4446328,76
4446948,64
4447576,63
4448204,26
4448824,19
4449456,21
4450072,23
4450704,21
4451336,25
4451952,34
4452584,47
4453208,40
4453836,61
4454468,89
4455088,94
4455716,97
4456340,102
4457020,100
4457696,93
4458320,79
4458952,31
4459580,14
4460200,25
4460828,53
4461452,63
4462084,62
4462716,61
4463336,63
4463968,61
4464592,56
4465220,18
4465848,20
4466468,12
4467096,30
4467728,12
4468352,43
4468984,61
4469608,62
4470236,73
4470868,49
4471488,57
4472120,76
4472744,93
4473368,75
4474000,100
4474668,135
4475348,122
4476028,69
4476648,30
4477280,32
4477904,42
4478528,55
4479160,50
4479780,60
4480412,78
4481044,95
4481664,130
4482344,102
4483012,42
4483632,27
4484260,54
4484880,51
4485508,59
4486132,55
4486756,28
4487388,60
4488012,61
4488640,85
4489268,69
4489888,35
4490516,63
4491140,83
4491772,79
4492404,62
4493024,47
4493652,21
4494276,12
4494904,16
4495532,49
4496152,59
4496780,65
4497404,63
4498032,47
4498660,13
4499284,11
4499916,11
4500548,11
4501168,13
4501800,17
4502424,15
4503048,15
4503676,49
4504296,66
4504928,67
4505552,57
4506176,60
4506808,47
4507424,71
4508052,109
4508736,129
4509404,118
4510080,93
4510704,57
4511328,19
4511956,45
4512584,83
4513212,111
4513896,129
4514564,141
4515240,157
4515920,103
4516596,28
4517220,25
4517844,35
4518468,29
4519100,14
4519720,17
4520348,51
4520980,70
4521600,74
4522228,66
4522852,62
4523484,13
4524112,18
4524736,21
4525368,25
4525992,12
4526616,14
4527244,14
4527864,14
4528492,31
4529116,57
4529744,61
4530372,57
4530992,63
4531624,17
4532252,26
4532872,36
4533500,29
4534128,36
4534756,53
4535388,56
4536008,56
4536636,41
4537264,57
4537888,62
4538516,62
4539136,66
4539768,69
4540392,87
4541016,94
4541648,72
4542264,43
4542896,36
4543528,21
4544144,20
4544776,27
4545400,53
4546032,55
4546660,60
4547280,65
4547908,63
4548532,21
4549156,13
4549788,16
4550408,13
4551036,32
4551664,65
4552288,73
4552920,57
4553544,50
4554172,50
4554804,66
4555424,65
4556056,64
4556680,61
4557312,61
4557940,66
4558560,71
4559192,49
4559816,33
4560440,12
4561068,19
4561688,18
4562316,51
4562940,56
4563568,61
4564196,65
4564824,43
4565452,30
4566084,32
4566704,32
4567336,18
4567960,11
4568584,16
4569212,13
4569832,19
4570460,56
4571088,73
4571712,71
4572344,61
4572960,57
4573588,12
4574220,30
4574840,51
4575472,47
4576096,37
4576724,23
4577356,14
4577976,39
4578608,35
4579232,52
4579856,61
4580484,61
4581104,59
4581736,15
4582360,11
4582984,10
4583616,13
4584236,26
4584864,31
4585496,41
4586116,61
4586748,62
4587372,51
4588004,68
4588636,62
4589256,64
4589884,20
4590508,36
4591136,91
4591764,94
4592384,21
4593012,21
4593636,15
4594260,21
4594892,16
4595512,53
4596144,54
4596772,63
4597392,70
4598024,61
4598648,59
4599276,39
4599908,16
4600528,50
4601156,32
4601784,19
4602408,14
4603036,15
4603656,45
4604288,79
4604912,101
4605588,85
4606216,59
4606840,39
4607472,62
4608104,58
4608720,47
4609348,17
4609968,15
4610592,47
4611220,100
4611892,90
4612516,79
4613148,65
4613768,64
4614396,55
4615020,19
4615652,21
4616284,10
4616904,12
4617532,15
4618156,12
4618780,15
4619412,22
4620032,49
4620660,56
4621284,57
4621908,62
4622540,56
4623160,24
4623792,25
4624420,51
4625040,64
4625668,42
4626292,43
4626924,31
4627552,29
4628176,80
4628804,61
4629428,59
4630052,57
4630684,59
4631304,55
4631932,21
4632560,16
4633184,11
4633812,11
4634436,17
4635068,28
4635696,23
4636320,25
4636948,40
4637572,71
4638204,79
4638836,69
4639456,71
4640088,59
4640708,59
4641332,74
4641960,66
4642584,46
4643212,19
4643836,15
4644464,17
4645092,19
4645716,50
4646348,67
4646980,82
4647600,69
4648228,21
4648852,23
4649480,34
4650108,43
4650728,43
4651356,42
4651984,58
4652608,49
4653236,31
4653856,60
4654488,69
4655116,82
4655736,79
4656368,71
4656992,75
4657620,71
4658252,43
4658872,13
4659504,11
4660128,10
4660752,20
4661380,14
4662000,51
4662628,57
4663252,59
4663880,61
4664508,58
4665128,28
4665756,33
4666388,27
4667008,23
4667636,37
4668264,55
4668892,72
4669524,75
4670144,51
4670772,54
4671400,76
4672024,85
4672652,70
4673272,53
4673900,55
4674524,89
4675152,91
4675780,32
4676400,13
4677028,16
4677660,31
4678280,20
4678912,50
4679536,56
4680164,59
4680796,58
4681416,33
4682048,24
4682672,22
4683296,23
4683924,10
4684544,14
4685176,25
4685800,30
4686420,58
4687052,58
4687672,60
4688304,60
4688932,60
4689552,60
4690184,15
4690808,23
4691436,52
4692068,68
4692688,60
4693316,50
4693944,19
4694568,14
4695196,36
4695816,60
4696448,63
4697072,59
4697696,59
4698324,43
4698948,31
4699580,27
4700212,14
4700832,37
4701460,60
4702088,57
4702716,45
4703348,17
4703968,62
4704604,61
4705228,61
4705852,62
4706484,38
4707104,64
4707736,96
4708368,108
4709040,48
4709664,17
4710288,54
4710920,59
4711548,40
4712168,67
4712796,85
4713424,72
4714048,59
4714676,42
4715296,16
4715928,20
4716556,16
4717176,12
4717808,14
4718432,20
4719060,29
4719692,43
4720312,58
4720944,57
4721568,59
4722192,64
4722820,60
4723440,45
4724068,58
4724692,64
4725320,50
4725948,19
4726568,11
4727196,13
4727828,13
4728448,35
4729080,56
4729704,61
4730332,74
4730964,68
4731584,22
4732216,11
4732840,13
4733464,21
4734096,20
4734712,14
4735344,43
4735968,141
4736648,174
4737324,80
4737944,62
4738568,61
4739196,67
4739816,68
4740448,69
4741072,83
4741696,65
4742328,18
4742944,33
4743576,25
4744208,28
4744824,34
4745456,53
4746080,59
4746708,63
4747340,62
4747960,55
4748592,30
4749216,22
4749840,15
4750472,11
4751092,22
4751724,40
4752348,45
4752972,43
4753604,44
4754224,58
4754856,71
4755484,59
4756104,65
4756736,56
4757360,71
4757992,65
4758620,54
4759240,25
4759872,20
4760496,11
4761120,13
4761752,25
4762368,54
4762996,61
4763624,63
4764248,59
4764876,20
4765496,27
4766128,57
4766756,63
4767376,67
4768008,41
4768628,21
4769260,14
4769892,14
4770512,69
4771144,88
4771768,92
4772392,74
4773024,43
4773640,15
4774272,12
4774896,16
4775520,53
4776152,59
4776776,45
4777408,49
4778036,46
4778656,49
4779288,56
4779912,56
4780544,61
4781176,59
4781796,11
4782424,15
4783048,22
4783676,31
4784308,38
4784928,33
4785560,36
4786192,36
4786812,33
4787444,53
4788068,69
4788696,84
4789328,89
4789948,88
4790580,90
4791204,88
4791828,88
4792460,60
4793080,32
4793712,12
4794336,24
4794960,17
4795592,49
4796212,59
4796840,61
4797472,60
4798092,31
4798724,17
4799348,12
4799980,35
4800612,23
4801232,25
4801860,43
4802484,60
4803108,82
4803740,54
4804360,73
4804988,65
4805612,62
4806236,65
4806868,64
4807492,94
4808124,44
4808752,19
4809372,10
4810000,35
4810624,26
4811256,17
4811888,46
4812504,59
4813136,61
4813760,61
4814384,58
4815012,24
4815632,32
4816260,47
4816884,53
4817508,47
4818140,48
4818764,46
4819392,38
4820020,40
4820640,51
4821268,64
4821892,73
4822524,77
4823156,80
4823776,86
4824404,96
4825028,81
4825656,41
4826284,28
4826904,27
4827532,11
4828156,20
4828784,55
4829416,58
4830040,67
4830672,66
4831304,49
4831920,15
4832552,11
4833180,11
4833804,12
4834432,25
4835056,43
4835684,60
4836312,51
4836936,48
4837564,71
4838184,80
4838816,76
4839444,75
4840064,69
4840692,72
4841316,78
4841948,50
4842580,15
4843200,28
4843828,37
4844456,13
4845080,31
4845708,50
4846328,60
4846960,67
4847584,65
4848208,26
4848836,14
4849456,13
4850088,13
4850716,11
4851336,23
4851968,64
4852592,107
4853272,109
4853956,53
4854576,61
4855204,85
4855836,98
4856456,105
4857140,80
4857760,70
4858384,53
4859016,14
4859632,14
4860264,19
4860888,55
4861512,50
4862144,52
4862764,55
4863396,61
4864028,58
4864648,43
4865276,12
4865900,12
4866532,10
4867160,10
4867780,12
4868408,39
4869032,47
4869660,39
4870288,51
4870912,80
4871544,83
4872168,82
4872792,70
4873424,74
4874044,80
4874672,82
4875300,72
4875920,56
4876552,49
4877176,17
4877804,31
4878436,38
4879056,62
4879688,88
4880312,76
4880936,67
4881564,22
4882184,26
4882812,59
4883440,72
4884064,67
4884692,63
4885316,62
4885948,36
4886580,16
4887200,84
4887828,95
4888456,74
4889084,57
4889716,48
4890336,33
4890968,23
4891592,53
4892216,24
4892844,10
4893464,15
4894096,13
4894724,13
4895344,60
4895976,78
4896600,77
4897232,69
4897860,57
4898480,29
4899108,54
4899736,66
4900360,49
4900992,51
4901608,57
4902240,95
4902864,117
4903544,84
4904168,48
4904792,71
4905424,85
4906056,76
4906672,78
4907304,59
4907932,72
4908556,68
4909188,28
4909808,21
4910440,12
4911064,15
4911688,17
4912320,48
4912940,61
4913572,61
4914204,61
4914824,22
4915456,13
4916080,11
4916708,11
4917336,14
4917960,20
4918588,48
4919212,68
4919836,52
4920464,62
4921088,88
4921716,81
4922340,80
4922964,64
4923592,36
4924216,40
4924844,33
4925476,12
4926096,15
4926724,24
4927348,12
4927980,19
4928612,50
4929232,64
4929860,61
4930484,60
4931108,59
4931740,66
4932360,60
4932988,51
4933612,50
4934236,54
4934868,37
4935492,31
4936124,49
4936752,58
4937372,53
4938000,66
4938624,77
4939252,72
4939884,92
4940504,94
4941136,84
4941756,88
4942380,55
4943012,42
4943632,34
4944264,12
4944888,24
4945508,56
4946140,71
4946764,71
4947396,64
4948024,40
4948640,19
4949272,11
4949896,12
4950528,24
4951156,70
4951776,72
4952408,45
4953032,33
4953656,53
4954284,71
4954904,90
4955536,79
4956164,72
4956784,43
4957416,40
4958040,31
4958672,11
4959300,38
4959920,18
4960552,15
4961176,26
4961800,29
4962428,49
4963048,57
4963676,56
4964304,59
4964928,16
4965556,12
4966176,12
4966808,25
4967436,38
4968056,35
4968684,42
4969308,39
4969940,19
4970568,61
4971188,70
4971816,73
4972444,83
4973064,72
4973696,31
4974316,12
4974944,12
4975572,10
4976196,28
4976828,36
4977448,14
4978076,19
4978708,64
4979328,68
4979956,61
4980580,59
4981212,58
4981844,66
4982464,74
4983092,85
4983716,77
4984344,50
4984972,17
4985592,39
4986224,64
4986848,88
4987472,123
4988156,116
4988828,68
4989448,67
4990076,59
4990696,39
4991328,43
4991956,42
4992580,35
4993212,25
4993832,36
4994464,33
4995092,20
4995712,55
4996344,61
4996968,59
4997596,58
4998228,22
4998848,12
4999476,26
5000100,53
5000724,59
5001356,56
5001976,52
5002608,29
5003228,17
5003852,67
5004484,75
5005104,65
5005736,64
5006364,46
5006984,59
5007616,70
5008240,68
5008868,28
5009500,10
5010120,18
5010748,29
5011376,25
5012000,50
5012628,58
5013248,58
5013880,61
5014504,56
5015128,12
5015760,10
5016376,11
5017008,16
5017640,35
5018256,47
5018888,51
5019512,57
5020140,37
5020772,58
5021392,71
5022024,63
5022648,60
5023272,29
5023904,45
5024524,53
5025152,37
5025776,11
5026400,13
5027028,15
5027656,17
5028288,22
5028916,50
5029536,61
5030168,64
5030792,66
5031424,25
5032052,11
5032672,11
5033304,11
5033928,11
5034552,16
5035184,30
5035804,49
5036436,60
5037064,53
5037688,60
5038320,69
5038944,73
5039576,57
5040208,43
5040824,52
5041452,50
5042080,27
5042704,11
5043336,29
5043952,37
5044584,25
5045208,45
5045832,57
5046464,59
5047080,64
5047712,61
5048340,12
5048960,11
5049588,11
5050216,13
5050848,27
5051476,34
5052096,26
5052728,19
5053352,19
5053980,71
5054612,68
5055232,73
5055864,66
5056492,17
5057116,36
5057748,54
5058372,46
5059004,26
5059636,10
5060256,22
5060888,45
5061512,22
5062140,71
5062772,59
5063392,57
5064024,60
5064648,38
5065272,26
5065904,14
5066524,19
5067152,32
5067788,69
5068408,77
5069040,55
5069664,50
5070296,54
5070928,61
5071548,72
5072180,82
5072804,73
5073428,60
5074060,72
5074680,66
5075312,52
5075936,38
5076560,49
5077192,26
5077812,12
5078444,17
5079076,55
5079696,68
5080328,67
5080952,74
5081580,55
5082212,64
5082832,66
5083464,56
5084088,58
5084712,49
5085344,59
5085964,49
5086592,24
5087220,59
5087844,79
5088476,74
5089100,62
5089732,41
5090364,47
5090984,75
5091616,78
5092240,49
5092872,41
5093500,35
5094120,10
5094752,18
5095380,56
5096004,58
5096632,57
5097256,62
5097888,52
5098520,26
5099136,28
5099772,37
5100396,42
5101028,22
5101660,44
5102280,119
5102964,136
5103644,81
5104264,56
5104896,59
5105524,61
5106156,68
5106788,64
5107408,81
5108040,79
5108668,62
5109292,45
5109924,18
5110544,47
5111176,66
5111804,33
5112428,57
5113060,56
5113688,65
5114316,64
5114952,36
5115572,26
5116204,14
5116828,15
5117456,15
5118088,13
5118708,44
5119340,62
5119968,47
5120596,53
5121224,68
5121840,66
5122468,70
5123096,57
5123712,31
5124344,21
5124968,32
5125596,24
5126224,24
5126840,23
5127472,12
5128092,13
5128716,55
5129344,62
5129968,57
5130596,59
5131220,50
5131844,35
5132472,16
5133092,14
5133720,19
5134348,25
5134968,65
5135596,79
5136220,85
5136852,63
5137480,53
5138096,62
5138728,65
5139352,65
5139976,52
5140604,71
5141224,73
5141852,59
5142476,27
5143100,10
5143728,34
5144352,50
5144980,19
5145612,50
5146232,57
5146860,58
5147484,58
5148112,20
5148744,11
5149364,12
5149992,11
5150616,11
5151240,12
5151868,23
5152488,32
5153116,35
5153740,59
5154364,62
5154996,64
5155616,61
5156248,43
5156876,14
5157496,22
5158128,33
5158752,31
5159380,29
5160012,28
5160632,11
5161260,12
5161884,49
5162508,58
5163140,60
5163760,61
5164388,59
5165012,14
5165636,33
5166268,46
5166888,46
5167516,52
5168148,44
5168768,53
5169396,59
5170020,47
5170652,50
5171284,66
5171904,63
5172532,66
5173156,51
5173780,48
5174408,62
5175032,66
5175660,45
5176288,31
5176912,12
5177540,49
5178160,49
5178788,55
5179420,59
5180040,59
5180668,61
5181296,36
5181924,27
5182556,21
5183176,11
5183808,14
5184432,14
5185056,42
5185684,56
5186304,62
5186932,58
5187556,63
5188180,73
5188812,80
5189432,75
5190064,82
5190692,95
5191312,89
5191944,82
5192568,70
5193196,51
5193828,22
5194448,13
5195076,26
5195704,58
5196328,58
5196960,76
5197576,83
5198208,85
5198832,76
5199456,54
5200084,40
5200708,30
5201340,41
5201968,62
5202592,74
5203220,66
5203844,57
5204472,73
5205104,75
5205720,80
5206352,89
5206976,91
5207600,100
5208280,69
5208904,16
5209532,19
5210164,38
5210784,68
5211416,72
5212040,58
5212668,55
5213300,57
5213920,61
5214552,47
5215176,28
5215800,40
5216432,51
5217048,56
5217680,67
5218308,51
5218928,41
5219560,40
5220184,44
5220812,68
5221444,78
5222064,74
5222696,74
5223320,55
5223944,65
5224572,69
5225192,63
5225820,36
5226444,23
5227068,13
5227700,24
5228320,19
5228948,52
5229580,56
5230200,59
5230832,57
5231456,26
5232088,24
5232716,12
5233336,16
5233964,11
5234592,17
5235216,39
5235844,36
5236464,43
5237096,58
5237720,64
5238344,63
5238976,72
5239596,43
5240224,31
5240856,54
5241476,65
5242108,47
5242732,23
5243364,12
5243992,46
5244608,40
5245240,50
5245864,57
5246484,58
5247116,58
5247736,63
5248368,15
5248988,17
5249612,11
5250240,24
5250856,68
5251484,72
5252112,56
5252736,49
5253364,23
5253988,65
5254616,77
5255244,78
5255864,75
5256492,53
5257116,37
5257740,46
5258368,57
5258984,30
5259612,10
5260236,48
5260860,63
5261488,26
5262112,52
5262740,60
5263372,62
5263992,57
5264620,32
5265244,11
5265872,14
5266504,28
5267120,22
5267752,14
5268376,30
5269000,53
5269628,38
5270248,55
5270876,72
5271504,60
5272128,62
5272756,60
5273376,15
5274008,13
5274636,11
5275256,13
5275884,12
5276508,15
5277140,14
5277768,16
5278384,23
5279016,54
5279640,60
5280264,60
5280892,61
5281512,39
5282140,50
5282764,32
5283388,12
5284016,11
5284632,22
5285260,35
5285884,45
5286512,42
5287140,58
5287764,70
5288392,83
5289020,101
5289692,116
5290368,112
5291044,100
5291716,70
5292340,37
5292964,19
5293588,16
5294220,38
5294840,33
5295468,59
5296092,83
5296716,105
5297396,92
5298016,67
5298644,40
5299276,11
5299896,17
5300524,18
5301148,11
5301772,33
5302400,30
5303024,30
5303652,58
5304280,63
5304904,67
5305532,62
5306152,54
5306780,33
5307412,52
5308032,61
5308660,54
5309288,39
5309916,32
5310548,14
5311168,30
5311800,38
5312424,56
5313048,58
5313676,61
5314296,62
5314928,29
5315548,23
5316172,19
5316804,10
5317424,15
5318052,28
5318684,58
5319304,73
5319936,77
5320560,54
5321188,61
5321820,74
5322440,75
5323068,69
5323696,68
5324320,65
5324948,54
5325568,23
5326196,27
5326816,27
5327440,23
5328068,32
5328684,52
5329316,59
5329944,60
5330560,61
5331188,52
5331812,33
5332444,29
5333072,33
5333692,37
5334320,48
5334944,51
5335568,45
5336196,35
5336816,38
5337444,63
5338068,75
5338692,72
5339320,69
5339944,47
5340572,67
5341204,80
5341824,71
5342452,41
5343076,23
5343708,11
5344336,10
5344960,37
5345588,62
5346212,59
5346836,57
5347468,60
5348088,54
5348716,49
5349340,28
5349964,17
5350596,52
5351216,94
5351844,96
5352472,63
5353096,40
5353724,57
5354348,63
5354980,67
5355608,73
5356232,73
5356860,56
5357484,73
5358108,87
5358736,70
5359360,37
5359988,11
5360616,21
5361240,24
5361868,44
5362488,59
5363116,78
5363748,75
5364368,61
5364996,16
5365620,37
5366252,35
5366884,10
5367504,35
5368132,49
5368756,68
5369380,74
5370012,56
5370632,53
5371264,60
5371888,59
5372512,63
5373140,77
5373764,94
5374396,94
5375028,74
5375648,25
5376280,11
5376900,28
5377532,36
5378160,19
5378776,52
5379404,60
5380028,59
5380652,59
5381280,31
5381904,13
5382532,15
5383156,44
5383780,76
5384412,91
5385032,86
5385664,60
5386292,40
5386912,55
5387540,76
5388164,85
5388792,83
5389424,73
5390044,58
5390672,54
5391296,47
5391920,46
5392552,44
5393168,29
5393796,12
5394420,17
5395044,22
5395676,58
5396300,62
5396932,60
5397560,63
5398184,37
5398816,29
5399440,20
5400068,18
5400700,22
5401320,33
5401952,45
5402576,45
5403200,39
5403828,48
5404448,64
5405076,77
5405708,82
5406328,76
5406960,64
5407584,67
5408212,63
5408840,37
5409456,21
5410088,11
5410708,24
5411332,18
5411964,55
5412584,59
5413212,57
5413836,59
5414460,56
5415092,18
5415712,17
5416340,14
5416972,24
5417592,52
5418220,87
5418844,111
5419528,104
5420204,59
5420824,67
5421452,76
5422076,78
5422704,65
5423336,52
5423960,81
5424592,74
5425220,59
5425840,49
5426468,57
5427096,36
5427720,19
5428348,25
5428968,55
5429596,59
5430220,64
5430844,67
5431476,68
5432096,72
5432724,60
5433356,40
5433976,35
5434604,47
5435228,87
5435860,90
5436492,51
5437112,49
5437744,68
5438368,75
5438992,74
5439624,59
5440240,61
5440872,75
5441492,58
5442116,28
5442744,13
5443368,24
5443996,34
5444624,12
5445248,62
5445876,66
5446500,59
5447128,61
5447760,56
5448376,15
5449004,11
5449628,17
5450252,29
5450880,62
5451496,78
5452128,98
5452752,78
5453376,28
5454004,75
5454624,99
5455252,93
5455884,81
5456504,81
5457132,94
5457756,84
5458388,67
5459016,16
5459640,23
5460268,57
5460892,93
5461516,62
5462148,52
5462768,60
5463396,69
5464020,68
5464644,42
5465276,24
5465896,13
5466524,11
5467156,13
5467776,26
5468408,32
5469032,29
5469660,18
5470292,60
5470912,82
5471540,81
5472168,69
5472792,62
5473420,45
5474040,56
5474668,48
5475292,26
5475916,10
5476548,10
5477168,27
5477796,34
5478428,32
5479048,62
5479676,58
5480300,59
5480932,60
5481564,24
5482184,14
5482812,19
5483440,25
5484064,11
5484692,18
5485312,54
5485944,93
5486568,83
5487192,51
5487824,69
5488440,62
5489072,64
5489700,56
5490320,52
5490948,56
5491572,72
5492204,45
5492832,33
5493456,17
5494084,35
5494708,29
5495332,56
5495964,59
5496584,58
5497212,61
5497840,46
5498464,15
5499092,12
5499716,11
5500348,21
5500980,72
5501600,85
5502228,53
5502856,39
5503488,47
5504120,62
5504736,66
5505364,59
5505988,60
5506612,43
5507244,64
5507864,77
5508496,69
5509116,38
5509744,27
5510376,14
5511000,21
5511632,25
5512260,58
5512880,56
5513508,57
5514136,57
5514760,70
5515392,115
5516060,92
5516688,44
5517316,27
5517936,25
5518568,34
5519192,27
5519824,23
5520456,56
5521072,68
5521704,71
5522328,73
5522952,56
5523584,45
5524200,58
5524832,64
5525456,44
5526080,28
5526712,24
5527328,14
5527960,11
5528592,56
5529212,60
5529844,59
5530464,59
5531096,56
5531724,20
5532344,19
5532972,38
5533596,64
5534224,97
5534852,89
5535472,69
5536104,56
5536724,40
5537348,54
5537980,74
5538600,80
5539228,72
5539860,71
5540480,81
5541108,90
5541732,88
5542364,61
5542996,32
5543616,19
5544248,29
5544872,17
5545496,48
5546124,65
5546744,71
5547376,63
5548000,23
5548624,21
5549256,33
5549872,26
5550504,10
5551136,21
5551756,19
5552388,17
5553012,43
5553644,56
5554272,61
5554892,62
5555524,62
5556148,54
5556772,11
5557404,51
5558024,74
5558656,63
5559280,45
5559904,31
5560536,11
5561160,20
5561792,46
5562420,62
5563040,57
5563672,65
5564296,65
5564928,71
5565556,50
5566176,24
5566808,13
5567432,28
5568056,43
5568688,64
5569304,74
5569936,44
5570568,52
5571184,65
5571812,63
5572440,70
5573068,65
5573700,76
5574320,90
5574952,71
5575576,37
5576200,31
5576828,18
5577448,16
5578080,18
5578704,54
5579328,57
5579960,58
5580576,64
5581208,42
5581836,15
5582456,11
5583084,15
5583712,10
5584340,38
5584972,68
5585592,81
5586224,88
5586848,63
5587472,58
5588100,77
5588720,83
5589348,72
5589976,78
5590600,88
5591232,94
5591848,94
5592480,50
5593108,11
5593728,62
5594356,61
5594984,21
5595612,54
5596244,58
5596864,61
5597496,62
5598120,57
5598744,52
5599376,22
5599992,15
5600628,12
5601252,18
5601876,61
5602504,58
5603124,36
5603752,63
5604384,74
5605004,63
5605632,60
5606256,35
5606888,35
5607516,64
5608136,50
5608764,13
5609388,14
5610016,13
5610644,27
5611264,34
5611896,50
5612520,58
5613144,57
5613772,54
5614392,58
5615024,22
5615652,18
5616272,17
5616900,18
5617524,27
5618156,34
5618788,38
5619408,43
5620036,30
5620660,61
5621284,77
5621916,76
5622536,75
5623168,57
5623792,62
5624416,63
5625044,45
5625668,26
5626300,11
5626932,28
5627552,46
5628184,28
5628808,51
5629436,58
5630068,61
5630688,61
5631320,22
5631948,11
5632572,12
5633204,26
5633824,34
5634452,39
5635084,53
5635704,49
5636332,43
5636956,55
5637588,65
5638216,68
5638840,71
5639468,65
5640092,66
5640716,70
5641348,46
5641968,27
5642596,16
5643220,16
5643844,17
5644476,14
5645096,42
5645724,64
5646356,66
5646976,62
5647604,61
5648228,28
5648860,31
5649488,43
5650112,47
5650740,52
5651368,65
5651992,85
5652620,65
5653240,42
5653868,57
5654492,79
5655116,75
5655748,68
5656368,78
5656996,67
5657628,58
5658248,60
5658876,47
5659500,45
5660132,21
5660760,18
5661380,17
5662008,52
5662632,60
5663260,69
5663888,67
5664512,59
5665140,68
5665764,95
5666388,82
5667020,23
5667640,12
5668268,16
5668900,22
5669520,39
5670152,49
5670776,63
5671404,68
5672036,62
5672656,63
5673288,25
5673908,53
5674536,70
5675164,62
5675784,46
5676416,32
5677040,12
5677664,15
5678292,22
5678920,55
5679548,61
5680180,59
5680800,58
5681428,27
5682052,32
5682684,21
5683316,18
5683936,25
5684564,46
5685188,50
5685812,39
5686444,22
5687064,62
5687692,68
5688316,62
5688944,60
5689576,31
5690200,17
5690832,29
5691460,17
5692080,11
5692712,10
5693336,13
5693960,25
5694588,40
5695208,51
5695840,58
5696464,59
5697088,60
5697716,58
5698336,14
5698964,16
5699596,18
5700216,18
5700844,12
5701468,33
5702100,51
5702732,72
5703352,56
5703984,52
5704608,58
5705232,59
5705864,58
5706480,43
5707112,71
5707736,76
5708364,70
5708992,47
5709616,33
5710244,13
5710876,20
5711496,16
5712128,49
5712752,57
5713384,57
5714012,55
5714632,25
5715264,11
5715888,11
5716512,17
5717144,32
5717760,49
5718392,59
5719016,60
5719644,56
5720276,54
5720900,69
5721532,74
5722164,74
5722784,69
5723416,47
5724040,51
5724672,42
5725304,36
5725920,33
5726552,19
5727180,21
5727804,43
5728436,44
5729056,59
5729688,59
5730316,62
5730936,57
5731568,19
5732196,29
5732828,38
5733456,42
5734080,61
5734712,70
5735336,70
5735960,54
5736592,25
5737208,67
5737840,84
5738460,100
5739136,94
5739768,76
5740392,41
5741020,12
5741652,10
5742272,27
5742900,12
5743528,13
5744152,28
5744780,18
5745400,52
5746028,58
5746652,58
5747276,64
5747908,39
5748528,22
5749156,11
5749788,12
5750408,15
5751036,22
5751664,67
5752296,64
5752924,32
5753544,54
5754176,61
5754800,61
5755424,65
5756056,59
5756672,50
5757304,62
5757928,62
5758552,46
5759184,24
5759804,16
5760436,19
5761064,31
5761680,22
5762308,55
5762932,58
5763560,60
5764188,59
5764808,20
5765436,15
5766060,11
5766684,14
5767312,16
5767932,22
5768560,29
5769184,26
5769808,17
5770436,62
5771056,73
5771684,81
5772316,76
5772936,67
5773564,54
5774188,57
5774820,56
5775448,39
5776072,19
5776700,11
5777324,75
5777948,130
5778628,89
5779248,69
5779876,65
5780508,62
5781128,54
5781756,24
5782380,16
5783012,11
5783644,10
5784264,20
5784892,34
5785520,37
5786144,33
5786772,48
5787392,60
5788020,67
5788644,64
5789268,73
5789900,80
5790520,90
5791152,86
5791780,73
5792400,51
5793028,38
5793652,15
5794284,11
5794912,30
5795532,54
5796160,63
5796784,76
5797408,82
5798040,65
5798660,46
5799288,21
5799912,12
5800536,13
5801164,23
5801784,47
5802412,52
5803044,52
5803664,53
5804296,61
5804920,67
5805548,63
5806180,46
5806800,34
5807428,48
5808052,48
5808676,29
5809308,26
5809928,30
5810556,11
5811184,21
5811808,50
5812440,57
5813064,60
5813696,60
5814324,58
5814944,18
5815576,12
5816200,11
5816832,11
5817460,32
5818080,51
5818708,57
5819332,45
5819956,21
5820588,60
5821208,71
5821840,73
5822468,68
5823088,63
5823720,63
5824344,38
5824972,33
5825604,28
5826224,28
5826852,12
5827476,31
5828104,19
5828732,53
5829352,60
5829984,58
5830608,63
5831232,31
5831864,18
5832480,16
5833108,30
5833740,43
5834360,60
5834992,73
5835616,65
5836248,51
5836876,56
5837496,69
5838124,63
5838748,63
5839372,64
5840004,81
5840624,98
5841252,87
5841876,54
5842500,40
5843132,48
5843752,13
5844384,25
5845012,30
5845632,59
5846264,59
5846888,66
5847520,62
5848148,25
5848768,20
5849400,17
5850024,16
5850648,11
5851276,13
5851896,19
5852528,21
5853152,27
5853776,57
5854408,55
5855024,65
5855656,71
5856288,28
5856904,39
5857536,78
5858160,76
5858788,46
5859420,32
5860040,21
5860668,22
5861296,23
5861920,52
5862548,54
5863168,64
5863800,60
5864424,51
5865048,12
5865676,11
5866296,18
5866928,20
5867556,24
5868176,36
5868804,40
5869428,45
5870060,41
5870692,63
5871312,75
5871944,70
5872568,70
5873196,59
5873828,56
5874448,30
5875080,13
5875704,13
5876328,11
5876960,14
5877584,13
5878216,17
5878848,49
5879464,58
5880096,59
5880720,61
5881352,35
5881984,39
5882600,34
5883232,44
5883856,71
5884480,70
5885112,66
5885732,54
5886364,41
5886996,61
5887616,75
5888252,75
5888876,75
5889504,73
5890132,78
5890752,86
5891380,79
5892008,44
5892632,27
5893260,19
5893880,21
5894512,39
5895136,49
5895760,55
5896392,65
5897008,64
5897640,58
5898268,27
5898888,30
5899516,31
5900140,53
5900772,73
5901404,62
5902024,47
5902652,40
5903280,18
5903904,64
5904532,74
5905152,68
5905784,71
5906408,77
5907032,77
5907660,79
5908280,71
5908912,24
5909540,11
5910160,12
5910792,18
5911416,17
5912044,53
5912676,62
5913296,69
5913928,59
5914552,30
5915176,22
5915808,45
5916428,70
5917056,85
5917680,100
5918360,94
5918984,71
5919608,58
5920240,53
5920868,59
5921488,67
5922116,67
5922740,65
5923364,62
5923996,67
5924616,70
5925248,59
5925872,40
5926496,33
5927124,15
5927748,21
5928380,34
5929008,54
5929632,59
5930260,60
5930884,62
5931516,33
5932148,32
5932768,25
5933400,24
5934024,32
5934648,40
5935280,60
5935896,55
5936528,33
5937156,58
5937776,77
5938408,72
5939032,63
5939664,37
5940292,28
5940912,51
5941540,56
5942168,29
5942792,21
5943420,13
5944040,14
5944668,15
5945292,54
5945916,57
5946548,60
5947168,59
5947800,43
5948428,17
5949048,12
5949676,12
5950304,13
5950932,34
5951564,66
5952184,76
5952816,59
5953440,51
5954064,57
5954692,66
5955312,73
5955944,69
5956568,61
5957192,71
5957820,66
5958440,55
5959068,33
5959700,20
5960320,17
5960948,14
5961572,19
5962204,51
5962836,56
5963456,62
5964088,60
5964712,24
5965336,29
5965964,39
5966584,48
5967212,42
5967840,35
5968464,50
5969092,42
5969712,26
5970344,61
5970972,69
5971592,74
5972224,71
5972848,70
5973476,59
5974108,42
5974728,21
5975360,15
5975984,16
5976608,11
5977240,50
5977860,47
5978492,51
5979116,61
5979740,59
5980372,60
5980996,58
5981628,25
5982260,24
5982880,16
5983508,11
5984136,24
5984764,47
5985396,60
5986016,63
5986648,42
5987272,58
5987896,64
5988528,69
5989144,71
5989776,61
5990404,59
5991024,69
5991656,77
5992280,53
5992908,39
5993540,12
5994160,18
5994792,17
5995416,53
5996040,57
5996672,59
5997292,78
5997924,60
5998548,41
5999172,22
5999804,18
6000424,25
6001056,39
6001684,52
6002304,53
6002936,44
6003560,56
6004188,74
6004820,80
6005440,69
6006072,56
6006696,59
6007320,71
6007952,83
6008568,78
6009200,60
6009824,37
6010448,17
6011080,38
6011696,40
6012328,59
6012960,59
6013576,64
6014208,62
6014836,54
6015464,47
6016096,66
6016720,88
6017348,88
6017972,57
6018600,36
6019228,24
6019848,17
6020476,58
6021104,74
6021728,73
6022360,71
6022984,73
6023616,70
6024244,68
6024864,65
6025496,40
6026120,24
6026748,16
6027380,13
6028000,17
6028632,53
6029256,56
6029880,63
6030512,60
6031128,36
6031760,10
6032392,11
6033012,22
6033644,18
6034268,27
6034896,48
6035528,34
6036152,23
6036784,52
6037408,69
6038032,70
6038664,59
6039284,61
6039912,15
6040540,27
6041164,39
6041796,32
6042416,17
6043044,16
6043676,16
6044296,33
6044928,21
6045552,53
6046180,68
6046812,70
6047432,68
6048064,29
6048688,17
6049312,12
6049940,10
6050560,10
6051188,13
6051816,39
6052440,39
6053072,25
6053692,63
6054324,77
6054956,68
6055576,63
6056208,48
6056832,43
6057464,52
6058096,52
6058712,35
6059344,25
6059972,25
6060596,13
6061228,22
6061848,52
6062480,57
6063108,58
6063728,60
6064360,59
6064984,13
6065612,12
6066244,11
6066864,12
6067496,16
6068120,24
6068744,29
6069376,29
6069992,34
6070624,51
6071248,59
6071872,62
6072504,61
6073120,46
6073752,66
6074384,67
6075004,37
6075636,10
6076260,14
6076892,29
6077524,42
6078144,20
6078776,48
6079400,61
6080024,63
6080656,58
6081272,23
6081904,16
6082528,14
6083152,12
6083784,17
6084400,33
6085028,37
6085660,28
6086280,24
6086912,58
6087536,73
6088168,75
6088796,66
6089416,53
6090048,47
6090672,54
6091296,47
6091928,27
6092548,13
6093176,13
6093804,12
6094428,12
6095056,49
6095676,58
6096308,63
6096936,59
6097560,58
6098192,13
6098816,11
6099448,15
6100076,26
6100696,60
6101328,89
6101952,98
6102576,79
6103208,47
6103824,50
6104456,62
6105080,65
6105704,65
6106332,47
6106960,47
6107588,51
6108220,48
6108840,30
6109472,29
6110096,25
6110724,11
6111356,19
6111980,51
6112612,58
6113236,60
6113864,57
6114492,30
6115112,11
6115744,11
6116376,12
6116996,43
6117628,88
6118252,106
6118936,66
6119560,32
6120180,64
6120812,92
6121436,91
6122064,97
6122692,95
6123312,96
6123944,104
6124628,76
6125248,14
6125880,36
6126504,57
6127128,98
6127760,87
6128380,58
6129012,63
6129636,62
6130260,57
6130892,58
6131512,13
6132144,11
6132776,11
6133400,21
6134032,42
6134660,40
6135292,43
6135924,50
6136548,47
6137176,49
6137804,65
6138432,75
6139064,74
6139684,76
6140316,70
6140948,64
6141568,57
6142204,47
6142828,32
6143460,17
6144096,11
6144708,31
6145340,64
6145964,62
6146584,59
6147216,62
6147832,32
6148460,11
6149084,26
6149708,48
6150340,74
6150960,116
6151640,120
6152324,81
6152944,68
6153572,53
6154200,61
6154824,65
6155452,64
6156072,62
6156704,44
6157332,32
6157952,33
6158584,27
6159208,22
6159836,16
6160468,16
6161088,22
6161716,42
6162340,57
6162968,59
6163596,58
6164216,58
6164848,13
6165468,13
6166092,18
6166724,22
6167344,35
6167976,34
6168604,38
6169224,40
6169856,21
6170476,63
6171108,75
6171740,66
6172360,64
6172988,61
6173616,59
6174240,57
6174868,46
6175488,22
6176120,24
6176740,14
6177364,25
6177996,20
6178616,53
6179244,54
6179876,58
6180496,59
6181124,38
6181748,19
6182380,26
6183012,35
6183632,28
6184264,25
6184888,27
6185512,30
6186144,33
6186760,49
6187392,58
6188016,73
6188640,69
6189272,71
6189896,61
6190528,59
6191156,64
6191776,62
6192408,38
6193032,22
6193664,20
6194292,40
6194912,29
6195544,50
6196168,58
6196792,65
6197424,69
6198040,37
6198672,29
6199304,12
6199920,11
6200552,25
6201176,37
6201808,59
6202436,81
6203056,53
6203688,55
6204312,64
6204936,61
6205568,72
6206184,72
6206816,77
6207440,73
6208064,58
6208692,47
6209312,37
6209944,15
6210572,30
6211192,25
6211824,53
6212448,56
6213080,58
6213708,57
6214328,57
6214960,38
6215584,32
6216208,28
6216840,39
6217460,73
6218088,72
6218716,54
6219340,45
6219972,32
6220592,68
6221224,77
6221856,72
6222476,69
6223108,57
6223732,62
6224364,59
6224996,56
6225616,38
6226248,53
6226872,45
6227496,18
6228124,16
6228744,47
6229376,57
6230000,65
6230624,73
6231256,55
6231880,27
6232508,26
6233140,65
6233760,84
6234388,56
6235016,31
6235644,23
6236276,22
6236896,54
6237528,60
6238152,62
6238776,61
6239408,45
6240024,33
6240656,71
6241284,90
6241904,70
6242536,44
6243160,31
6243792,17
6244420,11
6245040,47
6245672,56
6246296,64
6246920,60
6247552,64
6248168,47
6248796,35
6249420,28
6250044,28
6250676,38
6251296,41
6251924,45
6252556,48
6253176,51
6253808,48
6254432,59
6255060,60
6255692,65
6256312,57
6256944,62
6257568,72
6258192,76
6258824,43
6259440,28
6260072,26
6260696,13
6261320,25
6261952,53
6262568,58
