tempo_arduino_micro_s,valor_ADC
500,18
1004,25
1504,58
2000,61
2508,51
3000,54
3508,51
4000,59
4508,95
5000,111
5500,106
6012,96
6500,84
7000,110
7500,131
8012,137
8532,98
9000,55
9500,21
10000,56
10508,71
11028,76
11556,56
12076,55
12604,27
13124,52
13652,97
14172,103
14752,104
15320,76
15844,45
16364,23
16884,26
17404,37
17932,27
18460,44
18980,51
19508,55
20028,56
20556,53
21076,18
21604,11
22124,14
22652,17
23172,20
23700,34
24220,38
24748,49
25268,35
25796,36
26316,22
26844,46
27364,56
27892,57
28412,58
28940,54
29460,33
29988,21
30508,48
31036,64
31556,92
32084,111
32656,146
33232,129
33808,95
34324,108
34904,128
35472,98
36004,74
36524,54
37052,54
37572,43
38100,76
38624,143
39200,237
39772,249
40352,193
40924,162
41500,154
42080,106
42648,45
43176,39
43700,68
44228,137
44800,173
45384,169
45956,174
46536,145
47112,90
47628,17
48156,91
48676,124
49256,101
49828,53
50356,38
50880,19
51404,22
51924,54
52452,63
52972,61
53500,58
54020,55
54548,17
55068,12
55596,10
56120,11
56644,12
57164,23
57692,33
58212,52
58740,66
59260,77
59788,57
60312,46
60828,55
61348,59
61872,62
62388,60
62912,31
63428,39
63952,69
64472,61
64988,42
65508,23
66028,12
66548,10
67068,16
67596,11
68116,49
68644,53
69164,54
69692,53
70212,64
70740,66
71260,23
71788,14
72308,14
72836,15
73356,12
73884,13
74404,25
74932,14
75452,19
75980,21
76504,41
77028,45
77548,55
78076,54
78600,52
79124,55
79648,39
80172,32
80692,29
81220,36
81740,49
82268,36
82788,26
83316,18
83836,37
84364,64
84884,84
85404,60
85924,52
86444,55
86964,63
87484,81
88004,100
88576,113
89160,86
89676,52
90204,41
90724,39
91252,45
91772,46
92300,47
92820,28
93348,51
93868,66
94396,59
94920,53
95444,61
95964,70
96492,97
97012,122
97592,121
98164,78
98692,42
99212,23
99740,14
100264,58
100824,76
101408,47
101976,42
102560,51
103128,50
103704,53
104272,28
104848,23
105416,13
105984,10
106568,15
107136,41
107712,43
108280,48
108864,53
109432,34
110008,52
110576,59
111152,61
111736,67
112308,65
112888,45
113456,42
114032,60
114600,63
115176,35
115760,19
116328,38
116912,50
117480,28
118064,25
118632,46
119216,53
119784,54
120364,56
120944,36
121512,40
122096,24
122664,12
123248,15
123816,11
124384,29
124968,48
125536,37
126120,29
126688,50
127272,60
127844,72
128424,80
128992,61
129560,43
130136,69
130704,104
131340,99
131908,41
132488,13
133056,21
133624,56
134208,64
134776,32
135360,46
135928,54
136512,56
137080,53
137664,31
138232,30
138812,22
139392,25
139960,46
140544,50
141116,22
141696,21
142264,21
142840,18
143424,68
143992,62
144576,54
145144,77
145728,73
146300,15
146880,51
147448,48
148024,48
148608,35
149176,24
149760,63
150328,151
150964,170
151592,78
152160,54
152736,58
153308,90
153888,92
154464,51
155048,29
155616,11
156192,27
156776,35
157348,37
157928,44
158500,38
159080,33
159652,16
160228,62
160808,79
161376,74
161952,66
162520,75
163104,85
163676,101
164308,114
164936,103
165548,57
166124,25
166696,16
167280,19
167848,17
168416,47
168992,62
169560,62
170136,56
170704,54
171288,28
171856,50
172440,94
173008,100
173636,52
174212,22
174784,21
175360,13
175928,19
176512,41
177080,49
177656,66
178240,71
178808,58
179392,35
179960,24
180544,31
181112,45
181696,42
182264,39
182844,30
183424,16
183992,27
184576,19
185144,51
185728,49
186296,56
186864,58
187448,50
188016,11
188600,12
189172,13
189752,47
190324,86
190904,80
191472,69
192052,40
192632,35
193200,46
193784,47
194352,56
194936,67
195504,75
196084,82
196664,72
197236,85
197816,129
198436,114
199064,30
199636,19
200212,27
200792,51
201364,38
201944,47
202512,58
203096,56
203668,58
204244,34
204824,15
205392,41
205968,38
206536,25
207120,36
207688,76
208272,124
208892,166
209516,155
210144,60
210708,58
211288,74
211856,89
212432,93
213008,97
213576,114
214212,110
214832,69
215408,12
215976,43
216556,56
217136,69
217708,62
218288,50
218856,58
219440,83
220008,103
220644,95
221220,89
221792,50
222368,14
222940,70
223520,95
224092,89
224672,33
225240,33
225820,50
226400,38
226968,50
227552,69
228120,70
228704,59
229276,78
229852,105
230484,112
231100,87
231676,59
232252,38
232832,34
233404,25
233980,21
234560,54
235128,73
235712,64
236284,53
236864,61
237432,65
238016,54
238588,42
239164,35
239744,27
240316,50
240896,93
241464,105
242100,67
242672,52
243244,48
243824,47
244396,55
244976,57
245544,61
246128,69
246696,62
247272,50
247856,40
248424,42
249008,67
249576,65
250160,30
250732,49
251312,63
251884,45
252460,62
253040,86
253612,70
254192,57
254764,43
255344,22
255916,18
256492,27
257072,48
257640,69
258216,89
258784,48
259360,15
259928,80
260504,143
261132,158
261748,147
262376,117
262992,67
263568,41
264140,27
264712,34
265296,127
265916,181
266544,194
267168,164
267788,96
268364,60
268936,57
269512,56
270084,56
270664,69
271236,83
271816,99
272392,76
272964,28
273544,35
274116,83
274696,130
275320,145
275948,99
276524,52
277092,76
277672,103
278296,102
278924,108
279544,107
280168,119
280796,145
281416,153
282044,126
282672,119
283288,88
283864,31
284436,32
285016,51
285588,60
286164,54
286744,57
287312,56
287896,35
288468,101
289100,137
289720,75
290292,43
290872,26
291444,30
292024,33
292592,32
293176,45
293748,56
294328,64
294908,62
295484,58
296064,32
296632,11
297216,9
297736,10
298312,21
298884,25
299464,10
300040,18
300612,14
301192,15
301764,47
302344,52
302916,54
303496,55
304068,59
304644,52
305224,33
305796,17
306376,45
306948,52
307528,51
308104,30
308688,35
309264,48
309832,67
310416,75
310988,60
311568,77
312148,92
312728,24
313308,15
313884,35
314464,55
315036,31
315616,27
316196,65
316776,67
317348,40
317924,16
318504,44
319076,51
319656,53
320232,53
320808,46
321376,71
321952,73
322524,46
323100,15
323680,21
324248,43
324832,51
325400,24
325984,19
326556,67
327132,106
327764,108
328380,91
328956,77
329528,87
330112,98
330680,83
331256,15
331840,95
332408,88
332992,38
333560,13
334136,22
334704,71
335288,72
335860,58
336436,55
337016,56
337584,25
338168,11
338736,11
339320,13
339888,15
340464,22
341048,24
341616,30
342200,29
342772,29
343352,49
343924,53
344504,53
345072,56
345652,56
346232,55
346804,35
347384,12
347956,22
348536,19
349112,22
349692,14
350272,16
350844,11
351424,34
351996,46
352576,51
353156,56
353736,52
354312,24
354884,15
355464,43
356036,87
356616,93
357188,47
357768,22
358340,19
358916,29
359496,27
360068,59
360648,56
361216,55
361800,65
362368,75
362952,41
363528,13
364096,27
364680,21
365252,26
365832,53
366404,59
366984,60
367556,54
368132,40
368712,51
369280,51
369864,59
370436,75
371016,68
371588,51
372168,34
372744,24
373316,29
373896,70
374468,67
375048,71
375620,63
376200,24
376772,59
377348,69
377928,67
378500,64
379080,60
379652,60
380232,81
380804,84
381384,57
381960,11
382532,25
383112,38
383684,61
384264,80
384840,78
385424,65
385996,55
386572,57
387152,58
387724,21
388304,17
388876,27
389456,11
390024,42
390608,33
391184,21
391756,52
392336,66
392904,40
393488,55
394060,72
394640,59
395220,50
395796,43
396376,47
396948,68
397528,101
398152,95
398728,47
399300,15
399876,14
400456,34
401028,47
401608,55
402176,50
402760,54
403332,53
403912,57
404488,34
405056,30
405640,16
406212,11
406792,10
407364,11
407944,25
408516,31
409092,54
409672,46
410244,48
410824,58
411392,54
411976,57
412548,51
413128,60
413704,58
414272,34
414856,28
415424,24
416008,26
416576,21
417152,17
417720,35
418296,61
418880,83
419448,72
420032,55
420600,56
421184,18
421752,18
422336,33
422908,27
423480,12
424064,57
424632,88
425216,75
425788,45
426368,24
426936,93
427516,134
428148,110
428768,93
429344,127
429968,136
430596,139
431224,108
431840,34
432416,51
432984,147
433620,228
434248,187
434864,78
435440,54
436008,53
436592,53
437164,55
437740,32
438320,14
438892,21
439472,65
440044,117
440676,95
441248,24
441816,29
442400,46
442968,41
443552,46
444124,53
444704,52
445276,52
445856,40
446436,19
447012,79
447592,105
448216,77
448792,56
449372,58
449952,35
450524,14
451100,14
451680,46
452248,51
452832,55
453400,59
453984,70
454556,96
455132,116
455764,115
456384,87
456960,81
457528,82
458112,75
458684,29
459260,15
459840,64
460412,114
461044,98
461608,86
462192,72
462764,46
463340,46
463920,97
464492,119
465124,66
465692,27
466272,39
466844,34
467420,13
468000,19
468568,51
469152,52
469724,57
470304,56
470884,26
471464,15
472036,28
472612,42
473192,43
473764,32
474344,29
474916,56
475496,61
476068,66
476644,67
477224,54
477796,56
478376,54
478948,56
479528,15
480108,50
480688,88
481256,99
481836,56
482416,38
482988,30
483568,25
484140,55
484720,43
485292,51
485868,51
486448,53
487016,55
487600,23
488172,19
488752,45
489324,51
489904,61
490476,46
491052,16
491632,88
492200,169
492836,159
493456,71
494032,57
494608,56
495180,55
495760,52
496332,46
496912,50
497484,55
498064,53
498636,33
499212,13
499792,10
500364,15
500944,12
501516,51
502096,52
502676,51
503252,59
503832,54
504404,43
504984,88
505556,104
506188,73
506760,32
507344,44
507928,86
508500,83
509080,84
509652,65
510232,50
510812,53
511392,63
511972,89
512548,121
513180,118
513796,88
514372,59
514948,23
515528,13
516104,11
516672,19
517256,30
517824,27
518408,49
518976,49
519552,52
520124,50
520696,51
521280,12
521848,21
522432,62
523000,77
523584,87
524152,98
524736,129
525364,104
525980,57
526560,51
527128,85
527712,88
528284,104
528908,108
529536,103
530160,109
530788,71
531360,44
531928,24
532512,85
533080,113
533716,116
534336,71
534912,47
535484,54
536060,66
536640,62
537212,52
537792,23
538360,12
538944,22
539516,46
540096,54
540680,34
541252,15
541832,14
542404,27
542984,23
543556,48
544136,67
544704,100
545332,133
545960,151
546584,84
547160,16
547732,52
548308,87
548888,79
549460,50
550040,35
550612,63
551192,55
551764,47
552344,49
552916,67
553492,68
554072,47
554644,37
555224,39
555796,24
556376,18
556956,21
557532,11
558112,13
558684,37
559264,65
559836,53
560416,48
560996,55
561576,52
562148,60
562724,28
563304,28
563876,27
564456,76
565028,77
565608,58
566180,49
566756,31
567336,15
567908,37
568488,49
569060,51
569640,55
570208,64
570792,40
571372,12
571948,22
572528,77
573104,64
573680,30
574260,27
574840,48
575412,42
575988,40
576568,49
577140,74
577720,83
578288,78
578872,90
579444,112
580076,86
580652,45
581224,12
581800,57
582372,62
582952,32
583532,12
584112,34
584692,64
585268,63
585848,56
586420,61
587000,55
587572,28
588152,80
588724,124
589352,110
589980,98
590548,79
591128,71
591708,66
592288,66
592868,42
593444,48
594024,65
594596,70
595176,61
595748,46
596328,53
596900,82
597476,75
598056,62
598628,71
599208,97
599780,79
600360,23
600940,20
601520,49
602100,49
602676,52
603256,52
603828,52
604408,15
604988,24
605568,41
606140,26
606716,29
607296,68
607872,59
608452,35
609024,25
609600,16
610180,53
610760,52
611344,59
611920,68
612496,53
613068,19
613648,35
614228,74
614812,82
615384,69
615964,77
616544,31
617116,28
617696,23
618264,47
618848,48
619420,54
619996,57
620576,56
621148,40
621728,41
622300,35
622880,16
623460,37
624040,58
624620,75
625196,71
625776,109
626400,123
627028,87
627600,59
628176,53
628752,59
629324,54
629904,46
630476,56
631056,61
631636,32
632220,14
632796,14
633372,35
633956,14
634528,52
635104,72
635684,57
636264,53
636836,58
637412,61
637996,60
638568,66
639144,48
639720,10
640300,38
640872,58
641456,65
642024,74
642604,89
643184,67
643756,53
644336,57
644908,62
645488,56
646056,30
646636,37
647216,38
647788,17
648368,26
648936,24
649520,11
650092,27
650672,37
651244,17
651820,49
652400,56
652972,74
653552,89
654124,83
654704,93
655276,96
655852,64
656432,38
657000,12
657584,34
658156,131
658788,216
659412,162
660032,56
660608,54
661176,54
661760,55
662328,53
662912,23
663484,60
664060,78
664640,67
665208,26
665792,15
666360,13
666936,17
667504,15
668088,48
668656,56
669232,52
669816,51
670388,54
670968,24
671544,28
672128,16
672696,11
673272,15
673856,18
674428,54
675008,38
675580,15
676160,44
676728,92
677312,121
677940,128
678560,137
679188,121
679808,62
680384,19
680952,79
681532,136
682164,125
682780,50
683360,21
683932,13
684508,63
685088,78
685660,53
686240,83
686808,89
687392,83
687964,114
688596,129
689224,100
689848,55
690424,38
690996,15
691576,21
692156,25
692732,14
693312,47
693884,57
694464,57
695036,62
695616,55
696196,34
696776,56
697360,70
697932,90
698512,80
699084,78
699664,45
700236,11
700816,10
701384,45
701964,54
702544,51
703116,56
703696,54
704276,40
704856,30
705428,12
706004,49
706584,79
707156,70
707736,52
708308,41
708888,37
709460,34
710040,51
710612,68
711188,89
711768,84
712340,80
712920,70
713492,69
714072,83
714652,78
715228,38
715808,17
716380,24
716960,97
717532,154
718164,103
718788,55
719356,50
719936,52
720512,55
721088,26
721656,40
722240,45
722808,46
723392,62
723964,90
724540,120
725172,104
725792,80
726368,49
726940,59
727516,100
728148,156
728768,167
729396,178
730020,179
730640,166
731272,131
731888,57
732464,31
733036,11
733616,82
734196,125
734824,124
735452,94
736020,66
736600,52
737172,50
737748,36
738328,70
738900,59
739480,22
740052,11
740632,11
741204,26
741784,33
742356,43
742932,36
743512,50
744084,81
744664,85
745236,86
745816,82
746388,83
746964,82
747544,58
748116,22
748696,17
749268,11
749848,20
750420,26
751000,49
751572,77
752148,61
752728,56
753300,51
753880,63
754460,79
755040,64
755620,50
756196,42
756776,66
757348,86
757928,150
758552,155
759184,129
759808,64
760380,52
760960,61
761532,96
762112,130
762744,161
763372,140
764004,105
764624,49
765200,16
765780,27
766360,50
766940,81
767516,33
768100,51
768668,61
769248,53
769820,55
770400,60
770972,63
771548,41
772128,30
772700,85
773280,70
773852,31
774432,24
775004,32
775584,25
776164,33
776740,89
777320,119
777944,114
778576,78
779144,51
779728,55
780312,81
780884,46
781464,38
782036,123
782668,153
783292,114
783916,54
784492,28
785064,44
785640,50
786212,58
786792,64
787372,56
787948,36
788528,23
789100,23
789680,29
790252,43
790832,18
791412,14
791992,20
792572,20
793152,53
793732,86
794300,119
794932,119
795556,105
796180,114
796808,112
797432,87
798008,65
798580,39
799164,35
799740,15
800320,22
800896,29
801464,42
802048,50
802620,65
803200,116
803820,125
804444,103
805072,74
805644,37
806224,28
806796,28
807376,25
807952,15
808524,25
809104,14
809676,30
810256,71
810828,100
811460,107
812092,78
812660,69
813240,56
813812,53
814392,50
814972,15
815552,16
816136,24
816708,60
817288,64
817860,25
818440,50
819020,48
819604,57
820176,52
820744,40
821328,38
821896,27
822480,17
823048,14
823624,28
824196,46
824776,51
825352,40
825920,25
826504,65
827072,99
827656,100
828276,79
828856,70
829428,25
830004,10
830584,18
831152,17
831736,13
832308,11
832888,21
833456,14
834032,37
834616,26
835184,52
835768,56
836340,57
836920,55
837492,26
838072,11
838644,16
839216,13
839800,13
840368,25
840952,41
841520,42
842104,44
842672,42
843248,49
843832,55
844404,51
844984,56
845552,65
846136,81
846704,84
847288,75
847860,63
848436,23
849016,18
849588,16
850168,21
850736,15
851320,51
851888,84
852464,59
853048,56
853620,70
854200,80
854772,74
855352,59
855932,54
856512,57
857096,46
857668,37
858248,74
858820,94
859400,76
859972,48
860552,60
861132,66
861708,62
862288,66
862860,35
863440,20
864012,18
864592,12
865164,46
865744,77
866320,71
866892,34
867472,13
868044,37
868624,49
869196,51
869776,53
870348,56
870924,21
871504,11
872076,10
872656,11
873228,11
873808,36
874380,54
874960,64
875536,69
876108,50
876688,47
877260,68
877840,75
878412,83
878992,87
879564,74
880140,80
880720,90
881288,89
881872,69
882444,80
883024,94
883596,87
884176,66
884752,84
885324,72
885904,54
886476,58
887056,77
887628,83
888208,93
888780,124
889408,165
890036,218
890656,228
891284,163
891912,74
892480,18
893056,79
893628,149
894260,142
894884,71
895456,52
896036,19
896604,14
897184,60
897756,83
898336,48
898908,18
899488,9
900008,15
900580,15
901160,19
901728,44
902312,51
902884,54
903464,55
904036,42
904616,14
905188,15
905764,11
906344,13
906916,16
907496,22
908068,35
908648,44
909220,37
909796,45
910376,51
910948,54
911528,55
912100,67
912680,69
913252,66
913832,61
914412,63
914988,45
915568,36
916140,30
916720,18
917300,45
917880,46
918452,65
919028,75
919612,64
920184,55
920760,37
921332,29
921912,31
922492,21
923072,13
923644,39
924220,51
924800,54
925368,40
925952,31
926524,51
927104,70
927684,82
928260,80
928840,66
929412,50
929992,67
930564,92
931144,100
931768,35
932340,15
932920,24
933492,46
934072,38
934644,29
935224,51
935796,51
936376,58
936956,64
937532,41
938112,27
938684,17
939264,14
939844,13
940424,34
941004,40
941580,38
942160,42
942732,28
943312,48
943884,63
944464,76
945044,73
945620,76
946200,68
946772,74
947356,54
947924,25
948504,11
949076,17
949656,11
950236,50
950812,69
951392,40
951964,53
952548,52
953124,57
953704,67
954284,72
954860,59
955440,14
956016,25
956592,28
957168,65
957748,116
958376,164
959000,187
959632,179
960248,84
960824,55
961396,53
961976,57
962548,60
963124,83
963704,134
964328,164
964956,130
965580,82
966148,53
966728,18
967300,46
967880,34
968452,54
969032,76
969604,91
970184,76
970760,56
971336,31
971912,21
972488,53
973064,51
973644,27
974224,17
974796,27
975372,34
975952,31
976528,51
977104,63
977684,68
978264,72
978836,88
979412,88
979992,78
980564,67
981144,71
981716,35
982300,14
982876,10
983456,28
984036,32
984612,22
985192,51
985764,68
986344,63
986916,56
987496,50
988068,46
988644,26
989224,13
989796,39
990376,30
990948,15
991528,62
992108,90
992688,69
993260,48
993836,64
994416,71
994988,67
995568,54
996148,42
996728,63
997300,79
997876,84
998456,54
999028,24
999608,27
1000180,89
1000804,74
1001428,48
1002052,80
1002680,62
1003296,55
1003924,57
1004556,65
1005176,68
1005804,57
1006428,28
1007056,13
1007684,15
1008304,13
1008932,16
1009556,26
1010180,71
1010812,88
1011432,105
1012112,87
1012728,16
1013352,85
1013984,52
1014608,30
1015236,18
1015864,10
1016488,57
1017116,91
1017740,33
1018372,44
1019000,57
1019620,68
1020248,72
1020872,67
1021496,45
1022124,22
1022744,14
1023372,12
1024000,18
1024620,31
1025248,36
1025868,43
1026496,47
1027124,61
1027740,88
1028372,122
1029044,156
1029716,138
1030392,123
1031060,123
1031732,92
1032356,54
1032976,12
1033604,66
1034224,72
1034848,61
1035476,83
1036096,75
1036728,66
1037356,64
1037976,56
1038604,37
1039224,24
1039856,19
1040484,20
1041100,27
1041728,26
1042352,25
1042976,29
1043604,68
1044224,86
1044852,87
1045472,66
1046092,36
1046724,42
1047340,71
1047972,66
1048600,38
1049216,35
1049848,13
1050468,64
1051096,59
1051724,44
1052344,48
1052972,53
1053596,50
1054216,44
1054848,49
1055464,41
1056092,39
1056712,26
1057336,50
1057964,78
1058584,76
1059212,61
1059832,49
1060456,64
1061084,75
1061708,60
1062336,59
1062964,61
1063584,78
1064212,67
1064836,26
1065464,36
1066092,40
1066708,45
1067340,46
1067960,27
1068584,61
1069216,57
1069832,65
1070460,70
1071084,46
1071708,37
1072336,14
1072952,18
1073580,49
1074212,63
1074832,72
1075460,57
1076084,20
1076712,58
1077340,62
1077960,59
1078588,66
1079212,71
1079832,64
1080464,65
1081080,73
1081708,46
1082332,30
1082952,15
1083584,40
1084200,32
1084828,49
1085456,71
1086072,70
1086704,69
1087328,53
1087956,29
1088584,14
1089204,54
1089836,93
1090456,97
1091080,125
1091760,185
1092428,237
1093104,161
1093780,58
1094400,53
1095028,63
1095652,53
1096276,67
1096904,88
1097520,115
1098200,141
1098880,85
1099504,15
1100132,53
1100756,60
1101380,48
1102012,58
1102632,69
1103260,58
1103892,50
1104512,18
1105140,39
1105764,48
1106396,39
1107024,17
1107640,46
1108272,72
1108896,60
1109516,17
1110148,90
1110768,117
1111448,109
1112128,64
1112752,48
1113380,93
1114004,107
1114680,54
1115308,25
1115928,29
1116556,17
1117180,34
1117808,16
1118436,47
1119060,54
1119692,57
1120320,55
1120944,37
1121572,72
1122196,99
1122820,78
1123452,42
1124072,43
1124700,53
1125324,41
1125948,23
1126580,54
1127196,57
1127828,60
1128456,62
1129072,68
1129700,84
1130324,116
1131004,115
1131680,71
1132304,29
1132932,11
1133556,33
1134180,15
1134808,63
1135432,63
1136060,49
1136688,56
1137312,52
1137940,31
1138564,51
1139192,46
1139824,13
1140440,15
1141068,71
1141692,82
1142316,62
1142948,30
1143568,75
1144196,96
1144820,67
1145444,55
1146076,28
1146700,42
1147332,22
1147960,12
1148576,15
1149208,11
1149828,21
1150460,30
1151088,42
1151708,59
1152336,61
1152960,55
1153580,53
1154212,27
1154832,12
1155460,28
1156084,48
1156704,28
1157336,30
1157960,68
1158588,68
1159216,58
1159832,48
1160464,61
1161084,69
1161716,73
1162344,73
1162960,73
1163588,87
1164212,79
1164836,50
1165464,31
1166080,17
1166708,25
1167332,34
1167956,31
1168588,49
1169208,53
1169836,56
1170464,60
1171088,49
1171716,58
1172340,49
1172972,53
1173600,55
1174216,39
1174848,19
1175472,13
1176096,41
1176724,107
1177396,124
1178076,119
1178752,103
1179420,85
1180044,66
1180668,24
1181296,13
1181924,33
1182548,32
1183180,54
1183808,107
1184484,76
1185108,53
1185732,50
1186356,53
1186984,57
1187608,18
1188236,25
1188860,15
1189488,17
1190116,11
1190740,18
1191368,31
1191996,16
1192616,18
1193244,76
1193868,70
1194500,55
1195128,70
1195752,31
1196380,19
1197004,50
1197628,67
1198260,48
1198880,26
1199508,16
1200140,44
1200760,49
1201388,44
1202012,53
1202640,53
1203272,54
1203888,55
1204516,31
1205140,29
1205764,11
1206396,27
1207016,13
1207644,21
1208268,27
1208892,26
1209524,42
1210144,46
1210772,57
1211404,104
1212076,114
1212752,70
1213376,17
1214000,10
1214628,14
1215248,37
1215876,23
1216504,29
1217124,63
1217756,64
1218380,47
1219008,53
1219640,52
1220256,57
1220888,56
1221508,79
1222140,82
1222768,38
1223392,28
1224020,73
1224644,91
1225268,60
1225900,36
1226520,52
1227148,67
1227776,68
1228400,59
1229032,68
1229652,83
1230280,101
1230960,96
1231576,42
1232204,18
1232828,18
1233448,79
1234076,110
1234748,63
1235372,52
1236000,54
1236624,53
1237252,51
1237876,17
1238504,57
1239132,46
1239752,27
1240380,29
1241004,18
1241628,14
1242256,16
1242872,30
1243500,49
1244124,53
1244748,53
1245380,56
1246000,59
1246628,56
1247260,38
1247880,37
1248508,15
1249132,18
1249764,23
1250392,30
1251008,27
1251640,45
1252264,53
1252884,59
1253516,59
1254136,26
1254764,14
1255388,24
1256012,45
1256640,47
1257256,29
1257888,15
1258516,18
1259136,40
1259768,54
1260392,56
1261020,61
1261648,65
1262272,53
1262900,43
1263524,72
1264148,85
1264780,69
1265400,42
1266028,29
1266652,11
1267276,11
1267908,36
1268528,54
1269156,53
1269788,58
1270408,58
1271036,30
1271660,27
1272292,14
1272920,22
1273540,52
1274172,70
1274796,74
1275420,44
1276048,16
1276672,59
1277304,65
1277928,73
1278552,63
1279184,69
1279804,87
1280432,102
1281112,76
1281736,24
1282364,13
1282984,42
1283604,69
1284232,73
1284856,59
1285484,50
1286104,54
1286728,60
1287356,86
1287976,96
1288604,64
1289232,38
1289856,15
1290484,49
1291104,85
1291736,51
1292364,46
1292984,51
1293612,53
1294232,65
1294856,68
1295484,58
1296104,19
1296732,11
1297352,47
1297976,82
1298604,70
1299224,18
1299852,31
1300472,24
1301096,37
1301728,62
1302352,57
1302980,57
1303612,58
1304232,41
1304860,35
1305484,41
1306116,52
1306744,28
1307368,14
1307996,45
1308620,107
1309296,113
1309972,86
1310592,85
1311220,65
1311852,56
1312472,35
1313100,74
1313724,123
1314396,122
1315072,57
1315688,43
1316316,38
1316944,13
1317560,25
1318188,65
1318812,61
1319436,62
1320064,60
1320680,47
1321308,33
1321932,12
1322552,62
1323180,80
1323800,87
1324428,120
1325108,104
1325780,71
1326404,51
1327028,52
1327652,56
1328280,60
1328896,69
1329524,91
1330148,123
1330824,141
1331496,109
1332168,32
1332788,45
1333416,71
1334040,32
1334668,46
1335288,57
1335912,53
1336540,57
1337164,69
1337792,68
1338420,54
1339040,37
1339668,35
1340292,41
1340920,49
1341548,42
1342168,31
1342796,17
1343420,89
1344040,101
1344720,68
1345332,64
1345964,82
1346592,96
1347208,64
1347836,17
1348456,12
1349088,27
1349716,16
1350336,23
1350964,33
1351588,58
1352212,87
1352840,88
1353456,61
1354088,28
1354708,63
1355332,85
1355960,50
1356584,13
1357212,31
1357840,38
1358464,34
1359092,40
1359716,54
1360344,54
1360972,64
1361588,60
1362220,51
1362844,44
1363464,51
1364092,44
1364712,45
1365340,53
1365964,71
1366584,30
1367216,14
1367832,29
1368460,63
1369084,58
1369712,51
1370340,54
1370964,106
1371644,129
1372320,40
1372944,64
1373572,91
1374196,75
1374820,53
1375448,16
1376072,42
1376700,48
1377328,51
1377944,59
1378572,61
1379196,20
1379824,55
1380456,97
1381072,95
1381704,65
1382328,50
1382952,14
1383580,75
1384200,77
1384828,59
1385452,74
1386076,67
1386704,54
1387320,43
1387948,17
1388580,19
1389200,25
1389828,21
1390452,11
1391080,28
1391708,43
1392328,47
1392956,36
1393580,80
1394204,91
1394832,60
1395456,57
1396084,35
1396708,46
1397332,55
1397960,46
1398576,19
1399204,12
1399832,44
1400456,57
1401084,29
1401708,45
1402336,56
1402964,58
1403584,53
1404212,30
1404836,20
1405456,11
1406088,18
1406704,23
1407332,20
1407960,14
1408584,13
1409212,19
1409832,53
1410460,67
1411088,58
1411708,58
1412336,35
1412960,23
1413588,30
1414216,12
1414840,28
1415468,61
1416092,86
1416712,39
1417344,20
1417960,35
1418588,57
1419212,93
1419836,60
1420464,54
1421088,32
1421716,12
1422348,24
1422968,18
1423596,22
1424220,28
1424848,55
1425480,81
1426096,91
1426724,46
1427348,55
1427972,70
1428604,98
1429224,118
1429904,106
1430580,77
1431200,57
1431828,15
1432452,11
1433084,25
1433716,30
1434336,23
1434964,47
1435584,48
1436208,53
1436836,54
1437456,23
1438084,15
1438708,12
1439332,17
1439960,21
1440584,21
1441212,45
1441840,61
1442456,73
1443088,58
1443708,53
1444340,67
1444968,113
1445636,137
1446312,123
1446988,107
1447660,62
1448284,28
1448908,18
1449532,12
1450160,44
1450776,75
1451408,79
1452036,92
1452656,74
1453284,52
1453908,73
1454540,62
1455168,47
1455784,30
1456412,18
1457036,49
1457664,92
1458296,110
1458964,129
1459640,114
1460320,68
1460936,54
1461564,72
1462188,88
1462812,103
1463492,105
1464164,85
1464788,38
1465420,22
1466040,37
1466668,50
1467292,77
1467916,59
1468544,63
1469168,59
1469796,56
1470420,51
1471044,24
1471676,36
1472296,41
1472924,54
1473556,36
1474176,19
1474804,40
1475428,65
1476056,68
1476684,52
1477304,50
1477932,69
1478556,83
1479176,95
1479808,98
1480424,99
1481052,84
1481676,38
1482300,23
1482928,12
1483552,23
1484180,19
1484808,46
1485428,50
1486060,51
1486680,55
1487312,47
1487940,31
1488560,24
1489188,24
1489812,27
1490436,45
1491068,35
1491688,29
1492316,30
1492940,37
1493564,57
1494196,70
1494816,71
1495444,62
1496076,55
1496696,75
1497324,115
1498000,115
1498676,68
1499300,30
1499920,32
1500548,54
1501172,79
1501796,51
1502428,71
1503052,99
1503680,129
1504364,130
1505036,116
1505712,76
1506340,38
1506960,29
1507588,21
1508212,50
1508844,74
1509472,86
1510092,49
1510720,49
1511344,60
1511968,62
1512600,71
1513216,75
1513844,85
1514468,77
1515092,42
1515724,20
1516344,16
1516972,11
1517604,24
1518224,49
1518852,52
1519476,49
1520108,52
1520736,28
1521360,14
1521988,19
1522612,27
1523236,44
1523864,58
1524488,59
1525116,64
1525740,65
1526364,49
1526996,54
1527620,70
1528252,79
1528880,84
1529504,103
1530188,112
1530860,106
1531532,77
1532160,59
1532784,48
1533412,12
1534044,29
1534664,43
1535296,65
1535920,69
1536544,67
1537176,73
1537792,58
1538420,34
1539044,16
1539668,16
1540296,37
1540912,73
1541540,74
1542172,38
1542792,18
1543420,77
1544044,125
1544724,152
1545400,144
1546076,108
1546752,55
1547380,25
1548000,37
1548628,104
1549304,33
1549920,11
1550548,25
1551172,38
1551804,57
1552436,58
1553056,54
1553684,63
1554308,70
1554940,67
1555568,66
1556192,20
1556820,49
1557444,67
1558068,70
1558696,53
1559320,49
1559948,46
1560572,58
1561200,57
1561828,61
1562452,59
1563080,26
1563712,32
1564328,65
1564956,47
1565580,36
1566212,24
1566840,45
1567456,86
1568084,73
1568708,78
1569332,67
1569960,57
1570576,51
1571208,24
1571828,13
1572456,43
1573084,64
1573708,50
1574340,25
1574968,12
1575592,15
1576224,28
1576844,71
1577476,70
1578108,70
1578728,60
1579356,47
1579980,53
1580608,51
1581236,34
1581856,10
1582484,17
1583116,30
1583736,30
1584368,46
1584992,46
1585620,50
1586252,50
1586872,54
1587504,27
1588128,52
1588748,93
1589380,96
1590000,47
1590628,35
1591252,65
1591880,59
1592508,48
1593128,51
1593756,53
1594388,54
1595008,54
1595640,48
1596264,55
1596892,73
1597524,72
1598144,64
1598772,46
1599396,32
1600024,12
1600648,18
1601268,35
1601900,52
1602520,49
1603144,50
1603772,50
1604392,12
1605020,13
1605648,19
1606264,19
1606896,13
1607520,25
1608148,17
1608776,14
1609392,25
1610024,49
1610644,55
1611268,56
1611900,52
1612520,25
1613148,22
1613772,38
1614396,27
1615024,28
1615648,27
1616276,60
1616908,20
1617528,20
1618156,46
1618780,51
1619408,54
1620040,51
1620656,33
1621284,19
1621908,27
1622536,17
1623164,16
1623784,19
1624412,28
1625036,39
1625660,58
1626288,46
1626912,58
1627540,77
1628172,74
1628792,64
1629420,25
1630044,15
1630676,36
1631308,42
1631928,30
1632560,20
1633184,26
1633808,48
1634436,30
1635056,47
1635684,53
1636308,55
1636932,50
1637564,26
1638184,30
1638816,21
1639444,26
1640060,37
1640688,24
1641308,16
1641936,21
1642564,22
1643180,49
1643812,51
1644432,53
1645060,53
1645688,30
1646304,13
1646932,57
1647556,95
1648176,82
1648804,26
1649420,66
1650048,143
1650728,101
1651400,46
1652028,51
1652648,50
1653272,54
1653900,47
1654520,16
1655148,23
1655768,52
1656392,64
1657020,62
1657640,67
1658268,74
1658896,67
1659512,53
1660140,52
1660764,93
1661392,126
1662072,140
1662740,166
1663416,144
1664092,89
1664708,43
1665336,23
1665956,23
1666580,13
1667208,25
1667824,35
1668452,48
1669072,60
1669696,81
1670324,92
1670944,91
1671572,61
1672200,24
1672816,11
1673444,15
1674068,39
1674696,58
1675324,42
1675944,26
1676572,55
1677196,66
1677824,60
1678452,65
1679072,55
1679700,59
1680324,68
1680944,50
1681572,12
1682192,13
1682820,13
1683440,33
1684064,30
1684692,41
1685312,54
1685944,56
1686572,53
1687192,51
1687820,55
1688444,62
1689072,42
1689700,27
1690316,12
1690944,34
1691568,30
1692192,34
1692820,28
1693436,63
1694068,82
1694692,73
1695312,64
1695944,51
1696560,57
1697188,71
1697816,64
1698432,27
1699060,19
1699684,111
1700368,191
1701040,137
1701708,70
1702332,56
1702964,50
1703584,52
1704212,20
1704836,21
1705464,12
1706092,17
1706712,24
1707340,79
1707964,100
1708640,81
1709264,50
1709880,57
1710508,86
1711140,86
1711760,72
1712388,55
1713012,59
1713644,76
1714272,93
1714888,78
1715520,61
1716140,47
1716764,29
1717392,32
1718016,53
1718644,53
1719268,51
1719892,62
1720524,94
1721144,102
1721824,87
1722444,65
1723064,58
1723692,69
1724312,65
1724936,48
1725568,34
1726184,28
1726812,101
1727492,94
1728112,80
1728740,98
1729364,121
1730044,116
1730720,102
1731388,61
1732012,11
1732640,24
1733264,47
1733892,40
1734516,23
1735144,48
1735772,51
1736392,54
1737020,54
1737644,32
1738268,19
1738896,16
1739512,35
1740144,21
1740768,25
1741392,70
1742020,81
1742640,31
1743268,63
1743896,110
1744572,118
1745248,85
1745864,49
1746488,12
1747116,16
1747736,20
1748364,73
1748988,98
1749616,57
1750244,19
1750868,94
1751500,88
1752128,53
1752744,72
1753376,99
1754000,105
1754680,78
1755304,79
1755920,78
1756552,28
1757176,11
1757800,15
1758428,14
1759052,22
1759684,46
1760312,61
1760936,53
1761564,52
1762188,53
1762816,45
1763444,86
1764064,96
1764692,59
1765316,11
1765940,15
1766568,15
1767184,21
1767812,70
1768436,102
1769112,106
1769784,83
1770408,63
1771028,14
1771660,45
1772280,40
1772908,15
1773532,13
1774156,31
1774784,79
1775404,109
1776084,78
1776708,42
1777328,66
1777956,76
1778580,77
1779208,57
1779836,24
1780456,19
1781084,27
1781708,17
1782332,18
1782964,22
1783584,15
1784212,19
1784844,46
1785464,51
1786092,51
1786716,50
1787348,31
1787976,30
1788600,37
1789228,25
1789852,30
1790476,51
1791108,70
1791728,66
1792360,46
1792980,45
1793604,85
1794232,120
1794900,119
1795576,122
1796252,99
1796872,75
1797500,63
1798124,37
1798748,11
1799376,36
1799996,81
1800624,76
1801252,39
1801872,49
1802500,55
1803124,57
1803752,56
1804380,11
1805000,29
1805628,38
1806252,37
1806872,45
1807504,58
1808120,35
1808748,19
1809372,19
1809992,51
1810624,50
1811240,86
1811868,93
1812496,52
1813120,71
1813748,69
1814372,17
1815000,22
1815628,12
1816248,11
1816876,11
1817500,33
1818124,73
1818756,84
1819376,61
1820004,56
1820628,58
1821252,53
1821880,43
1822504,32
1823132,20
1823764,32
1824384,58
1825012,42
1825636,18
1826264,52
1826892,94
1827512,97
1828140,89
1828764,70
1829388,17
1830016,11
1830640,35
1831268,60
1831892,31
1832516,15
1833148,46
1833768,50
1834396,41
1835028,48
1835648,59
1836276,61
1836900,55
1837532,17
1838160,14
1838780,14
1839408,34
1840032,74
1840656,81
1841284,64
1841904,51
1842532,19
1843160,47
1843784,58
1844412,54
1845032,54
1845660,38
1846288,66
1846904,105
1847588,97
1848208,71
1848836,63
1849464,33
1850088,41
1850716,45
1851340,44
1851964,49
1852592,53
1853212,64
1853840,58
1854468,74
1855088,50
1855716,22
1856340,15
1856968,29
1857600,20
1858216,15
1858844,32
1859468,49
1860096,77
1860724,64
1861344,56
1861972,53
1862596,61
1863220,84
1863848,50
1864472,13
1865100,10
1865724,17
1866352,11
1866980,28
1867604,64
1868232,84
1868864,55
1869480,52
1870108,52
1870732,22
1871360,11
1871992,18
1872608,19
1873240,27
1873864,42
1874488,47
1875116,47
1875736,66
1876364,48
1876988,78
1877616,86
1878244,77
1878868,99
1879500,104
1880184,56
1880800,14
1881428,31
1882052,35
1882676,21
1883308,40
1883928,59
1884560,52
1885180,62
1885808,69
1886436,63
1887060,57
1887692,13
1888320,28
1888936,33
1889564,40
1890188,24
1890820,16
1891448,25
1892064,26
1892696,21
1893320,43
1893944,55
1894572,55
1895192,56
1895820,79
1896444,115
1897124,124
1897800,94
1898416,40
1899040,32
1899668,13
1900288,35
1900916,27
1901540,44
1902164,50
1902796,62
1903416,61
1904048,44
1904676,40
1905296,17
1905924,27
1906548,61
1907180,87
1907812,78
1908432,49
1909060,17
1909684,71
1910312,101
1910992,88
1911616,75
1912248,67
1912876,62
1913496,82
1914128,89
1914752,83
1915384,67
1916012,60
1916632,32
1917264,21
1917888,36
1918512,60
1919144,72
1919764,83
1920392,92
1921016,76
1921640,69
1922268,83
1922888,80
1923520,71
1924148,49
1924768,67
1925396,67
1926020,33
1926648,59
1927280,74
1927896,70
1928524,71
1929148,83
1929772,87
1930400,94
1931016,78
1931648,13
1932272,40
1932896,20
1933524,10
1934148,17
1934776,47
1935404,48
1936024,51
1936652,52
1937276,43
1937904,18
1938532,53
1939152,85
1939784,75
1940408,59
1941032,52
1941660,58
1942280,95
1942912,69
1943536,57
1944160,108
1944840,131
1945512,137
1946180,106
1946856,88
1947472,80
1948100,48
1948732,16
1949352,12
1949980,27
1950604,22
1951236,41
1951868,54
1952488,50
1953116,61
1953740,73
1954364,70
1954996,51
1955616,35
1956244,29
1956876,37
1957496,40
1958124,42
1958748,29
1959380,18
1960008,48
1960632,64
1961260,69
1961884,84
1962508,105
1963192,96
1963808,96
1964436,86
1965068,44
1965688,15
1966316,13
1966940,21
1967572,22
1968200,44
1968816,52
1969444,55
1970068,56
1970692,29
1971324,32
1971944,69
1972572,82
1973196,101
1973872,116
1974544,86
1975168,43
1975796,34
1976428,52
1977048,84
1977676,107
1978352,112
1979020,112
1979696,110
1980372,82
1980992,44
1981620,10
1982240,27
1982868,59
1983500,112
1984172,86
1984796,41
1985420,45
1986048,51
1986680,51
1987296,36
1987924,11
1988548,15
1989172,13
1989800,10
1990416,68
1991048,97
1991668,69
1992296,42
1992924,39
1993548,61
1994180,60
1994808,74
1995432,88
1996064,114
1996740,151
1997412,160
1998088,94
1998712,13
1999340,28
1999972,33
2000592,15
2001220,48
2001844,131
2002520,165
2003192,127
2003868,78
2004488,27
2005116,16
2005736,14
2006364,10
2006992,24
2007616,37
2008244,46
2008864,75
2009492,74
2010124,56
2010744,106
2011424,146
2012092,145
2012764,122
2013440,81
2014064,73
2014692,74
2015324,48
2015944,12
2016576,60
2017200,76
2017824,52
2018452,50
2019072,58
2019700,54
2020324,49
2020948,25
2021580,15
2022200,15
2022832,21
2023460,10
2024080,17
2024708,38
2025332,41
2025964,34
2026592,51
2027208,63
2027840,68
2028464,69
2029088,61
2029716,60
2030336,62
2030968,29
2031592,25
2032216,59
2032844,51
2033464,35
2034092,15
2034724,47
2035344,50
2035972,50
2036600,52
2037228,43
2037860,41
2038480,55
2039108,53
2039732,48
2040356,57
2040988,51
2041608,58
2042236,104
2042920,76
2043536,54
2044164,83
2044788,88
2045420,75
2046052,51
2046672,38
2047304,55
2047928,83
2048552,80
2049180,62
2049796,39
2050424,23
2051048,47
2051668,61
2052296,48
2052916,51
2053548,57
2054176,23
2054792,17
2055420,55
2056040,103
2056720,166
2057400,176
2058068,154
2058744,82
2059364,22
2059984,70
2060612,88
2061236,64
2061856,52
2062488,16
2063104,13
2063732,11
2064356,27
2064976,11
2065604,16
2066220,47
2066852,23
2067480,19
2068096,45
2068724,45
2069348,54
2069976,50
2070604,36
2071224,29
2071852,58
2072476,60
2073096,24
2073728,12
2074344,29
2074972,48
2075596,66
2076220,57
2076848,52
2077464,54
2078092,53
2078716,54
2079344,33
2079972,53
2080596,76
2081228,82
2081856,78
2082472,95
2083100,77
2083724,44
2084352,17
2084980,50
2085600,73
2086228,81
2086852,103
2087524,110
2088200,96
2088816,66
2089444,28
2090072,12
2090688,21
2091316,14
2091940,17
2092564,26
2093192,60
2093808,97
2094440,114
2095120,110
2095788,104
2096464,104
2097140,104
2097812,55
2098436,25
2099060,78
2099692,119
2100372,120
2101044,64
2101668,51
2102296,50
2102920,59
2103548,51
2104172,17
2104800,12
2105428,30
2106048,45
2106676,29
2107300,16
2107924,48
2108552,36
2109176,20
2109804,45
2110428,54
2111052,59
2111680,52
2112304,36
2112932,55
2113560,73
2114184,53
2114812,18
2115436,24
2116064,33
2116692,12
2117312,23
2117940,43
2118564,53
2119188,59
2119816,56
2120440,51
2121068,12
2121692,18
2122316,22
2122944,31
2123560,57
2124192,76
2124820,78
2125440,56
2126068,24
2126692,61
2127320,60
2127948,71
2128568,89
2129196,110
2129872,126
2130544,113
2131216,70
2131840,26
2132468,23
2133096,83
2133712,74
2134344,33
2134968,48
2135592,50
2136220,54
2136840,53
2137468,43
2138092,32
2138716,11
2139344,37
2139968,67
2140596,89
2141228,135
2141900,142
2142576,114
2143256,43
2143880,81
2144508,144
2145184,146
2145852,139
2146528,148
2147204,180
2147880,167
2148556,129
2149228,82
2149852,18
2150484,24
2151100,19
2151732,51
2152356,97
2152976,151
2153656,170
2154332,153
2155008,127
2155688,84
2156312,39
2156940,29
2157564,20
2158192,14
2158820,13
2159444,28
2160076,57
2160704,54
2161320,55
2161948,53
2162572,41
2163200,64
2163828,86
2164448,71
2165076,21
2165700,13
2166324,12
2166956,43
2167576,41
2168204,43
2168828,50
2169456,52
2170084,52
2170708,23
2171340,11
2171968,11
2172592,12
2173220,17
2173844,33
2174468,57
2175100,52
2175720,35
2176352,49
2176972,64
2177596,66
2178224,52
2178840,51
2179472,35
2180100,55
2180720,62
2181348,58
2181972,31
2182600,14
2183228,11
2183848,12
2184476,53
2185100,85
2185728,67
2186360,57
2186976,53
2187604,42
2188228,62
2188852,30
2189480,11
2190104,12
2190732,12
2191356,34
2191984,85
2192612,97
2193240,47
2193868,53
2194500,76
2195120,65
2195752,56
2196376,31
2197000,36
2197628,78
2198248,55
2198876,35
2199504,16
2200128,43
2200756,49
2201376,46
2202008,51
2202636,58
2203256,53
2203884,49
2204508,53
2205140,46
2205768,43
2206384,52
2207016,50
2207640,47
2208264,22
2208892,14
2209512,35
2210140,97
2210764,85
2211388,72
2212020,58
2212640,30
2213268,41
2213896,47
2214516,19
2215144,43
2215768,50
2216396,54
2217028,67
2217648,33
2218276,45
2218900,55
2219528,51
2220156,54
2220776,29
2221408,13
2222032,13
2222656,20
2223284,20
2223904,10
2224536,18
2225164,13
2225784,17
2226412,56
2227036,69
2227668,73
2228300,67
2228920,61
2229548,39
2230176,29
2230800,21
2231428,38
2232048,85
2232676,57
2233300,42
2233924,27
2234556,38
2235176,57
2235808,55
2236436,54
2237056,50
2237688,32
2238312,31
2238940,21
2239572,11
2240192,13
2240820,16
2241444,38
2242068,33
2242696,23
2243320,49
2243948,51
2244572,52
2245196,59
2245828,65
2246448,43
2247076,27
2247708,52
2248328,55
2248956,61
2249580,62
2250212,14
2250844,14
2251464,47
2252096,52
2252720,53
2253344,55
2253972,31
2254592,21
2255220,15
2255844,20
2256468,21
2257096,36
2257712,54
2258344,57
2258972,38
2259592,45
2260220,78
2260844,57
2261472,49
2262104,55
2262720,44
2263348,27
2263972,46
2264596,67
2265228,58
2265848,63
2266476,57
2267100,24
2267724,18
2268356,46
2268976,55
2269604,59
2270232,72
2270856,32
2271484,14
2272112,19
2272740,11
2273368,34
2273992,78
2274620,109
2275296,95
2275912,55
2276540,54
2277160,81
2277788,88
2278420,76
2279040,61
2279668,61
2280292,78
2280924,87
2281552,58
2282172,19
2282800,12
2283424,15
2284048,13
2284680,44
2285296,52
2285928,51
2286552,55
2287176,51
2287808,20
2288424,12
2289052,34
2289684,82
2290304,92
2290936,78
2291560,82
2292188,99
2292820,99
2293440,56
2294072,53
2294692,69
2295316,101
2296000,124
2296668,109
2297344,77
2297968,49
2298588,22
2299216,18
2299840,11
2300464,11
2301092,31
2301712,57
2302344,50
2302968,53
2303592,54
2304224,15
2304844,13
2305472,13
2306104,16
2306720,51
2307348,65
2307972,79
2308600,101
2309284,79
2309904,45
2310532,49
2311156,60
2311780,62
2312408,32
2313032,17
2313660,15
2314292,20
2314912,23
2315540,63
2316164,101
2316844,90
2317468,114
2318140,107
2318816,69
2319444,58
2320064,54
2320692,38
2321316,20
2321940,47
2322568,77
2323184,77
2323816,69
2324440,60
2325064,49
2325692,36
2326312,45
2326940,61
2327572,100
2328244,82
2328868,69
2329492,69
2330120,29
2330748,47
2331368,72
2331996,75
2332624,85
2333248,48
2333876,11
2334496,27
2335124,48
2335756,55
2336376,54
2337004,53
2337628,17
2338256,36
2338888,49
2339504,48
2340132,21
2340756,16
2341384,27
2342012,28
2342632,19
2343260,49
2343884,59
2344508,56
2345140,58
2345760,58
2346388,41
2347020,19
2347640,41
2348268,40
2348892,36
2349524,32
2350152,12
2350776,33
2351408,73
2352032,76
2352656,65
2353284,52
2353904,39
2354536,45
2355160,65
2355784,60
2356416,32
2357032,21
2357660,33
2358292,37
2358912,47
2359540,43
2360168,65
2360796,78
2361428,84
2362048,73
2362676,28
2363300,14
2363924,18
2364556,11
2365176,33
2365808,40
2366428,51
2367056,58
2367684,26
2368304,45
2368932,52
2369564,52
2370184,56
2370812,23
2371436,23
2372068,28
2372696,26
2373320,19
2373948,25
2374576,27
2375200,15
2375828,30
2376448,51
2377076,59
2377700,67
2378324,51
2378956,28
2379576,12
2380204,17
2380836,12
2381456,36
2382084,55
2382708,20
2383340,19
2383968,25
2384588,45
2385220,50
2385844,52
2386468,52
2387096,51
2387716,23
2388344,31
2388968,56
2389592,58
2390224,53
2390848,42
2391480,33
2392108,34
2392728,27
2393360,51
2393984,75
2394616,78
2395244,82
2395864,87
2396496,90
2397120,87
2397744,57
2398376,12
2398992,37
2399624,68
2400248,83
2400872,59
2401500,46
2402124,65
2402756,113
2403436,101
2404108,67
2404732,38
2405356,15
2405984,25
2406612,54
2407236,83
2407864,129
2408548,154
2409220,120
2409896,47
2410524,85
2411144,107
2411828,81
2412448,71
2413072,72
2413704,95
2414320,86
2414948,33
2415576,23
2416200,16
2416828,24
2417448,33
2418076,49
2418708,60
2419328,104
2420008,102
2420676,71
2421296,24
2421924,10
2422544,11
2423172,12
2423796,10
2424424,16
2425052,29
2425676,32
2426308,47
2426936,51
2427560,63
2428188,69
2428812,52
2429444,40
2430072,104
2430748,149
2431428,110
2432108,47
2432728,21
2433356,30
2433980,51
2434604,43
2435232,58
2435856,60
2436484,59
2437108,58
2437736,20
2438364,11
2438988,13
2439620,29
2440248,65
2440872,83
2441500,72
2442128,49
2442756,33
2443388,50
2444008,70
2444636,66
2445264,50
2445888,35
2446516,55
2447136,66
2447768,72
2448396,53
2449016,45
2449644,12
2450268,25
2450900,21
2451532,58
2452152,52
2452784,51
2453408,55
2454032,63
2454664,62
2455280,26
2455912,17
2456536,31
2457164,57
2457792,71
2458416,61
2459044,37
2459672,58
2460288,90
2460916,73
2461540,73
2462168,68
2462796,60
2463416,65
2464044,83
2464668,72
2465288,31
2465916,12
2466536,51
2467164,66
2467788,33
2468412,50
2469044,53
2469664,57
2470292,51
2470924,19
2471544,39
2472172,63
2472796,53
2473428,38
2474056,30
2474680,54
2475308,73
2475936,52
2476560,51
2477188,66
2477808,66
2478436,65
2479060,63
2479684,71
2480316,81
2480936,83
2481564,56
2482196,47
2482816,43
2483444,23
2484068,21
2484696,53
2485328,49
2485944,53
2486572,53
2487196,44
2487820,37
2488452,38
2489072,36
2489700,39
2490324,82
2490948,97
2491576,74
2492200,79
2492828,39
2493460,108
2494132,124
2494808,106
2495484,79
2496112,61
2496740,21
2497364,10
2497992,16
2498624,52
2499240,115
2499920,127
2500588,54
2501208,42
2501836,51
2502456,51
2503084,53
2503716,58
2504336,56
2504964,73
2505588,61
2506220,26
2506852,13
2507472,20
2508104,14
2508728,18
2509352,16
2509980,65
2510600,68
2511228,53
2511856,56
2512480,47
2513108,13
2513732,15
2514364,10
2514992,10
2515616,12
2516244,23
2516868,17
2517500,19
2518132,41
2518752,49
2519384,55
2520008,60
2520632,31
2521260,14
2521880,22
2522508,31
2523132,28
2523760,29
2524388,28
2525016,18
2525644,22
2526276,46
2526896,66
2527528,61
2528152,57
2528776,61
2529404,61
2530024,57
2530652,57
2531280,40
2531900,17
2532532,10
2533152,32
2533784,32
2534412,24
2535032,60
2535664,54
2536288,55
2536920,51
2537548,21
2538168,39
2538800,45
2539424,15
2540048,58
2540676,110
2541348,166
2542024,162
2542708,100
2543380,51
2544008,67
2544628,84
2545256,73
2545884,58
2546512,63
2547140,73
2547772,69
2548392,47
2549024,48
2549648,39
2550280,18
2550908,24
2551528,47
2552160,51
2552784,51
2553408,52
2554040,20
2554656,19
2555288,28
2555920,47
2556536,62
2557168,52
2557796,57
2558428,39
2559056,31
2559680,46
2560312,58
2560936,65
2561556,64
2562188,52
2562808,27
2563436,48
2564056,61
2564676,42
2565308,11
2565928,13
2566556,17
2567184,28
2567800,30
2568428,51
2569052,51
2569680,59
2570308,52
2570928,19
2571556,23
2572180,11
2572804,63
2573432,86
2574056,81
2574684,70
2575308,48
2575932,49
2576560,42
2577184,58
2577812,101
2578492,123
2579164,130
2579844,114
2580520,104
2581188,87
2581812,43
2582436,12
2583060,25
2583688,84
2584304,107
2584984,66
2585612,48
2586228,49
2586860,53
2587484,60
2588112,78
2588740,57
2589360,35
2589988,33
2590612,27
2591240,41
2591868,64
2592488,82
2593116,62
2593740,58
2594364,53
2594992,58
2595616,83
2596244,124
2596928,125
2597596,138
2598276,125
2598956,68
2599576,15
2600204,75
2600828,45
2601460,40
2602088,48
2602704,53
2603332,53
2603956,32
2604580,29
2605212,16
2605832,12
2606460,17
2607084,28
2607708,64
2608340,80
2608964,89
2609592,67
2610224,53
2610840,87
2611472,154
2612148,196
2612820,152
2613496,120
2614172,90
2614792,63
2615420,39
2616040,28
2616668,52
2617292,133
2617968,132
2618648,150
2619324,130
2619996,91
2620624,73
2621240,87
2621872,91
2622500,82
2623120,15
2623748,71
2624372,125
2625052,120
2625728,51
2626344,57
2626972,61
2627600,61
2628216,61
2628844,63
2629468,88
2630096,111
2630776,112
2631444,79
2632068,46
2632692,28
2633312,12
2633944,16
2634568,45
2635196,51
2635824,56
2636448,66
2637076,66
2637700,73
2638328,60
2638956,40
2639576,29
2640204,35
2640828,49
2641448,53
2642080,28
2642692,16
2643324,54
2643944,55
2644568,54
2645196,54
2645816,31
2646444,33
2647072,23
2647688,77
2648316,93
2648940,83
2649568,35
2650200,24
2650816,19
2651444,47
2652068,47
2652692,66
2653320,108
2653996,101
2654672,67
2655300,21
2655920,14
2656548,11
2657172,15
2657796,32
2658428,36
2659048,48
2659676,46
2660300,67
2660924,63
2661552,63
2662176,69
2662804,89
2663432,99
2664056,92
2664684,74
2665304,53
2665932,35
2666560,14
2667176,45
2667804,40
2668428,53
2669056,59
2669684,60
2670304,58
2670932,50
2671556,33
2672180,35
2672808,26
2673424,11
2674052,38
2674676,43
2675300,17
2675928,26
2676552,49
2677180,60
2677808,56
2678432,56
2679060,56
2679684,66
2680312,75
2680940,78
2681560,47
2682188,39
2682812,43
2683436,21
2684068,22
2684688,63
2685316,66
2685940,57
2686564,51
2687192,50
2687816,80
2688448,78
2689076,64
2689696,84
2690324,111
2690996,136
2691668,108
2692344,47
2692960,55
2693588,114
2694268,121
2694940,96
2695564,70
2696188,57
2696816,64
2697444,79
2698068,73
2698696,58
2699324,29
2699944,32
2700572,62
2701196,44
2701828,50
2702456,53
2703080,51
2703708,52
2704332,32
2704956,50
2705584,53
2706204,28
2706832,28
2707460,36
2708080,43
2708708,41
2709332,66
2709960,44
2710588,52
2711208,55
2711836,69
2712460,60
2713092,51
2713720,44
2714336,33
2714968,11
2715588,13
2716212,13
2716844,10
2717464,61
2718092,91
2718716,87
2719344,68
2719976,54
2720600,30
2721228,28
2721856,49
2722480,74
2723108,67
2723732,64
2724360,89
2724988,90
2725608,80
2726236,56
2726860,51
2727484,61
2728112,72
2728728,71
2729356,67
2729980,71
2730608,55
2731236,30
2731860,11
2732488,18
2733120,23
2733736,66
2734364,122
2735040,107
2735716,60
2736344,56
2736964,55
2737596,22
2738224,43
2738848,114
2739528,141
2740204,144
2740876,128
2741552,107
2742228,81
2742848,64
2743476,52
2744096,62
2744724,76
2745356,82
2745976,93
2746604,98
2747228,85
2747856,71
2748488,80
2749104,99
2749736,57
2750356,21
2750984,33
2751612,50
2752232,53
2752860,56
2753484,52
2754108,33
2754736,48
2755360,76
2755988,68
2756620,68
2757240,58
2757868,51
2758492,19
2759124,17
2759752,54
2760372,65
2761000,63
2761624,67
2762248,58
2762876,50
2763496,68
2764128,87
2764752,57
2765376,13
2766004,16
2766624,35
2767252,67
2767884,54
2768504,48
2769132,52
2769756,49
2770388,52
2771016,44
2771636,38
2772264,19
2772888,12
2773512,15
2774140,17
2774760,15
2775388,29
2776012,29
2776636,55
2777268,72
2777888,79
2778516,61
2779148,36
2779768,15
2780396,44
2781024,84
2781652,67
2782284,50
2782904,22
2783532,13
2784160,29
2784784,65
2785412,66
2786032,55
2786660,52
2787284,50
2787908,65
2788536,69
2789152,58
2789784,69
2790412,98
2791032,95
2791660,92
2792284,91
2792916,71
2793544,52
2794168,70
2794796,102
2795472,114
2796148,108
2796824,102
2797500,83
2798120,33
2798748,19
2799368,24
2799996,67
2800624,127
2801300,70
2801924,48
2802548,50
2803180,51
2803808,46
2804432,16
2805060,46
2805684,53
2806308,35
2806940,22
2807560,68
2808188,112
2808872,124
2809540,65
2810168,54
2810792,67
2811416,71
2812044,73
2812664,69
2813292,80
2813920,54
2814544,24
2815172,10
2815792,18
2816424,12
2817052,13
2817672,93
2818300,146
2818976,132
2819644,106
2820320,86
2820936,44
2821564,19
2822192,63
2822816,97
2823444,173
2824120,234
2824788,196
2825464,113
2826140,60
2826760,57
2827388,60
2828008,71
2828636,71
2829260,56
2829884,42
2830512,73
2831136,82
2831764,50
2832396,27
2833016,13
2833644,16
2834268,15
2834896,47
2835528,51
2836144,53
2836772,61
2837396,49
2838024,30
2838652,18
2839272,49
2839900,14
2840528,67
2841152,83
2841780,57
2842400,34
2843028,51
2843656,76
2844280,90
2844908,83
2845532,65
2846164,43
2846792,37
2847416,45
2848044,37
2848668,28
2849292,10
2849920,38
2850536,31
2851168,37
2851792,42
2852416,49
2853044,52
2853664,52
2854292,29
2854924,42
2855544,30
2856176,11
2856796,11
2857428,14
2858060,40
2858680,59
2859312,45
2859936,54
2860560,69
2861188,74
2861808,74
2862440,55
2863060,20
2863688,11
2864316,14
2864936,13
2865564,19
2866196,13
2866816,23
2867448,17
2868068,44
2868696,48
2869328,49
2869944,55
2870572,37
2871196,58
2871820,43
2872448,35
2873072,13
2873700,15
2874324,39
2874948,50
2875576,73
2876196,92
2876824,41
2877452,58
2878072,64
2878700,52
2879324,12
2879956,45
2880588,82
2881208,93
2881836,57
2882460,28
2883080,37
2883712,50
2884328,19
2884956,49
2885580,48
2886204,50
2886832,51
2887456,25
2888084,48
2888712,36
2889336,13
2889964,51
2890588,61
2891216,47
2891844,26
2892464,17
2893092,64
2893716,128
2894392,138
2895072,100
2895748,78
2896372,37
2897004,44
2897624,114
2898304,121
2898980,59
2899600,37
2900228,31
2900852,21
2901480,54
2902112,59
2902728,58
2903360,56
2903984,24
2904608,11
2905236,16
2905856,14
2906484,11
2907108,30
2907732,51
2908364,62
2908984,59
2909612,50
2910244,56
2910864,54
2911492,53
2912120,49
2912748,24
2913376,31
2913996,52
2914624,67
2915248,42
2915872,13
2916500,20
2917120,13
2917748,45
2918376,62
2919000,52
2919628,62
2920248,60
2920876,38
2921508,26
2922128,32
2922756,42
2923380,43
2924012,51
2924640,63
2925264,49
2925892,19
2926516,64
2927144,83
2927772,100
2928444,80
2929068,59
2929700,34
2930320,15
2930948,19
2931572,23
2932204,39
2932832,46
2933456,12
2934084,18
2934708,47
2935332,50
2935964,54
2936584,51
2937216,48
2937840,57
2938464,27
2939092,11
2939716,11
2940348,32
2940980,52
2941600,45
2942228,35
2942856,43
2943484,60
2944116,59
2944736,56
2945364,51
2945988,30
2946612,65
2947244,116
2947916,118
2948596,81
2949224,63
2949840,20
2950468,22
2951092,23
2951712,48
2952344,66
2952960,59
2953588,56
2954212,35
2954836,31
2955468,30
2956088,39
2956716,76
2957348,102
2958020,75
2958648,23
2959272,32
2959896,104
2960576,117
2961252,88
2961876,78
2962508,50
2963128,17
2963756,12
2964380,15
2965008,17
2965636,52
2966256,103
2966936,100
2967616,24
2968240,72
2968868,89
2969492,69
2970120,60
2970748,24
2971368,12
2971996,11
2972620,15
2973244,30
2973876,52
2974496,62
2975124,47
2975756,22
2976376,64
2977004,72
2977628,75
2978256,68
2978888,64
2979504,85
2980132,91
2980756,73
2981384,23
2982012,18
2982632,11
2983260,11
2983884,21
2984508,56
2985140,53
2985760,53
2986388,61
2987020,115
2987692,165
2988368,149
2989044,118
2989716,44
2990344,12
2990968,23
2991596,53
2992228,50
2992848,75
2993476,102
2994152,102
2994824,80
2995448,51
2996068,38
2996700,42
2997328,24
2997948,13
2998576,13
2999200,15
2999824,25
3000456,19
3001072,21
3001704,51
3002328,58
3002952,55
3003580,54
3004200,13
3004828,12
3005460,14
3006080,12
3006708,25
3007336,25
3007968,29
3008600,32
3009216,27
3009844,57
3010468,77
3011096,67
3011724,59
3012344,59
3012976,52
3013600,53
3014224,59
3014856,28
3015472,10
3016104,11
3016732,10
3017352,21
3017984,45
3018608,53
3019240,51
3019868,50
3020488,43
3021120,16
3021744,12
3022368,19
3022996,36
3023616,64
3024248,73
3024872,58
3025496,36
3026124,27
3026744,73
3027376,95
3028004,88
3028624,79
3029256,77
3029880,80
3030512,77
3031140,50
3031760,11
3032392,37
3033016,43
3033640,33
3034268,19
3034888,48
3035516,56
3036144,67
3036768,62
3037400,63
3038024,82
3038656,79
3039288,38
3039904,11
3040536,14
3041160,14
3041792,16
3042420,17
3043040,56
3043668,65
3044296,68
3044920,71
3045548,49
3046168,25
3046800,30
3047424,38
3048048,36
3048676,31
3049300,16
3049932,22
3050564,26
3051184,41
3051816,51
3052440,53
3053064,51
3053696,60
3054312,62
3054944,59
3055568,38
3056192,15
3056820,37
3057440,49
3058068,65
3058700,55
3059320,24
3059948,45
3060576,50
3061204,52
3061836,50
3062456,57
3063084,80
3063712,81
3064336,48
3064964,37
3065584,81
3066216,59
3066840,36
3067464,22
3068096,47
3068716,51
3069348,50
3069980,58
3070600,78
3071236,52
3071860,25
3072492,13
3073120,32
3073744,25
3074372,14
3074996,12
3075620,15
3076248,50
3076864,63
3077496,67
3078120,73
3078744,71
3079372,102
3080044,100
3080720,90
3081344,91
3081960,55
3082588,37
3083212,11
3083836,36
3084468,65
3085088,99
3085716,152
3086400,167
3087068,178
3087744,124
3088424,30
3089048,30
3089676,49
3090300,18
3090932,35
3091560,53
3092184,51
3092812,42
3093436,56
3094060,69
3094692,75
3095312,73
3095944,81
3096568,94
3097192,99
3097824,78
3098448,31
3099076,12
3099704,12
3100328,12
3100956,25
3101580,43
3102212,51
3102844,59
3103464,58
3104096,62
3104716,47
3105340,16
3105972,68
3106592,129
3107272,121
3107956,68
3108576,26
3109204,15
3109832,44
3110456,63
3111084,63
3111704,75
3112336,65
3112964,31
3113584,15
3114212,24
3114836,16
3115468,15
3116100,12
3116720,23
3117352,16
3117976,53
3118600,56
3119228,51
3119848,50
3120480,48
3121100,57
3121728,44
3122356,27
3122976,24
3123608,39
3124236,37
3124856,16
3125484,47
3126108,58
3126740,72
3127368,60
3127992,63
3128624,66
3129248,41
3129872,53
3130500,58
3131120,50
3131752,35
3132376,23
3133000,14
3133632,11
3134248,33
3134880,48
3135508,50
3136128,55
3136760,56
3137384,42
3138012,83
3138644,70
3139264,30
3139892,14
3140516,11
3141140,15
3141772,14
3142392,18
3143024,47
3143648,49
3144272,55
3144904,52
3145520,42
3146152,19
3146780,32
3147400,62
3148032,52
3148656,31
3149288,17
3149916,16
3150536,11
3151168,49
3151792,55
3152416,51
3153048,51
3153664,52
3154296,21
3154920,17
3155544,17
3156172,10
3156792,47
3157424,98
3158052,121
3158724,74
3159352,28
3159976,75
3160600,102
3161284,98
3161904,79
3162536,58
3163164,56
3163784,42
3164416,33
3165040,10
3165668,10
3166300,14
3166920,33
3167552,59
3168176,57
3168800,49
3169428,53
3170048,55
3170680,45
3171304,83
3171928,99
3172560,94
3173176,59
3173808,34
3174440,27
3175060,17
3175688,25
3176312,50
3176944,52
3177572,58
3178192,56
3178824,51
3179448,94
3180072,163
3180756,166
3181428,64
3182056,11
3182688,16
3183304,13
3183936,18
3184560,46
3185188,49
3185816,84
3186440,108
3187124,93
3187752,53
3188372,12
3189000,27
3189628,31
3190260,11
3190888,47
3191512,74
3192144,95
3192768,96
3193392,51
3194024,52
3194648,54
3195280,50
3195912,14
3196532,35
3197164,42
3197788,37
3198420,39
3199048,26
3199672,34
3200304,56
3200928,82
3201548,77
3202180,62
3202800,54
3203428,53
3204052,31
3204672,51
3205304,42
3205920,54
3206548,65
3207176,63
3207796,61
3208424,51
3209048,38
3209676,49
3210304,70
3210920,73
3211552,75
3212176,75
3212804,54
3213432,67
3214052,74
3214680,60
3215304,43
3215928,29
3216560,18
3217176,15
3217804,41
3218428,57
3219056,66
3219684,83
3220308,90
3220940,43
3221568,19
3222184,76
3222816,104
3223492,108
3224164,108
3224840,82
3225464,64
3226096,27
3226724,62
3227344,75
3227972,66
3228596,61
3229220,13
3229852,22
3230472,32
3231100,12
3231724,13
3232352,15
3232980,12
3233604,14
3234232,18
3234860,51
3235480,53
3236108,55
3236732,56
3237364,41
3237992,28
3238616,13
3239244,22
3239868,11
3240492,29
3241120,71
3241744,73
3242372,63
3242996,48
3243620,75
3244252,75
3244876,62
3245504,45
3246132,39
3246752,64
3247380,60
3248004,41
3248636,12
3249264,48
3249884,83
3250512,54
3251140,35
3251764,52
3252396,51
3253016,53
3253644,58
3254272,35
3254896,29
3255524,21
3256152,17
3256780,37
3257412,42
3258032,83
3258660,90
3259288,58
3259912,48
3260540,66
3261160,68
3261792,55
3262416,39
3263040,40
3263668,69
3264288,72
3264920,37
3265548,18
3266168,28
3266796,11
3267424,25
3268052,62
3268684,67
3269304,70
3269936,64
3270560,37
3271184,13
3271812,14
3272432,25
3273064,15
3273688,26
3274312,39
3274944,19
3275560,14
3276192,49
3276824,69
3277436,64
3278068,61
3278688,55
3279316,106
3280000,151
3280664,89
3281284,26
3281908,12
3282528,43
3283156,85
3283780,67
3284408,26
3285036,51
3285656,57
3286284,57
3286904,57
3287536,15
3288164,10
3288780,13
3289412,10
3290032,40
3290656,56
3291284,81
3291900,71
3292532,46
3293156,44
3293776,61
3294408,58
3295024,57
3295652,67
3296284,99
3296904,134
3297584,134
3298252,92
3298872,64
3299500,34
3300120,13
3300748,15
3301372,45
3301992,50
3302624,53
3303248,51
3303876,31
3304504,30
3305120,42
3305748,45
3306372,20
3307004,31
3307632,87
3308248,115
3308928,114
3309600,64
3310224,53
3310852,51
3311476,54
3312104,53
3312732,60
3313352,117
3314032,149
3314708,140
3315380,116
3316056,81
3316680,16
3317304,37
3317932,48
3318552,55
3319180,64
3319804,59
3320432,51
3321060,17
3321684,11
3322312,16
3322940,18
3323560,33
3324188,79
3324812,83
3325440,65
3326068,40
3326688,52
3327316,53
3327944,57
3328568,56
3329196,30
3329816,28
3330444,34
3331064,30
3331688,14
3332316,12
3332940,11
3333568,30
3334196,16
3334816,45
3335444,55
3336068,52
3336696,57
3337324,20
3337944,11
3338572,13
3339196,15
3339820,21
3340448,18
3341068,21
3341696,46
3342320,64
3342944,50
3343572,81
3344196,89
3344824,67
3345452,44
3346072,29
3346700,20
3347324,44
3347952,76
3348584,81
3349200,62
3349828,23
3350452,10
3351076,25
3351704,49
3352324,58
3352952,93
3353576,143
3354252,132
3354928,98
3355552,70
3356176,49
3356804,54
3357424,47
3358052,44
3358676,40
3359304,24
3359932,56
3360552,75
3361180,79
3361808,81
3362428,80
3363060,83
3363684,91
3364312,95
3364940,58
3365560,43
3366188,28
3366812,11
3367432,23
3368064,44
3368680,51
3369308,53
3369932,52
3370556,37
3371184,23
3371800,13
3372432,16
3373060,43
3373680,43
3374308,30
3374932,22
3375564,15
3376192,40
3376808,53
3377440,55
3378060,59
3378692,57
3379324,29
3379940,72
3380572,121
3381244,95
3381872,60
3382500,49
3383124,45
3383752,14
3384380,94
3385000,124
3385680,103
3386348,64
3386968,53
3387596,12
3388216,11
3388844,19
3389472,31
3390096,65
3390724,72
3391348,77
3391980,60
3392608,56
3393232,45
3393860,61
3394484,66
3395108,55
3395736,36
3396356,50
3396984,75
3397608,62
3398232,13
3398860,13
3399480,11
3400108,11
3400740,42
3401360,73
3401988,63
3402612,49
3403240,56
3403868,42
3404488,37
3405116,38
3405740,42
3406364,30
3406992,51
3407612,56
3408240,45
3408864,27
3409484,37
3410116,86
3410736,100
3411416,93
3412040,83
3412656,73
3413284,60
3413908,31
3414536,23
3415164,95
3415784,124
3416464,107
3417144,44
3417768,34
3418396,49
3419020,54
3419652,51
3420280,51
3420904,24
3421532,14
3422156,16
3422780,32
3423412,10
3424032,20
3424660,39
3425292,44
3425912,25
3426540,56
3427164,75
3427796,74
3428428,64
3429048,58
3429676,61
3430304,71
3430928,70
3431556,32
3432176,14
3432804,17
3433428,39
3434052,27
3434684,46
3435304,49
3435936,50
3436564,54
3437184,39
3437812,36
3438440,44
3439068,55
3439700,54
3440320,47
3440948,52
3441572,55
3442196,63
3442828,48
3443448,71
3444076,95
3444700,93
3445324,81
3445952,67
3446572,69
3447200,71
3447828,50
3448448,26
3449076,11
3449700,22
3450332,34
3450960,17
3451576,47
3452208,79
3452832,127
3453508,100
3454184,58
3454808,46
3455436,46
3456068,48
3456684,18
3457316,23
3457940,28
3458564,45
3459196,64
3459816,124
3460496,156
3461176,122
3461852,74
3462476,57
3463100,79
3463724,67
3464352,27
3464976,33
3465604,50
3466228,52
3466852,71
3467480,45
3468104,48
3468736,55
3469368,54
3469984,60
3470616,39
3471240,15
3471868,17
3472500,13
3473120,11
3473748,19
3474372,20
3475000,17
3475628,14
3476248,46
3476876,59
3477500,66
3478128,75
3478760,60
3479384,54
3480012,11
3480644,10
3481264,11
3481896,11
3482516,18
3483140,11
3483772,10
3484392,23
3485020,53
3485644,63
3486268,54
3486896,52
3487520,17
3488148,15
3488776,16
3489400,28
3490028,45
3490652,127
3491332,160
3492008,109
3492684,48
3493308,46
3493940,54
3494560,72
3495188,73
3495812,63
3496444,64
3497072,82
3497692,72
3498320,31
3498944,17
3499568,12
3500196,25
3500816,20
3501444,57
3502068,54
3502696,52
3503324,53
3503952,27
3504580,13
3505212,17
3505832,31
3506464,40
3507088,49
3507716,62
3508348,55
3508968,51
3509596,49
3510224,57
3510848,58
3511480,60
3512096,58
3512728,54
3513356,62
3513976,56
3514608,35
3515232,12
3515860,11
3516492,30
3517112,34
3517744,23
3518368,50
3518992,51
3519624,50
3520244,54
3520872,23
3521496,21
3522120,18
3522748,13
3523368,21
3523996,34
3524624,53
3525248,53
3525876,35
3526500,51
3527128,72
3527760,69
3528376,65
3529004,64
3529628,60
3530252,65
3530880,62
3531504,35
3532132,19
3532760,12
3533384,25
3534012,24
3534632,47
3535260,49
3535892,51
3536512,53
3537140,45
3537764,26
3538396,25
3539024,26
3539648,27
3540276,42
3540900,54
3541524,51
3542156,46
3542776,38
3543408,60
3544028,68
3544652,67
3545284,67
3545904,60
3546532,66
3547164,64
3547784,54
3548416,26
3549036,15
3549668,19
3550300,28
3550920,16
3551552,47
3552176,51
3552800,55
3553428,54
3554048,31
3554676,32
3555300,28
3555924,25
3556556,22
3557176,31
3557808,47
3558436,50
3559056,42
3559684,49
3560308,61
3560940,67
3561572,68
3562192,56
3562824,48
3563448,64
3564072,75
3564704,55
3565320,29
3565948,17
3566576,10
3567200,20
3567828,73
3568456,79
3569084,64
3569716,68
3570336,60
3570968,27
3571592,13
3572220,33
3572852,42
3573472,59
3574104,82
3574728,131
3575404,193
3576084,205
3576756,78
3577376,53
3578008,66
3578624,62
3579256,38
3579880,47
3580504,58
3581136,44
3581752,29
3582384,23
3583016,13
3583640,25
3584276,16
3584896,48
3585524,49
3586152,49
3586776,52
3587404,19
3588028,12
3588652,15
3589280,19
3589904,13
3590532,11
3591156,25
3591780,56
3592412,71
3593036,49
3593664,53
3594296,70
3594912,75
3595544,75
3596168,71
3596796,72
3597428,69
3598048,47
3598680,26
3599304,13
3599928,25
3600556,39
3601176,42
3601804,51
3602428,52
3603056,58
3603684,56
3604308,41
3604940,29
3605568,15
3606188,11
3606816,15
3607440,37
3608068,55
3608696,63
3609320,41
3609948,49
3610572,59
3611196,65
3611824,64
3612444,72
3613072,76
3613700,82
3614320,68
3614948,33
3615572,21
3616204,13
3616832,31
3617448,17
3618076,44
3618700,48
3619332,50
3619960,54
3620584,44
3621212,39
3621836,24
3622460,18
3623088,21
3623712,41
3624340,53
3624972,54
3625592,49
3626220,42
3626844,51
3627476,57
3628104,63
3628728,63
3629356,67
3629984,71
3630608,72
3631236,42
3631856,11
3632488,13
3633112,27
3633736,33
3634364,20
3634984,47
3635616,49
3636244,50
3636864,53
3637492,35
3638116,32
3638748,28
3639376,19
3639996,19
3640628,24
3641252,34
3641876,37
3642504,39
3643124,45
3643752,59
3644376,57
3645000,59
3645628,50
3646248,59
3646876,69
3647508,87
3648128,76
3648756,46
3649380,18
3650008,35
3650636,14
3651256,55
3651884,48
3652508,54
3653132,57
3653764,50
3654384,30
3655016,30
3655640,33
3656264,39
3656892,62
3657512,77
3658144,78
3658772,59
3659392,25
3660024,56
3660648,54
3661276,57
3661908,56
3662528,51
3663156,69
3663784,81
3664408,67
3665036,49
3665656,38
3666284,13
3666908,27
3667532,24
3668164,40
3668784,50
3669416,53
3670044,50
3670664,35
3671296,30
3671920,27
3672548,12
3673180,14
3673800,28
3674428,37
3675056,21
3675680,15
3676308,57
3676928,72
3677560,57
3678184,49
3678808,42
3679436,30
3680056,61
3680688,77
3681316,58
3681936,53
3682564,39
3683188,14
3683820,38
3684452,38
3685072,54
3685704,68
3686328,89
3686952,98
3687580,95
3688200,101
3688880,89
3689500,43
3690120,13
3690748,46
3691372,62
3692004,45
3692632,41
3693248,63
3693876,83
3694500,88
3695124,88
3695756,78
3696376,54
3697004,58
3697628,63
3698252,38
3698880,15
3699504,11
3700132,37
3700764,34
3701384,44
3702012,46
3702636,49
3703268,49
3703900,29
3704520,17
3705148,11
3705772,11
3706396,21
3707028,40
3707648,48
3708276,46
3708900,49
3709524,47
3710156,54
3710776,57
3711408,58
3712036,57
3712656,53
3713284,66
3713908,71
3714536,64
3715164,45
3715784,20
3716412,37
3717040,41
3717664,17
3718292,42
3718912,49
3719540,50
3720168,54
3720788,45
3721420,42
3722040,36
3722668,20
3723300,18
3723920,25
3724548,47
3725176,47
3725804,33
3726436,43
3727056,51
3727688,65
3728308,61
3728932,51
3729564,42
3730184,52
3730812,45
3731436,16
3732064,11
3732692,15
3733316,29
3733948,28
3734576,42
3735200,49
3735828,49
3736456,54
3737084,48
3737716,10
3738336,11
3738964,11
3739588,11
3740212,25
3740844,42
3741464,58
3742092,63
3742716,42
3743344,49
3743976,67
3744600,66
3745232,57
3745860,41
3746480,51
3747108,63
3747736,61
3748360,32
3748988,17
3749608,12
3750236,26
3750864,16
3751488,42
3752120,48
3752736,48
3753368,50
3753996,26
3754616,32
3755248,18
3755872,13
3756500,21
3757132,43
3757752,70
3758384,81
3759008,55
3759632,47
3760264,62
3760880,60
3761512,57
3762136,61
3762760,62
3763392,66
3764008,58
3764636,33
3765268,13
3765888,12
3766516,39
3767144,32
3767772,32
3768404,47
3769024,48
3769652,49
3770276,48
3770900,22
3771532,30
3772152,23
3772784,13
3773408,18
3774032,41
3774664,65
3775280,62
3775912,40
3776544,50
3777160,75
3777792,67
3778416,59
3779048,56
3779676,54
3780296,65
3780924,62
3781552,39
3782176,24
3782804,10
3783424,30
3784056,23
3784680,45
3785304,47
3785932,50
3786552,56
3787184,47
3787816,38
3788432,27
3789064,18
3789688,12
3790320,17
3790948,28
3791568,39
3792200,39
3792820,37
3793444,61
3794076,62
3794696,61
3795328,62
3795952,71
3796576,83
3797204,79
3797832,50
3798460,13
3799092,12
3799712,42
3800344,55
3800968,19
3801596,45
3802228,47
3802848,46
3803480,47
3804104,31
3804728,26
3805360,14
3805976,10
3806608,11
3807240,14
3807856,51
3808488,73
3809112,62
3809744,45
3810376,54
3810996,53
3811624,48
3812252,31
3812876,34
3813504,53
3814128,58
3814760,33
3815384,25
3816008,22
3816636,10
3817256,10
3817888,48
3818516,46
3819136,48
3819768,50
3820392,47
3821024,26
3821652,30
3822272,31
3822904,29
3823528,39
3824152,49
3824784,51
3825400,54
3826032,30
3826656,55
3827280,71
3827912,67
3828528,68
3829160,66
3829792,71
3830408,73
3831040,63
3831664,21
3832296,11
3832928,20
3833548,29
3834180,18
3834804,48
3835428,47
3836060,50
3836680,51
3837312,34
3837940,32
3838564,15
3839196,10
3839824,18
3840456,43
3841084,60
3841704,52
3842332,48
3842956,44
3843584,45
3844216,53
3844832,56
3845464,46
3846084,46
3846708,68
3847340,68
3847960,45
3848588,23
3849212,14
3849840,20
3850468,13
3851092,35
3851724,47
3852352,46
3852972,45
3853600,49
3854224,26
3854852,22
3855484,24
3856104,15
3856732,14
3857356,19
3857980,37
3858612,48
3859232,46
3859860,40
3860492,50
3861112,57
3861740,59
3862368,55
3862996,62
3863628,74
3864248,66
3864876,31
3865504,25
3866128,23
3866756,24
3867376,41
3868004,41
3868628,45
3869252,46
3869884,50
3870504,35
3871136,16
3871764,10
3872384,14
3873012,14
3873636,37
3874268,55
3874896,80
3875520,62
3876148,37
3876776,60
3877400,69
3878032,63
3878648,61
3879280,54
3879904,73
3880528,75
3881160,66
3881776,35
3882404,13
3883036,18
3883656,29
3884288,15
3884912,46
3885540,44
3886172,48
3886792,49
3887424,17
3888048,11
3888672,11
3889300,18
3889920,19
3890552,15
3891176,36
3891800,33
3892432,20
3893048,49
3893680,57
3894308,50
3894928,56
3895556,50
3896184,31
3896812,10
3897440,29
3898064,13
3898692,35
3899320,41
3899944,33
3900572,16
3901192,41
3901824,47
3902448,46
3903072,48
3903704,49
3904328,12
3904956,11
3905588,12
3906208,13
3906840,28
3907464,43
3908092,50
3908724,42
3909344,27
3909976,58
3910600,68
3911224,69
3911856,69
3912472,81
3913104,100
3913788,116
3914460,86
3915088,39
3915712,15
3916336,61
3916968,79
3917584,64
3918216,65
3918840,59
3919464,49
3920096,55
3920720,47
3921348,39
3921980,16
3922600,14
3923228,17
3923852,14
3924484,39
3925116,36
3925736,21
3926368,48
3926992,63
3927616,71
3928248,66
3928868,55
3929500,32
3930132,30
3930752,61
3931384,37
3932008,11
3932640,21
3933268,44
3933888,36
3934516,39
3935140,48
3935768,48
3936396,53
3937016,51
3937644,41
3938268,37
3938892,21
3939524,11
3940144,21
3940772,34
3941404,50
3942024,52
3942656,24
3943276,59
3943908,79
3944540,82
3945160,85
3945788,102
3946464,108
3947132,96
3947760,61
3948384,15
3949012,10
3949644,14
3950264,39
3950892,48
3951520,63
3952144,67
3952772,66
3953392,71
3954024,55
3954644,28
3955268,14
3955900,10
3956520,14
3957148,29
3957780,52
3958400,48
3959028,37
3959656,49
3960284,65
3960916,60
3961536,65
3962168,63
3962792,65
3963416,74
3964048,66
3964664,41
3965296,15
3965920,11
3966544,19
3967176,21
3967796,34
3968428,46
3969056,45
3969672,47
3970304,49
3970928,13
3971556,11
3972188,10
3972808,15
3973436,11
3974064,33
3974688,61
3975316,62
3975936,45
3976568,37
3977192,53
3977816,71
3978444,84
3979064,90
3979696,72
3980324,76
3980944,94
3981572,59
3982200,39
3982828,19
3983460,48
3984080,55
3984708,50
3985332,58
3985956,54
3986588,50
3987208,40
3987836,20
3988464,13
3989088,16
3989716,15
3990344,17
3990976,26
3991604,16
3992224,22
3992856,41
3993480,54
3994112,49
3994740,50
3995360,49
3995988,24
3996616,43
3997240,50
3997872,27
3998488,11
3999116,29
3999748,46
4000368,39
4000996,17
4001620,43
4002248,48
4002876,47
4003496,50
4004124,19
4004748,14
4005380,15
4006008,37
4006628,63
4007256,63
4007880,61
4008504,52
4009132,36
4009752,47
4010380,70
4011004,74
4011632,87
4012260,81
4012884,53
4013516,68
4014144,76
4014768,40
4015396,15
4016020,11
4016644,51
4017276,68
4017896,45
4018524,45
4019148,49
4019776,51
4020404,48
4021024,26
4021652,16
4022284,11
4022904,11
4023532,24
4024156,35
4024788,40
4025420,49
4026040,30
4026668,55
4027292,71
4027916,72
4028548,62
4029168,53
4029800,68
4030424,69
4031048,50
4031676,21
4032296,15
4032924,11
4033556,16
4034176,18
4034804,43
4035428,49
4036060,46
4036688,47
4037308,32
4037936,34
4038560,31
4039184,26
4039816,23
4040432,34
4041060,57
4041684,74
4042308,65
4042940,45
4043560,60
4044188,67
4044820,70
4045440,66
4046068,49
4046692,57
4047324,69
4047952,59
4048576,42
4049204,28
4049828,16
4050452,32
4051084,26
4051704,45
4052332,48
4052960,48
4053584,47
4054212,16
4054832,12
4055464,15
4056092,12
4056712,21
4057344,45
4057968,79
4058596,59
4059228,30
4059848,40
4060476,48
4061104,53
4061728,59
4062356,54
4062976,30
4063608,30
4064232,57
4064856,43
4065484,11
4066104,24
4066732,29
4067364,16
4067984,42
4068616,48
4069240,48
4069868,46
4070500,32
4071120,19
4071748,41
4072376,59
4073000,45
4073628,42
4074248,45
4074876,29
4075504,17
4076128,44
4076760,110
4077436,82
4078064,67
4078696,59
4079312,61
4079944,81
4080572,86
4081196,71
4081828,38
4082448,15
4083076,16
4083704,26
4084328,19
4084956,43
4085584,48
4086216,62
4086844,88
4087464,100
4088148,59
4088768,45
4089392,33
4090024,23
4090640,29
4091272,55
4091896,65
4092520,47
4093152,52
4093776,79
4094408,85
4095036,67
4095660,56
4096292,40
4096912,55
4097540,47
4098168,14
4098784,25
4099412,26
4100032,32
4100652,13
4101280,42
4101900,41
4102532,46
4103152,46
4103776,43
4104404,12
4105024,23
4105656,30
4106284,19
4106900,16
4107528,24
4108152,29
4108780,32
4109412,26
4110032,50
4110660,64
4111284,54
4111908,48
4112536,30
4113152,16
4113784,41
4114408,46
4115028,25
4115660,12
4116280,23
4116908,41
4117536,16
4118160,45
4118788,44
4119412,51
4120040,51
4120672,20
4121288,13
4121916,24
4122540,32
4123164,37
4123792,33
4124408,30
4125040,20
4125660,14
4126284,50
4126916,58
4127536,64
4128164,65
4128792,59
4129408,67
4130040,84
4130660,77
4131292,43
4131920,14
4132536,21
4133168,15
4133792,45
4134416,41
4135044,40
4135664,48
4136292,53
4136916,52
4137540,37
4138172,44
4138792,44
4139420,25
4140052,38
4140672,41
4141300,47
4141924,35
4142556,18
4143184,58
4143804,67
4144432,65
4145056,60
4145680,48
4146308,52
4146928,70
4147560,58
4148180,27
4148804,10
4149432,12
4150052,13
4150680,21
4151308,55
4151928,54
4152560,47
4153180,66
4153812,64
4154440,52
4155064,37
4155692,17
4156316,10
4156940,17
4157572,23
4158192,19
4158820,26
4159444,31
4160068,75
4160696,98
4161316,85
4161948,60
4162576,30
4163192,30
4163820,31
4164444,24
4165072,21
4165704,11
4166320,32
4166948,51
4167572,30
4168200,48
4168828,60
4169448,71
4170076,64
4170700,49
4171324,34
4171952,11
4172576,17
4173204,16
4173836,10
4174456,15
4175084,13
4175708,15
4176340,54
4176968,72
4177584,72
4178216,73
4178836,65
4179460,49
4180092,58
4180712,51
4181340,19
4181964,10
4182588,39
4183216,24
4183832,11
4184460,37
4185084,42
4185712,49
4186340,50
4186964,52
4187592,50
4188224,34
4188840,28
4189468,20
4190092,31
4190720,57
4191352,84
4191968,79
4192600,36
4193224,49
4193848,57
4194476,60
4195096,59
4195724,48
4196352,33
4196976,42
4197604,65
4198228,42
4198860,48
4199488,42
4200112,12
4200740,17
4201364,45
4201988,56
4202620,54
4203240,49
4203868,35
4204492,26
4205112,32
4205744,58
4206360,77
4206992,110
4207672,107
4208348,70
4208972,33
4209596,41
4210220,49
4210848,53
4211472,55
4212100,61
4212724,59
4213348,78
4213980,73
4214604,47
4215232,37
4215860,27
4216480,27
4217108,32
4217732,25
4218364,45
4218992,46
4219616,49
4220244,49
4220868,53
4221492,38
4222120,11
4222744,17
4223372,15
4223996,24
4224624,33
4225256,36
4225876,34
4226508,45
4227136,47
4227752,47
4228384,55
4229008,56
4229636,47
4230268,60
4230888,64
4231516,35
4232140,24
4232764,28
4233396,22
4234016,47
4234644,59
4235276,39
4235896,55
4236524,63
4237152,54
4237780,39
4238412,40
4239032,29
4239664,31
4240288,51
4240908,60
4241540,44
4242160,37
4242788,34
4243412,61
4244036,74
4244664,76
4245288,69
4245916,63
4246548,76
4247168,90
4247796,68
4248424,31
4249052,13
4249684,30
4250304,73
4250932,49
4251556,45
4252180,47
4252808,49
4253424,51
4254056,56
4254680,71
4255304,57
4255932,28
4256552,27
4257180,36
4257812,32
4258432,13
4259060,14
4259688,45
4260316,58
4260944,77
4261568,93
4262196,88
4262820,102
4263496,105
4264168,81
4264792,26
4265420,34
4266048,37
4266672,49
4267300,38
4267924,41
4268548,45
4269180,50
4269800,65
4270428,89
4271052,77
4271676,38
4272308,12
4272928,16
4273556,11
4274188,26
4274808,33
4275436,34
4276060,25
4276688,49
4277320,59
4277936,55
4278568,63
4279192,70
4279816,72
4280448,76
4281064,59
4281692,14
4282316,13
4282940,11
4283568,22
4284192,17
4284820,41
4285452,47
4286072,60
4286700,60
4287328,32
4287956,23
4288588,10
4289208,11
4289836,19
4290460,45
4291084,66
4291716,82
4292336,86
4292964,48
4293588,54
4294212,65
4294844,56
4295464,59
4296096,66
4296724,62
4297344,58
4297976,42
4298600,17
4299228,10
4299860,22
4300480,16
4301112,39
4301736,49
4302356,45
4302988,46
4303608,49
4304236,26
4304860,29
4305484,25
4306112,27
4306732,38
4307360,47
4307988,58
4308608,51
4309236,32
4309860,52
4310492,68
4311120,76
4311744,77
4312376,62
4312996,46
4313620,51
4314252,66
4314872,40
4315500,14
4316128,11
4316752,21
4317384,16
4318000,41
4318632,44
4319260,47
4319880,50
4320512,40
4321136,45
4321764,43
4322392,27
4323016,21
4323644,27
4324268,40
4324892,34
4325524,42
4326144,42
4326772,59
4327396,76
4328020,66
4328652,58
4329272,57
4329900,62
4330532,40
4331152,16
4331784,11
4332408,17
4333036,15
4333668,34
4334288,16
4334916,43
4335544,47
4336168,51
4336796,47
4337416,28
4338048,36
4338672,32
4339296,33
4339924,18
4340548,11
4341180,16
4341812,52
4342432,67
4343060,41
4343684,69
4344316,82
4344944,69
4345564,35
4346196,25
4346820,41
4347444,53
4348072,38
4348696,19
4349328,11
4349956,34
4350576,40
4351208,39
4351832,47
4352464,46
4353092,47
4353712,48
4354340,13
4354964,19
4355588,19
4356220,11
4356840,29
4357468,55
4358092,73
4358716,63
4359348,38
4359968,49
4360596,48
4361228,51
4361848,61
4362476,71
4363100,78
4363732,77
4364360,62
4364984,27
4365612,17
4366236,53
4366860,55
4367488,24
4368112,38
4368740,46
4369364,48
4369988,51
4370620,23
4371240,19
4371868,13
4372500,10
4373120,15
4373748,33
4374376,47
4375004,28
4375636,22
4376256,42
4376884,53
4377512,62
4378136,56
4378764,45
4379384,55
4380016,72
4380640,69
4381264,55
4381892,31
4382512,17
4383144,21
4383772,18
4384392,33
4385020,48
4385644,45
4386276,50
4386904,48
4387524,42
4388152,43
4388776,32
4389404,17
4390032,24
4390652,38
4391280,69
4391908,54
4392532,19
4393164,56
4393784,62
4394412,50
4395044,50
4395664,56
4396296,67
4396920,100
4397600,78
4398232,47
4398848,16
4399480,23
4400104,73
4400728,61
4401356,42
4401976,56
4402608,49
4403236,47
4403856,36
4404484,31
4405108,38
4405736,43
4406364,47
4406984,50
4407612,50
4408236,33
4408864,29
4409492,40
4410112,56
4410740,63
4411368,71
4411992,67
4412620,46
4413240,52
4413872,60
4414500,49
4415120,19
4415752,13
4416376,13
4417004,21
4417636,16
4418256,45
4418884,45
4419508,47
4420132,51
4420764,28
4421384,26
4422016,23
4422640,14
4423264,18
4423892,29
4424516,55
4425148,60
4425776,47
4426392,45
4427024,73
4427648,70
4428276,59
4428908,48
4429528,67
4430156,101
4430832,86
4431448,12
4432080,22
4432696,16
4433324,11
4433956,12
4434576,43
4435204,45
4435828,46
4436460,47
4437088,43
4437712,28
4438344,40
4438968,51
4439592,51
4440224,54
4440840,42
4441472,55
4442096,67
4442720,40
4443348,47
4443972,54
4444604,53
4445236,56
4445856,63
4446488,79
4447112,82
4447740,70
4448372,18
4448992,12
4449620,15
4450244,39
4450868,25
4451500,38
4452120,48
4452748,49
4453380,46
4454000,18
4454632,13
4455256,17
4455884,19
4456516,23
4457136,30
4457764,44
4458392,50
4459016,43
4459644,43
4460264,59
4460896,71
4461520,69
4462144,50
4462772,46
4463392,53
4464024,33
4464652,10
4465272,12
4465900,10
4466528,22
4467156,21
4467788,35
4468408,49
4469036,49
4469664,47
4470288,51
4470920,32
4471536,24
4472168,16
4472792,12
4473416,21
4474048,40
4474664,60
4475296,68
4475928,37
4476548,48
4477180,66
4477804,58
4478436,56
4479068,58
4479688,67
4480320,73
4480944,63
4481568,29
4482196,10
4482816,12
4483444,25
4484068,17
4484692,43
4485324,46
4485944,50
4486572,50
4487204,26
4487824,15
4488452,21
4489076,12
4489708,11
4490336,19
4490956,49
4491584,64
4492208,56
4492832,45
4493460,47
4494080,47
4494708,51
4495336,54
4495960,28
4496592,23
4497208,32
4497836,23
4498468,24
4499088,28
4499720,15
4500344,17
4500972,35
4501604,47
4502224,54
4502856,61
4503480,52
4504104,35
4504736,27
4505352,14
4505984,11
4506608,11
4507232,13
4507860,17
4508484,55
4509112,75
4509744,42
4510360,86
4510992,111
4511668,65
4512288,24
4512916,14
4513536,12
4514164,28
4514788,15
4515412,14
4516044,15
4516664,23
4517292,25
4517924,42
4518544,47
4519172,46
4519796,49
4520428,42
4521056,14
4521680,13
4522308,17
4522932,23
4523556,16
4524188,46
4524808,59
4525436,49
4526060,33
4526688,49
4527316,47
4527940,49
4528572,47
4529204,29
4529824,79
4530456,98
4531080,91
4531708,59
4532340,26
4532960,43
4533588,72
4534216,44
4534840,45
4535468,52
4536088,49
4536716,47
4537340,18
4537968,13
4538596,15
4539220,14
4539852,19
4540484,34
4541104,54
4541736,53
4542360,46
4542984,42
4543616,55
4544236,71
4544864,73
4545488,70
4546112,56
4546744,47
4547360,55
4547988,33
4548620,17
4549240,16
4549868,19
4550492,23
4551124,33
4551756,46
4552376,47
4553004,47
4553632,50
4554256,13
4554884,11
4555504,11
4556136,12
4556760,36
4557384,54
4558016,65
4558636,64
4559264,46
4559896,43
4560516,64
4561144,70
4561768,66
4562400,63
4563028,43
4563648,39
4564276,28
4564904,17
4565528,15
4566156,10
4566776,29
4567408,21
4568032,40
4568652,45
4569284,46
4569904,47
4570532,29
4571164,11
4571784,18
4572416,17
4573040,12
4573668,14
4574300,16
4574920,20
4575552,25
4576176,39
4576800,48
4577432,50
4578052,50
4578680,48
4579304,41
4579928,59
4580560,46
4581176,13
4581808,13
4582436,20
4583056,27
4583684,56
4584312,36
4584944,41
4585572,48
4586192,49
4586824,51
4587448,19
4588072,42
4588700,24
4589320,18
4589948,30
4590576,61
4591200,76
4591828,51
4592452,30
4593084,43
4593712,52
4594336,64
4594968,63
4595592,70
4596220,47
4596852,48
4597472,57
4598104,39
4598728,24
4599352,13
4599980,33
4600600,25
4601232,42
4601864,47
4602480,49
4603108,45
4603736,43
4604364,19
4604996,14
4605616,11
4606244,11
4606872,24
4607496,44
4608128,41
4608744,44
4609372,40
4609996,48
4610616,53
4611248,74
4611864,72
4612492,45
4613116,36
4613744,41
4614372,45
4614996,23
4615628,16
4616256,18
4616880,40
4617508,20
4618132,41
4618760,45
4619388,50
4620008,48
4620636,25
4621260,17
4621884,18
4622516,20
4623136,17
4623768,29
4624396,46
4625016,52
4625644,37
4626268,47
4626900,74
4627528,76
4628152,79
4628784,77
4629408,69
4630032,55
4630660,35
4631280,11
4631908,12
4632536,11
4633160,46
4633788,80
4634408,38
4635036,44
4635668,46
4636288,48
4636916,48
4637540,16
4638172,19
4638804,22
4639424,18
4640052,21
4640676,36
4641300,51
4641928,47
4642552,29
4643180,59
4643804,79
4644432,62
4645060,49
4645680,49
4646308,59
4646940,76
4647560,83
4648188,61
4648812,31
4649444,12
4650072,54
4650692,58
4651320,41
4651944,45
4652568,48
4653196,52
4653816,46
4654444,29
4655068,31
4655696,20
4656324,10
4656944,15
4657572,26
4658204,46
4658824,67
4659456,51
4660080,49
4660708,51
4661340,54
4661960,60
4662588,57
4663212,55
4663836,45
4664468,32
4665088,20
4665716,15
4666340,13
4666968,12
4667596,24
4668216,43
4668844,49
4669476,48
4670096,47
4670724,29
4671348,30
4671980,17
4672612,10
4673232,29
4673860,49
4674484,57
4675108,65
4675740,66
4676360,44
4676988,56
4677616,63
4678240,75
4678868,73
4679492,73
4680124,61
4680756,75
4681376,71
4682008,41
4682628,13
4683260,40
4683888,45
4684512,40
4685144,47
4685768,51
4686392,59
4687020,66
4687640,48
4688272,34
4688896,34
4689520,21
4690152,33
4690776,45
4691404,51
4692036,46
4692656,20
4693284,64
4693912,59
4694536,67
4695168,56
4695784,49
4696416,66
4697040,92
4697664,73
4698292,22
4698912,24
4699544,19
4700172,24
4700792,32
4701424,41
4702048,45
4702680,50
4703312,48
4703928,30
4704564,40
4705188,33
4705812,25
4706444,18
4707064,27
4707696,42
4708320,31
4708944,44
4709576,47
4710196,48
4710828,55
4711456,72
4712080,70
4712708,54
4713332,62
4713964,71
4714596,56
4715216,35
4715848,20
4716472,26
4717096,34
4717728,25
4718344,46
4718976,48
4719600,53
4720224,48
4720852,33
4721476,38
4722108,30
4722740,18
4723360,27
4723988,35
4724616,46
4725244,41
4725876,24
4726496,51
4727124,65
4727752,59
4728376,59
4729004,65
4729624,63
4730252,70
4730880,68
4731504,41
4732136,30
4732760,26
4733392,18
4734024,25
4734640,42
4735272,43
4735900,49
4736524,49
4737156,34
4737776,35
4738404,49
4739028,40
4739656,30
4740284,35
4740904,50
4741536,59
4742164,51
4742784,38
4743416,57
4744040,71
4744668,77
4745300,76
4745920,76
4746552,88
4747176,81
4747800,56
4748432,26
4749048,16
4749680,23
4750304,70
4750928,49
4751560,41
4752180,47
4752808,48
4753436,47
4754056,43
4754684,43
4755312,25
4755940,37
4756572,56
4757192,37
4757824,47
4758448,64
4759072,57
4759700,42
4760320,49
4760948,52
4761576,59
4762200,70
4762832,77
4763452,74
4764080,63
4764708,36
4765328,20
4765960,10
4766584,33
4767216,33
4767844,38
4768464,47
4769092,49
4769720,48
4770344,48
4770972,26
4771592,24
4772224,20
4772848,17
4773472,29
4774104,43
4774728,56
4775356,48
4775988,28
4776608,51
4777240,62
4777864,64
4778496,65
4779124,67
4779744,70
4780376,75
4781000,56
4781628,23
4782256,24
4782880,20
4783512,20
4784144,18
4784760,41
4785392,49
4786016,49
4786648,53
4787280,35
4787896,28
4788528,22
4789152,26
4789776,29
4790408,43
4791024,71
4791656,73
4792284,62
4792908,46
4793540,53
4794160,59
4794792,72
4795424,74
4796044,67
4796676,73
4797300,71
4797932,44
4798564,16
4799184,10
4799816,26
4800444,31
4801068,24
4801696,48
4802316,49
4802944,51
4803568,47
4804192,38
4804820,31
4805444,19
4806076,11
4806704,12
4807328,32
4807960,75
4808584,67
4809212,33
4809844,48
4810464,67
4811096,59
4811720,50
4812344,39
4812976,38
4813592,53
4814220,63
4814844,42
4815472,31
4816100,12
4816724,44
4817352,30
4817984,41
4818600,44
4819232,46
4819856,49
4820484,36
4821116,37
4821736,31
4822368,19
4822992,27
4823616,51
4824248,56
4824864,53
4825492,44
4826124,40
4826744,61
4827376,77
4828000,89
4828628,72
4829260,55
4829880,72
4830512,83
4831136,53
4831760,16
4832392,10
4833012,20
4833644,35
4834268,21
4834888,44
4835520,49
4836136,59
4836768,56
4837400,27
4838016,26
4838648,13
4839272,18
4839900,17
4840532,52
4841152,59
4841780,53
4842408,44
4843028,43
4843660,60
4844280,69
4844908,62
4845532,40
4846156,37
4846788,58
4847408,65
4848040,41
4848668,26
4849288,17
4849916,18
4850544,25
4851176,37
4851808,45
4852424,48
4853056,49
4853680,46
4854304,27
4854936,32
4855552,31
4856184,19
4856808,22
4857432,31
4858064,51
4858680,67
4859312,41
4859944,56
4860564,71
4861196,82
4861820,79
4862452,85
4863084,86
4863704,84
4864336,59
4864960,17
4865584,15
4866212,12
4866832,45
4867460,45
4868084,57
4868712,63
4869340,53
4869964,47
4870596,30
4871228,44
4871848,27
4872476,12
4873104,13
4873732,22
4874364,39
4874984,43
4875612,36
4876240,41
4876864,59
4877492,73
4878112,68
4878744,57
4879372,48
4879992,67
4880624,72
4881248,64
4881876,23
4882508,26
4883128,50
4883760,45
4884384,24
4885008,45
4885636,45
4886256,47
4886888,50
4887512,34
4888136,33
4888768,24
4889384,14
4890016,31
4890644,40
4891264,64
4891896,53
4892520,33
4893148,48
4893780,64
4894400,59
4895032,49
4895656,45
4896280,83
4896908,105
4897580,68
4898208,24
4898836,10
4899456,21
4900088,57
4900712,36
4901344,41
4901972,46
4902592,49
4903224,51
4903848,35
4904472,24
4905104,19
4905724,13
4906352,10
4906976,25
4907600,45
4908232,56
4908848,56
4909480,41
4910112,61
4910728,73
4911360,67
4911988,57
4912620,53
4913252,70
4913872,72
4914508,57
4915132,34
4915760,21
4916388,14
4917008,16
4917636,19
4918260,41
4918884,50
4919516,53
4920140,55
4920768,45
4921396,54
4922016,37
4922644,15
4923268,15
4923900,38
4924528,50
4925148,35
4925776,20
4926400,45
4927024,51
4927652,60
4928272,62
4928900,62
4929524,77
4930148,93
4930776,90
4931400,62
4932032,48
4932660,35
4933280,13
4933908,29
4934532,41
4935164,45
4935796,64
4936416,99
4937044,89
4937668,60
4938292,40
4938920,26
4939544,11
4940172,16
4940796,32
4941424,39
4942056,47
4942680,25
4943308,58
4943940,60
4944560,55
4945188,51
4945816,34
4946440,44
4947068,58
4947688,66
4948316,43
4948940,31
4949568,13
4950196,17
4950816,19
4951448,41
4952076,46
4952696,47
4953328,48
4953952,24
4954580,31
4955212,38
4955832,41
4956464,35
4957088,26
4957712,28
4958344,27
4958960,32
4959592,45
4960216,52
4960840,61
4961468,61
4962088,61
4962716,71
4963348,74
4963968,70
4964600,51
4965220,33
4965852,12
4966484,28
4967104,35
4967732,26
4968356,42
4968980,45
4969608,52
4970224,51
4970856,29
4971480,17
4972104,14
4972732,26
4973352,13
4973984,19
4974612,38
4975232,53
4975864,45
4976488,40
4977116,49
4977748,48
4978368,49
4979000,29
4979624,31
4980248,57
4980876,62
4981496,40
4982128,25
4982752,12
4983376,25
4984004,23
4984624,46
4985256,48
4985884,49
4986504,47
4987136,37
4987760,27
4988388,29
4989020,21
4989640,18
4990268,35
4990896,53
4991520,56
4992152,48
4992768,33
4993396,70
4994020,72
4994644,61
4995276,50
4995896,32
4996528,71
4997156,100
4997828,86
4998452,39
4999076,11
4999700,21
5000332,28
5000952,17
5001584,41
5002208,45
5002832,51
5003464,50
5004080,27
5004708,25
5005340,36
5005960,36
5006592,40
5007216,49
5007848,70
5008476,72
5009096,53
5009728,43
5010352,56
5010976,57
5011608,66
5012224,83
5012856,67
5013480,61
5014104,59
5014736,39
5015352,27
5015984,12
5016616,25
5017236,24
5017868,40
5018492,49
5019120,48
5019748,50
5020368,49
5020996,31
5021624,21
5022248,14
5022876,12
5023496,33
5024128,66
5024752,74
5025376,59
5026004,31
5026628,52
5027260,67
5027892,64
5028512,59
5029144,53
5029768,63
5030396,79
5031028,63
5031648,36
5032280,25
5032904,13
5033528,22
5034160,20
5034776,41
5035408,47
5036040,47
5036660,48
5037292,30
5037916,33
5038548,33
5039180,30
5039800,21
5040432,21
5041056,33
5041680,46
5042308,48
5042928,44
5043560,59
5044184,59
5044808,62
5045436,68
5046056,74
5046688,56
5047316,55
5047936,49
5048568,34
5049192,29
5049824,21
5050452,29
5051072,23
5051704,44
5052328,53
5052952,55
5053584,53
5054204,31
5054832,21
5055460,21
5056084,32
5056716,49
5057336,49
5057968,48
5058596,49
5059216,34
5059844,47
5060468,68
5061100,73
5061732,73
5062352,79
5062984,42
5063608,41
5064236,43
5064868,25
5065488,19
5066120,11
5066744,26
5067368,23
5068000,42
5068624,48
5069256,49
5069888,49
5070504,39
5071136,43
5071760,25
5072392,15
5073024,11
5073644,18
5074272,35
5074900,41
5075524,47
5076156,40
5076776,53
5077408,62
5078040,70
5078664,57
5079296,28
5079920,38
5080552,55
5081184,56
5081800,39
5082432,25
5083056,17
5083680,34
5084312,16
5084928,40
5085560,46
5086184,52
5086808,61
5087440,59
5088056,43
5088688,28
5089316,18
5089936,20
5090564,22
5091192,35
5091824,35
5092456,27
5093072,49
5093704,65
5094328,69
5094956,60
5095588,48
5096208,46
5096840,64
5097464,71
5098088,59
5098720,44
5099344,40
5099976,11
5100608,26
5101228,43
5101856,52
5102484,50
5103112,48
5103744,50
5104364,51
5104996,56
5105620,70
5106248,69
5106876,77
5107500,78
5108132,81
5108760,67
5109384,36
5110020,58
5110644,71
5111276,65
5111908,60
5112532,62
5113164,70
5113788,65
5114416,50
5115048,33
5115668,29
5116300,18
5116928,46
5117552,26
5118188,41
5118812,47
5119444,47
5120080,47
5120696,19
5121324,15
5121944,11
5122564,11
5123192,12
5123816,23
5124444,49
5125068,43
5125692,37
5126320,44
5126940,75
5127568,63
5128196,57
5128816,49
5129444,55
5130068,63
5130696,43
5131324,22
5131944,13
5132572,18
5133196,44
5133828,43
5134456,33
5135072,41
5135704,49
5136328,50
5136952,50
5137580,22
5138200,21
5138828,15
5139452,10
5140080,16
5140708,32
5141332,59
5141964,60
5142592,45
5143208,44
5143840,62
5144464,66
5145092,64
5145724,70
5146344,66
5146972,76
5147596,75
5148220,31
5148848,14
5149464,13
5150096,30
5150724,32
5151344,42
5151972,47
5152600,49
5153228,50
5153860,35
5154480,29
5155108,25
5155736,23
5156360,26
5156988,35
5157608,43
5158236,51
5158864,49
5159488,38
5160116,62
5160736,75
5161368,73
5161996,65
5162616,59
5163244,79
5163868,101
5164552,70
5165176,19
5165792,19
5166420,41
5167044,44
5167668,41
5168300,50
5168920,55
5169548,52
5170172,50
5170800,31
5171432,22
5172052,11
5172684,11
5173312,19
5173932,37
5174560,49
5175184,44
5175812,21
5176444,48
5177064,57
5177692,55
5178316,66
5178940,55
5179572,44
5180192,53
5180820,53
5181452,30
5182072,33
5182704,25
5183328,35
5183956,51
5184592,42
5185208,44
5185836,49
5186460,51
5187084,48
5187716,26
5188336,20
5188964,14
5189588,14
5190212,30
5190844,46
5191464,46
5192096,43
5192724,25
5193344,55
5193976,74
5194600,68
5195232,60
5195860,51
5196480,59
5197112,73
5197736,92
5198360,70
5198992,25
5199608,44
5200240,65
5200864,31
5201488,42
5202116,46
5202736,52
5203364,49
5203996,31
5204616,42
5205244,47
5205868,33
5206500,39
5207128,52
5207752,67
5208384,40
5209004,23
5209628,45
5210260,62
5210880,69
5211508,67
5212136,62
5212760,59
5213392,54
5214008,50
5214640,39
5215272,24
5215888,17
5216520,12
5217144,17
5217776,36
5218404,43
5219024,47
5219656,50
5220280,49
5220904,46
5221536,42
5222152,28
5222784,18
5223408,24
5224032,21
5224660,37
5225284,49
5225912,25
5226544,53
5227164,73
5227792,77
5228420,71
5229048,84
5229676,69
5230296,51
5230928,39
5231552,12
5232176,13
5232804,18
5233424,58
5234056,67
5234680,48
5235304,46
5235932,50
5236560,48
5237188,33
5237820,20
5238440,18
5239068,18
5239696,22
5240324,32
5240956,45
5241576,40
5242208,47
5242832,43
5243456,55
5244084,78
5244704,79
5245332,72
5245964,62
5246584,66
5247212,65
5247836,55
5248468,36
5249096,35
5249712,24
5250340,15
5250964,29
5251588,44
5252220,50
5252840,48
5253468,49
5254088,18
5254712,11
5255340,24
5255960,43
5256588,68
5257212,70
5257840,59
5258468,53
5259092,38
5259720,43
5260352,58
5260968,65
5261596,63
5262220,67
5262848,76
5263480,85
5264096,80
5264724,45
5265348,28
5265968,19
5266600,30
5267216,55
5267844,43
5268468,46
5269092,48
5269720,49
5270344,48
5270976,27
5271604,35
5272224,41
5272852,46
5273480,52
5274108,45
5274736,43
5275360,51
5275988,35
5276612,51
5277236,66
5277868,69
5278488,66
5279116,60
5279740,64
5280368,72
5280996,67
5281620,36
5282248,32
5282876,14
5283496,31
5284124,29
5284748,42
5285376,50
5286008,54
5286624,51
5287252,27
5287876,15
5288500,10
5289128,21
5289744,47
5290372,51
5290996,45
5291620,31
5292248,31
5292872,42
5293500,49
5294128,65
5294752,74
5295380,67
5296004,49
5296632,49
5297260,53
5297880,49
5298508,33
5299132,28
5299760,12
5300388,22
5301008,18
5301636,40
5302260,51
5302884,53
5303516,51
5304140,19
5304772,18
5305400,15
5306020,13
5306648,24
5307272,36
5307900,54
5308532,52
5309152,41
5309780,42
5310404,55
5311028,58
5311660,63
5312280,60
5312908,62
5313532,74
5314160,66
5314788,35
5315416,27
5316044,16
5316672,26
5317296,40
5317924,41
5318548,47
5319176,53
5319804,54
5320424,56
5321052,35
5321676,19
5322300,11
5322932,14
5323552,31
5324184,41
5324812,39
5325428,37
5326060,30
5326680,54
5327312,73
5327940,70
5328560,67
5329188,60
5329812,59
5330436,62
5331068,53
5331688,16
5332316,12
5332940,13
5333564,19
5334196,15
5334816,43
5335444,47
5336076,48
5336696,49
5337324,41
5337948,22
5338576,16
5339208,12
5339824,26
5340452,52
5341076,57
5341704,38
5342332,22
5342952,47
5343580,68
5344208,68
5344828,57
5345460,38
5346080,18
5346708,48
5347336,63
5347960,54
5348588,29
5349212,25
5349844,13
5350472,15
5351096,31
5351724,42
5352348,48
5352972,47
5353600,50
5354224,21
5354852,19
5355480,16
5356104,15
5356732,30
5357352,47
5357984,64
5358612,68
5359232,57
5359864,41
5360488,50
5361116,59
5361748,62
5362368,73
5363000,76
5363624,72
5364248,54
5364876,22
5365496,16
5366124,21
5366748,17
5367372,27
5368004,42
5368624,45
5369252,50
5369884,51
5370504,36
5371132,19
5371760,11
5372388,11
5373020,14
5373640,35
5374268,53
5374896,50
5375520,40
5376152,37
5376768,57
5377396,67
5378020,63
5378644,56
5379272,47
5379888,57
5380516,67
5381148,52
5381768,32
5382396,17
5383020,17
5383652,33
5384280,22
5384904,41
5385532,45
5386156,50
5386784,52
5387412,32
5388032,24
5388660,20
5389284,16
5389908,18
5390540,32
5391160,56
5391792,54
5392420,42
5393040,49
5393668,63
5394292,74
5394924,79
5395552,80
5396176,75
5396804,79
5397428,67
5398052,37
5398684,10
5399304,39
5399936,75
5400560,56
5401184,40
5401816,42
5402436,47
5403068,51
5403700,48
5404320,29
5404948,23
5405572,17
5406204,11
5406836,30
5407456,55
5408084,69
5408708,54
5409328,18
5409960,64
5410576,78
5411204,73
5411828,69
5412452,65
5413084,73
5413708,82
5414336,77
5414968,35
5415588,15
5416216,42
5416840,48
5417468,18
5418100,43
5418720,50
5419352,49
5419976,52
5420600,41
5421228,39
5421848,27
5422476,23
5423100,24
5423728,33
5424360,55
5424984,46
5425612,40
5426244,47
5426864,71
5427496,72
5428120,56
5428740,48
5429372,54
5429992,73
5430620,71
5431244,47
5431868,26
5432500,12
5433120,33
5433748,61
5434380,28
5435000,40
5435628,48
5436252,47
5436884,50
5437516,23
5438136,27
5438764,20
5439392,12
5440016,13
5440644,24
5441264,46
5441892,47
5442516,30
5443140,50
5443768,68
5444392,61
5445020,53
5445652,27
5446272,19
5446900,25
5447524,41
5448156,27
5448784,14
5449408,11
5450036,29
5450660,20
5451284,44
5451912,47
5452536,47
5453164,50
5453788,39
5454412,15
5455040,24
5455664,25
5456292,22
5456924,48
5457544,61
5458172,60
5458796,55
5459428,37
5460056,59
5460672,64
5461304,65
5461928,67
5462552,67
5463180,73
5463800,66
5464432,54
5465056,29
5465680,21
5466308,18
5466928,39
5467556,20
5468188,38
5468808,45
5469436,47
5470060,49
5470692,27
5471324,22
5471944,15
5472576,15
5473200,18
5473824,21
5474452,35
5475072,29
5475704,23
5476328,46
5476952,48
5477584,47
5478200,50
5478832,42
5479460,48
5480080,68
5480708,69
5481332,43
5481964,19
5482592,13
5483212,32
5483840,45
5484464,37
5485088,48
5485716,48
5486336,47
5486968,51
5487592,33
5488216,27
5488844,18
5489464,13
5490092,24
5490724,29
5491344,41
5491972,60
5492596,43
5493228,51
5493860,62
5494480,67
5495108,66
5495736,64
5496360,54
5496988,70
5497608,70
5498236,41
5498864,29
5499488,15
5500116,16
5500744,21
5501372,47
5502004,47
5502624,49
5503256,51
5503880,36
5504512,41
5505140,28
5505760,16
5506388,11
5507016,25
5507640,53
5508268,60
5508888,56
5509516,44
5510144,53
5510768,62
5511396,68
5512024,60
5512652,48
5513284,46
5513904,55
5514536,59
5515160,41
5515784,16
5516416,23
5517032,29
5517664,19
5518288,43
5518912,48
5519544,47
5520160,46
5520792,19
5521420,23
5522040,29
5522668,37
5523296,49
5523924,44
5524556,62
5525176,61
5525808,40
5526432,48
5527056,63
5527684,65
5528304,60
5528936,58
5529560,57
5530184,67
5530816,69
5531432,36
5532064,14
5532692,19
5533312,45
5533944,30
5534568,43
5535196,48
5535828,47
5536448,50
5537076,47
5537700,27
5538324,23
5538956,15
5539576,13
5540208,20
5540828,35
5541452,38
5542084,38
5542704,25
5543332,61
5543964,79
5544584,72
5545216,53
5545840,21
5546468,23
5547100,32
5547720,24
5548352,11
5548976,12
5549600,13
5550232,16
5550848,21
5551480,47
5552104,50
5552728,48
5553356,54
5553976,57
5554608,45
5555240,29
5555856,20
5556484,23
5557112,39
5557740,49
5558372,44
5558992,38
5559624,44
5560248,59
5560872,62
5561504,59
5562120,64
5562752,68
5563376,74
5564000,66
5564632,39
5565256,18
5565888,11
5566520,30
5567136,31
5567768,33
5568396,43
5569024,47
5569656,49
5570276,49
5570904,30
5571528,25
5572152,20
5572784,18
5573404,27
5574032,23
5574664,31
5575284,47
5575912,41
5576536,43
5577164,59
5577796,76
5578416,65
5579044,57
5579672,50
5580296,52
5580928,59
5581544,47
5582172,34
5582796,15
5583424,33
5584052,36
5584672,43
5585300,47
5585932,46
5586552,49
5587184,37
5587808,30
5588440,25
5589068,22
5589688,25
5590320,39
5590944,49
5591568,43
5592200,38
5592816,39
5593448,63
5594072,70
5594696,70
5595328,54
5595944,43
5596576,62
5597208,67
5597824,56
5598456,35
5599080,23
5599712,16
5600344,30
5600960,18
5601588,39
5602212,47
5602836,48
5603468,48
5604088,30
5604716,31
5605344,21
5605968,19
5606596,30
5607216,47
5607844,57
5608476,55
5609096,50
5609724,43
5610348,59
5610980,67
5611612,66
5612232,60
5612860,57
5613484,72
5614108,71
5614740,40
5615360,19
5615988,12
5616616,22
5617240,26
5617868,40
5618488,46
5619116,49
5619748,48
5620368,51
5621000,37
5621624,26
5622252,21
5622884,30
5623504,45
5624136,47
5624760,39
5625384,44
5626016,26
5626632,51
5627264,61
5627888,65
5628512,65
5629144,53
5629768,37
5630400,59
5631028,66
5631648,36
5632284,26
5632904,14
5633532,44
5634164,32
5634784,42
5635412,47
5636036,49
5636660,51
5637288,34
5637912,18
5638540,14
5639164,12
5639792,15
5640420,41
5641044,61
5641676,56
5642304,55
5642924,44
5643552,60
5644176,55
5644804,51
5645432,50
5646056,59
5646684,70
5647312,67
5647936,50
5648564,30
5649184,16
5649812,22
5650444,26
5651064,29
5651696,49
5652320,51
5652948,47
5653580,49
5654200,17
5654828,26
5655452,21
5656076,10
5656708,14
5657328,32
5657960,71
5658580,95
5659204,63
5659836,41
5660456,50
5661084,53
5661716,54
5662336,50
5662968,53
5663592,69
5664220,65
5664852,28
5665472,15
5666100,15
5666724,13
5667348,19
5667980,42
5668600,50
5669228,49
5669852,50
5670480,37
5671108,13
5671728,12
5672356,12
5672988,14
5673608,25
5674236,67
5674860,85
5675492,64
5676124,43
5676744,51
5677376,54
5678000,49
5678624,53
5679256,41
5679872,58
5680504,56
5681128,46
5681752,25
5682384,11
5683000,21
5683632,22
5684260,19
5684880,43
5685508,47
5686132,52
5686764,51
5687396,20
5688016,21
5688644,21
5689268,19
5689892,23
5690524,30
5691144,48
5691776,49
5692400,34
5693024,48
5693656,62
5694280,55
5694908,54
5695540,50
5696160,63
5696788,71
5697412,65
5698044,54
5698672,24
5699288,14
5699920,28
5700544,31
5701168,40
5701796,50
5702416,48
5703044,56
5703672,61
5704296,43
5704924,23
5705552,18
5706184,17
5706812,30
5707432,35
5708064,45
5708688,54
5709320,37
5709948,51
5710568,62
5711200,64
5711824,58
5712448,59
5713080,64
5713696,71
5714328,69
5714960,38
5715576,16
5716208,19
5716832,41
5717460,16
5718092,40
5718712,48
5719344,47
5719968,47
5720592,27
5721224,17
5721844,11
5722476,11
5723100,10
5723724,41
5724356,55
5724976,39
5725608,31
5726236,42
5726856,60
5727488,51
5728112,50
5728744,47
5729376,43
5729992,56
5730624,52
5731252,42
5731876,25
5732508,16
5733128,16
5733760,19
5734384,23
5735012,41
5735640,49
5736264,50
5736892,53
5737524,43
5738144,41
5738772,37
5739400,29
5740028,32
5740660,34
5741280,47
5741908,48
5742532,35
5743160,48
5743788,64
5744408,64
5745036,63
5745660,60
5746288,59
5746916,67
5747544,75
5748172,44
5748804,14
5749424,13
5750056,35
5750680,21
5751304,43
5751936,48
5752552,46
5753184,50
5753808,38
5754432,15
5755064,15
5755680,16
5756312,20
5756944,45
5757560,65
5758192,53
5758816,40
5759448,34
5760080,69
5760692,82
5761324,56
5761944,48
5762568,40
5763196,54
5763816,65
5764444,62
5765068,49
5765692,44
5766324,14
5766944,48
5767572,38
5768204,40
5768824,49
5769452,48
5770076,49
5770708,31
5771336,33
5771960,28
5772592,16
5773216,17
5773840,25
5774468,52
5775088,53
5775720,46
5776340,45
5776964,63
5777596,69
5778216,67
5778844,55
5779476,52
5780096,60
5780724,61
5781348,38
5781980,18
5782608,11
5783232,22
5783860,28
5784484,40
5785108,48
5785740,47
5786360,51
5786988,48
5787612,13
5788236,12
5788864,10
5789488,11
5790116,37
5790748,41
5791368,50
5791996,54
5792624,30
5793252,48
5793884,50
5794504,49
5795136,47
5795760,53
5796384,63
5797012,74
5797632,63
5798260,13
5798888,33
5799512,25
5800140,27
5800760,15
5801388,42
5802020,49
5802640,48
5803268,51
5803896,26
5804524,20
5805156,23
5805776,16
5806408,12
5807028,23
5807656,44
5808284,44
5808904,50
5809532,47
5810160,63
5810784,69
5811416,66
5812040,63
5812668,62
5813300,78
5813920,83
5814548,60
5815176,15
5815808,15
5816436,28
5817056,41
5817684,21
5818308,40
5818932,51
5819564,52
5820184,51
5820812,21
5821436,14
5822064,11
5822696,11
5823320,24
5823952,36
5824584,49
5825200,59
5825828,41
5826452,47
5827080,65
5827708,69
5828328,53
5828956,31
5829584,33
5830208,62
5830840,74
5831456,33
5832088,10
5832716,18
5833336,29
5833968,18
5834592,42
5835220,45
5835852,46
5836472,50
5837104,49
5837728,41
5838352,31
5838980,16
5839600,11
5840228,25
5840852,43
5841476,49
5842108,51
5842728,31
5843356,61
5843988,74
5844608,80
5845236,71
5845864,55
5846492,54
5847124,64
5847744,51
5848376,19
5849000,29
5849624,14
5850252,37
5850872,25
5851504,41
5852128,45
5852752,49
5853384,54
5854004,29
5854632,31
5855264,30
5855884,21
5856512,22
5857140,37
5857768,55
5858400,50
5859016,40
5859648,45
5860272,68
5860896,61
5861528,62
5862144,59
5862776,63
5863400,69
5864024,61
5864652,36
5865272,17
5865904,14
5866532,20
5867152,25
5867784,36
5868408,45
5869036,49
5869668,51
5870288,52
5870920,25
5871544,15
5872168,15
5872796,18
5873416,35
5874048,47
5874672,56
5875296,46
5875928,29
5876552,51
5877184,71
5877816,71
5878432,59
5879064,52
5879688,62
5880316,77
5880948,71
5881568,34
5882200,18
5882824,18
5883448,53
5884080,24
5884696,41
5885328,45
5885960,50
5886580,48
5887212,30
5887836,28
5888472,15
5889100,16
5889720,21
5890348,33
5890976,57
5891600,61
5892228,61
5892848,43
5893476,62
5894104,68
5894728,67
5895356,58
5895976,48
5896608,57
5897240,46
5897856,29
5898488,24
5899112,24
5899740,11
5900372,15
5900992,18
5901620,45
5902244,49
5902868,51
5903500,51
5904120,29
5904748,27
5905372,26
5905996,19
5906628,18
5907248,39
5907876,59
5908508,56
5909128,36
5909756,48
5910384,64
5911016,70
5911644,59
5912264,58
5912896,51
5913520,60
5914144,68
5914776,44
5915396,20
5916024,10
5916648,24
5917276,19
5917904,44
5918528,48
5919160,53
5919788,50
5920408,49
5921040,37
5921664,27
5922292,14
5922924,11
5923544,11
5924172,26
5924796,51
5925424,87
5926052,45
5926672,56
5927300,65
5927928,65
5928552,73
5929180,74
5929804,71
5930436,60
5931068,33
5931688,12
5932316,12
5932944,29
5933572,32
5934204,18
5934824,51
5935456,50
5936080,48
5936704,53
5937336,45
5937952,47
5938584,24
5939216,14
5939832,31
5940460,54
5941084,72
5941716,55
5942344,42
5942968,46
5943596,66
5944224,65
5944848,64
5945476,39
5946096,27
5946724,48
5947348,65
5947976,61
5948604,43
5949224,24
5949856,14
5950484,26
5951104,31
5951736,43
5952360,50
5952988,50
5953620,50
5954240,17
5954868,17
5955492,15
5956120,13
5956748,14
5957368,43
5958000,79
5958624,87
5959248,56
5959876,45
5960496,67
5961124,77
5961756,70
5962376,61
5963008,36
5963632,46
5964260,47
5964892,12
5965512,11
5966140,12
5966768,19
5967392,19
5968020,45
5968640,49
5969268,53
5969896,60
5970520,43
5971148,20
5971768,21
5972400,26
5973032,15
5973648,27
5974280,41
5974904,47
5975536,46
5976168,44
5976784,51
5977416,62
5978044,60
5978668,70
5979300,75
5979920,82
5980552,80
5981176,57
5981800,25
5982428,11
5983056,35
5983684,37
5984316,17
5984936,42
5985568,46
5986192,50
5986824,49
5987452,23
5988072,19
5988704,13
5989328,11
5989952,17
5990584,29
5991200,49
5991828,53
5992460,32
5993080,48
5993712,63
5994336,71
5994964,64
5995596,49
5996216,49
5996848,52
5997472,62
5998096,40
5998724,14
5999344,11
5999976,41
6000600,29
6001228,43
6001856,48
6002480,51
6003112,48
6003740,47
6004360,12
6004988,38
6005616,55
6006244,40
6006876,50
6007496,70
6008128,80
6008752,77
6009376,57
6010008,50
6010624,58
6011256,65
6011884,63
6012508,65
6013140,71
6013764,79
6014396,67
6015028,35
6015648,16
6016284,19
6016904,39
6017536,19
6018168,40
6018784,49
6019416,50
6020040,47
6020664,23
6021296,12
6021912,11
6022544,11
6023172,13
6023792,21
6024424,45
6025048,58
6025676,49
6026308,46
6026928,69
6027560,67
6028184,57
6028808,44
6029436,38
6030056,62
6030688,68
6031312,47
6031936,14
6032568,22
6033192,44
6033824,25
6034456,39
6035072,48
6035704,49
6036332,50
6036964,53
6037592,54
6038216,42
6038848,30
6039476,22
6040100,35
6040732,42
6041352,53
6041984,46
6042608,30
6043232,57
6043864,77
6044488,75
6045120,58
6045748,38
6046368,53
6047000,70
6047624,53
6048256,23
6048884,22
6049504,11
6050136,28
6050760,18
6051384,45
6052016,48
6052632,49
6053264,49
6053896,28
6054512,19
6055144,29
6055768,40
6056400,53
6057028,51
6057648,53
6058280,56
6058904,48
6059528,44
6060160,61
6060776,78
6061412,81
6062036,73
6062664,49
6063292,50
6063912,60
6064544,49
6065176,29
6065792,17
6066424,14
6067048,12
6067680,33
6068308,44
6068928,47
6069556,55
6070184,59
6070808,30
6071440,20
6072056,20
6072688,23
6073312,40
6073936,48
6074568,60
6075184,60
6075816,41
6076448,46
6077072,77
6077704,69
6078328,50
6078960,61
6079592,83
6080212,85
6080840,75
6081464,57
6082088,43
6082720,27
6083336,22
6083968,42
6084592,46
6085216,51
6085844,55
6086468,56
6087100,61
6087732,48
6088352,32
6088980,24
6089604,19
6090236,28
6090868,36
6091488,35
6092120,48
6092744,42
6093368,58
6094000,75
6094620,71
6095248,67
6095880,40
6096500,43
6097132,61
6097756,68
6098388,43
6099016,32
6099640,12
6100272,37
6100896,20
6101520,39
6102152,48
6102772,48
6103404,47
6104028,26
6104652,32
6105284,32
6105904,27
6106536,27
6107164,31
6107784,44
6108416,43
6109040,38
6109672,45
6110300,61
6110924,71
6111552,61
6112180,48
6112804,45
6113436,59
6114056,63
6114688,38
6115312,23
6115936,11
6116568,32
6117192,38
6117824,41
6118456,54
6119072,49
6119704,49
6120328,53
6120960,53
6121588,50
6122208,42
6122840,14
6123468,16
6124092,50
6124724,92
6125344,94
6125976,48
6126608,50
6127228,58
6127856,66
6128484,70
6129116,74
6129748,79
6130368,85
6131000,73
6131628,37
6132252,30
6132884,14
6133504,23
6134136,26
6134760,39
6135388,50
6136020,48
6136644,51
6137276,36
6137908,42
6138528,33
6139164,17
6139788,17
6140420,34
6141052,53
6141676,54
6142308,49
6142932,45
6143560,61
6144192,75
6144816,83
6145444,79
6146072,62
6146692,64
6147320,69
6147944,49
6148572,26
6149204,10
6149824,48
6150452,77
6151076,44
6151700,47
6152332,46
6152952,51
6153584,53
6154208,26
6154832,25
6155460,19
6156080,13
6156708,17
6157340,24
6157960,35
6158592,37
6159216,28
6159844,47
6160476,56
6161096,71
6161724,61
6162348,52
6162972,50
6163604,55
6164224,52
6164856,16
6165476,10
6166100,11
6166732,19
6167352,17
6167984,45
6168612,49
6169232,49
6169864,49
6170488,36
6171116,15
6171748,22
6172368,27
6172996,21
6173624,41
6174248,58
6174876,54
6175496,55
6176128,41
6176748,71
6177376,77
6178004,69
6178628,57
6179260,52
6179888,62
6180508,56
6181136,48
6181760,24
6182392,13
6183024,25
6183644,35
6184272,23
6184900,40
6185524,49
6186156,47
6186776,51
6187408,26
6188036,24
6188656,23
6189288,15
6189912,18
6190544,16
6191172,27
6191792,34
6192424,35
6193048,42
6193676,55
6194308,56
6194928,52
6195560,36
6196184,44
6196808,63
6197436,66
6198056,44
6198688,21
6199316,10
6199936,40
6200568,47
6201192,42
6201824,47
6202452,50
6203072,51
6203704,46
6204328,15
6204952,13
6205584,18
6206200,25
6206832,30
6207456,41
6208080,46
6208708,44
6209328,24
6209956,59
6210588,66
6211208,72
6211836,74
6212464,79
6213096,80
6213724,76
6214344,42
6214976,13
6215600,25
6216224,38
6216856,58
6217472,33
6218104,41
6218728,51
6219352,53
6219984,50
6220604,23
6221236,12
6221864,10
6222488,14
6223120,13
6223744,27
6224376,49
6225008,48
6225624,47
6226256,46
6226880,51
6227504,64
6228132,57
6228752,47
6229384,25
6230008,59
6230632,82
6231264,72
6231888,45
6232520,30
6233148,11
6233768,15
6234396,34
6235024,50
6235652,51
6236284,49
6236904,48
6237532,55
6238160,41
6238784,40
6239416,57
6240036,68
6240664,63
6241292,66
6241912,73
6242544,69
6243168,47
6243800,62
6244428,70
6245048,65
6245680,50
6246304,49
6246928,69
6247560,88
6248176,47
6248808,28
6249432,11
6250056,29
6250684,18
6251304,48
6251936,47
6252564,49
6253184,48
6253816,37
6254440,41
6255068,41
6255700,32
6256320,24
6256948,45
6257576,58
6258200,53
6258832,50
6259448,43
6260076,50
6260704,60
6261328,62
