tempo_arduino_micro_s,valor_ADC
500,23
1004,14
1504,12
2000,10
2508,10
3000,10
3508,9
4000,19
4504,16
5000,14
5500,35
6000,34
6500,38
7000,38
7500,40
8000,22
8500,18
9000,19
9500,13
10000,10
10508,14
11028,10
11556,16
12076,27
12604,20
13124,13
13652,42
14172,45
14700,39
15220,36
15748,37
16268,28
16796,33
17316,41
17836,37
18356,31
18876,18
19396,13
19916,14
20436,10
20956,11
21476,10
21996,32
22516,33
23036,34
23564,35
24084,34
24612,23
25132,18
25660,14
26180,10
26708,11
27228,11
27756,17
28276,25
28804,26
29324,33
29852,33
30372,35
30900,33
31420,36
31948,36
32472,39
32996,36
33516,40
34044,48
34564,48
35092,41
35612,11
36140,20
36660,23
37188,28
37708,17
38236,14
38760,38
39284,32
39804,35
40332,34
40852,35
41372,17
41892,12
42412,11
42932,10
43452,10
43972,10
44492,12
45012,18
45532,28
46052,42
46572,32
47092,36
47612,49
48140,51
48660,58
49188,54
49708,42
50236,27
50756,21
51284,17
51804,18
52332,11
52852,13
53380,11
53900,18
54428,19
54948,14
55476,39
55996,40
56524,37
57044,37
57572,34
58096,16
58620,21
59140,22
59668,20
60188,20
60716,23
61240,18
61764,18
62284,16
62812,27
63332,23
63860,34
64384,37
64908,34
65428,35
65948,36
66468,26
66988,31
67508,47
68028,53
68548,41
69068,16
69588,11
70108,11
70628,12
71148,10
71672,20
72192,35
72716,35
73236,34
73764,36
74284,36
74812,17
75332,36
75860,38
76384,23
76908,10
77428,11
77956,12
78480,16
79004,17
79528,20
80052,28
80572,35
81100,34
81620,35
82148,36
82668,45
83196,57
83720,60
84244,58
84764,42
85292,29
85812,18
86340,17
86860,17
87388,12
87908,20
88436,15
88956,29
89484,39
90008,46
90524,47
91044,42
91564,39
92084,26
92604,15
93124,10
93644,14
94164,13
94684,11
95204,20
95724,28
96248,20
96764,16
97292,47
97812,52
98340,39
98864,34
99388,41
99908,18
100436,29
101000,78
101584,80
102156,43
102736,32
103304,14
103880,24
104456,24
105024,13
105600,30
106168,33
106744,33
107312,36
107896,27
108464,22
109040,21
109624,12
110192,9
110716,13
111292,24
111872,31
112444,26
113024,27
113592,32
114172,41
114752,56
115324,55
115904,49
116472,49
117056,45
117624,43
118208,31
118776,12
119352,14
119936,30
120508,68
121088,63
121656,22
122240,39
122808,39
123388,38
123968,35
124536,27
125120,17
125688,19
126272,11
126840,14
127424,13
127996,11
128572,25
129152,22
129720,13
130296,33
130864,35
131448,41
132016,49
132584,53
133160,45
133728,25
134304,25
134876,16
135456,11
136024,16
136608,10
137176,24
137752,34
138336,30
138904,28
139488,33
140060,35
140640,36
141212,28
141784,16
142368,14
142940,14
143520,22
144088,11
144672,23
145240,36
145816,22
146384,13
146960,39
147544,45
148112,38
148696,37
149264,38
149848,25
150416,18
150992,22
151576,23
152148,12
152728,12
153300,11
153880,10
154448,21
155032,28
155604,36
156176,33
156760,46
157332,44
157912,24
158484,12
159064,17
159636,14
160212,10
160792,12
161360,20
161944,34
162512,40
163096,33
163668,33
164248,40
164816,44
165384,44
165960,43
166528,43
167112,42
167680,44
168256,34
168824,18
169408,13
169976,15
170544,47
171120,65
171688,41
172272,29
172840,38
173424,36
173996,34
174572,26
175152,11
175724,26
176304,24
176872,14
177456,19
178024,19
178608,25
179176,25
179756,18
180336,35
180904,40
181488,41
182056,43
182640,41
183208,31
183784,34
184368,41
184936,29
185512,18
186084,14
186664,13
187232,19
187816,29
188384,22
188960,32
189544,38
190112,35
190696,37
191268,22
191848,11
192420,14
192992,13
193568,12
194136,17
194720,17
195288,22
195872,21
196440,21
197024,35
197596,44
198172,46
198752,38
199324,42
199904,42
200476,52
201056,47
201624,35
202200,19
202784,16
203356,10
203936,24
204508,22
205088,15
205656,29
206232,33
206800,39
207376,37
207952,21
208520,11
209104,16
209672,19
210256,15
210824,12
211400,14
211976,29
212544,22
213128,13
213696,37
214280,33
214848,39
215432,35
216000,40
216576,33
217152,40
217724,47
218304,48
218872,28
219456,19
220024,12
220608,13
221176,17
221752,14
222336,30
222908,32
223488,33
224060,36
224640,37
225208,42
225784,27
226368,18
226936,26
227520,35
228088,25
228672,17
229240,14
229824,12
230396,40
230972,50
231552,63
232124,56
232704,41
233276,26
233856,23
234424,34
235004,35
235584,21
236152,10
236736,15
237308,32
237888,29
238460,19
239040,30
239612,35
240188,36
240768,38
241336,19
241920,10
242488,11
243072,10
243644,15
244216,11
244800,16
245368,26
245952,27
246520,15
247104,48
247672,65
248256,49
248824,36
249400,37
249984,13
250552,14
251136,12
251708,35
252288,24
252856,16
253432,16
254016,10
254588,13
255168,22
255740,32
256320,35
256896,33
257472,35
258040,26
258616,23
259192,18
259760,16
260344,19
260912,18
261496,13
262064,19
262640,23
263224,25
263792,34
264376,47
264944,45
265528,44
266100,45
266680,44
267248,46
267824,38
268408,30
268976,12
269560,11
270128,11
270712,17
271284,16
271860,24
272440,34
273008,35
273592,40
274164,35
274744,16
275316,10
275896,15
276468,34
277044,32
277624,32
278196,24
278776,27
279348,26
279928,19
280500,36
281076,40
281656,37
282224,38
282808,34
283376,33
283960,53
284532,40
285112,23
285684,10
286256,14
286840,11
287408,20
287992,20
288564,27
289144,32
289712,32
290288,36
290872,34
291444,20
292024,24
292592,19
293176,12
293748,11
294328,17
294900,21
295472,26
296056,27
296624,19
297208,39
297776,46
298360,51
298932,48
299508,43
300088,29
300660,34
301240,36
301812,33
302392,19
302972,18
303552,16
304124,13
304700,14
305280,32
305852,38
306432,35
307012,41
307592,46
308168,32
308744,25
309328,20
309900,16
310480,17
311048,29
311632,34
312204,18
312784,25
313360,26
313932,34
314512,41
315084,43
315664,49
316236,49
316816,53
317388,67
317964,58
318544,28
319116,20
319696,35
320276,30
320856,28
321424,18
322000,32
322584,34
323152,35
323736,34
324308,34
324888,12
325456,13
326040,13
326612,14
327184,12
327768,19
328336,23
328912,16
329480,21
330064,14
330632,44
331216,52
331792,41
332360,40
332944,26
333512,24
334088,33
334656,29
335232,23
335800,11
336376,11
336960,15
337528,17
338104,14
338672,33
339256,34
339824,34
340408,35
340976,35
341552,16
342136,15
342708,19
343288,19
343856,14
344440,16
345008,27
345584,34
346168,30
346740,16
347320,38
347892,51
348472,52
349040,44
349624,44
350192,46
350772,39
351352,39
351924,28
352504,15
353080,14
353664,15
354232,26
354812,22
355392,32
355964,35
356544,36
357116,36
357696,34
358276,20
358856,23
359440,18
360008,14
360592,13
361160,18
361744,28
362312,32
362896,24
363464,22
364044,41
364624,44
365196,43
365776,39
366348,32
366928,28
367500,39
368080,39
368656,29
369224,22
369808,16
370376,11
370960,16
371532,15
372112,31
372684,31
373260,35
373840,40
374408,35
374992,13
375564,10
376144,11
376716,13
377296,23
377872,24
378444,25
379024,26
379596,29
380176,31
380748,33
381328,40
381908,42
382484,45
383064,45
383636,49
384216,51
384792,37
385376,16
385944,10
386520,11
387104,11
387676,18
388256,16
388824,30
389408,33
389980,35
390560,33
391128,36
391708,17
392288,21
392856,20
393440,12
394012,10
394592,17
395164,29
395740,31
396320,24
396892,29
397472,39
398044,43
398624,44
399196,45
399776,55
400356,54
400928,42
401512,30
402084,18
402664,10
403236,11
403816,22
404388,20
404964,15
405544,32
406116,32
406696,34
407268,36
407848,29
408420,14
409000,13
409572,12
410148,11
410728,16
411296,20
411872,27
412440,29
413024,27
413592,32
414172,42
414752,48
415320,50
415904,55
416476,69
417056,52
417624,21
418208,12
418776,11
419352,10
419936,11
420504,11
421088,11
421656,14
422240,33
422808,35
423384,35
423968,35
424540,32
425120,20
425688,15
426272,20
426840,33
427424,41
427996,33
428572,33
429152,26
429724,20
430304,32
430876,46
431456,47
432028,46
432600,40
433184,35
433756,34
434336,39
434908,39
435488,23
436056,16
436640,11
437208,20
437784,20
438368,14
438940,32
439520,33
440092,33
440672,35
441240,24
441820,12
442400,11
442968,12
443552,11
444124,18
444704,19
445276,26
445856,26
446436,24
447012,30
447592,41
448164,41
448744,40
449312,38
449896,25
450468,31
451044,38
451624,43
452192,26
452776,12
453348,13
453928,29
454496,21
455080,15
455652,32
456228,34
456808,35
457376,37
457960,25
458532,24
459112,16
459684,11
460260,10
460840,15
461408,20
461984,26
462556,24
463136,20
463708,32
464288,37
464856,45
465432,42
466016,38
466584,31
467168,33
467740,35
468320,34
468892,22
469468,14
470048,11
470620,18
471200,17
471768,16
472352,34
472924,33
473504,35
474076,34
474652,19
475232,15
475804,11
476384,9
476904,10
477480,12
478052,15
478632,23
479212,22
479788,22
480368,33
480940,39
481520,40
482088,39
482672,38
483244,26
483816,34
484400,35
484972,17
485552,11
486124,10
486704,11
487276,14
487856,16
488428,17
489000,34
489584,35
490156,36
490736,34
491316,22
491896,18
492472,21
493052,31
493632,28
494200,26
494784,14
495356,17
495936,15
496516,12
497096,44
497672,51
498244,45
498824,42
499396,42
499976,33
500548,50
501128,47
501700,38
502276,20
502856,14
503428,11
504008,10
504576,13
505160,33
505732,36
506312,35
506888,35
507460,44
508040,56
508612,76
509192,62
509772,20
510352,20
510924,11
511500,23
512084,38
512652,30
513232,13
513800,41
514384,40
514952,42
515536,38
516112,38
516680,22
517264,24
517832,34
518416,32
518984,16
519568,11
520140,11
520712,20
521296,19
521864,27
522448,35
523016,35
523600,36
524168,36
524752,15
525328,12
525900,10
526480,16
527048,15
527632,19
528204,31
528784,35
529356,27
529932,14
530512,41
531084,52
531664,50
532244,47
532824,40
533392,38
533972,39
534552,42
535124,37
535704,17
536276,17
536856,31
537428,46
538008,46
538584,32
539160,33
539744,35
540316,36
540896,35
541464,16
542048,13
542620,15
543196,14
543776,13
544348,18
544928,18
545496,11
546080,13
546648,12
547232,32
547804,36
548380,39
548960,39
549532,31
550112,19
550692,37
551272,46
551844,44
552420,24
553000,13
553568,17
554152,30
554724,27
555304,29
555876,30
556456,35
557036,36
557612,34
558192,15
558764,15
559344,12
559916,10
560496,11
561076,18
561652,30
562232,31
562804,29
563384,15
563952,39
564536,41
565104,43
565688,50
566260,44
566836,37
567416,39
567988,39
568568,34
569148,15
569728,11
570300,16
570876,23
571456,21
572028,29
572608,30
573180,34
573760,35
574340,37
574920,13
575496,11
576068,14
576648,11
577216,15
577800,17
578372,22
578952,21
579524,24
580096,26
580680,34
581252,34
581832,35
582404,39
582984,25
583556,21
584136,22
584720,26
585292,24
585872,18
586444,18
587024,13
587596,12
588176,12
588756,30
589332,32
589912,37
590484,34
591064,36
591636,11
592216,12
592796,21
593372,32
593952,26
594524,23
595104,22
595676,19
596256,16
596828,24
597408,47
597980,49
598556,50
599136,50
599708,57
600288,63
600868,53
601448,45
602020,39
602596,18
603176,24
603748,52
604328,48
604900,30
605480,29
606052,33
606632,39
607212,43
607788,38
608372,20
608940,12
609520,11
610100,10
610680,20
611260,14
611836,19
612420,23
612992,17
613568,33
614144,48
614724,48
615296,49
615880,45
616456,40
617024,35
617608,43
618176,42
618760,23
619332,13
619912,19
620492,17
621068,18
621648,21
622220,27
622800,32
623372,36
623952,37
624532,30
625108,18
625688,21
626260,21
626840,11
627412,21
627992,28
628564,27
629144,25
629716,49
630292,52
630872,34
631448,35
632024,37
632604,35
633184,19
633764,26
634340,32
634920,29
635492,26
636072,19
636648,10
637224,22
637804,20
638384,15
638964,32
639540,33
640124,36
640692,35
641272,21
641844,15
642424,16
642992,14
643572,10
644152,14
644724,14
645304,20
645872,19
646456,17
647024,35
647608,43
648180,48
648752,48
649336,47
649908,48
650488,43
651056,42
651640,29
652212,11
652788,10
653368,12
653940,12
654520,15
655092,18
655672,33
656252,33
656832,33
657400,37
657976,19
658560,12
659128,11
659712,11
660280,11
660864,15
661432,26
662012,40
662592,35
663164,24
663744,38
664316,47
664896,48
665468,57
666048,57
666616,66
667192,54
667776,50
668348,44
668928,31
669496,12
670080,25
670648,41
671228,50
671808,42
672380,34
672960,35
673528,38
674112,37
674684,22
675264,16
675832,14
676412,11
676992,11
677560,13
678144,18
678716,27
679296,23
679864,16
680444,34
681024,37
681592,38
682176,43
682744,44
683328,40
683900,46
684480,48
685048,48
685624,27
686208,14
686776,10
687360,19
687928,22
688512,24
689084,36
689660,35
690240,38
690812,42
691392,46
691960,26
692544,11
693112,14
693696,12
694280,12
694852,14
695432,18
696004,18
696584,15
697152,38
697736,47
698304,47
698884,45
699464,43
700036,42
700616,45
701188,38
701768,19
702348,20
702928,31
703512,31
704084,33
704664,23
705232,31
705816,34
706388,33
706968,37
707548,34
708124,15
708704,11
709276,10
709856,12
710428,15
711008,15
711580,34
712156,50
712736,37
713308,18
713888,33
714460,39
715040,39
715620,39
716200,37
716780,36
717356,38
717936,36
718508,32
719088,23
719660,15
720240,11
720808,18
721384,16
721968,32
722540,33
723120,33
723692,35
724272,37
724844,18
725424,11
725996,10
726572,11
727152,10
727724,14
728304,28
728876,34
729456,31
730036,23
730612,34
731192,43
731764,46
732344,41
732916,35
733496,36
734068,32
734648,43
735228,53
735804,45
736384,37
736956,12
737536,18
738116,30
738696,31
739268,33
739844,33
740424,37
740996,42
741576,44
742148,40
742728,40
743304,32
743888,29
744464,33
745036,37
745616,32
746188,24
746768,18
747340,33
747920,38
748500,38
749076,39
749656,38
750228,39
750808,45
751388,43
751968,34
752548,19
753124,18
753704,11
754276,24
754856,22
755428,29
756008,33
756580,35
757160,34
757740,34
758316,11
758896,12
759468,14
760048,15
760628,11
761208,11
761788,30
762364,43
762944,33
763516,27
764096,57
764672,56
765248,43
765828,41
766408,40
766992,37
767568,36
768148,30
768716,12
769296,12
769864,12
770448,23
771020,37
771596,27
772176,29
772748,30
773328,35
773908,35
774488,30
775068,11
775644,25
776224,25
776796,14
777376,20
777948,26
778528,33
779108,29
779688,32
780268,33
780844,33
781424,36
781996,40
782576,36
783156,27
783736,33
784316,44
784892,46
785472,32
786044,23
786624,13
787196,14
787780,16
788356,15
788936,30
789520,32
790092,33
790672,36
791244,28
791824,31
792396,25
792976,16
793556,11
794132,13
794712,13
795288,18
795864,21
796436,20
797016,35
797596,45
798172,43
798752,46
799328,51
799904,38
800480,33
801056,37
801628,43
802208,35
802780,24
803356,11
803936,32
804508,32
805088,15
805660,37
806240,33
806812,33
807388,35
807968,27
808540,26
809120,13
809688,18
810272,21
810844,12
811424,28
812004,46
812580,37
813160,30
813732,33
814312,42
814892,46
815472,43
816044,42
816620,36
817200,35
817772,27
818352,28
818928,18
819504,13
820080,12
820664,15
821232,13
821808,27
822392,39
822964,33
823544,35
824116,38
824696,26
825264,31
825844,30
826424,18
826992,16
827576,35
828144,34
828728,25
829300,22
829880,19
830448,35
831024,43
831608,51
832180,48
832760,36
833328,18
833912,28
834484,35
835056,39
835640,23
836208,15
836792,10
837364,11
837944,11
838516,33
839096,41
839668,32
840244,51
840824,43
841392,15
841976,12
842544,10
843128,21
843700,22
844272,22
844856,23
845424,27
846000,38
846568,35
847152,33
847724,47
848304,47
848872,45
849448,43
850032,46
850600,47
851184,51
851756,51
852336,33
852908,26
853480,17
854064,11
854636,10
855216,33
855788,35
856368,37
856940,61
857520,59
858100,37
858676,35
859256,22
859828,13
860408,16
860984,25
861568,23
862140,31
862716,46
863296,31
863868,33
864448,50
865020,65
865600,51
866168,34
866752,13
867324,32
867900,43
868480,34
869052,11
869632,9
870152,10
870728,16
871304,11
871888,32
872464,33
873036,34
873616,34
874184,36
874768,15
875340,17
875920,14
876492,10
877068,11
877648,14
878220,26
878800,43
879372,36
879952,24
880532,35
881108,45
881688,49
882256,48
882840,52
883412,53
883992,46
884564,26
885144,17
885716,11
886292,11
886872,13
887444,26
888024,16
888592,30
889176,33
889748,33
890324,35
890904,36
891476,13
892056,15
892628,15
893208,18
893788,15
894368,21
894948,23
895524,28
896104,27
896676,18
897256,31
897828,39
898408,42
898980,41
899556,27
900136,25
900708,35
901288,33
901860,31
902440,16
903008,13
903592,11
904164,16
904736,12
905320,30
905892,32
906472,33
907052,35
907632,35
908204,12
908780,10
909360,10
909932,10
910512,14
911084,27
911664,35
912244,30
912824,27
913396,17
913972,32
914552,45
915124,49
915704,61
916284,57
916864,43
917444,29
918020,24
918600,20
919172,15
919752,14
920328,10
920904,14
921476,20
922060,30
922640,35
923212,37
923792,41
924364,37
924944,13
925516,11
926096,11
926676,12
927252,11
927832,14
928404,39
928984,32
929556,19
930136,21
930708,34
931284,37
931864,35
932436,36
933016,18
933588,27
934168,38
934748,36
935328,26
935900,15
936476,12
937056,12
937628,19
938208,20
938780,29
939360,31
939940,34
940516,32
941096,38
941672,24
942248,22
942820,13
943400,27
943972,17
944556,13
945132,22
945708,23
946288,26
946860,29
947440,41
948020,46
948600,39
949172,36
949748,19
950328,22
950904,33
951480,40
952056,28
952632,15
953212,10
953792,18
954376,20
954948,15
955528,31
956100,32
956680,34
957260,33
957844,31
958420,10
958996,14
959580,18
960152,15
960728,16
961300,17
961880,24
962452,24
963028,19
963608,32
964180,40
964760,47
965332,45
965912,42
966484,41
967064,45
967636,48
968212,36
968792,15
969364,10
969944,11
970524,28
971104,30
971684,17
972260,32
972840,31
973412,34
973992,36
974564,25
975144,22
975716,23
976296,22
976876,16
977452,19
978032,13
978604,19
979184,35
979756,39
980336,32
980916,40
981492,40
982072,37
982648,41
983224,31
983796,30
984376,23
984948,24
985528,19
986100,15
986672,11
987256,13
987828,12
988408,16
988976,35
989560,33
990132,34
990708,34
991288,19
991860,14
992440,13
993012,12
993592,11
994172,22
994752,26
995324,31
995900,25
996480,19
997052,36
997632,43
998212,44
998792,47
999372,43
999948,39
1000528,31
1001144,32
1001772,35
1002396,23
1003020,17
1003648,12
1004264,19
1004892,17
1005516,31
1006140,31
1006768,37
1007384,35
1008012,16
1008636,26
1009264,27
1009892,11
1010516,10
1011148,24
1011776,29
1012396,28
1013024,26
1013648,30
1014276,41
1014908,44
1015528,36
1016156,32
1016780,28
1017404,36
1018036,30
1018656,20
1019284,11
1019916,10
1020536,27
1021164,30
1021788,20
1022420,31
1023052,35
1023672,36
1024304,36
1024924,12
1025544,12
1026172,11
1026788,12
1027416,19
1028040,24
1028660,37
1029288,33
1029908,20
1030536,36
1031160,40
1031780,39
1032412,37
1033032,30
1033660,34
1034288,40
1034904,36
1035532,22
1036156,13
1036784,11
1037412,14
1038032,15
1038660,29
1039284,32
1039904,33
1040536,33
1041152,32
1041780,11
1042400,10
1043024,10
1043652,10
1044272,12
1044900,17
1045528,19
1046144,22
1046772,17
1047396,41
1048024,44
1048652,38
1049272,35
1049900,14
1050520,17
1051144,31
1051772,30
1052392,15
1053020,11
1053644,19
1054264,27
1054892,40
1055508,35
1056140,32
1056760,35
1057384,35
1058012,17
1058636,15
1059264,13
1059892,11
1060512,12
1061140,15
1061760,17
1062392,17
1063020,16
1063640,34
1064268,39
1064892,49
1065516,48
1066144,45
1066760,38
1067388,36
1068012,36
1068632,30
1069264,13
1069880,11
1070508,18
1071136,20
1071760,17
1072388,31
1073012,31
1073640,33
1074268,34
1074888,12
1075516,10
1076140,12
1076760,19
1077392,16
1078008,11
1078636,23
1079260,33
1079880,23
1080512,29
1081128,33
1081756,38
1082384,38
1083008,39
1083636,45
1084260,52
1084888,58
1085516,26
1086136,11
1086764,20
1087388,25
1088008,20
1088636,30
1089256,30
1089884,33
1090508,36
1091128,34
1091760,44
1092376,36
1093004,17
1093628,10
1094256,12
1094884,20
1095508,27
1096136,30
1096764,22
1097384,35
1098012,45
1098636,47
1099264,41
1099892,28
1100512,35
1101140,40
1101764,37
1102388,17
1103016,16
1103636,11
1104264,12
1104888,13
1105508,30
1106140,32
1106764,34
1107392,34
1108020,28
1108640,43
1109268,37
1109892,28
1110520,26
1111148,27
1111768,37
1112396,35
1113020,24
1113644,35
1114276,48
1114896,54
1115524,48
1116148,41
1116772,36
1117404,37
1118028,43
1118656,38
1119288,22
1119904,10
1120536,27
1121160,29
1121788,18
1122416,33
1123040,33
1123668,32
1124292,35
1124916,18
1125544,19
1126168,11
1126796,11
1127420,16
1128048,27
1128676,34
1129296,26
1129924,24
1130556,28
1131176,34
1131804,35
1132428,34
1133060,26
1133688,29
1134304,35
1134932,40
1135556,18
1136180,12
1136812,10
1137432,13
1138060,13
1138684,30
1139312,32
1139940,34
1140564,34
1141192,27
1141824,10
1142440,11
1143068,11
1143692,10
1144320,15
1144952,19
1145568,17
1146200,17
1146824,25
1147448,39
1148076,38
1148696,37
1149324,39
1149948,48
1150576,57
1151204,60
1151828,38
1152460,11
1153088,19
1153704,31
1154336,19
1154956,13
1155588,31
1156216,37
1156832,36
1157460,33
1158084,31
1158708,51
1159336,43
1159952,25
1160584,21
1161208,30
1161828,41
1162460,27
1163084,13
1163712,39
1164340,43
1164960,41
1165588,44
1166212,45
1166840,45
1167468,45
1168088,43
1168716,29
1169336,19
1169960,12
1170592,16
1171208,23
1171836,25
1172460,32
1173084,34
1173716,34
1174340,36
1174968,13
1175596,10
1176216,11
1176844,13
1177468,13
1178100,16
1178728,25
1179348,35
1179976,40
1180600,29
1181224,38
1181852,39
1182472,41
1183100,36
1183724,39
1184352,34
1184980,33
1185604,20
1186232,12
1186860,11
1187480,19
1188108,11
1188732,32
1189364,34
1189992,34
1190608,32
1191240,32
1191860,30
1192484,21
1193116,18
1193736,17
1194364,15
1194988,19
1195612,28
1196244,28
1196864,28
1197496,41
1198124,55
1198744,53
1199372,42
1199996,27
1200628,31
1201260,32
1201880,21
1202508,12
1203132,10
1203756,18
1204388,24
1205008,15
1205636,31
1206260,33
1206884,34
1207516,34
1208140,22
1208768,34
1209396,21
1210016,13
1210644,16
1211268,19
1211900,24
1212528,21
1213148,16
1213776,36
1214400,39
1215024,40
1215652,41
1216272,47
1216900,51
1217524,52
1218148,46
1218776,29
1219400,20
1220032,15
1220660,13
1221280,17
1221908,28
1222532,31
1223164,34
1223792,33
1224416,33
1225044,33
1225668,41
1226292,19
1226924,12
1227544,22
1228172,34
1228800,44
1229420,28
1230048,14
1230672,49
1231300,47
1231932,40
1232552,39
1233180,29
1233804,27
1234432,39
1235064,41
1235680,27
1236308,16
1236932,21
1237556,43
1238184,25
1238808,32
1239436,37
1240060,34
1240688,33
1241316,35
1241940,31
1242568,13
1243196,13
1243816,11
1244444,26
1245068,46
1245700,31
1246328,16
1246944,32
1247576,48
1248200,43
1248824,38
1249452,38
1250072,33
1250700,43
1251324,49
1251952,34
1252580,11
1253204,12
1253836,22
1254464,23
1255080,16
1255708,32
1256332,32
1256960,34
1257588,32
1258208,16
1258836,13
1259460,11
1260084,11
1260716,12
1261336,16
1261964,22
1262588,24
1263216,20
1263844,32
1264472,44
1265100,47
1265732,39
1266352,37
1266984,33
1267608,40
1268232,40
1268860,14
1269480,15
1270108,18
1270732,23
1271356,21
1271988,30
1272608,32
1273236,36
1273868,35
1274488,33
1275116,17
1275740,13
1276372,12
1277004,10
1277624,11
1278252,18
1278880,27
1279504,31
1280136,22
1280748,38
1281376,43
1282000,44
1282620,49
1283248,31
1283864,28
1284492,29
1285112,39
1285736,36
1286368,29
1286988,20
1287616,32
1288248,25
1288864,28
1289492,32
1290116,33
1290744,35
1291372,24
1291992,12
1292620,18
1293244,12
1293864,12
1294496,41
1295112,64
1295740,48
1296364,35
1296988,34
1297616,48
1298232,42
1298860,37
1299492,34
1300112,29
1300740,40
1301364,44
1301992,44
1302620,26
1303240,11
1303868,23
1304492,25
1305116,18
1305748,33
1306368,32
1306996,33
1307620,35
1308244,23
1308872,28
1309488,19
1310116,11
1310748,11
1311364,16
1311992,25
1312616,29
1313248,19
1313876,34
1314496,42
1315124,46
1315744,47
1316368,47
1316996,40
1317616,49
1318244,51
1318868,38
1319488,21
1320116,10
1320736,23
1321364,23
1321992,29
1322608,35
1323236,42
1323860,35
1324488,32
1325116,14
1325736,21
1326364,24
1326988,16
1327616,24
1328244,29
1328860,25
1329492,24
1330116,19
1330736,36
1331368,44
1331984,42
1332612,45
1333232,37
1333856,32
1334484,42
1335104,36
1335732,23
1336360,16
1336980,15
1337612,21
1338232,16
1338860,29
1339488,35
1340112,37
1340740,34
1341364,17
1341988,11
1342616,15
1343232,18
1343864,11
1344488,33
1345108,58
1345736,48
1346360,38
1346988,33
1347616,34
1348232,37
1348860,44
1349484,48
1350112,50
1350740,52
1351360,37
1351988,23
1352612,11
1353236,13
1353864,15
1354480,14
1355108,20
1355732,33
1356356,36
1356984,39
1357600,42
1358228,23
1358856,14
1359480,13
1360108,10
1360728,13
1361360,22
1361988,34
1362608,30
1363236,18
1363856,35
1364484,46
1365112,41
1365728,42
1366356,42
1366980,40
1367604,30
1368232,19
1368856,12
1369484,11
1370108,10
1370736,17
1371364,11
1371988,41
1372616,43
1373248,33
1373864,36
1374492,31
1375116,12
1375744,18
1376376,23
1376992,29
1377620,35
1378244,29
1378868,27
1379496,22
1380112,18
1380740,40
1381364,45
1381988,45
1382620,39
1383240,33
1383868,39
1384500,31
1385120,32
1385748,27
1386372,20
1387000,12
1387628,16
1388248,14
1388876,33
1389500,31
1390124,44
1390752,41
1391368,28
1391996,22
1392620,17
1393248,13
1393876,14
1394500,18
1395128,30
1395756,35
1396376,28
1397004,31
1397628,40
1398256,46
1398888,45
1399504,44
1400132,35
1400756,39
1401380,43
1402012,28
1402632,12
1403260,11
1403884,11
1404508,12
1405136,23
1405760,33
1406388,33
1407020,34
1407640,36
1408272,18
1408892,16
1409520,12
1410148,11
1410768,12
1411396,13
1412020,14
1412644,14
1413272,13
1413888,37
1414516,47
1415140,45
1415764,37
1416392,14
1417008,11
1417636,19
1418264,26
1418888,13
1419516,11
1420140,16
1420768,15
1421400,11
1422016,31
1422648,34
1423272,33
1423896,33
1424524,26
1425144,14
1425772,25
1426396,23
1427020,15
1427652,14
1428272,13
1428900,11
1429532,18
1430152,27
1430780,32
1431408,34
1432036,34
1432668,44
1433288,44
1433916,27
1434540,21
1435164,31
1435796,10
1436416,15
1437044,29
1437668,28
1438292,14
1438920,33
1439536,31
1440168,32
1440796,32
1441416,14
1442044,12
1442664,15
1443296,16
1443924,12
1444540,25
1445172,51
1445792,49
1446416,22
1447044,38
1447664,48
1448292,44
1448916,43
1449540,39
1450168,28
1450784,23
1451412,21
1452044,22
1452664,15
1453292,10
1453916,17
1454548,28
1455176,27
1455792,33
1456424,33
1457048,35
1457668,35
1458300,14
1458920,13
1459548,11
1460172,11
1460796,14
1461424,16
1462040,26
1462672,33
1463300,23
1463920,34
1464548,51
1465172,50
1465804,47
1466432,37
1467048,34
1467680,32
1468304,21
1468932,10
1469560,12
1470184,11
1470812,19
1471436,14
1472060,33
1472692,32
1473312,34
1473940,35
1474572,30
1475188,25
1475820,15
1476444,11
1477072,11
1477700,18
1478320,27
1478948,29
1479572,25
1480200,27
1480828,44
1481448,46
1482076,56
1482700,40
1483324,31
1483952,34
1484576,47
1485204,37
1485836,16
1486456,15
1487084,34
1487708,25
1488336,15
1488964,35
1489584,34
1490212,37
1490836,39
1491460,19
1492092,11
1492712,12
1493340,11
1493964,21
1494588,17
1495216,18
1495840,23
1496468,22
1497096,36
1497720,53
1498348,53
1498972,43
1499600,41
1500228,46
1500848,47
1501476,37
1502100,17
1502728,41
1503356,15
1503976,18
1504608,22
1505232,28
1505856,33
1506484,32
1507104,33
1507732,32
1508364,14
1508984,15
1509612,22
1510236,24
1510868,20
1511500,22
1512120,33
1512748,34
1513372,15
1514000,41
1514628,44
1515248,47
1515876,50
1516500,49
1517124,43
1517756,38
1518376,31
1519008,24
1519636,25
1520256,13
1520884,19
1521508,21
1522136,28
1522768,31
1523384,34
1524016,34
1524640,25
1525260,14
1525892,10
1526512,11
1527140,17
1527764,31
1528388,42
1529020,57
1529640,51
1530268,33
1530900,40
1531520,45
1532148,45
1532776,50
1533404,47
1534036,52
1534656,62
1535288,52
1535912,25
1536536,13
1537168,32
1537784,40
1538412,17
1539036,36
1539656,33
1540288,33
1540904,38
1541532,34
1542164,32
1542784,32
1543412,23
1544036,14
1544664,15
1545292,29
1545912,32
1546540,14
1547164,45
1547788,57
1548420,53
1549040,49
1549668,34
1550292,27
1550916,31
1551544,36
1552168,24
1552796,14
1553428,10
1554048,20
1554676,24
1555300,32
1555932,34
1556560,33
1557184,43
1557812,33
1558436,19
1559060,20
1559688,24
1560304,23
1560932,27
1561556,25
1562184,27
1562812,26
1563432,17
1564060,46
1564692,58
1565312,60
1565940,52
1566564,35
1567196,33
1567824,35
1568448,27
1569076,12
1569700,12
1570324,12
1570952,29
1571572,36
1572200,28
1572824,35
1573448,35
1574076,34
1574696,23
1575324,35
1575956,23
1576576,11
1577204,12
1577828,23
1578460,31
1579088,26
1579708,22
1580336,37
1580960,45
1581584,43
1582212,37
1582832,37
1583460,34
1584084,45
1584708,50
1585340,46
1585960,33
1586588,14
1587220,38
1587840,31
1588468,21
1589092,33
1589720,31
1590352,33
1590972,37
1591600,38
1592228,33
1592852,14
1593480,10
1594100,13
1594728,13
1595356,21
1595980,22
1596612,16
1597232,35
1597864,45
1598492,45
1599112,45
1599744,40
1600368,37
1600996,30
1601624,27
1602240,11
1602868,11
1603492,15
1604112,21
1604744,16
1605360,31
1605988,32
1606612,34
1607236,33
1607864,31
1608480,23
1609108,16
1609736,12
1610360,11
1610988,13
1611612,16
1612240,16
1612868,14
1613484,24
1614116,39
1614740,51
1615364,51
1615996,37
1616616,28
1617244,13
1617868,11
1618492,13
1619120,11
1619744,11
1620372,11
1621004,11
1621624,32
1622252,45
1622876,31
1623508,45
1624136,49
1624752,41
1625384,27
1626008,16
1626632,12
1627260,14
1627880,19
1628508,20
1629132,16
1629756,15
1630384,34
1631008,40
1631636,39
1632268,36
1632888,35
1633516,39
1634140,56
1634772,55
1635400,29
1636020,15
1636648,25
1637272,23
1637896,13
1638528,26
1639140,33
1639768,34
1640392,34
1641012,35
1641640,16
1642256,15
1642884,11
1643504,11
1644128,22
1644756,32
1645376,27
1646004,17
1646636,14
1647252,43
1647884,47
1648504,38
1649132,37
1649760,48
1650380,49
1651012,41
1651632,43
1652256,25
1652884,10
1653500,11
1654132,16
1654752,23
1655376,31
1656004,31
1656620,36
1657252,36
1657880,31
1658496,30
1659124,17
1659748,12
1660376,12
1661004,21
1661624,20
1662252,21
1662872,21
1663496,26
1664128,35
1664744,39
1665368,40
1665992,41
1666612,38
1667240,50
1667860,52
1668492,27
1669112,12
1669736,19
1670364,12
1670988,21
1671616,15
1672244,30
1672864,34
1673492,34
1674112,38
1674744,23
1675372,10
1675992,36
1676620,46
1677244,36
1677868,40
1678496,51
1679112,46
1679740,27
1680364,31
1680984,43
1681612,44
1682228,40
1682860,37
1683488,32
1684104,35
1684732,34
1685352,22
1685984,15
1686612,12
1687232,15
1687860,12
1688484,25
1689104,35
1689732,34
1690348,38
1690976,34
1691600,15
1692220,11
1692852,10
1693468,10
1694100,23
1694728,29
1695344,33
1695972,27
1696596,14
1697224,39
1697856,50
1698472,49
1699100,45
1699724,42
1700352,36
1700980,30
1701600,29
1702228,23
1702852,21
1703472,10
1704104,23
1704720,27
1705348,32
1705972,34
1706596,34
1707224,34
1707848,29
1708476,11
1709104,13
1709728,20
1710356,12
1710980,11
1711612,18
1712240,14
1712856,22
1713484,31
1714108,33
1714732,39
1715360,43
1715984,40
1716612,29
1717236,39
1717860,45
1718488,39
1719112,16
1719740,10
1720372,26
1720992,25
1721620,15
1722240,35
1722872,33
1723500,38
1724120,37
1724748,21
1725372,14
1725996,13
1726624,14
1727248,11
1727876,16
1728500,22
1729124,22
1729752,19
1730376,37
1731004,47
1731632,46
1732256,51
1732884,50
1733508,37
1734136,30
1734764,10
1735384,13
1736012,10
1736636,12
1737260,16
1737888,19
1738508,26
1739136,32
1739760,36
1740384,34
1741016,37
1741636,15
1742264,31
1742896,29
1743512,24
1744140,23
1744764,19
1745392,35
1746020,35
1746640,17
1747268,39
1747888,50
1748512,50
1749140,44
1749760,36
1750388,22
1751012,26
1751636,32
1752268,20
1752888,11
1753516,10
1754148,18
1754768,13
1755396,32
1756020,36
1756652,37
1757280,34
1757900,30
1758528,47
1759152,28
1759776,12
1760408,20
1761024,42
1761652,32
1762276,24
1762896,21
1763524,28
1764144,41
1764772,47
1765400,42
1766024,43
1766652,37
1767276,41
1767904,37
1768532,24
1769152,11
1769780,13
1770404,28
1771024,32
1771652,17
1772272,31
1772900,34
1773524,35
1774148,33
1774776,16
1775392,16
1776020,16
1776652,12
1777272,12
1777900,16
1778524,24
1779156,25
1779784,18
1780408,38
1781036,47
1781660,46
1782284,44
1782916,40
1783536,43
1784164,44
1784788,43
1785412,21
1786044,16
1786664,18
1787292,15
1787924,15
1788544,32
1789172,41
1789800,35
1790428,35
1791060,35
1791680,29
1792312,31
1792932,34
1793556,38
1794184,42
1794808,37
1795436,49
1796060,43
1796680,17
1797312,38
1797928,48
1798556,47
1799188,42
1799808,43
1800436,42
1801060,53
1801692,42
1802320,14
1802936,17
1803564,18
1804188,21
1804808,18
1805436,30
1806056,35
1806684,33
1807308,34
1807932,19
1808560,11
1809176,15
1809804,15
1810428,13
1811056,31
1811684,36
1812308,33
1812936,20
1813568,29
1814184,38
1814812,36
1815436,35
1816064,33
1816696,23
1817312,45
1817940,45
1818564,31
1819188,13
1819816,12
1820440,23
1821068,19
1821692,14
1822320,33
1822948,35
1823572,35
1824204,35
1824832,15
1825448,12
1826076,17
1826700,17
1827328,20
1827960,20
1828576,28
1829204,32
1829828,21
1830452,41
1831080,52
1831700,46
1832328,45
1832952,40
1833576,35
1834204,34
1834828,35
1835460,21
1836092,10
1836712,14
1837344,27
1837968,17
1838596,32
1839228,32
1839848,34
1840480,34
1841100,34
1841724,12
1842356,10
1842976,13
1843604,10
1844232,12
1844856,25
1845484,34
1846104,28
1846732,24
1847364,40
1847984,51
1848612,43
1849236,37
1849860,12
1850492,22
1851112,40
1851740,45
1852364,29
1852988,10
1853616,30
1854240,39
1854868,21
1855496,28
1856120,32
1856748,36
1857372,33
1858000,19
1858628,16
1859248,15
1859876,11
1860500,11
1861124,12
1861756,29
1862376,31
1863008,31
1863632,32
1864256,43
1864884,45
1865504,43
1866132,42
1866764,43
1867384,43
1868012,35
1868636,29
1869268,18
1869896,14
1870516,19
1871144,29
1871768,22
1872392,33
1873020,34
1873640,35
1874268,33
1874892,11
1875516,10
1876144,13
1876768,11
1877396,39
1878028,27
1878648,28
1879276,17
1879900,17
1880532,27
1881160,33
1881784,41
1882412,39
1883036,41
1883660,41
1884292,46
1884912,35
1885540,11
1886164,11
1886788,15
1887416,11
1888040,11
1888668,31
1889296,30
1889920,33
1890548,34
1891172,31
1891800,10
1892432,13
1893048,16
1893680,22
1894304,31
1894928,32
1895556,16
1896176,29
1896804,26
1897428,44
1898052,49
1898680,49
1899304,52
1899932,56
1900564,51
1901184,37
1901812,28
1902436,24
1903068,11
1903700,17
1904320,31
1904948,46
1905572,40
1906196,37
1906828,37
1907448,36
1908076,19
1908700,13
1909324,11
1909956,10
1910576,12
1911204,12
1911836,31
1912456,36
1913088,35
1913712,34
1914344,35
1914972,39
1915592,51
1916224,60
1916848,64
1917472,41
1918100,17
1918720,15
1919352,9
1919924,10
1920552,27
1921184,29
1921800,22
1922428,35
1923052,34
1923676,35
1924304,33
1924924,12
1925552,11
1926180,10
1926800,11
1927428,11
1928052,19
1928680,35
1929308,37
1929928,22
1930556,37
1931180,42
1931804,41
1932436,38
1933056,36
1933684,41
1934308,53
1934932,50
1935564,18
1936184,11
1936812,15
1937440,24
1938064,16
1938692,31
1939316,31
1939948,35
1940576,33
1941196,26
1941824,13
1942448,17
1943072,12
1943700,10
1944320,15
1944948,17
1945572,13
1946200,21
1946828,26
1947448,41
1948076,40
1948708,36
1949328,36
1949956,31
1950580,51
1951212,44
1951840,22
1952464,12
1953092,11
1953716,11
1954340,17
1954972,14
1955592,36
1956224,34
1956844,35
1957468,36
1958100,20
1958724,15
1959352,13
1959984,16
1960600,11
1961228,13
1961852,25
1962484,19
1963112,13
1963732,38
1964360,39
1964988,42
1965608,48
1966240,37
1966856,23
1967484,16
1968108,16
1968732,10
1969360,15
1969976,13
1970604,20
1971236,14
1971856,30
1972484,33
1973104,33
1973736,37
1974364,37
1974984,42
1975612,33
1976236,19
1976860,15
1977492,18
1978112,19
1978740,24
1979364,18
1979988,14
1980620,44
1981240,45
1981868,44
1982500,54
1983120,57
1983748,35
1984376,23
1985004,21
1985632,10
1986248,10
1986880,13
1987504,19
1988124,18
1988756,29
1989376,33
1990004,33
1990628,34
1991252,21
1991884,25
1992504,23
1993132,23
1993764,22
1994384,24
1995012,21
1995636,20
1996268,18
1996900,32
1997520,44
1998148,43
1998772,43
1999396,40
2000024,27
2000644,38
2001276,44
2001896,44
2002520,22
2003152,19
2003768,35
2004400,31
2005028,16
2005648,32
2006276,35
2006900,33
2007532,36
2008160,19
2008776,19
2009408,20
2010032,15
2010652,15
2011284,20
2011904,27
2012532,26
2013156,18
2013780,33
2014412,39
2015032,41
2015660,46
2016292,42
2016912,37
2017540,35
2018164,32
2018792,20
2019424,17
2020040,14
2020672,15
2021296,23
2021920,31
2022548,34
2023168,34
2023796,34
2024420,33
2025044,19
2025672,10
2026296,11
2026924,13
2027556,10
2028176,16
2028804,27
2029428,33
2030056,26
2030688,32
2031304,43
2031936,45
2032560,45
2033184,29
2033812,22
2034432,20
2035060,25
2035688,13
2036312,11
2036940,11
2037560,16
2038192,13
2038820,28
2039440,33
2040068,38
2040692,40
2041324,19
2041956,10
2042576,13
2043204,20
2043828,14
2044456,14
2045084,33
2045704,31
2046336,25
2046960,35
2047584,47
2048216,55
2048836,53
2049464,58
2050092,56
2050708,57
2051336,46
2051960,18
2052588,13
2053216,28
2053832,58
2054460,50
2055080,24
2055704,34
2056332,34
2056948,33
2057580,35
2058204,16
2058824,13
2059452,11
2060072,12
2060700,14
2061328,19
2061944,27
2062576,31
2063196,25
2063828,35
2064456,42
2065072,46
2065700,44
2066324,48
2066948,53
2067580,50
2068200,38
2068828,11
2069448,23
2070072,21
2070700,26
2071320,28
2071948,31
2072572,33
2073200,37
2073828,43
2074452,38
2075080,13
2075708,10
2076328,12
2076956,15
2077580,19
2078208,27
2078836,38
2079456,43
2080084,22
2080704,46
2081328,57
2081956,49
2082572,38
2083204,23
2083824,29
2084448,33
2085076,30
2085700,13
2086328,13
2086956,10
2087576,13
2088204,12
2088828,30
2089456,32
2090084,35
2090704,34
2091332,17
2091956,21
2092580,25
2093208,19
2093824,17
2094452,15
2095076,19
2095700,23
2096328,17
2096944,36
2097572,46
2098204,42
2098824,38
2099452,37
2100076,23
2100704,32
2101332,38
2101952,24
2102580,12
2103204,11
2103824,27
2104456,27
2105072,17
2105700,31
2106324,33
2106948,35
2107576,34
2108192,13
2108824,16
2109452,18
2110072,15
2110700,17
2111324,27
2111956,36
2112584,36
2113208,21
2113836,35
2114460,43
2115084,37
2115712,41
2116328,43
2116960,49
2117580,49
2118204,41
2118836,40
2119456,37
2120084,23
2120712,24
2121336,37
2121964,30
2122588,35
2123216,34
2123848,34
2124464,37
2125092,32
2125716,21
2126340,17
2126972,11
2127592,12
2128220,37
2128844,58
2129468,44
2130096,18
2130712,33
2131344,35
2131964,39
2132592,38
2133220,31
2133844,38
2134472,38
2135100,30
2135720,12
2136348,10
2136972,12
2137600,12
2138228,12
2138848,29
2139476,35
2140100,34
2140724,36
2141356,15
2141976,16
2142604,13
2143228,10
2143856,11
2144484,12
2145108,20
2145740,21
2146368,21
2146984,33
2147616,46
2148240,45
2148868,41
2149500,38
2150120,38
2150752,32
2151372,27
2151996,15
2152624,10
2153248,11
2153876,20
2154504,19
2155128,19
2155756,35
2156380,35
2157012,33
2157640,34
2158256,19
2158888,15
2159508,13
2160136,14
2160764,30
2161384,38
2162012,35
2162636,23
2163260,14
2163888,35
2164504,47
2165132,46
2165756,46
2166384,46
2167012,49
2167636,40
2168268,31
2168896,16
2169520,15
2170148,11
2170776,19
2171400,23
2172028,30
2172648,35
2173276,37
2173900,37
2174524,27
2175156,14
2175776,21
2176408,29
2177036,23
2177656,17
2178284,18
2178908,17
2179536,15
2180164,28
2180784,37
2181412,37
2182036,35
2182660,37
2183292,28
2183912,36
2184540,36
2185164,21
2185788,11
2186416,10
2187040,11
2187668,17
2188296,15
2188920,33
2189548,35
2190172,35
2190804,35
2191432,19
2192048,20
2192680,17
2193300,11
2193924,16
2194556,22
2195176,36
2195808,41
2196432,35
2197056,37
2197684,46
2198304,43
2198936,37
2199564,30
2200184,29
2200812,41
2201436,37
2202068,22
2202696,15
2203320,11
2203948,21
2204572,28
2205196,27
2205828,34
2206448,34
2207076,33
2207700,36
2208324,11
2208956,10
2209576,12
2210204,12
2210836,22
2211456,26
2212084,25
2212708,23
2213340,15
2213968,37
2214588,45
2215216,42
2215840,36
2216460,43
2217092,56
2217712,59
2218340,47
2218964,19
2219588,10
2220220,12
2220840,15
2221468,11
2222100,31
2222720,38
2223348,40
2223972,33
2224604,34
2225236,55
2225856,51
2226484,17
2227112,13
2227736,29
2228364,35
2228984,27
2229612,33
2230236,35
2230864,39
2231492,42
2232112,44
2232744,43
2233372,28
2233992,36
2234620,40
2235244,28
2235876,11
2236508,20
2237128,27
2237756,21
2238384,15
2239008,35
2239640,34
2240260,34
2240888,34
2241512,13
2242132,15
2242764,10
2243384,10
2244012,19
2244640,32
2245264,40
2245892,28
2246516,19
2247144,36
2247776,46
2248392,44
2249024,43
2249648,37
2250272,33
2250900,33
2251520,37
2252148,25
2252776,14
2253400,11
2254028,25
2254648,24
2255276,30
2255908,32
2256528,36
2257156,37
2257780,35
2258408,17
2259036,14
2259656,13
2260284,12
2260908,19
2261532,24
2262160,21
2262784,19
2263412,15
2264036,40
2264660,46
2265292,46
2265912,45
2266540,53
2267172,69
2267792,87
2268420,79
2269044,37
2269676,31
2270304,72
2270924,53
2271552,33
2272180,28
2272800,35
2273432,35
2274048,41
2274676,32
2275300,21
2275924,11
2276556,10
2277176,11
2277804,17
2278436,26
2279056,27
2279684,22
2280308,33
2280936,42
2281568,49
2282184,51
2282816,46
2283440,31
2284064,36
2284692,40
2285312,28
2285940,12
2286564,21
2287188,32
2287820,22
2288440,19
2289068,33
2289700,32
2290320,35
2290952,35
2291576,17
2292204,15
2292836,13
2293456,12
2294088,15
2294708,17
2295332,29
2295964,34
2296584,27
2297212,33
2297836,40
2298460,45
2299092,46
2299716,40
2300344,37
2300972,39
2301592,37
2302224,21
2302848,11
2303476,10
2304108,19
2304724,17
2305356,31
2305976,30
2306600,35
2307228,36
2307848,29
2308476,11
2309100,10
2309724,11
2310352,12
2310972,20
2311600,27
2312232,27
2312848,24
2313476,26
2314100,45
2314732,65
2315360,76
2315984,71
2316612,69
2317240,77
2317860,43
2318492,36
2319112,59
2319744,30
2320368,14
2320988,13
2321620,18
2322240,34
2322872,40
2323500,36
2324120,36
2324748,14
2325372,11
2326004,12
2326632,11
2327252,11
2327880,22
2328504,47
2329128,47
2329756,20
2330376,38
2331004,44
2331628,43
2332252,42
2332884,44
2333504,44
2334136,41
2334764,36
2335384,22
2336012,12
2336636,13
2337264,22
2337896,17
2338512,28
2339144,37
2339768,34
2340392,35
2341020,33
2341640,12
2342268,13
2342892,16
2343516,20
2344148,36
2344772,49
2345404,47
2346032,34
2346652,19
2347280,35
2347904,45
2348532,45
2349164,45
2349784,39
2350412,35
2351036,37
2351664,33
2352292,15
2352912,12
2353544,12
2354168,20
2354792,19
2355424,29
2356048,33
2356676,35
2357304,35
2357928,23
2358556,15
2359180,12
2359812,11
2360444,11
2361064,19
2361692,25
2362316,27
2362940,21
2363572,32
2364192,45
2364820,47
2365452,48
2366072,45
2366704,36
2367328,33
2367960,31
2368588,23
2369208,14
2369836,11
2370460,15
2371088,11
2371716,26
2372336,48
2372964,41
2373588,36
2374216,36
2374848,21
2375464,41
2376096,27
2376724,22
2377344,21
2377972,37
2378596,41
2379228,18
2379856,12
2380480,42
2381108,51
2381732,46
2382356,40
2382988,23
2383608,11
2384236,12
2384860,28
2385484,22
2386116,12
2386736,22
2387364,28
2387996,14
2388616,34
2389244,32
2389868,37
2390500,41
2391132,39
2391752,28
2392384,24
2393008,17
2393632,14
2394260,19
2394880,24
2395508,25
2396136,24
2396760,17
2397392,45
2398008,51
2398640,47
2399272,45
2399888,38
2400520,39
2401144,36
2401776,32
2402404,16
2403024,11
2403652,15
2404276,19
2404904,17
2405532,32
2406152,33
2406784,35
2407404,34
2408028,18
2408656,14
2409280,11
2409912,11
2410540,13
2411160,21
2411792,31
2412416,28
2413044,21
2413676,35
2414296,45
2414924,48
2415552,45
2416176,41
2416804,33
2417424,36
2418052,34
2418676,21
2419300,10
2419932,15
2420556,31
2421184,26
2421812,22
2422432,33
2423060,33
2423684,35
2424316,35
2424944,12
2425568,11
2426200,11
2426824,13
2427448,11
2428076,12
2428696,26
2429328,33
2429956,18
2430576,44
2431208,47
2431832,39
2432464,41
2433092,54
2433712,57
2434340,54
2434964,33
2435592,31
2436220,14
2436840,28
2437468,39
2438092,21
2438716,28
2439348,30
2439968,34
2440600,42
2441228,34
2441848,33
2442476,24
2443100,16
2443732,16
2444364,18
2444984,14
2445612,35
2446236,28
2446860,32
2447492,56
2448112,55
2448740,43
2449364,35
2449988,12
2450620,16
2451240,11
2451868,12
2452500,12
2453120,12
2453748,16
2454376,20
2455008,16
2455640,33
2456256,33
2456888,36
2457512,36
2458136,17
2458768,16
2459384,17
2460012,13
2460636,17
2461260,20
2461888,26
2462504,29
2463132,21
2463764,34
2464384,47
2465012,49
2465636,45
2466264,39
2466892,38
2467512,41
2468140,37
2468764,22
2469388,14
2470020,12
2470640,15
2471268,25
2471892,29
2472516,34
2473144,35
2473768,36
2474396,36
2475028,28
2475648,24
2476276,19
2476900,15
2477532,20
2478160,24
2478784,31
2479412,26
2480036,14
2480660,42
2481288,47
2481904,49
2482532,44
2483160,35
2483784,25
2484412,28
2485032,39
2485660,29
2486292,10
2486912,17
2487540,18
2488164,16
2488796,27
2489424,34
2490048,35
2490676,38
2491300,29
2491924,31
2492556,17
2493176,23
2493804,41
2494428,46
2495052,47
2495684,40
2496304,38
2496932,33
2497564,34
2498184,43
2498812,50
2499436,43
2500068,35
2500696,40
2501312,39
2501944,20
2502568,15
2503192,24
2503820,24
2504440,13
2505068,20
2505692,35
2506316,33
2506948,33
2507568,36
2508196,14
2508828,16
2509448,17
2510076,11
2510700,14
2511332,20
2511960,27
2512584,28
2513212,22
2513840,33
2514464,42
2515092,43
2515712,41
2516340,32
2516968,29
2517592,38
2518220,45
2518840,30
2519472,18
2520100,12
2520720,33
2521348,24
2521976,30
2522604,35
2523236,37
2523856,35
2524488,33
2525108,11
2525736,12
2526364,11
2526984,16
2527616,27
2528240,21
2528864,19
2529492,12
2530116,28
2530748,37
2531380,36
2532000,37
2532628,41
2533256,23
2533884,29
2534516,42
2535136,31
2535768,13
2536392,14
2537016,11
2537644,12
2538264,13
2538892,35
2539524,32
2540144,36
2540776,39
2541400,28
2542028,25
2542660,20
2543280,11
2543912,17
2544536,15
2545160,15
2545792,27
2546408,45
2547036,34
2547664,34
2548288,41
2548916,42
2549536,39
2550168,27
2550796,27
2551416,33
2552048,23
2552672,15
2553300,12
2553932,12
2554552,19
2555184,27
2555808,34
2556432,35
2557064,35
2557684,35
2558316,20
2558940,15
2559568,11
2560200,10
2560812,14
2561440,15
2562068,17
2562684,21
2563316,20
2563936,35
2564564,45
2565192,42
2565808,39
2566436,23
2567060,25
2567684,40
2568312,34
2568936,16
2569564,11
2570188,10
2570812,13
2571440,13
2572064,29
2572692,34
2573324,35
2573944,37
2574572,26
2575196,26
2575824,22
2576456,10
2577072,25
2577700,45
2578324,41
2578948,30
2579580,14
2580200,29
2580828,41
2581452,42
2582072,47
2582704,43
2583320,17
2583952,24
2584580,31
2585200,23
2585828,11
2586452,13
2587080,25
2587708,29
2588328,18
2588956,36
2589580,33
2590208,39
2590840,41
2591456,31
2592084,19
2592708,15
2593332,11
2593960,10
2594576,16
2595204,24
2595828,23
2596452,18
2597084,35
2597708,46
2598336,55
2598968,51
2599584,41
2600212,38
2600836,51
2601468,49
2602096,23
2602720,11
2603348,15
2603972,31
2604596,36
2605228,32
2605848,32
2606476,34
2607100,34
2607728,37
2608356,17
2608980,12
2609612,10
2610240,10
2610860,18
2611488,19
2612112,22
2612740,25
2613372,20
2613992,40
2614620,50
2615244,51
2615868,54
2616500,47
2617120,40
2617748,41
2618380,40
2619000,23
2619628,11
2620252,15
2620884,31
2621516,38
2622136,32
2622764,31
2623388,36
2624008,35
2624636,20
2625252,24
2625884,21
2626504,19
2627128,22
2627756,20
2628376,20
2629004,21
2629628,13
2630248,42
2630876,52
2631500,45
2632128,35
2632760,36
2633376,15
2634004,31
2634628,33
2635256,29
2635884,19
2636504,14
2637132,19
2637756,22
2638380,17
2639008,31
2639624,33
2640256,35
2640876,33
2641500,14
2642128,14
2642748,11
2643380,10
2644008,20
2644624,34
2645252,25
2645876,12
2646504,15
2647132,38
2647752,37
2648380,37
2649004,34
2649628,27
2650256,28
2650872,37
2651500,36
2652124,20
2652748,20
2653380,18
2654000,16
2654628,19
2655260,31
2655880,34
2656508,33
2657132,35
2657760,34
2658392,11
2659008,29
2659636,23
2660260,12
2660884,13
2661512,17
2662136,32
2662768,47
2663388,33
2664012,37
2664640,47
2665256,58
2665884,49
2666512,38
2667128,41
2667756,34
2668380,27
2669008,11
2669636,10
2670256,14
2670884,18
2671508,14
2672132,32
2672764,34
2673384,34
2674012,36
2674636,25
2675256,31
2675884,25
2676504,14
2677132,13
2677756,25
2678380,41
2679008,41
2679632,26
2680260,36
2680892,49
2681512,45
2682140,41
2682764,49
2683396,44
2684024,47
2684640,44
2685272,27
2685896,12
2686516,12
2687148,23
2687768,27
2688396,17
2689020,33
2689648,33
2690276,37
2690896,35
2691524,18
2692156,15
2692776,15
2693404,14
2694028,15
2694656,12
2695288,25
2695904,24
2696532,13
2697156,33
2697780,43
2698408,41
2699032,40
2699660,29
2700284,30
2700912,38
2701540,42
2702164,23
2702796,17
2703424,15
2704040,13
2704668,15
2705292,34
2705920,38
2706552,38
2707168,39
2707796,33
2708420,31
2709044,49
2709672,52
2710296,44
2710924,37
2711548,34
2712176,26
2712804,19
2713428,18
2714060,42
2714688,43
2715304,43
2715936,43
2716560,38
2717188,40
2717820,38
2718440,25
2719068,10
2719692,11
2720316,18
2720944,22
2721568,16
2722196,37
2722824,32
2723448,35
2724076,34
2724700,20
2725328,14
2725956,10
2726576,15
2727204,12
2727824,16
2728452,33
2729084,28
2729704,17
2730332,37
2730956,47
2731580,47
2732208,36
2732824,30
2733456,20
2734076,33
2734704,42
2735332,28
2735956,16
2736588,10
2737216,11
2737840,11
2738468,21
2739092,34
2739720,49
2740348,40
2740968,35
2741596,11
2742220,10
2742844,11
2743476,12
2744096,16
2744724,23
2745356,26
2745976,26
2746604,16
2747228,38
2747856,39
2748488,37
2749104,41
2749736,39
2750360,31
2750984,41
2751612,44
2752232,23
2752860,11
2753484,15
2754108,27
2754736,22
2755360,32
2755988,36
2756620,36
2757240,37
2757868,27
2758492,22
2759124,19
2759752,14
2760372,13
2761000,21
2761624,32
2762248,31
2762876,26
2763496,27
2764128,42
2764752,51
2765376,51
2766004,48
2766624,35
2767252,33
2767884,32
2768504,29
2769132,19
2769756,10
2770388,19
2771016,17
2771636,15
2772264,33
2772888,34
2773512,36
2774140,35
2774760,17
2775388,19
2776012,16
2776636,13
2777268,14
2777888,23
2778516,29
2779148,26
2779768,23
2780396,32
2781024,41
2781652,46
2782284,47
2782904,46
2783532,39
2784160,33
2784784,22
2785412,17
2786032,20
2786660,14
2787284,14
2787904,13
2788536,29
2789152,33
2789784,35
2790412,36
2791032,33
2791660,19
2792284,18
2792912,10
2793544,12
2794164,13
2794792,22
2795416,21
2796040,14
2796668,12
2797288,36
2797916,35
2798540,39
2799168,41
2799796,21
2800416,12
2801044,12
2801676,20
2802296,16
2802924,11
2803548,13
2804180,14
2804808,11
2805424,32
2806052,34
2806676,33
2807300,36
2807932,23
2808552,24
2809180,17
2809804,14
2810428,12
2811060,20
2811680,27
2812308,29
2812940,20
2813560,33
2814188,47
2814816,48
2815444,46
2816076,44
2816692,29
2817324,23
2817944,27
2818568,24
2819196,10
2819816,12
2820444,16
2821068,24
2821692,13
2822320,35
2822944,38
2823572,33
2824204,36
2824824,21
2825452,17
2826076,12
2826708,11
2827336,14
2827952,24
2828580,37
2829204,33
2829828,23
2830460,35
2831080,41
2831708,42
2832332,43
2832956,51
2833588,50
2834208,54
2834836,44
2835468,16
2836088,12
2836716,16
2837340,36
2837972,33
2838600,31
2839224,31
2839852,35
2840476,36
2841104,34
2841732,14
2842352,17
2842980,12
2843604,12
2844228,11
2844856,15
2845480,18
2846108,27
2846740,20
2847360,38
2847988,45
2848612,45
2849244,47
2849872,47
2850496,36
2851124,19
2851748,17
2852376,12
2853004,12
2853624,13
2854252,16
2854880,15
2855500,33
2856132,30
2856752,37
2857384,37
2858012,18
2858632,13
2859264,12
2859888,15
2860516,11
2861148,26
2861768,31
2862396,26
2863024,19
2863648,34
2864280,44
2864896,51
2865524,45
2866152,42
2866776,35
2867408,34
2868024,19
2868652,11
2869280,10
2869896,10
2870524,23
2871148,30
2871780,22
2872408,27
2873024,34
2873652,34
2874276,34
2874900,13
2875528,11
2876148,16
2876776,15
2877400,20
2878024,24
2878652,25
2879272,32
2879904,20
2880532,39
2881152,49
2881780,50
2882400,46
2883032,49
2883660,30
2884280,33
2884908,29
2885532,12
2886152,12
2886784,17
2887400,34
2888032,21
2888652,30
2889276,27
2889904,34
2890524,36
2891152,36
2891780,30
2892400,20
2893028,11
2893652,11
2894280,14
2894908,18
2895528,21
2896156,28
2896780,23
2897408,39
2898040,47
2898656,49
2899284,48
2899908,44
2900532,47
2901160,25
2901776,15
2902408,10
2903032,11
2903656,17
2904284,25
2904908,20
2905540,31
2906172,32
2906792,36
2907424,35
2908048,19
2908676,18
2909308,12
2909928,12
2910556,10
2911180,12
2911804,24
2912436,35
2913056,23
2913684,33
2914316,39
2914936,46
2915564,43
2916188,40
2916820,41
2917448,31
2918072,26
2918704,21
2919328,13
2919952,12
2920580,24
2921200,27
2921828,26
2922452,29
2923076,34
2923708,35
2924328,35
2924956,25
2925588,16
2926208,12
2926836,14
2927460,13
2928092,19
2928720,34
2929344,37
2929972,23
2930596,38
2931220,45
2931852,45
2932472,48
2933100,48
2933728,41
2934352,35
2934980,25
2935600,14
2936232,12
2936860,11
2937480,20
2938112,21
2938736,32
2939364,28
2939996,36
2940616,36
2941248,24
2941872,15
2942496,13
2943128,13
2943744,12
2944376,21
2945000,35
2945624,34
2946252,29
2946872,31
2947504,41
2948132,44
2948752,45
2949384,44
2950004,35
2950636,34
2951264,38
2951880,31
2952512,14
2953136,12
2953756,13
2954388,22
2955008,15
2955636,35
2956260,37
2956884,34
2957512,39
2958136,26
2958764,19
2959396,10
2960016,11
2960644,21
2961268,33
2961896,41
2962524,33
2963144,27
2963772,36
2964400,48
2965020,53
2965652,42
2966272,25
2966900,15
2967528,27
2968152,38
2968780,21
2969400,11
2970032,13
2970660,26
2971280,25
2971908,30
2972532,34
2973160,39
2973792,37
2974408,37
2975036,15
2975660,11
2976284,17
2976916,18
2977536,11
2978164,15
2978788,19
2979412,21
2980044,16
2980664,41
2981292,42
2981924,46
2982544,47
2983172,40
2983796,34
2984428,31
2985056,25
2985676,11
2986304,14
2986928,16
2987552,11
2988180,16
2988800,31
2989428,33
2990052,35
2990680,36
2991308,21
2991928,18
2992560,15
2993188,16
2993808,13
2994436,12
2995060,25
2995692,29
2996324,22
2996944,35
2997572,46
2998200,49
2998824,47
2999452,44
3000072,27
3000700,13
3001324,12
3001952,14
3002580,13
3003204,10
3003836,21
3004464,24
3005088,17
3005720,35
3006344,35
3006972,34
3007604,34
3008224,21
3008852,22
3009476,13
3010100,10
3010732,11
3011352,13
3011980,29
3012608,32
3013232,21
3013860,39
3014488,45
3015116,46
3015748,44
3016368,44
3016996,34
3017624,35
3018248,32
3018876,16
3019496,10
3020128,12
3020752,27
3021376,27
3022008,30
3022628,33
3023256,35
3023888,34
3024504,28
3025136,11
3025760,11
3026388,11
3027020,10
3027640,30
3028272,41
3028896,25
3029520,31
3030152,30
3030772,38
3031400,41
3032028,43
3032648,36
3033280,14
3033900,15
3034528,26
3035160,50
3035780,43
3036408,16
3037032,18
3037664,23
3038296,15
3038912,33
3039544,33
3040172,36
3040796,34
3041424,14
3042040,14
3042672,12
3043296,15
3043920,30
3044548,41
3045168,42
3045796,25
3046428,17
3047048,35
3047676,43
3048300,46
3048932,47
3049564,38
3050184,32
3050816,34
3051440,36
3052064,22
3052692,10
3053312,11
3053944,16
3054568,19
3055192,28
3055824,32
3056444,34
3057072,32
3057704,36
3058324,18
3058952,15
3059580,12
3060208,11
3060840,13
3061460,15
3062088,26
3062712,32
3063340,20
3063968,40
3064592,43
3065224,47
3065848,38
3066472,35
3067104,29
3067728,30
3068360,26
3068988,11
3069608,10
3070240,14
3070864,18
3071496,14
3072128,31
3072744,40
3073372,37
3073996,34
3074620,21
3075248,11
3075864,15
3076492,26
3077116,20
3077744,25
3078372,28
3078996,33
3079628,48
3080256,37
3080880,37
3081508,45
3082132,43
3082760,45
3083388,34
3084008,45
3084636,36
3085260,17
3085884,10
3086516,10
3087136,14
3087768,15
3088396,14
3089016,33
3089644,33
3090268,35
3090900,35
3091528,13
3092152,12
3092784,11
3093408,13
3094032,17
3094660,13
3095280,17
3095908,16
3096536,12
3097160,40
3097788,43
3098408,42
3099036,35
3099668,22
3100288,22
3100916,30
3101544,32
3102172,21
3102804,10
3103424,11
3104056,23
3104676,21
3105300,29
3105932,26
3106552,37
3107184,36
3107808,34
3108432,19
3109064,14
3109680,11
3110312,11
3110944,17
3111560,22
3112192,24
3112816,23
3113448,20
3114076,42
3114696,47
3115328,47
3115952,43
3116576,41
3117204,43
3117824,42
3118456,33
3119080,16
3119704,11
3120336,19
3120952,34
3121584,25
3122212,33
3122832,33
3123464,33
3124088,35
3124716,17
3125344,10
3125968,11
3126596,12
3127220,11
3127844,11
3128476,15
3129096,19
3129724,25
3130348,30
3130976,38
3131604,36
3132228,38
3132860,31
3133492,12
3134112,10
3134740,17
3135368,31
3135996,23
3136628,15
3137248,22
3137876,41
3138504,29
3139128,31
3139756,33
3140376,35
3141008,36
3141632,11
3142256,13
3142888,17
3143512,18
3144144,24
3144772,23
3145392,33
3146024,29
3146648,17
3147272,34
3147904,38
3148520,45
3149152,49
3149776,45
3150400,38
3151028,43
3151648,40
3152280,23
3152908,17
3153528,15
3154160,34
3154784,19
3155412,31
3156044,32
3156664,35
3157292,34
3157920,24
3158544,15
3159172,12
3159792,13
3160424,13
3161048,23
3161672,27
3162300,25
3162920,20
3163552,29
3164180,42
3164800,46
3165428,46
3166056,47
3166684,39
3167316,30
3167936,25
3168568,17
3169196,10
3169820,11
3170452,24
3171072,20
3171704,16
3172328,34
3172952,32
3173584,33
3174204,33
3174836,15
3175464,10
3176088,19
3176716,21
3177344,13
3177972,33
3178604,50
3179224,31
3179856,15
3180480,41
3181104,41
3181736,40
3182352,39
3182984,27
3183612,29
3184236,38
3184868,36
3185492,11
3186124,21
3186752,20
3187376,34
3188008,26
3188632,27
3189256,31
3189888,34
3190504,36
3191136,38
3191760,21
3192388,14
3193016,11
3193640,12
3194272,12
3194904,17
3195520,13
3196152,16
3196776,17
3197408,44
3198040,52
3198660,57
3199288,48
3199916,19
3200544,24
3201172,33
3201792,35
3202420,14
3203044,10
3203664,21
3204296,26
3204912,18
3205540,34
3206172,34
3206792,37
3207420,34
3208044,18
3208672,27
3209300,30
3209920,31
3210548,29
3211172,40
3211796,44
3212428,22
3213048,13
3213676,32
3214300,42
3214924,48
3215556,46
3216176,46
3216804,42
3217432,46
3218052,34
3218680,24
3219304,18
3219932,14
3220564,18
3221184,17
3221812,28
3222436,35
3223060,36
3223692,38
3224312,37
3224944,50
3225568,39
3226192,17
3226820,15
3227440,11
3228068,19
3228700,38
3229320,41
3229948,21
3230572,42
3231204,45
3231836,50
3232456,47
3233084,36
3233708,28
3234332,30
3234964,30
3235584,13
3236212,12
3236836,19
3237460,21
3238092,16
3238712,28
3239340,32
3239972,36
3240592,35
3241220,23
3241844,12
3242476,12
3243104,10
3243724,10
3244352,15
3244976,20
3245600,17
3246228,16
3246848,28
3247476,43
3248100,44
3248724,38
3249356,38
3249976,33
3250604,29
3251236,24
3251856,25
3252484,15
3253108,11
3253740,13
3254372,16
3254992,13
3255624,33
3256248,33
3256872,36
3257500,35
3258120,26
3258748,22
3259372,15
3260000,11
3260628,12
3261252,16
3261884,23
3262516,25
3263136,18
3263768,36
3264392,42
3265020,43
3265652,43
3266272,43
3266900,43
3267524,43
3268148,33
3268780,18
3269400,11
3270028,18
3270660,28
3271280,21
3271912,31
3272536,33
3273168,34
3273796,34
3274416,35
3275048,12
3275672,12
3276296,17
3276928,30
3277544,40
3278172,36
3278792,27
3279412,22
3280044,14
3280660,47
3281288,55
3281908,58
3282532,56
3283160,48
3283784,32
3284412,13
3285040,14
3285656,12
3286284,10
3286908,29
3287536,37
3288164,22
3288780,29
3289412,34
3290036,33
3290656,34
3291284,22
3291904,33
3292532,36
3293156,14
3293776,22
3294404,12
3295024,13
3295652,13
3296280,14
3296904,31
3297532,38
3298152,40
3298784,40
3299412,42
3300032,32
3300660,31
3301284,34
3301904,25
3302536,13
3303152,14
3303780,16
3304404,24
3305028,14
3305656,35
3306272,36
3306900,35
3307532,36
3308152,34
3308780,23
3309404,13
3310032,10
3310664,17
3311280,22
3311912,26
3312536,24
3313160,22
3313788,31
3314408,42
3315036,48
3315660,47
3316284,37
3316916,34
3317536,42
3318164,39
3318796,16
3319416,12
3320044,10
3320668,20
3321296,12
3321924,35
3322544,33
3323172,36
3323796,38
3324424,36
3325052,26
3325672,20
3326300,15
3326924,11
3327548,13
3328180,22
3328796,32
3329424,26
3330056,16
3330672,45
3331300,46
3331924,47
3332552,45
3333180,48
3333800,32
3334428,17
3335048,10
3335680,10
3336308,10
3336928,17
3337556,25
3338180,17
3338804,30
3339432,35
3340056,37
3340684,34
3341308,18
3341936,12
3342564,11
3343188,18
3343816,23
3344448,25
3345064,24
3345692,21
3346316,18
3346944,33
3347576,45
3348192,44
3348820,44
3349444,45
3350068,35
3350696,34
3351320,34
3351948,27
3352576,10
3353200,9
3353776,19
3354408,23
3355036,14
3355664,32
3356288,32
3356916,33
3357540,33
3358172,14
3358800,11
3359424,11
3360052,11
3360672,13
3361296,16
3361924,27
3362540,27
3363172,15
3363796,35
3364420,49
3365048,51
3365664,49
3366292,27
3366924,16
3367544,27
3368172,30
3368796,21
3369424,13
3370052,10
3370672,23
3371300,25
3371924,31
3372548,32
3373180,33
3373800,37
3374428,40
3375052,24
3375676,13
3376308,10
3376928,11
3377556,16
3378188,21
3378808,23
3379436,16
3380060,16
3380688,36
3381316,38
3381936,42
3382564,41
3383188,36
3383812,34
3384444,34
3385064,37
3385692,16
3386316,12
3386936,13
3387568,18
3388184,11
3388812,33
3389436,34
3390064,35
3390692,36
3391316,22
3391948,24
3392580,19
3393200,19
3393828,23
3394452,30
3395076,40
3395708,38
3396328,31
3396956,32
3397580,48
3398204,59
3398836,62
3399456,50
3400084,38
3400712,35
3401336,30
3401964,27
3402588,15
3403216,11
3403844,15
3404464,21
3405092,17
3405716,34
3406340,36
3406972,42
3407592,39
3408220,20
3408844,14
3409468,12
3410096,10
3410720,33
3411348,50
3411976,63
3412600,50
3413228,21
3413852,38
3414484,47
3415112,52
3415732,47
3416360,47
3416984,47
3417608,45
3418236,37
3418856,17
3419484,16
3420112,12
3420736,16
3421364,18
3421984,28
3422612,31
3423244,34
3423864,34
3424496,31
3425116,11
3425748,13
3426376,26
3427000,27
3427628,20
3428256,24
3428880,29
3429508,32
3430128,24
3430760,42
3431380,45
3432004,46
3432636,40
3433256,33
3433884,41
3434516,46
3435136,37
3435768,13
3436392,11
3437020,12
3437652,22
3438272,23
3438900,31
3439528,35
3440152,35
3440780,35
3441400,19
3442028,17
3442652,19
3443272,13
3443904,16
3444520,24
3445148,21
3445780,18
3446400,33
3447028,31
3447652,31
3448280,51
3448912,59
3449528,40
3450160,22
3450784,25
3451408,34
3452036,28
3452656,15
3453284,11
3453908,33
3454536,35
3455164,24
3455784,29
3456416,35
3457044,35
3457664,35
3458292,14
3458916,11
3459544,10
3460176,10
3460792,13
3461420,13
3462044,23
3462668,29
3463300,19
3463920,38
3464548,44
3465172,43
3465796,39
3466428,26
3467048,26
3467676,34
3468308,30
3468928,17
3469556,11
3470180,10
3470812,18
3471440,17
3472060,31
3472688,31
3473312,33
3473936,36
3474564,24
3475184,16
3475816,15
3476440,13
3477064,13
3477692,21
3478312,29
3478944,28
3479572,22
3480192,29
3480824,41
3481448,47
3482076,49
3482708,46
3483328,40
3483956,43
3484580,45
3485204,34
3485832,29
3486456,28
3487084,17
3487708,12
3488332,22
3488960,45
3489584,44
3490212,39
3490844,35
3491464,16
3492092,39
3492716,71
3493348,81
3493976,91
3494596,86
3495224,61
3495848,38
3496472,27
3497100,33
3497720,45
3498348,47
3498972,47
3499596,38
3500228,32
3500848,39
3501476,34
3502108,15
3502728,12
3503356,13
3503984,13
3504612,13
3505244,30
3505864,33
3506496,34
3507120,33
3507744,36
3508372,22
3508992,19
3509620,13
3510248,15
3510872,20
3511500,22
3512120,24
3512752,22
3513380,15
3514000,41
3514628,45
3515256,45
3515884,44
3516516,36
3517136,34
3517768,33
3518392,32
3519016,13
3519648,12
3520268,11
3520896,19
3521520,17
3522144,32
3522772,29
3523396,35
3524028,35
3524656,21
3525272,15
3525900,11
3526524,11
3527152,16
3527784,27
3528400,36
3529032,36
3529656,30
3530280,32
3530908,35
3531528,40
3532156,40
3532784,42
3533408,34
3534036,36
3534660,38
3535292,30
3535920,22
3536544,21
3537172,11
3537796,14
3538428,20
3539056,34
3539680,44
3540308,48
3540932,45
3541556,17
3542188,14
3542808,20
3543436,27
3544060,41
3544688,37
3545316,45
3545940,42
3546572,29
3547200,37
3547820,47
3548448,52
3549072,47
3549700,41
3550332,26
3550952,28
3551584,35
3552208,24
3552832,11
3553460,25
3554080,40
3554708,31
3555340,28
3555960,34
3556592,35
3557216,36
3557844,33
3558476,30
3559096,25
3559724,19
3560348,11
3560972,17
3561604,20
3562224,22
3562856,18
3563480,24
3564104,46
3564732,49
3565352,44
3565984,43
3566612,39
3567232,47
3567864,45
3568488,35
3569116,16
3569748,10
3570368,37
3571000,45
3571624,24
3572248,32
3572880,34
3573496,35
3574128,34
3574752,16
3575376,17
3576008,14
3576624,12
3577256,14
3577884,18
3578504,22
3579136,23
3579760,19
3580392,35
3581020,44
3581640,47
3582272,47
3582896,39
3583524,39
3584156,38
3584776,25
3585404,13
3586028,12
3586652,11
3587280,17
3587896,19
3588524,26
3589156,31
3589776,36
3590404,35
3591028,35
3591656,18
3592288,18
3592908,13
3593536,12
3594164,18
3594788,18
3595416,19
3596036,16
3596664,13
3597292,36
3597916,31
3598544,40
3599168,48
3599800,49
3600428,39
3601048,46
3601676,52
3602300,33
3602932,10
3603560,27
3604180,39
3604808,29
3605428,27
3606052,32
3606684,32
3607304,36
3607932,21
3608556,13
3609180,19
3609812,27
3610432,22
3611060,25
3611688,24
3612312,17
3612940,12
3613564,30
3614196,46
3614824,47
3615440,43
3616072,40
3616696,32
3617316,34
3617948,35
3618568,13
3619196,43
3619820,36
3620444,19
3621076,11
3621700,20
3622328,36
3622960,32
3623576,35
3624208,35
3624828,14
3625460,11
3626088,11
3626708,13
3627336,15
3627960,19
3628584,31
3629212,32
3629832,25
3630460,32
3631084,45
3631708,51
3632340,45
3632964,36
3633596,24
3634224,29
3634848,34
3635480,21
3636100,11
3636732,19
3637360,37
3637980,26
3638608,31
3639232,32
3639856,35
3640488,35
3641104,35
3641732,12
3642356,13
3642980,20
3643612,24
3644236,29
3644868,28
3645496,23
3646112,17
3646744,15
3647368,34
3647996,39
3648628,38
3649248,42
3649876,38
3650500,39
3651124,40
3651756,38
3652376,21
3653004,12
3653628,13
3654256,19
3654884,17
3655508,29
3656140,35
3656772,34
3657392,37
3658024,23
3658648,23
3659272,21
3659900,11
3660520,12
3661152,11
3661772,16
3662396,21
3663028,17
3663648,33
3664280,43
3664908,49
3665528,51
3666160,42
3666780,40
3667412,47
3668044,44
3668664,27
3669292,11
3669916,10
3670544,26
3671172,26
3671792,25
3672424,35
3673048,39
3673672,41
3674300,35
3674920,12
3675548,12
3676180,12
3676800,12
3677428,14
3678056,17
3678688,27
3679316,23
3679936,12
3680568,39
3681192,38
3681820,41
3682448,44
3683068,42
3683696,42
3684320,44
3684944,42
3685576,25
3686196,15
3686828,11
3687456,27
3688072,25
3688704,31
3689324,32
3689956,34
3690584,36
3691200,30
3691832,28
3692456,17
3693080,11
3693708,10
3694328,27
3694956,38
3695580,32
3696204,21
3696836,26
3697456,51
3698084,49
3698712,55
3699336,60
3699964,37
3700588,20
3701220,28
3701848,29
3702464,15
3703096,10
3703720,21
3704344,33
3704972,21
3705592,31
3706224,33
3706848,35
3707472,37
3708100,17
3708720,32
3709352,29
3709980,16
3710600,13
3711232,23
3711856,37
3712488,28
3713116,17
3713736,43
3714364,58
3714988,58
3715612,48
3716244,38
3716864,31
3717492,25
3718116,13
3718740,10
3719372,11
3719992,11
3720624,31
3721252,28
3721872,29
3722500,33
3723124,35
3723756,36
3724388,32
3725008,18
3725636,21
3726260,14
3726884,11
3727516,13
3728136,19
3728764,29
3729388,25
3730012,13
3730640,35
3731264,43
3731892,46
3732524,44
3733144,35
3733772,24
3734400,23
3735028,26
3735660,18
3736280,16
3736912,12
3737536,21
3738160,18
3738792,30
3739408,31
3740040,35
3740664,37
3741288,23
3741916,19
3742544,17
3743172,19
3743804,10
3744424,22
3745052,25
3745676,32
3746308,29
3746940,32
3747560,37
3748192,46
3748816,46
3749436,40
3750068,28
3750688,33
3751316,31
3751948,16
3752568,12
3753196,11
3753824,33
3754452,30
3755084,24
3755704,33
3756336,34
3756960,35
3757584,36
3758216,16
3758832,13
3759464,11
3760088,11
3760712,12
3761340,17
3761960,28
3762592,25
3763220,19
3763840,32
3764468,34
3765092,41
3765724,47
3766356,54
3766976,54
3767608,52
3768232,43
3768856,14
3769484,10
3770104,16
3770732,29
3771360,23
3771984,29
3772612,29
3773232,35
3773864,37
3774492,36
3775112,17
3775744,12
3776368,13
3776996,11
3777628,17
3778248,29
3778876,27
3779500,22
3780128,21
3780756,40
3781376,47
3782008,47
3782632,46
3783256,37
3783884,38
3784504,39
3785132,35
3785764,18
3786384,16
3787016,11
3787640,18
3788272,17
3788900,33
3789520,32
3790148,35
3790772,35
3791396,29
3792028,20
3792648,12
3793276,11
3793900,16
3794528,12
3795156,14
3795784,41
3796412,43
3797044,32
3797664,42
3798296,56
3798920,59
3799552,49
3800180,17
3800800,13
3801428,12
3802056,11
3802680,11
3803308,10
3803928,21
3804560,26
3805188,26
3805808,32
3806440,33
3807064,34
3807692,35
3808324,13
3808944,18
3809576,16
3810200,11
3810824,16
3811452,20
3812072,32
3812704,27
3813328,15
3813952,40
3814584,54
3815200,48
3815832,41
3816464,33
3817080,36
3817712,41
3818336,37
3818964,19
3819596,10
3820216,18
3820848,26
3821472,14
3822096,33
3822724,32
3823344,35
3823976,35
3824600,28
3825228,25
3825856,18
3826480,15
3827112,23
3827744,24
3828364,18
3828996,12
3829620,12
3830252,30
3830884,39
3831504,45
3832136,47
3832760,45
3833384,34
3834016,31
3834636,29
3835264,26
3835892,20
3836516,11
3837148,23
3837776,24
3838408,15
3839040,34
3839660,33
3840292,35
3840916,35
3841540,18
3842172,16
3842792,14
3843420,12
3844044,17
3844668,14
3845296,17
3845920,17
3846548,15
3847180,32
3847800,36
3848428,41
3849052,50
3849684,50
3850312,31
3850928,17
3851560,14
3852184,11
3852808,14
3853436,18
3854056,12
3854684,19
3855308,31
3855936,33
3856564,35
3857184,39
3857812,36
3858444,12
3859064,12
3859692,10
3860316,17
3860948,24
3861576,22
3862200,26
3862828,31
3863456,27
3864080,37
3864708,48
3865328,49
3865960,45
3866580,33
3867204,29
3867836,35
3868456,33
3869084,15
3869716,10
3870336,16
3870968,18
3871592,15
3872224,29
3872852,33
3873472,35
3874100,35
3874724,15
3875348,22
3875980,14
3876600,11
3877228,15
3877852,26
3878480,28
3879108,26
3879728,21
3880360,33
3880988,44
3881608,51
3882236,43
3882860,40
3883492,38
3884124,46
3884744,43
3885376,28
3886000,11
3886624,11
3887256,14
3887872,16
3888504,25
3889128,36
3889752,37
3890384,43
3891004,37
3891636,33
3892264,29
3892880,18
3893508,11
3894132,10
3894764,18
3895392,32
3896016,40
3896644,26
3897268,35
3897892,45
3898524,46
3899144,40
3899776,31
3900400,43
3901024,58
3901656,57
3902280,27
3902908,13
3903540,10
3904160,20
3904788,24
3905412,28
3906044,32
3906672,32
3907296,36
3907924,23
3908548,16
3909176,15
3909804,14
3910424,15
3911052,19
3911684,24
3912304,24
3912936,22
3913560,32
3914192,43
3914820,46
3915440,44
3916072,45
3916696,39
3917320,41
3917952,34
3918572,34
3919200,21
3919828,10
3920452,22
3921084,24
3921704,19
3922336,31
3922964,32
3923584,37
3924216,35
3924840,13
3925468,13
3926100,18
3926720,19
3927352,16
3927976,16
3928600,20
3929232,22
3929852,13
3930484,45
3931108,64
3931732,57
3932364,44
3932984,33
3933612,20
3934244,18
3934864,24
3935492,12
3936116,11
3936748,11
3937376,11
3937996,9
3938572,32
3939200,33
3939828,41
3940460,40
3941080,39
3941712,25
3942336,17
3942960,17
3943588,18
3944208,23
3944836,22
3945460,23
3946084,24
3946716,13
3947340,38
3947968,43
3948600,42
3949216,42
3949848,37
3950472,36
3951104,37
3951732,34
3952352,19
3952980,11
3953604,15
3954228,21
3954860,16
3955480,31
3956108,35
3956732,34
3957360,35
3957992,19
3958616,16
3959244,14
3959876,12
3960496,14
3961124,21
3961748,27
3962376,25
3963004,18
3963624,34
3964256,43
3964880,44
3965504,47
3966132,44
3966752,28
3967384,31
3968012,35
3968632,29
3969260,13
3969884,15
3970516,10
3971144,12
3971768,24
3972400,32
3973024,33
3973648,39
3974276,39
3974896,17
3975524,11
3976148,13
3976772,13
3977404,20
3978024,19
3978652,24
3979284,16
3979904,13
3980536,43
3981160,47
3981788,48
3982420,42
3983040,24
3983672,21
3984296,25
3984920,20
3985548,11
3986168,32
3986796,36
3987424,33
3988048,17
3988676,30
3989296,33
3989928,35
3990556,36
3991176,33
3991808,20
3992432,16
3993064,19
3993692,20
3994312,21
3994940,21
3995564,25
3996192,20
3996820,22
3997440,39
3998068,51
3998696,49
3999320,42
3999952,32
4000572,36
4001200,29
4001828,22
4002448,11
4003076,10
4003700,12
4004332,17
4004960,15
4005576,33
4006204,33
4006828,35
4007452,36
4008084,22
4008704,20
4009332,14
4009956,12
4010580,13
4011212,19
4011832,22
4012464,16
4013092,16
4013712,33
4014344,39
4014968,43
4015596,41
4016224,44
4016848,59
4017476,79
4018100,61
4018724,34
4019352,10
4019976,11
4020604,33
4021228,43
4021852,30
4022480,30
4023104,36
4023732,37
4024364,36
4024984,11
4025612,11
4026236,18
4026864,24
4027496,23
4028112,13
4028744,15
4029368,19
4029992,14
4030624,39
4031240,50
4031872,45
4032496,44
4033120,43
4033748,42
4034372,38
4035004,22
4035632,12
4036256,9
4036832,18
4037464,36
4038092,30
4038724,30
4039344,33
4039976,33
4040600,35
4041224,32
4041852,20
4042472,13
4043100,15
4043728,17
4044352,28
4044980,37
4045600,27
4046228,19
4046860,28
4047480,46
4048108,51
4048732,47
4049364,45
4049992,37
4050612,37
4051240,43
4051864,32
4052488,17
4053116,10
4053736,24
4054368,35
4054992,19
4055616,34
4056248,33
4056864,34
4057492,36
4058124,16
4058744,20
4059372,17
4059996,11
4060628,11
4061260,16
4061880,23
4062512,21
4063136,16
4063760,37
4064392,44
4065008,50
4065636,48
4066260,41
4066884,26
4067516,16
4068136,22
4068764,21
4069396,14
4070016,11
4070648,23
4071272,20
4071900,31
4072532,32
4073152,36
4073784,37
4074408,37
4075032,13
4075664,12
4076280,11
4076912,14
4077536,21
4078160,21
4078792,21
4079408,26
4080040,24
4080668,38
4081288,41
4081916,46
4082544,49
4083172,43
4083804,34
4084424,35
4085056,33
4085680,20
4086304,15
4086936,10
4087552,16
4088184,18
4088808,32
4089432,33
4090064,41
4090680,34
4091312,21
4091944,17
4092564,12
4093196,10
4093820,13
4094452,29
4095084,28
4095704,16
4096340,14
4096960,35
4097580,39
4098208,42
4098824,45
4099452,48
4100072,36
4100696,36
4101324,30
4101944,21
4102572,11
4103200,12
4103816,14
4104444,18
4105068,14
4105696,33
4106324,32
4106944,35
4107572,33
4108192,16
4108816,28
4109444,32
4110064,33
4110692,27
4111316,22
4111940,25
4112568,28
4113184,20
4113812,35
4114444,44
4115064,51
4115692,46
4116316,34
4116944,25
4117576,26
4118192,29
4118820,23
4119444,11
4120068,11
4120700,10
4121320,11
4121948,29
4122572,30
4123196,38
4123824,35
4124440,34
4125072,13
4125692,15
4126320,20
4126948,18
4127572,21
4128200,22
4128832,23
4129448,28
4130076,18
4130700,43
4131328,43
4131956,46
4132576,46
4133204,37
4133828,37
4134452,34
4135080,21
4135696,10
4136328,15
4136952,17
4137576,11
4138204,12
4138828,32
4139456,32
4140088,36
4140704,36
4141332,25
4141956,19
4142588,12
4143216,11
4143836,10
4144464,20
4145088,30
4145712,32
4146340,32
4146960,32
4147588,39
4148212,50
4148836,54
4149464,44
4150088,18
4150716,30
4151348,38
4151968,37
4152600,26
4153220,11
4153852,19
4154480,16
4155104,17
4155732,33
4156360,34
4156984,36
4157612,34
4158232,25
4158860,36
4159484,36
4160112,38
4160740,47
4161364,39
4161992,26
4162620,20
4163240,17
4163868,36
4164488,53
4165116,49
4165748,34
4166368,21
4166996,26
4167620,43
4168244,49
4168872,28
4169496,11
4170124,15
4170748,30
4171376,23
4172004,33
4172628,33
4173260,34
4173888,36
4174504,34
4175132,16
4175756,17
4176388,16
4177016,16
4177636,19
4178264,21
4178888,18
4179508,18
4180136,20
4180760,39
4181388,41
4182012,42
4182640,40
4183268,31
4183892,50
4184520,45
4185152,29
4185768,17
4186396,13
4187020,11
4187648,16
4188280,15
4188896,32
4189524,33
4190148,35
4190772,36
4191400,16
4192024,17
4192652,18
4193276,26
4193904,30
4194532,26
4195156,23
4195788,16
4196420,12
4197040,35
4197668,40
4198292,47
4198920,44
4199548,34
4200168,31
4200796,35
4201420,38
4202044,21
4202672,12
4203288,12
4203916,29
4204540,24
4205168,22
4205796,34
4206420,33
4207048,34
4207680,35
4208296,21
4208924,29
4209548,19
4210176,10
4210808,12
4211424,18
4212056,24
4212680,25
4213300,23
4213932,30
4214552,37
4215180,41
4215804,44
4216432,40
4217060,35
4217684,39
4218316,36
4218944,17
4219568,12
4220196,10
4220820,21
4221444,17
4222076,28
4222696,29
4223324,33
4223952,35
4224576,26
4225204,18
4225824,14
4226452,11
4227080,11
4227700,19
4228328,25
4228952,22
4229580,17
4230212,30
4230832,45
4231460,45
4232084,42
4232708,35
4233340,12
4233960,22
4234588,36
4235212,35
4235836,19
4236468,10
4237088,19
4237716,24
4238348,14
4238968,34
4239596,33
4240224,35
4240852,36
4241480,24
4242100,28
4242728,19
4243352,11
4243976,11
4244604,18
4245224,26
4245852,21
4246476,15
4247100,36
4247732,38
4248352,45
4248980,44
4249612,40
4250232,31
4250860,35
4251484,36
4252112,15
4252744,10
4253364,10
4253992,14
4254616,17
4255240,26
4255868,23
4256488,33
4257116,35
4257740,35
4258364,18
4258996,12
4259616,11
4260244,13
4260876,16
4261496,28
4262124,39
4262748,38
4263376,21
4264004,35
4264624,43
4265252,47
4265876,49
4266500,50
4267132,45
4267752,33
4268380,25
4269004,11
4269628,13
4270256,11
4270880,30
4271508,24
4272140,30
4272760,33
4273388,40
4274012,40
4274644,20
4275272,19
4275888,12
4276520,11
4277144,14
4277764,21
4278396,34
4279016,49
4279648,44
4280272,35
4280896,29
4281524,38
4282144,42
4282772,44
4283404,38
4284024,43
4284652,39
4285276,28
4285908,10
4286540,11
4287160,19
4287792,17
4288416,16
4289040,33
4289668,32
4290288,36
4290916,35
4291540,20
4292164,17
4292796,11
4293416,13
4294044,24
4294676,28
4295296,33
4295924,27
4296552,22
4297180,36
4297812,40
4298432,49
4299060,52
4299688,41
4300312,39
4300944,46
4301560,44
4302188,16
4302812,13
4303436,25
4304064,37
4304680,17
4305312,36
4305940,35
4306560,33
4307188,37
4307812,37
4308444,36
4309072,30
4309696,15
4310324,12
4310952,17
4311576,20
4312204,21
4312824,24
4313452,18
4314076,39
4314704,43
4315332,40
4315952,37
4316584,28
4317212,35
4317832,37
4318464,34
4319088,24
4319716,19
4320348,12
4320968,20
4321596,16
4322220,33
4322844,33
4323476,34
4324096,35
4324724,19
4325348,14
4325972,14
4326604,14
4327224,19
4327852,24
4328480,28
4329104,26
4329732,26
4330356,33
4330988,45
4331616,57
4332240,51
4332868,47
4333492,34
4334116,31
4334748,30
4335368,35
4335996,15
4336624,19
4337248,33
4337876,29
4338504,24
4339132,33
4339764,33
4340384,34
4341016,38
4341640,18
4342268,13
4342900,10
4343520,12
4344148,11
4344772,13
4345400,21
4346028,17
4346648,15
4347276,46
4347900,44
4348528,44
4349156,38
4349784,19
4350412,15
4351044,10
4351664,10
4352296,11
4352920,10
4353540,10
4354172,21
4354792,24
4355420,32
4356044,31
4356668,33
4357300,33
4357920,25
4358548,13
4359180,12
4359800,11
4360428,10
4361052,14
4361684,19
4362312,16
4362928,16
4363560,31
4364184,51
4364808,55
4365436,44
4366056,36
4366684,11
4367308,21
4367932,34
4368564,36
4369184,22
4369812,10
4370444,28
4371064,30
4371696,22
4372320,29
4372948,33
4373580,37
4374200,36
4374832,13
4375456,10
4376080,10
4376708,11
4377328,19
4377960,20
4378580,22
4379204,21
4379836,16
4380456,37
4381088,37
4381716,36
4382336,35
4382968,27
4383592,31
4384220,36
4384852,38
4385472,22
4386100,11
4386724,10
4387348,22
4387980,21
4388600,33
4389228,35
4389852,35
4390480,35
4391108,33
4391728,21
4392356,11
4392988,12
4393608,13
4394236,12
4394860,16
4395492,27
4396124,32
4396744,22
4397376,42
4398000,48
4398624,46
4399256,40
4399872,23
4400504,27
4401128,26
4401752,22
4402384,11
4403000,11
4403632,13
4404260,30
4404880,25
4405508,29
4406132,33
4406764,34
4407392,35
4408012,18
4408640,12
4409264,11
4409888,11
4410516,14
4411136,21
4411768,17
4412392,19
4413016,24
4413644,31
4414264,47
4414892,53
4415524,55
4416144,39
4416772,18
4417396,33
4418028,30
4418656,22
4419272,11
4419904,11
4420528,29
4421152,35
4421780,18
4422400,35
4423028,36
4423656,37
4424280,35
4424908,15
4425528,25
4426156,19
4426788,26
4427408,37
4428036,32
4428664,29
4429292,27
4429924,19
4430544,31
4431172,34
4431800,35
4432424,37
4433052,47
4433672,57
4434304,48
4434928,30
4435552,12
4436180,13
4436804,12
4437432,17
4438064,14
4438688,35
4439320,33
4439944,33
4440572,35
4441204,32
4441824,13
4442452,18
4443076,27
4443704,19
4444332,18
4444952,21
4445580,21
4446208,16
4446832,21
4447460,47
4448088,49
4448716,40
4449348,38
4449968,23
4450596,27
4451220,31
4451848,33
4452476,16
4453096,16
4453728,12
4454352,21
4454976,17
4455608,31
4456228,33
4456856,35
4457484,36
4458104,18
4458732,13
4459360,12
4459988,10
4460620,14
4461240,29
4461868,33
4462496,29
4463120,19
4463752,35
4464368,43
4465000,47
4465624,44
4466248,41
4466876,39
4467496,41
4468124,33
4468756,22
4469376,10
4470008,24
4470632,29
4471260,15
4471892,28
4472512,33
4473144,36
4473768,37
4474392,34
4475024,17
4475640,22
4476272,15
4476896,11
4477520,13
4478152,18
4478768,19
4479400,15
4480032,14
4480648,35
4481276,38
4481900,45
4482528,43
4483160,39
4483776,36
4484408,37
4485032,35
4485656,20
4486284,13
4486904,13
4487532,38
4488156,36
4488780,31
4489412,32
4490032,33
4490664,35
4491292,21
4491912,13
4492544,11
4493168,14
4493796,11
4494428,16
4495048,25
4495680,25
4496300,18
4496928,34
4497556,49
4498176,55
4498804,47
4499432,51
4500056,45
4500684,41
4501304,37
4501936,30
4502564,14
4503184,14
4503816,40
4504440,44
4505072,35
4505700,32
4506320,34
4506948,38
4507572,42
4508192,25
4508824,11
4509440,13
4510068,10
4510692,18
4511316,21
4511948,26
4512568,24
4513196,17
4513828,35
4514448,44
4515076,44
4515700,47
4516332,39
4516960,32
4517584,25
4518216,13
4518840,13
4519464,11
4520092,21
4520712,12
4521340,11
4521964,31
4522588,34
4523220,33
4523844,34
4524472,34
4525104,15
4525724,13
4526352,14
4526976,19
4527604,33
4528236,34
4528856,32
4529484,21
4530108,15
4530732,47
4531364,40
4531984,41
4532612,42
4533236,39
4533860,31
4534492,31
4535116,35
4535748,21
4536376,22
4537000,12
4537628,28
4538252,19
4538884,31
4539512,35
4540136,39
4540768,37
4541392,21
4542016,21
4542648,19
4543264,13
4543896,11
4544528,14
4545144,29
4545772,32
4546400,21
4547028,35
4547660,46
4548280,47
4548908,41
4549532,45
4550160,44
4550788,50
4551408,37
4552040,11
4552660,19
4553288,19
4553916,22
4554536,18
4555168,21
4555796,33
4556416,33
4557048,36
4557672,34
4558300,18
4558932,12
4559552,11
4560184,11
4560804,14
4561428,19
4562060,26
4562680,23
4563308,13
4563932,41
4564556,45
4565188,38
4565808,40
4566436,36
4567068,36
4567688,39
4568316,36
4568944,23
4569572,17
4570204,10
4570824,19
4571456,18
4572080,31
4572704,33
4573336,34
4573952,35
4574584,26
4575208,19
4575832,21
4576464,15
4577080,14
4577712,28
4578340,43
4578960,43
4579592,25
4580216,26
4580844,37
4581476,41
4582096,40
4582728,36
4583352,20
4583976,24
4584608,35
4585224,42
4585856,32
4586480,27
4587104,13
4587736,13
4588360,15
4588988,30
4589620,32
4590240,36
4590868,36
4591492,16
4592124,12
4592756,15
4593376,29
4594004,32
4594628,21
4595256,16
4595884,16
4596504,16
4597132,31
4597760,35
4598384,42
4599016,46
4599640,37
4600272,19
4600900,25
4601520,36
4602152,29
4602776,14
4603400,11
4604032,13
4604648,11
4605280,33
4605904,37
4606528,34
4607160,34
4607780,34
4608412,18
4609040,27
4609656,35
4610284,27
4610908,23
4611536,24
4612164,31
4612784,33
4613412,15
4614036,48
4614664,48
4615292,46
4615912,43
4616540,32
4617164,27
4617788,31
4618420,32
4619040,21
4619668,16
4620300,10
4620920,25
4621548,28
4622172,29
4622804,34
4623432,34
4624052,33
4624680,19
4625304,16
4625928,14
4626556,15
4627176,15
4627808,17
4628432,17
4629056,24
4629684,26
4630304,32
4630936,53
4631564,54
4632184,40
4632812,35
4633436,20
4634068,26
4634700,28
4635320,24
4635948,11
4636576,11
4637200,19
4637828,11
4638448,17
4639076,33
4639704,33
4640328,35
4640956,34
4641576,33
4642204,31
4642836,14
4643456,11
4644084,10
4644708,11
4645340,22
4645968,23
4646592,13
4647220,44
4647844,50
4648468,59
4649100,53
4649720,33
4650348,18
4650972,16
4651596,22
4652228,17
4652848,11
4653476,11
4654108,18
4654728,12
4655356,33
4655984,33
4656616,41
4657244,45
4657864,42
4658496,28
4659120,21
4659744,19
4660372,16
4660992,29
4661620,22
4662244,22
4662872,20
4663500,19
4664120,43
4664748,44
4665380,39
4666000,35
4666628,25
4667256,37
4667884,38
4668516,34
4669136,17
4669768,13
4670388,14
4671016,23
4671644,15
4672264,33
4672892,31
4673516,33
4674140,33
4674772,16
4675392,14
4676024,15
4676652,12
4677272,11
4677900,11
4678528,17
4679156,17
4679788,16
4680408,35
4681036,44
4681660,47
4682284,44
4682916,31
4683536,18
4684164,19
4684792,28
4685416,29
4686044,18
4686672,11
4687300,22
4687932,16
4688552,25
4689180,31
4689808,39
4690436,37
4691068,32
4691688,13
4692316,21
4692944,22
4693568,17
4694196,18
4694816,18
4695448,21
4696076,22
4696696,15
4697328,40
4697952,47
4698580,47
4699212,41
4699832,33
4700464,35
4701088,39
4701712,41
4702344,18
4702964,10
4703592,11
4704220,14
4704844,15
4705476,30
4706096,35
4706728,33
4707356,35
4707976,31
4708608,33
4709236,30
4709868,22
4710496,10
4711120,11
4711748,15
4712372,21
4712996,30
4713628,30
4714248,36
4714876,37
4715504,44
4716128,46
4716760,40
4717384,45
4718016,36
4718644,14
4719264,11
4719896,13
4720520,21
4721148,17
4721780,21
4722400,37
4723028,34
4723656,35
4724280,35
4724908,14
4725528,18
4726160,20
4726788,21
4727408,20
4728040,20
4728664,29
4729292,26
4729924,19
4730544,30
4731176,40
4731800,43
4732424,45
4733056,54
4733672,45
4734304,37
4734928,19
4735556,18
4736188,22
4736808,26
4737436,10
4738068,16
4738688,31
4739316,31
4739944,34
4740572,32
4741204,32
4741824,29
4742456,32
4743080,23
4743704,24
4744332,38
4744952,31
4745584,27
4746208,23
4746832,19
4747464,42
4748080,47
4748712,47
4749344,47
4749964,44
4750592,42
4751220,45
4751852,39
4752480,10
4753104,13
4753732,13
4754360,12
4754984,13
4755612,34
4756232,34
4756864,37
4757488,34
4758112,22
4758744,21
4759368,17
4760000,14
4760628,10
4761248,11
4761880,17
4762504,17
4763132,17
4763764,30
4764384,40
4765012,42
4765640,39
4766264,32
4766892,26
4767512,31
4768144,35
4768772,18
4769392,11
4770020,11
4770648,14
4771276,12
4771908,26
4772528,28
4773156,33
4773784,35
4774408,36
4775036,19
4775656,15
4776288,11
4776912,11
4777536,17
4778168,15
4778784,16
4779416,18
4780048,14
4780664,40
4781296,42
4781924,50
4782556,43
4783184,31
4783808,28
4784440,30
4785068,19
4785692,10
4786324,10
4786944,11
4787576,22
4788200,31
4788824,30
4789456,31
4790072,36
4790704,35
4791336,18
4791956,12
4792588,15
4793212,11
4793844,11
4794476,22
4795096,34
4795728,31
4796352,27
4796976,29
4797608,43
4798224,53
4798856,46
4799484,47
4800108,38
4800736,38
4801360,33
4801992,21
4802620,10
4803240,13
4803868,19
4804492,19
4805120,15
4805752,23
4806368,32
4807000,34
4807624,32
4808248,17
4808876,20
4809496,18
4810128,11
4810756,10
4811376,11
4812008,29
4812632,35
4813264,24
4813892,38
4814512,44
4815140,45
4815768,37
4816392,28
4817020,30
4817640,40
4818268,37
4818892,21
4819516,13
4820148,12
4820768,18
4821396,25
4822028,27
4822648,27
4823276,35
4823904,33
4824532,32
4825164,22
4825784,19
4826412,11
4827036,11
4827664,16
4828292,23
4828912,29
4829540,16
4830168,18
4830792,44
4831424,56
4832044,51
4832672,41
4833300,25
4833920,35
4834548,34
4835172,18
4835804,18
4836436,30
4837056,37
4837688,34
4838312,15
4838936,33
4839564,32
4840184,35
4840812,35
4841436,18
4842060,16
4842692,12
4843312,11
4843944,12
4844572,20
4845192,39
4845824,33
4846448,28
4847076,29
4847708,31
4848328,46
4848956,50
4849584,48
4850208,41
4850840,39
4851456,36
4852088,26
4852712,14
4853336,11
4853968,34
4854584,44
4855216,29
4855844,23
4856464,34
4857096,36
4857720,35
4858348,15
4858980,12
4859600,13
4860232,16
4860856,12
4861480,12
4862112,15
4862728,23
4863360,18
4863984,35
4864612,39
4865240,43
4865864,41
4866492,23
4867124,10
4867744,15
4868376,29
4869000,22
4869628,17
4870260,12
4870880,17
4871508,18
4872136,31
4872760,29
4873392,33
4874008,32
4874640,22
4875268,10
4875888,13
4876516,19
4877144,23
4877772,18
4878404,22
4879024,31
4879656,39
4880280,28
4880904,41
4881532,49
4882152,49
4882780,45
4883408,35
4884032,38
4884660,33
4885280,27
4885908,17
4886540,20
4887160,11
4887792,19
4888416,17
4889044,35
4889676,43
4890296,41
4890924,36
4891552,14
4892176,13
4892804,12
4893424,11
4894056,16
4894680,19
4895304,26
4895936,22
4896556,15
4897184,41
4897816,44
4898432,38
4899064,37
4899688,33
4900320,30
4900948,37
4901568,39
4902200,29
4902824,15
4903448,11
4904080,22
4904696,18
4905328,26
4905952,26
4906576,32
4907208,33
4907824,34
4908456,11
4909088,10
4909708,10
4910340,11
4910964,15
4911596,20
4912228,28
4912848,35
4913480,27
4914104,32
4914728,39
4915360,42
4915984,39
4916612,33
4917236,33
4917860,33
4918488,27
4919112,11
4919740,14
4920372,12
4920992,21
4921620,21
4922244,30
4922872,33
4923500,34
4924120,35
4924748,19
4925372,14
4926000,11
4926628,10
4927248,12
4927876,16
4928504,31
4929124,36
4929756,28
4930380,31
4931008,42
4931640,42
4932256,39
4932888,40
4933512,46
4934140,42
4934772,25
4935392,11
4936024,13
4936644,13
4937268,16
4937900,17
4938520,22
4939148,26
4939776,32
4940400,33
4941028,35
4941652,49
4942284,53
4942912,30
4943536,15
4944164,17
4944788,12
4945416,11
4946044,20
4946664,18
4947292,35
4947916,39
4948540,45
4949172,39
4949792,40
4950424,36
4951052,38
4951672,38
4952304,20
4952928,14
4953560,11
4954192,18
4954808,25
4955440,30
4956064,29
4956688,33
4957316,35
4957936,25
4958568,13
4959192,11
4959816,13
4960448,19
4961064,31
4961692,24
4962324,21
4962944,20
4963572,26
4964196,41
4964828,51
4965456,46
4966080,43
4966708,29
4967332,31
4967956,37
4968588,28
4969208,16
4969836,12
4970460,15
4971084,20
4971716,14
4972336,30
4972968,35
4973596,38
4974216,37
4974848,21
4975472,16
4976100,11
4976732,10
4977352,11
4977980,15
4978604,27
4979228,32
4979860,22
4980480,34
4981108,44
4981736,45
4982360,42
4982992,32
4983608,35
4984240,46
4984872,50
4985488,37
4986120,20
4986744,12
4987376,26
4988004,32
4988624,28
4989256,25
4989880,33
4990504,35
4991136,34
4991756,21
4992388,18
4993012,23
4993636,27
4994264,29
4994888,20
4995520,18
4996148,15
4996768,13
4997400,44
4998024,40
4998652,38
4999284,35
4999904,31
5000536,35
5001160,38
5001784,31
5002412,13
5003032,17
5003664,16
5004292,11
5004912,15
5005540,32
5006168,31
5006796,32
5007428,34
5008048,19
5008676,19
5009300,27
5009928,35
5010556,26
5011176,25
5011808,37
5012432,35
5013056,21
5013688,34
5014304,45
5014936,47
5015568,48
5016188,43
5016816,36
5017444,39
5018076,42
5018704,28
5019324,15
5019952,10
5020576,28
5021200,29
5021828,18
5022448,31
5023080,33
5023704,35
5024328,34
5024956,22
5025576,26
5026208,23
5026836,15
5027456,18
5028088,23
5028712,34
5029340,25
5029972,15
5030592,41
5031224,56
5031848,49
5032472,35
5033104,19
5033720,27
5034352,44
5034976,51
5035600,41
5036232,22
5036848,14
5037480,40
5038112,35
5038728,31
5039360,32
5039984,35
5040616,34
5041248,29
5041864,15
5042496,12
5043120,18
5043744,15
5044376,20
5044996,28
5045624,32
5046248,28
5046876,23
5047504,45
5048128,49
5048760,51
5049392,43
5050008,40
5050640,42
5051264,42
5051896,27
5052524,10
5053144,11
5053776,26
5054400,23
5055024,13
5055656,36
5056276,33
5056908,34
5057532,34
5058156,17
5058788,17
5059412,17
5060044,17
5060672,27
5061296,29
5061928,27
5062552,19
5063176,13
5063808,39
5064428,42
5065056,39
5065680,39
5066304,35
5066936,34
5067556,39
5068188,31
5068816,10
5069440,12
5070068,11
5070696,28
5071328,35
5071960,28
5072580,26
5073208,32
5073836,35
5074460,35
5075092,14
5075712,11
5076344,11
5076972,12
5077596,19
5078228,21
5078856,21
5079488,17
5080120,20
5080736,30
5081368,35
5081992,37
5082624,38
5083252,37
5083872,39
5084504,37
5085128,34
5085752,19
5086384,13
5087004,12
5087632,18
5088264,12
5088888,35
5089520,33
5090144,36
5090772,33
5091404,23
5092024,24
5092656,28
5093280,17
5093904,13
5094536,25
5095156,36
5095784,29
5096412,17
5097036,32
5097668,40
5098288,42
5098920,41
5099552,42
5100168,40
5100800,49
5101424,43
5102056,26
5102688,10
5103308,12
5103940,18
5104564,15
5105192,19
5105824,29
5106444,34
5107076,36
5107700,34
5108328,14
5108960,11
5109584,11
5110216,15
5110848,33
5111468,43
5112100,41
5112724,24
5113352,14
5113984,48
5114604,52
5115236,46
5115864,43
5116488,33
5117120,21
5117744,22
5118380,36
5119012,25
5119636,11
5120268,14
5120892,22
5121520,19
5122148,30
5122768,33
5123396,33
5124020,34
5124640,23
5125268,13
5125888,11
5126516,11
5127140,16
5127760,30
5128392,30
5129008,15
5129636,13
5130264,27
5130888,40
5131516,35
5132140,40
5132772,40
5133400,34
5134020,33
5134648,27
5135272,25
5135896,17
5136524,11
5137144,21
5137772,24
5138396,15
5139020,31
5139652,34
5140272,33
5140900,34
5141532,16
5142152,19
5142780,13
5143404,11
5144036,15
5144664,20
5145288,32
5145916,37
5146540,25
5147164,30
5147796,39
5148416,44
5149044,41
5149668,31
5150292,24
5150924,34
5151544,42
5152176,32
5152804,22
5153424,15
5154052,14
5154676,19
5155308,28
5155936,34
5156556,35
5157184,35
5157812,35
5158436,11
5159064,11
5159684,12
5160312,11
5160936,12
5161560,15
5162188,20
5162808,23
5163436,13
5164068,40
5164688,38
5165316,42
5165940,37
5166572,24
5167200,18
5167824,26
5168456,39
5169080,29
5169700,21
5170332,13
5170952,36
5171584,35
5172208,30
5172828,33
5173460,35
5174084,34
5174712,19
5175340,11
5175960,11
5176592,11
5177216,11
5177844,17
5178476,30
5179096,24
5179724,15
5180352,32
5180976,33
5181604,38
5182224,41
5182852,42
5183480,39
5184104,46
5184732,45
5185356,31
5185984,15
5186616,9
5187180,21
5187816,23
5188440,14
5189068,36
5189700,34
5190320,33
5190952,36
5191576,22
5192200,20
5192828,16
5193448,16
5194076,14
5194704,12
5195328,13
5195960,12
5196576,13
5197208,32
5197840,31
5198456,33
5199088,37
5199712,27
5200344,21
5200972,36
5201592,41
5202224,28
5202848,14
5203468,11
5204100,18
5204720,13
5205348,30
5205972,28
5206600,37
5207228,43
5207848,39
5208476,30
5209108,30
5209728,25
5210356,19
5210980,17
5211612,17
5212244,19
5212864,26
5213492,17
5214116,44
5214744,54
5215372,51
5215992,45
5216624,37
5217248,40
5217872,40
5218500,31
5219120,19
5219752,17
5220380,12
5221000,23
5221632,17
5222256,37
5222888,31
5223516,33
5224136,36
5224764,32
5225388,36
5226012,33
5226644,36
5227264,27
5227892,20
5228520,20
5229144,20
5229772,18
5230392,35
5231024,40
5231652,43
5232272,45
5232904,45
5233528,38
5234156,40
5234788,46
5235408,39
5236036,19
5236660,11
5237288,17
5237916,12
5238536,20
5239168,31
5239792,37
5240416,36
5241048,33
5241672,13
5242300,13
5242932,14
5243552,17
5244180,18
5244804,18
5245432,29
5246060,38
5246680,24
5247308,35
5247932,46
5248560,52
5249188,45
5249808,45
5250436,39
5251060,37
5251680,27
5252312,11
5252932,11
5253564,11
5254192,24
5254812,23
5255440,28
5256060,29
5256692,34
5257320,34
5257936,30
5258568,15
5259188,11
5259812,11
5260444,11
5261064,13
5261692,22
5262316,25
5262940,21
5263572,24
5264192,39
5264824,42
5265452,42
5266072,34
5266700,17
5267324,39
5267952,47
5268584,40
5269200,20
5269828,13
5270452,18
5271076,27
5271704,22
5272328,33
5272956,33
5273580,33
5274208,33
5274836,22
5275460,21
5276088,16
5276720,11
5277336,12
5277968,15
5278592,19
5279220,17
5279852,16
5280472,33
5281100,40
5281724,41
5282348,45
5282976,48
5283596,51
5284224,44
5284844,18
5285468,10
5286096,10
5286720,14
5287348,11
5287976,14
5288596,26
5289224,30
5289848,34
5290476,36
5291104,36
5291728,21
5292356,13
5292980,15
5293604,11
5294232,25
5294856,35
5295484,39
5296108,26
5296732,13
5297360,40
5297984,49
5298612,48
5299244,39
5299864,37
5300492,41
5301116,36
5301744,25
5302376,13
5302996,11
5303624,11
5304248,18
5304872,16
5305500,30
5306120,32
5306748,33
5307372,36
5308000,21
5308628,22
5309252,25
5309884,22
5310512,21
5311132,35
5311764,59
5312388,41
5313016,16
5313648,34
5314264,49
5314892,54
5315516,52
5316140,54
5316772,44
5317392,37
5318024,33
5318648,17
5319272,10
5319900,12
5320524,27
5321156,22
5321788,18
5322408,38
5323036,32
5323664,39
5324292,35
5324924,11
5325540,14
5326172,12
5326792,10
5327416,16
5328044,26
5328660,39
5329292,49
5329912,34
5330536,34
5331168,34
5331792,45
5332420,41
5333052,28
5333672,25
5334300,36
5334924,45
5335556,28
5336184,10
5336808,10
5337436,12
5338060,12
5338684,31
5339316,30
5339936,35
5340564,33
5341196,34
5341816,25
5342444,12
5343068,12
5343700,11
5344332,24
5344952,31
5345580,23
5346204,25
5346828,18
5347456,40
5348080,45
5348708,42
5349332,35
5349956,26
5350588,30
5351208,38
5351836,35
5352468,24
5353088,19
5353716,11
5354340,18
5354972,15
5355600,32
5356224,33
5356852,35
5357476,34
5358100,17
5358732,20
5359352,24
5359984,19
5360608,23
5361232,29
5361860,30
5362480,29
5363108,24
5363740,28
5364360,37
5364988,46
5365612,45
5366244,42
5366872,34
5367496,41
5368124,40
5368748,26
5369372,16
5370004,10
5370624,16
5371252,15
5371876,21
5372504,29
5373132,32
5373752,37
5374384,35
5375012,14
5375632,19
5376264,17
5376884,14
5377512,15
5378144,15
5378760,24
5379388,25
5380012,23
5380636,35
5381264,43
5381880,44
5382512,43
5383136,41
5383760,43
5384388,35
5385008,17
5385636,11
5386264,10
5386888,17
5387516,25
5388140,14
5388772,31
5389400,28
5390024,36
5390652,32
5391276,29
5391904,17
5392532,11
5393152,9
5393728,18
5394360,33
5394984,25
5395612,12
5396232,15
5396864,21
5397484,32
5398108,34
5398740,34
5399364,36
5399996,29
5400628,44
5401248,43
5401880,34
5402500,26
5403132,23
5403764,12
5404384,18
5405012,14
5405640,34
5406264,32
5406892,41
5407512,49
5408140,34
5408764,32
5409392,33
5410020,26
5410644,25
5411272,23
5411900,23
5412520,20
5413148,19
5413772,33
5414404,42
5415032,51
5415652,50
5416280,46
5416904,44
5417528,48
5418156,40
5418776,18
5419408,11
5420032,18
5420656,27
5421288,17
5421912,25
5422540,35
5423172,34
5423792,33
5424424,35
5425048,14
5425672,19
5426300,18
5426920,15
5427552,22
5428172,25
5428796,26
5429428,28
5430048,26
5430676,32
5431308,42
5431928,48
5432560,41
5433180,31
5433812,39
5434444,46
5435064,41
5435692,21
5436320,15
5436944,13
5437572,14
5438192,14
5438824,30
5439448,31
5440072,34
5440700,36
5441320,27
5441948,16
5442576,11
5443192,11
5443824,15
5444448,37
5445076,49
5445708,40
5446328,27
5446956,29
5447580,38
5448208,41
5448836,46
5449456,47
5450084,45
5450708,46
5451332,43
5451960,31
5452584,12
5453212,11
5453844,22
5454464,21
5455092,13
5455716,31
5456348,34
5456976,36
5457592,33
5458224,17
5458848,19
5459472,18
5460100,11
5460720,12
5461348,15
5461972,24
5462596,19
5463228,14
5463848,36
5464476,41
5465108,42
5465728,38
5466356,21
5466980,11
5467612,16
5468240,26
5468864,22
5469492,14
5470116,10
5470740,16
5471372,12
5471992,29
5472624,33
5473248,33
5473872,34
5474500,31
5475120,22
5475752,35
5476380,36
5477000,38
5477632,39
5478256,23
5478888,17
5479516,17
5480136,13
5480764,39
5481388,45
5482012,47
5482644,42
5483264,35
5483892,35
5484520,43
5485144,39
5485772,27
5486392,17
5487024,20
5487652,39
5488272,31
5488904,30
5489524,32
5490156,35
5490784,35
5491408,18
5492036,17
5492660,21
5493284,32
5493916,24
5494536,19
5495164,21
5495792,18
5496416,13
5497044,32
5497668,36
5498300,39
5498932,36
5499552,36
5500184,28
5500808,43
5501436,39
5502068,31
5502688,25
5503320,19
5503944,11
5504568,18
5505200,22
5505816,28
5506448,38
5507076,34
5507696,34
5508324,12
5508952,11
5509580,11
5510212,15
5510832,25
5511460,20
5512088,21
5512712,27
5513340,26
5513960,34
5514592,31
5515216,41
5515840,41
5516468,42
5517088,37
5517720,39
5518348,34
5518968,13
5519600,11
5520224,12
5520852,12
5521484,16
5522104,30
5522732,25
5523360,33
5523984,35
5524616,28
5525232,12
5525864,13
5526488,14
5527112,14
5527744,27
5528360,37
5528992,33
5529624,23
5530240,23
5530868,41
5531492,50
5532124,44
5532752,44
5533376,43
5534004,38
5534632,34
5535256,27
5535884,12
5536504,10
5537132,19
5537756,23
5538380,15
5539012,33
5539632,33
5540264,33
5540892,32
5541512,17
5542144,16
5542768,14
5543396,11
5544028,10
5544648,17
5545276,27
5545904,28
5546528,27
5547160,30
5547776,41
5548408,40
5549032,35
5549656,33
5550288,34
5550904,39
5551536,39
5552164,27
5552784,19
5553416,16
5554040,13
5554672,31
5555300,30
5555920,31
5556552,34
5557176,36
5557800,33
5558432,16
5559048,11
5559680,12
5560304,11
5560928,18
5561560,23
5562184,37
5562816,34
5563444,24
5564064,42
5564696,59
5565320,61
5565952,46
5566584,26
5567204,33
5567832,42
5568460,38
5569084,13
5569716,10
5570336,15
5570968,16
5571596,17
5572216,30
5572844,31
5573468,33
5574100,35
5574728,17
5575352,23
5575984,28
5576608,24
5577232,23
5577864,26
5578480,27
5579108,26
5579736,25
5580360,31
5580992,39
5581608,44
5582236,42
5582868,40
5583488,34
5584120,39
5584740,44
5585372,35
5586004,22
5586624,21
5587252,11
5587876,17
5588500,16
5589132,31
5589752,35
5590384,42
5591008,42
5591636,29
5592264,22
5592888,23
5593516,23
5594152,25
5594768,19
5595400,17
5596024,16
5596656,13
5597284,41
5597904,49
5598536,51
5599160,49
5599784,41
5600416,37
5601032,43
5601660,44
5602284,23
5602908,11
5603540,14
5604164,20
5604792,14
5605424,31
5606044,31
5606672,33
5607300,33
5607928,32
5608560,22
5609176,21
5609804,16
5610432,11
5611056,17
5611684,18
5612304,15
5612932,21
5613556,26
5614184,32
5614812,35
5615436,36
5616068,39
5616696,48
5617316,56
5617944,47
5618568,41
5619196,18
5619828,10
5620448,23
5621076,24
5621704,14
5622328,30
5622960,37
5623576,35
5624208,35
5624836,16
5625456,19
5626088,19
5626712,20
5627344,29
5627972,31
5628592,35
5629224,33
5629848,25
5630472,30
5631104,43
5631724,48
5632356,47
5632980,49
5633600,48
5634228,45
5634848,40
5635476,23
5636108,12
5636728,11
5637356,22
5637980,18
5638612,31
5639240,36
5639860,35
5640488,35
5641112,36
5641736,20
5642364,18
5642984,20
5643612,12
5644236,13
5644860,15
5645492,24
5646112,29
5646740,19
5647372,38
5647992,39
5648624,42
5649248,42
5649876,41
5650508,41
5651128,42
5651760,42
5652384,21
5653008,17
5653636,12
5654256,13
5654884,20
5655508,31
5656132,33
5656764,42
5657384,39
5658016,26
5658644,16
5659264,14
5659892,12
5660516,11
5661148,15
5661776,30
5662400,24
5663028,20
5663652,29
5664280,32
5664908,38
5665528,42
5666156,49
5666780,40
5667404,37
5668036,28
5668656,15
5669284,10
5669916,19
5670536,13
5671164,15
5671792,14
5672420,34
5673052,32
5673672,35
5674300,33
5674924,21
5675548,17
5676180,14
5676800,14
5677428,18
5678056,25
5678680,32
5679312,29
5679928,16
5680560,41
5681188,39
5681808,46
5682436,45
5683064,29
5683692,20
5684324,32
5684944,35
5685572,22
5686200,12
5686824,11
5687452,15
5688072,17
5688700,32
5689328,31
5689952,33
5690580,34
5691204,35
5691836,12
5692468,10
5693088,11
5693720,11
5694344,23
5694972,32
5695604,29
5696224,21
5696852,14
5697476,36
5698100,36
5698732,38
5699352,42
5699980,41
5700608,42
5701232,38
5701864,27
5702488,10
5703116,11
5703748,14
5704368,22
5704996,18
5705624,32
5706248,32
5706876,34
5707496,35
5708128,16
5708752,23
5709376,25
5710008,15
5710628,11
5711256,11
5711888,26
5712512,38
5713144,37
5713768,31
5714400,41
5715028,49
5715648,45
5716280,44
5716904,35
5717528,39
5718160,37
5718776,24
5719408,16
5720036,12
5720660,14
5721288,14
5721912,24
5722544,36
5723176,32
5723792,38
5724424,48
5725052,36
5725680,17
5726312,17
5726932,23
5727564,24
5728192,18
5728816,26
5729448,21
5730064,13
5730696,44
5731320,48
5731944,48
5732576,42
5733200,39
5733832,39
5734464,38
5735080,34
5735708,14
5736332,10
5736960,11
5737592,19
5738208,19
5738836,30
5739460,33
5740088,35
5740716,32
5741336,26
5741964,18
5742592,20
5743216,11
5743848,15
5744472,11
5745100,14
5745732,24
5746352,39
5746984,41
5747608,33
5748232,51
5748860,49
5749480,46
5750112,33
5750736,43
5751360,37
5751988,15
5752608,10
5753240,11
5753872,25
5754488,31
5755120,16
5755744,36
5756376,33
5757004,33
5757624,33
5758256,15
5758880,13
5759504,11
5760136,10
5760752,13
5761380,15
5762004,16
5762628,16
5763256,13
5763872,54
5764500,51
5765132,35
5765752,35
5766380,21
5767004,22
5767636,27
5768264,27
5768888,14
5769516,11
5770140,11
5770764,21
5771396,13
5772016,29
5772644,31
5773268,35
5773892,35
5774524,36
5775144,24
5775776,18
5776404,12
5777024,11
5777652,14
5778276,15
5778904,19
5779536,25
5780152,22
5780784,40
5781408,50
5782032,43
5782660,38
5783280,33
5783908,29
5784536,31
5785160,24
5785788,10
5786408,13
5787036,11
5787664,22
5788288,13
5788916,37
5789540,34
5790172,35
5790800,34
5791424,33
5792052,36
5792676,28
5793300,14
5793932,10
5794552,15
5795184,28
5795808,33
5796432,22
5797060,34
5797680,47
5798308,45
5798940,46
5799560,51
5800192,51
5800812,55
5801444,39
5802072,12
5802696,21
5803328,17
5803952,28
5804576,29
5805208,17
5805824,35
5806456,36
5807080,33
5807704,33
5808332,12
5808952,17
5809584,16
5810212,16
5810832,22
5811464,24
5812088,33
5812716,27
5813348,18
5813968,33
5814600,39
5815224,44
5815848,47
5816480,49
5817096,40
5817724,32
5818348,23
5818972,11
5819604,10
5820228,16
5820860,11
5821488,17
5822108,30
5822740,30
5823364,33
5823992,36
5824624,29
5825248,13
5825876,14
5826504,11
5827128,11
5827756,23
5828376,17
5829004,31
5829636,48
5830256,39
5830888,33
5831512,42
5832144,56
5832772,56
5833392,43
5834024,13
5834648,11
5835272,17
5835904,16
5836524,14
5837152,13
5837776,20
5838400,15
5839032,29
5839648,33
5840280,37
5840908,36
5841528,17
5842156,10
5842780,10
5843412,12
5844044,10
5844664,13
5845292,31
5845916,47
5846544,45
5847172,32
5847792,32
5848424,36
5849044,43
5849668,43
5850300,38
5850920,38
5851552,33
5852180,18
5852800,17
5853428,27
5854056,14
5854688,28
5855316,30
5855936,30
5856568,36
5857192,35
5857820,38
5858448,28
5859072,17
5859704,13
5860328,15
5860952,11
5861584,12
5862200,17
5862832,19
5863460,14
5864080,41
5864708,41
5865332,43
5865964,39
5866596,36
5867216,29
5867848,29
5868472,31
5869096,21
5869728,15
5870344,11
5870976,18
5871600,22
5872224,30
5872856,32
5873480,35
5874112,39
5874740,23
5875360,13
5875992,12
5876616,13
5877248,11
5877880,29
5878496,35
5879128,25
5879752,23
5880376,28
5881008,38
5881628,51
5882256,44
5882888,40
5883508,20
5884140,20
5884764,29
5885396,26
5886028,16
5886648,10
5887280,26
5887908,31
5888536,17
5889164,30
5889784,37
5890412,35
5891040,41
5891664,17
5892292,14
5892912,19
5893544,12
5894172,12
5894792,11
5895424,21
5896048,35
5896676,31
5897308,35
5897928,39
5898560,41
5899180,39
5899808,35
5900436,30
5901056,44
5901684,41
5902308,22
5902932,13
5903564,10
5904184,21
5904812,16
5905444,28
5906064,27
5906692,33
5907320,36
5907948,32
5908580,12
5909200,12
5909828,11
5910452,10
5911076,16
5911708,20
5912328,21
5912956,21
5913584,20
5914208,40
5914836,40
5915464,36
5916092,35
5916724,23
5917344,35
5917976,40
5918600,37
5919232,27
5919860,22
5920480,15
5921112,21
5921736,16
5922360,33
5922988,32
5923608,35
5924236,34
5924864,15
5925488,12
5926116,18
5926744,18
5927372,30
5928004,24
5928624,16
5929252,13
5929880,15
5930504,29
5931132,33
5931752,43
5932384,36
5933008,30
5933632,26
5934264,28
5934880,25
5935512,15
5936144,11
5936760,16
5937392,15
5938016,25
5938648,28
5939276,30
5939896,37
5940524,36
5941148,34
5941772,11
5942400,15
5943016,14
5943648,11
5944272,17
5944896,21
5945524,22
5946144,19
5946772,13
5947404,39
5948024,49
5948652,50
5949280,47
5949908,35
5950540,24
5951160,29
5951792,25
5952416,10
5953040,13
5953668,18
5954288,29
5954916,21
5955544,29
5956168,31
5956796,35
5957416,33
5958048,23
5958680,12
5959296,11
5959928,11
5960552,13
5961180,34
5961812,38
5962432,26
5963060,16
5963688,33
5964312,46
5964940,44
5965560,40
5966188,34
5966816,36
5967440,54
5968068,44
5968688,30
5969316,16
5969948,11
5970568,15
5971196,18
5971824,15
5972456,33
5973084,34
5973704,37
5974336,35
5974960,15
5975584,16
5976216,11
5976836,11
5977464,16
5978092,29
5978716,36
5979348,36
5979972,21
5980604,39
5981236,46
5981856,52
5982488,50
5983112,42
5983744,45
5984376,46
5984992,27
5985624,12
5986248,11
5986872,18
5987500,32
5988120,28
5988752,30
5989384,31
5990000,33
5990632,35
5991256,33
5991888,11
5992516,10
5993136,12
5993768,13
5994392,26
5995016,32
5995648,38
5996264,41
5996896,23
5997520,45
5998148,48
5998776,43
5999400,39
6000032,24
6000660,31
6001280,37
6001908,37
6002536,28
6003164,32
6003796,12
6004416,29
6005044,25
6005672,29
6006296,33
6006928,35
6007544,36
6008176,29
6008800,16
6009424,17
6010056,12
6010676,26
6011304,34
6011936,33
6012556,22
6013188,17
6013812,32
6014444,38
6015076,46
6015696,45
6016328,38
6016952,31
6017576,36
6018208,34
6018828,25
6019456,17
6020084,16
6020708,13
6021340,11
6021964,25
6022592,31
6023224,35
6023844,34
6024472,35
6025096,14
6025728,15
6026356,23
6026976,12
6027608,13
6028232,19
6028856,29
6029484,26
6030104,17
6030736,36
6031364,36
6031984,39
6032616,38
6033240,43
6033872,49
6034500,54
6035120,42
6035752,22
6036380,12
6037004,23
6037636,43
6038256,32
6038888,31
6039512,32
6040136,35
6040768,35
6041392,21
6042024,13
6042656,16
6043272,14
6043904,12
6044528,20
6045160,25
6045788,18
6046408,17
6047040,30
6047664,35
6048288,42
6048916,42
6049536,39
6050168,31
6050792,34
6051416,34
6052048,26
6052668,13
6053296,10
6053928,16
6054548,15
6055180,15
6055804,33
6056436,31
6057068,34
6057688,38
6058320,13
6058944,17
6059568,16
6060200,12
6060820,11
6061448,19
6062076,29
6062700,32
6063332,39
6063960,33
6064588,38
6065220,40
6065840,41
6066472,29
6067096,20
6067720,31
6068352,26
6068972,13
6069600,10
6070228,13
6070852,11
6071484,13
6072104,36
6072736,37
6073368,35
6073984,32
6074616,33
6075240,10
6075872,13
6076500,11
6077120,10
6077752,21
6078380,34
6079004,43
6079636,48
6080256,40
6080888,33
6081512,39
6082136,45
6082768,42
6083384,26
6084012,19
6084644,22
6085264,27
6085892,15
6086520,13
6087148,11
6087780,14
6088400,13
6089028,30
6089656,32
6090280,34
6090908,34
6091528,15
6092160,13
6092784,12
6093408,16
6094040,17
6094664,19
6095296,22
6095924,22
6096544,27
6097176,29
6097800,35
6098432,44
6099060,42
6099680,37
6100312,35
6100936,41
6101560,38
6102192,26
6102812,16
6103444,13
6104072,12
6104696,16
6105328,27
6105952,34
6106584,33
6107212,34
6107832,36
6108464,13
6109088,12
6109712,15
6110344,14
6110964,14
6111596,20
6112220,32
6112848,29
6113476,18
6114096,38
6114728,48
6115356,51
6115976,43
6116608,42
6117232,34
6117864,35
6118496,31
6119112,12
6119744,10
6120372,15
6120996,25
6121628,24
6122248,30
6122880,33
6123504,35
6124128,34
6124760,20
6125384,19
6126016,18
6126648,12
6127268,10
6127900,14
6128524,20
6129156,19
6129788,15
6130408,33
6131040,40
6131664,41
6132292,41
6132924,34
6133544,20
6134176,31
6134808,40
6135432,24
6136064,14
6136692,10
6137324,19
6137956,21
6138576,19
6139208,36
6139836,34
6140464,33
6141096,34
6141716,14
6142348,23
6142980,29
6143604,31
6144236,21
6144860,16
6145488,26
6146116,26
6146736,22
6147364,33
6147988,39
6148616,58
6149244,72
6149864,65
6150492,36
6151116,20
6151740,21
6152372,20
6152992,11
6153620,10
6154252,14
6154872,17
6155500,31
6156128,33
6156756,38
6157388,36
6158008,29
6158636,19
6159264,16
6159888,16
6160520,16
6161136,23
6161764,29
6162388,35
6163016,36
6163644,27
6164264,37
6164896,48
6165524,48
6166144,46
6166772,35
6167400,39
6168028,39
6168660,29
6169280,10
6169908,11
6170532,16
6171156,16
6171788,14
6172408,29
6173036,34
6173664,35
6174288,34
6174920,16
6175536,14
6176168,13
6176796,10
6177416,11
6178044,12
6178668,30
6179300,32
6179932,23
6180552,33
6181184,40
6181808,40
6182432,38
6183060,29
6183680,29
6184308,33
6184936,29
6185560,13
6186192,15
6186808,19
6187440,12
6188068,13
6188688,34
6189320,34
6189944,34
6190576,37
6191204,38
6191824,22
6192456,16
6193080,14
6193704,13
6194336,20
6194952,21
6195584,33
6196212,37
6196836,20
6197464,37
6198088,36
6198720,39
6199352,39
6199968,40
6200600,39
6201224,41
6201856,32
6202484,10
6203104,19
6203736,24
6204360,16
6204984,13
6205616,32
6206232,36
6206864,34
6207492,36
6208112,19
6208744,12
6209368,14
6209996,12
6210628,18
6211248,27
6211876,36
6212504,32
6213128,29
6213760,32
6214376,40
6215008,54
6215632,46
6216260,36
6216892,28
6217512,48
6218144,45
6218776,32
6219396,17
6220024,11
6220652,14
6221284,19
6221912,18
6222536,31
6223168,35
6223792,37
6224420,43
6225048,34
6225672,24
6226304,13
6226928,11
6227552,12
6228180,15
6228808,23
6229436,24
6230068,12
6230688,40
6231320,44
6231944,36
6232576,39
6233204,35
6233824,35
6234456,37
6235080,41
6235704,20
6236336,17
6236952,16
6237584,19
6238216,29
6238836,30
6239464,33
6240092,34
6240720,35
6241348,27
6241968,14
6242596,11
6243220,11
6243848,11
6244476,18
6245096,27
6245728,36
6246352,33
6246976,26
6247608,46
6248224,47
6248856,40
6249484,34
6250104,14
6250732,27
6251360,29
6251988,17
6252620,14
6253240,13
6253868,11
6254496,10
6255120,15
6255748,30
6256368,35
6257000,34
6257624,35
6258248,16
6258876,10
6259496,15
6260128,17
6260756,24
6261376,35
6262008,35
6262632,30
