tempo_arduino_micro_s,valor_ADC
500,34
1004,63
1504,88
2000,76
2508,87
3000,104
3504,136
4004,129
4516,110
5028,71
5500,31
6000,11
6504,30
7000,54
7500,57
8000,59
8500,42
9000,38
9500,38
10000,47
10516,45
11036,47
11564,43
12084,12
12612,25
13132,72
13660,80
14180,82
14708,81
15228,71
15756,20
16276,95
16796,113
17368,48
17892,50
18412,50
18932,47
19452,48
19980,32
20508,49
21028,53
21556,44
22076,12
22604,13
23124,11
23652,14
24172,22
24700,11
25220,36
25748,45
26268,41
26796,50
27316,54
27844,51
28364,25
28892,12
29412,17
29940,12
30460,26
30988,37
31508,50
32036,51
32556,44
33084,59
33604,50
34132,43
34652,49
35180,57
35704,63
36228,58
36748,50
37276,61
37796,85
38316,90
38840,99
39356,112
39932,91
40456,58
40980,14
41500,15
42028,38
42548,54
43076,50
43596,53
44124,76
44644,63
45172,35
45692,32
46220,43
46740,83
47268,98
47788,94
48316,41
48836,15
49364,27
49884,21
50412,32
50932,65
51460,89
51980,136
52560,143
53128,127
53712,111
54288,64
54804,31
55332,53
55852,68
56380,45
56900,17
57428,132
58004,268
58584,255
59156,143
59736,67
60252,53
60780,55
61304,92
61828,73
62348,35
62876,24
63396,71
63920,64
64440,29
64956,18
65476,66
65996,73
66516,52
67036,16
67556,44
68076,52
68596,50
69116,49
69644,47
70164,51
70692,57
71212,60
71740,65
72260,64
72788,32
73312,16
73836,29
74356,35
74884,27
75404,35
75932,45
76456,47
76980,47
77500,48
78028,48
78548,23
79076,27
79600,30
80124,32
80644,29
81172,42
81692,66
82220,77
82740,49
83268,27
83788,15
84316,58
84836,78
85364,65
85884,55
86412,68
86932,103
87508,88
88028,48
88548,38
89068,30
89588,17
90112,17
90636,14
91164,12
91684,14
92212,31
92732,39
93260,47
93780,50
94308,57
94832,51
95356,12
95880,27
96404,42
96924,31
97452,35
97972,58
98500,38
99020,44
99548,59
100068,47
100640,43
101208,51
101792,47
102360,51
102940,69
103520,41
104088,15
104664,34
105232,36
105808,27
106376,25
106952,46
107528,39
108096,36
108672,57
109240,72
109824,49
110392,46
110976,49
111544,43
112120,22
112704,18
113272,12
113848,11
114416,20
115000,33
115572,32
116152,17
116720,21
117296,62
117880,92
118448,96
119032,68
119604,58
120184,53
120752,37
121328,50
121912,35
122484,43
123064,103
123684,100
124312,77
124884,47
125456,21
126032,48
126600,52
127184,46
127756,48
128336,41
128912,50
129488,22
130064,14
130632,26
131208,43
131776,51
132352,110
132972,96
133548,53
134120,47
134696,47
135280,79
135848,143
136484,192
137104,165
137732,116
138360,92
138924,123
139556,139
140176,116
140804,64
141380,14
141948,80
142528,140
143148,120
143780,120
144404,149
145020,186
145648,121
146264,45
146840,21
147408,14
147984,11
148568,15
149136,16
149720,13
150288,18
150872,61
151444,79
152020,85
152600,86
153172,64
153752,38
154324,43
154904,67
155472,70
156056,23
156624,18
157204,11
157784,15
158352,32
158936,85
159504,85
160088,81
160656,85
161232,68
161808,22
162376,13
162960,91
163528,163
164164,170
164784,149
165404,121
166032,46
166596,32
167176,31
167744,53
168328,62
168896,73
169464,74
170048,82
170616,77
171192,47
171764,35
172344,35
172912,48
173496,68
174064,26
174644,11
175224,14
175792,64
176376,121
176996,66
177572,49
178148,45
178720,30
179304,43
179872,35
180448,12
181016,25
181600,11
182168,58
182744,68
183328,42
183896,40
184480,69
185048,89
185624,98
186192,66
186768,21
187336,17
187912,11
188496,24
189064,14
189648,10
190216,11
190800,17
191368,33
191952,36
192528,52
193100,53
193680,54
194248,50
194832,44
195400,31
195984,63
196556,52
197132,22
197712,16
198284,17
198864,22
199436,30
200016,39
200584,44
201168,57
201744,56
202312,48
202896,87
203464,25
204048,39
204620,95
205200,132
205836,118
206452,103
207080,66
207644,25
208224,28
208792,72
209360,87
209944,70
210512,51
211096,48
211664,26
212248,61
212816,142
213452,77
214028,13
214596,15
215176,25
215744,38
216328,23
216896,22
217480,43
218048,54
218624,115
219260,164
219876,142
220504,99
221076,54
221652,21
222232,18
222804,27
223384,43
223956,51
224536,67
225112,70
225696,83
226264,82
226832,68
227416,56
227984,51
228568,33
229136,34
229720,17
230292,11
230868,17
231448,13
232016,34
232600,59
233172,77
233752,76
234324,54
234904,53
235476,49
236052,50
236632,64
237204,72
237784,77
238356,74
238936,79
239516,70
240092,66
240672,27
241240,22
241824,43
242392,49
242976,51
243548,88
244128,76
244700,53
245276,20
245856,16
246424,13
247008,16
247576,43
248160,31
248728,26
249304,30
249888,18
250456,25
251040,48
251608,62
252192,57
252764,46
253344,61
253916,106
254544,37
255120,26
255692,15
256272,102
256900,149
257528,126
258156,75
258724,28
259304,69
259872,114
260508,137
261136,127
261748,81
262324,34
262896,13
263472,21
264040,90
264624,142
265252,102
265868,53
266448,25
267016,25
267592,87
268160,86
268744,58
269320,59
269888,32
270472,19
271040,11
271624,21
272192,32
272776,32
273344,26
273920,14
274504,24
275076,42
275656,61
276228,50
276808,51
277376,54
277960,47
278536,29
279104,31
279688,13
280260,60
280840,91
281412,82
281992,46
282560,26
283136,43
283720,52
284292,41
284872,74
285444,91
286024,60
286596,82
287176,66
287752,47
288324,17
288904,23
289472,11
290056,13
290624,30
291208,44
291776,40
292356,52
292936,55
293508,51
294088,50
294660,66
295240,45
295808,48
296392,49
296968,36
297536,25
298120,12
298688,14
299272,41
299844,54
300424,37
300996,41
301572,45
302152,51
302724,60
303304,105
303928,136
304556,112
305188,144
305808,95
306384,21
306956,138
307588,273
308212,241
308832,128
309460,70
310028,57
310608,47
311180,48
311760,19
312336,14
312904,21
313488,26
314060,36
314640,57
315212,63
315792,44
316364,35
316940,70
317520,127
318144,143
318772,133
319396,111
320020,33
320592,92
321164,64
321744,11
322312,73
322896,209
323516,166
324140,53
324716,27
325288,92
325864,115
326488,103
327112,97
327692,73
328260,38
328840,26
329408,44
329984,78
330552,138
331188,161
331816,160
332432,111
333060,35
333628,27
334208,79
334776,78
335352,75
335936,63
336508,49
337088,54
337656,42
338240,25
338808,36
339384,61
339952,68
340532,51
341112,19
341684,54
342264,43
342836,42
343416,47
343984,53
344564,66
345144,64
345716,68
346296,90
346868,130
347500,167
348124,66
348692,82
349272,141
349896,100
350524,88
351092,104
351724,113
352352,121
352972,106
353600,61
354172,25
354752,45
355324,73
355900,77
356480,48
357048,12
357632,20
358204,17
358784,44
359360,46
359936,53
360520,52
361088,49
361672,27
362240,20
362824,36
363396,26
363976,29
364552,12
365124,22
365704,40
366276,40
366856,15
367428,67
368008,117
368628,135
369252,127
369880,96
370444,73
371024,68
371596,61
372176,30
372752,36
373324,117
373956,171
374576,135
375204,75
375772,47
376348,48
376928,47
377500,63
378080,76
378660,60
379240,28
379812,57
380388,93
380968,95
381540,46
382120,38
382692,32
383272,106
383904,81
384476,61
385056,138
385676,153
386304,149
386928,160
387556,95
388132,38
388704,25
389280,12
389848,21
390432,31
391000,51
391584,57
392156,40
392732,44
393312,47
393884,48
394464,45
395032,17
395616,11
396196,12
396772,24
397352,63
397924,86
398504,64
399076,36
399656,16
400236,25
400816,72
401384,118
402016,140
402640,154
403264,216
403892,198
404520,131
405136,152
405764,169
406384,136
407012,26
407592,145
408216,324
408844,262
409468,116
410096,71
410672,67
411240,164
411876,219
412492,205
413120,145
413748,56
414316,15
414896,18
415464,22
416048,41
416616,52
417192,60
417764,70
418336,78
418920,62
419488,54
420072,15
420640,67
421224,122
421844,85
422416,12
422992,11
423560,25
424144,27
424712,35
425296,33
425864,43
426448,46
427024,58
427596,82
428176,71
428748,27
429328,35
429900,38
430480,44
431056,35
431636,69
432216,48
432784,38
433368,32
433940,72
434520,57
435092,48
435668,58
436248,54
436816,32
437400,109
438024,37
438600,63
439172,67
439752,48
440328,14
440896,78
441480,56
442052,31
442632,41
443204,53
443784,53
444356,50
444932,48
445512,66
446084,83
446664,83
447236,64
447816,69
448396,93
448976,18
449552,123
450176,169
450804,100
451420,59
451996,55
452572,49
453148,32
453728,12
454300,42
454880,17
455448,74
456032,69
456600,24
457180,27
457760,35
458332,22
458912,62
459484,63
460064,48
460644,48
461224,46
461792,27
462368,59
462952,83
463524,67
464104,36
464672,26
465256,18
465828,47
466404,80
466984,110
467608,146
468236,137
468856,145
469484,99
470060,71
470632,32
471216,172
471840,216
472468,202
473096,106
473720,40
474296,23
474868,15
475448,79
476020,111
476652,73
477228,50
477800,48
478384,18
478956,12
479536,45
480116,67
480696,43
481264,30
481844,20
482424,14
482992,69
483576,100
484200,83
484776,59
485348,49
485924,46
486504,33
487072,18
487656,14
488228,66
488808,93
489380,64
489956,45
490536,41
491108,42
491688,56
492260,59
492840,51
493408,48
493992,49
494564,56
495136,42
495720,30
496292,19
496872,12
497440,42
498024,63
498592,32
499172,68
499752,115
500376,53
500956,47
501532,58
502112,49
502692,48
503268,33
503848,29
504420,61
505000,59
505572,21
506152,21
506732,44
507312,48
507892,14
508468,40
509048,41
509620,50
510200,48
510772,51
511352,57
511932,39
512508,23
513088,14
513656,24
514240,73
514808,64
515392,61
515960,43
516544,25
517112,45
517692,83
518272,99
518844,87
519424,63
519996,23
520576,21
521144,45
521720,48
522304,34
522872,31
523456,22
524028,45
524608,59
525180,18
525760,48
526328,54
526908,51
527488,49
528056,44
528640,11
529208,38
529792,68
530364,77
530940,51
531520,13
532092,14
532672,54
533244,93
533824,79
534396,72
534976,155
535612,66
536180,48
536760,15
537332,53
537912,120
538544,179
539164,188
539792,79
540356,39
540936,83
541508,95
542088,94
542660,103
543288,92
543864,82
544436,90
545016,59
545588,27
546168,27
546740,55
547316,64
547896,103
548520,92
549096,78
549668,33
550248,15
550828,57
551404,54
551984,47
552556,50
553136,30
553708,25
554288,61
554860,61
555440,54
556020,42
556596,30
557176,15
557748,12
558328,30
558908,43
559488,56
560060,57
560636,54
561216,57
561788,28
562368,29
562940,70
563520,84
564096,82
564680,80
565256,59
565828,60
566408,22
566976,63
567560,119
568184,72
568760,69
569332,90
569908,91
570488,56
571060,41
571640,24
572212,27
572792,75
573372,91
573948,74
574528,58
575100,19
575680,51
576252,61
576832,49
577400,54
577984,55
578556,31
579132,15
579712,13
580284,54
580864,140
581488,61
582064,14
582636,26
583212,30
583792,79
584364,111
584996,67
585568,65
586144,88
586724,117
587352,115
587980,92
588548,76
589128,33
589708,11
590288,28
590864,91
591436,70
592016,45
592588,53
593168,61
593740,61
594320,50
594900,21
595476,13
596056,12
596628,45
597208,52
597780,56
598360,58
598940,44
599516,17
600096,19
600668,52
601248,54
601820,83
602400,109
603024,124
603652,149
604280,104
604904,45
605480,142
606104,120
606728,76
607304,83
607876,66
608460,21
609028,103
609660,108
610284,67
610856,52
611432,42
612008,54
612584,49
613156,32
613736,13
614316,17
614892,37
615472,24
616044,17
616624,27
617196,43
617776,57
618348,57
618928,51
619500,50
620076,31
620656,71
621228,91
621808,69
622380,32
622960,39
623540,38
624116,11
624696,15
625268,36
625848,50
626420,48
627000,45
627572,58
628152,44
628724,27
629300,38
629880,42
630452,58
631032,60
631604,39
632184,42
632764,34
633340,20
633920,54
634496,69
635072,61
635644,69
636224,62
636804,52
637384,32
637960,31
638536,18
639112,10
639688,14
640268,36
640840,24
641424,26
641992,40
642572,39
643152,50
643724,53
644304,55
644876,23
645456,26
646024,22
646608,12
647184,50
647756,110
648388,137
649008,113
649636,104
650264,96
650828,146
651460,103
652080,136
652708,374
653336,276
653960,186
654588,146
655208,87
655784,59
656352,58
656928,18
657512,60
658084,81
658664,69
659232,51
659816,57
660388,84
660964,62
661544,23
662116,24
662696,21
663268,25
663848,29
664420,11
665000,25
665572,30
666148,12
666728,34
667296,78
667880,85
668448,87
669032,80
669600,80
670176,64
670760,58
671328,54
671912,48
672484,28
673064,18
673632,23
674216,53
674788,44
675364,38
675944,43
676512,47
677096,47
677668,51
678248,47
678820,84
679392,75
679976,55
680548,43
681128,38
681696,16
682280,28
682848,26
683432,61
684004,98
684580,62
685160,48
685732,56
686312,68
686884,69
687464,66
688036,54
688608,26
689192,10
689764,10
690344,14
690916,41
691496,67
692068,45
692648,43
693216,50
693796,49
694376,57
694948,15
695528,17
696100,26
696680,53
697248,40
697828,22
698408,34
698976,59
699560,76
700132,42
700712,42
701292,51
701872,53
702452,55
703028,52
703608,47
704180,49
704760,60
705332,68
705912,69
706484,63
707060,32
707640,10
708212,14
708792,40
709364,56
709944,112
710568,110
711188,61
711768,15
712340,57
712920,87
713492,100
714124,126
714748,126
715376,172
716004,220
716624,177
717252,47
717828,98
718400,125
719036,124
719656,103
720284,97
720856,127
721476,129
722108,56
722676,12
723256,11
723824,25
724408,118
725036,185
725656,102
726284,51
726856,45
727432,49
728004,40
728576,11
729160,12
729732,14
730312,19
730884,12
731464,13
732036,26
732616,23
733200,22
733772,44
734352,67
734924,64
735504,58
736084,54
736664,47
737236,46
737812,42
738392,67
738964,69
739544,66
740116,50
740696,29
741268,15
741844,39
742424,38
742992,50
743576,50
744148,50
744728,29
745300,32
745880,65
746452,32
747028,11
747608,25
748180,72
748760,87
749332,75
749912,59
750492,47
751068,62
751648,62
752224,54
752800,53
753372,64
753952,95
754532,121
755164,117
755796,46
756364,26
756944,20
757524,35
758104,74
758684,66
759260,55
759840,50
760412,48
760992,49
761564,28
762144,12
762724,27
763304,52
763884,81
764460,98
765040,84
765612,55
766192,18
766772,35
767352,39
767932,50
768508,104
769140,118
769760,48
770336,11
770908,35
771488,22
772060,64
772636,119
773268,144
773888,113
774516,40
775088,42
775660,72
776240,91
776812,109
777444,98
778012,72
778592,32
779172,15
779748,28
780328,13
780900,14
781480,26
782052,48
782632,64
783212,58
783792,42
784372,47
784948,46
785528,48
786100,53
786680,18
787260,38
787840,66
788412,83
788988,60
789568,54
790140,59
790720,46
791292,20
791872,29
792452,39
793032,51
793620,52
794188,47
794768,27
795340,18
795920,24
796500,40
797080,67
797660,84
798236,47
798820,44
799392,29
799968,46
800548,39
801128,49
801696,51
802272,50
802856,50
803428,45
804008,54
804576,56
805160,74
805732,42
806312,13
806892,10
807464,29
808048,20
808616,43
809200,63
809772,54
810352,70
810924,89
811500,65
812080,45
812652,44
813232,19
813804,32
814384,66
814964,107
815596,118
816228,121
816848,76
817424,54
817996,80
818576,96
819156,136
819784,147
820412,138
821028,141
821656,142
822284,31
822848,170
823484,158
824104,109
824728,64
825300,73
825876,89
826456,62
827024,49
827608,53
828176,80
828760,77
829332,18
829908,23
830488,33
831060,49
831640,32
832212,17
832792,50
833364,43
833944,49
834512,55
835092,53
835672,54
836244,49
836824,37
837392,46
837976,61
838548,74
839124,15
839704,45
840272,37
840856,33
841424,14
842008,41
842576,44
843160,44
843732,48
844308,46
844888,18
845456,12
846032,12
846604,11
847184,12
847756,22
848336,28
848912,38
849484,36
850064,23
850632,47
851216,57
851784,75
852368,89
852940,91
853516,58
854096,37
854668,22
855248,37
855820,25
856400,16
856968,26
857552,53
858128,76
858700,80
859280,70
859852,57
860432,49
861000,47
861584,28
862156,54
862732,58
863312,43
863884,24
864464,10
865044,43
865624,66
866192,71
866772,47
867352,42
867924,49
868504,51
869076,51
869656,29
870236,12
870816,62
871392,110
872024,84
872600,48
873168,34
873752,16
874324,19
874904,24
875476,41
876052,46
876632,46
877204,46
877784,45
878356,12
878936,13
879516,30
880092,33
880672,47
881240,58
881824,53
882396,26
882976,31
883548,29
884128,81
884696,104
885328,118
885956,133
886576,124
887204,119
887832,116
888448,85
889024,16
889596,98
890180,187
890808,173
891432,96
892008,58
892580,47
893160,49
893732,48
894312,51
894892,33
895468,35
896052,23
896620,47
897200,132
897824,127
898452,76
899020,40
899596,43
900176,29
900748,62
901328,71
901908,64
902488,54
903056,104
903684,115
904316,107
904936,64
905512,21
906084,46
906664,37
907236,33
907812,19
908392,39
908964,66
909544,50
910116,50
910696,53
911276,37
911852,63
912432,172
913056,202
913684,87
914256,25
914832,44
915404,51
915980,37
916560,44
917132,89
917712,97
918284,95
918864,82
919444,71
920020,66
920600,69
921172,58
921756,43
922324,20
922904,13
923472,13
924056,41
924628,58
925204,33
925784,46
926356,47
926936,50
927516,45
928096,22
928672,28
929252,18
929832,19
930404,25
930984,32
931556,32
932136,31
932716,32
933296,17
933876,55
934452,62
935032,68
935604,85
936184,81
936756,73
937336,71
937916,38
938492,47
939072,54
939648,48
940224,40
940796,18
941380,10
941956,38
942540,44
943120,48
943692,52
944272,49
944844,52
945424,75
945996,105
946628,127
947260,104
947880,54
948456,21
949028,39
949608,45
950188,37
950764,53
951344,45
951920,50
952500,51
953072,25
953648,35
954228,62
954808,51
955388,48
955968,53
956548,47
957120,25
957696,10
958276,17
958860,57
959436,79
960012,92
960592,56
961164,86
961744,85
962316,35
962896,24
963472,43
964052,18
964632,32
965204,65
965784,64
966356,64
966936,61
967516,49
968096,62
968676,49
969252,46
969832,15
970404,20
970984,16
971556,10
972136,11
972716,12
973292,10
973872,13
974444,11
975024,37
975596,55
976176,52
976756,48
977336,48
977908,36
978484,32
979064,52
979636,51
980216,24
980796,13
981376,35
981956,32
982532,18
983112,24
983684,48
984264,46
984836,53
985416,57
985988,52
986568,38
987144,38
987716,61
988296,65
988868,52
989448,34
990020,12
990600,37
991180,23
991756,27
992336,47
992908,51
993488,52
994060,46
994640,29
995212,13
995792,11
996368,37
996940,25
997520,15
998092,12
998672,23
999252,20
999832,16
1000404,53
1001024,53
1001652,47
1002272,47
1002900,39
1003528,38
1004144,31
1004776,169
1005452,176
1006128,125
1006804,72
1007424,37
1008052,15
1008680,74
1009296,83
1009928,57
1010548,50
1011180,43
1011808,12
1012432,17
1013060,24
1013684,23
1014308,35
1014940,46
1015560,17
1016188,16
1016812,27
1017436,67
1018068,76
1018692,60
1019320,53
1019948,36
1020568,95
1021196,101
1021876,56
1022496,12
1023124,35
1023744,54
1024376,49
1024996,83
1025616,163
1026296,164
1026960,94
1027584,52
1028212,38
1028828,16
1029456,10
1030080,19
1030700,51
1031332,64
1031952,49
1032580,26
1033204,22
1033824,74
1034452,91
1035076,88
1035704,73
1036332,60
1036952,65
1037580,78
1038204,62
1038832,11
1039460,18
1040080,21
1040704,44
1041328,47
1041948,43
1042580,73
1043200,68
1043828,47
1044448,47
1045072,27
1045700,59
1046320,69
1046948,66
1047576,17
1048192,27
1048820,63
1049444,72
1050072,78
1050700,54
1051320,47
1051948,47
1052572,60
1053192,90
1053824,142
1054492,185
1055168,133
1055844,109
1056516,67
1057140,15
1057764,40
1058384,35
1059016,88
1059632,147
1060312,184
1060988,191
1061660,103
1062336,16
1062960,44
1063576,41
1064204,11
1064828,16
1065456,19
1066084,13
1066700,16
1067332,52
1067956,60
1068576,88
1069208,110
1069876,120
1070552,101
1071228,75
1071848,63
1072476,15
1073100,63
1073724,111
1074404,93
1075024,64
1075652,56
1076280,54
1076904,48
1077532,73
1078152,65
1078784,45
1079412,17
1080032,13
1080660,36
1081284,39
1081904,59
1082536,52
1083152,40
1083780,41
1084404,45
1085028,54
1085656,50
1086280,35
1086908,84
1087536,123
1088204,92
1088828,73
1089448,50
1090072,22
1090700,29
1091320,35
1091948,49
1092572,82
1093192,72
1093820,48
1094440,48
1095068,11
1095696,37
1096312,70
1096944,67
1097568,65
1098196,125
1098876,82
1099496,35
1100124,24
1100748,58
1101372,49
1102004,47
1102624,47
1103252,11
1103884,18
1104504,43
1105132,62
1105756,34
1106388,37
1107016,86
1107636,60
1108264,18
1108888,40
1109508,46
1110140,46
1110760,49
1111388,21
1112012,11
1112636,12
1113268,25
1113888,34
1114516,22
1115148,12
1115768,13
1116396,38
1117020,45
1117652,54
1118280,58
1118904,61
1119532,55
1120160,23
1120780,11
1121408,10
1122032,15
1122660,35
1123284,49
1123904,19
1124536,10
1125152,39
1125780,72
1126412,82
1127028,50
1127660,53
1128280,86
1128908,51
1129540,20
1130160,33
1130788,66
1131412,54
1132036,33
1132668,23
1133288,19
1133916,50
1134540,49
1135164,53
1135796,61
1136416,84
1137044,51
1137676,12
1138296,10
1138924,28
1139548,31
1140176,27
1140808,55
1141424,46
1142052,45
1142676,52
1143304,49
1143932,48
1144552,33
1145180,28
1145804,23
1146428,16
1147060,14
1147680,22
1148308,46
1148936,79
1149556,59
1150184,40
1150808,74
1151436,97
1152068,69
1152684,69
1153312,71
1153936,77
1154564,49
1155192,21
1155812,10
1156440,35
1157064,76
1157688,83
1158316,48
1158936,39
1159564,45
1160188,64
1160816,117
1161496,59
1162112,22
1162740,31
1163372,48
1163992,47
1164620,47
1165244,28
1165868,19
1166496,128
1167172,126
1167848,55
1168476,54
1169096,49
1169724,52
1170348,95
1170972,124
1171652,120
1172324,57
1172948,17
1173580,14
1174200,13
1174828,15
1175452,42
1176076,47
1176708,50
1177328,51
1177956,47
1178580,42
1179204,13
1179832,47
1180452,64
1181080,129
1181760,224
1182436,151
1183112,78
1183736,44
1184360,49
1184988,51
1185612,70
1186240,123
1186924,44
1187544,46
1188172,106
1188848,123
1189516,137
1190192,110
1190868,66
1191488,50
1192116,43
1192736,47
1193364,52
1193996,54
1194616,43
1195244,41
1195868,21
1196500,10
1197128,22
1197752,29
1198380,18
1199008,20
1199632,15
1200260,41
1200880,51
1201508,73
1202132,80
1202756,65
1203384,37
1204008,30
1204636,13
1205264,10
1205880,10
1206512,11
1207136,36
1207764,22
1208396,29
1209016,50
1209644,50
1210268,48
1210892,46
1211520,25
1212136,36
1212764,45
1213392,23
1214016,11
1214644,12
1215264,42
1215892,73
1216524,61
1217144,40
1217772,46
1218396,49
1219028,56
1219656,69
1220276,61
1220904,47
1221528,43
1222152,31
1222784,51
1223400,79
1224028,66
1224652,90
1225276,118
1225960,98
1226576,70
1227204,53
1227836,74
1228456,168
1229140,100
1229808,12
1230432,11
1231060,69
1231680,136
1232364,122
1233040,99
1233656,49
1234284,47
1234908,61
1235528,64
1236160,74
1236776,85
1237404,110
1238088,112
1238756,62
1239380,22
1240004,10
1240628,24
1241256,75
1241872,130
1242556,116
1243232,69
1243856,54
1244484,44
1245108,49
1245732,27
1246360,35
1246980,83
1247608,44
1248232,21
1248856,45
1249484,46
1250104,48
1250732,47
1251360,48
1251984,56
1252612,66
1253236,60
1253868,74
1254496,78
1255112,51
1255744,17
1256368,11
1256988,16
1257620,14
1258240,47
1258868,46
1259492,48
1260116,49
1260748,55
1261368,39
1261996,33
1262628,27
1263248,22
1263876,24
1264504,33
1265132,37
1265760,14
1266384,36
1267016,91
1267640,93
1268264,61
1268892,48
1269512,37
1270144,14
1270768,19
1271392,29
1272020,21
1272644,11
1273272,36
1273904,21
1274524,12
1275152,49
1275776,44
1276408,53
1277036,51
1277656,50
1278288,61
1278912,109
1279588,94
1280216,22
1280836,23
1281464,41
1282092,76
1282708,87
1283336,90
1283960,127
1284640,106
1285312,73
1285936,56
1286564,15
1287192,11
1287808,11
1288436,31
1289060,66
1289688,48
1290316,26
1290936,14
1291564,30
1292188,47
1292808,47
1293436,46
1294056,49
1294684,17
1295308,16
1295932,51
1296560,72
1297184,66
1297812,80
1298440,98
1299064,96
1299692,77
1300316,46
1300944,47
1301576,71
1302192,88
1302820,89
1303444,95
1304068,114
1304752,128
1305420,130
1306100,59
1306724,18
1307344,51
1307972,29
1308596,49
1309220,54
1309848,48
1310472,76
1311100,178
1311784,173
1312452,94
1313076,19
1313696,22
1314320,17
1314948,64
1315568,78
1316196,47
1316816,50
1317440,116
1318120,127
1318788,121
1319464,97
1320088,132
1320752,183
1321432,174
1322108,110
1322780,23
1323404,126
1324084,273
1324756,223
1325432,153
1326112,127
1326788,99
1327412,50
1328036,51
1328660,114
1329340,115
1330012,62
1330636,22
1331268,14
1331884,63
1332512,82
1333132,59
1333760,42
1334388,77
1335008,81
1335636,75
1336260,71
1336884,59
1337512,51
1338128,38
1338756,11
1339380,25
1340004,35
1340632,41
1341256,25
1341884,43
1342512,56
1343128,62
1343760,61
1344384,45
1345012,15
1345640,29
1346256,40
1346884,28
1347504,19
1348128,19
1348760,31
1349376,53
1350004,43
1350628,51
1351252,58
1351880,72
1352496,57
1353124,35
1353752,61
1354368,67
1355000,49
1355620,11
1356252,11
1356880,12
1357496,11
1358124,30
1358748,56
1359368,57
1359996,54
1360616,46
1361244,19
1361868,49
1362492,121
1363172,116
1363844,89
1364468,48
1365096,18
1365716,15
1366344,15
1366968,43
1367588,46
1368220,50
1368840,47
1369468,59
1370092,59
1370716,62
1371344,56
1371960,23
1372592,11
1373220,14
1373840,39
1374468,51
1375092,42
1375720,44
1376348,44
1376968,49
1377596,48
1378220,12
1378840,10
1379472,11
1380088,13
1380716,23
1381340,21
1381964,51
1382592,48
1383216,22
1383844,48
1384472,53
1385088,63
1385716,75
1386340,70
1386968,46
1387596,56
1388216,53
1388844,29
1389468,37
1390092,47
1390720,11
1391336,14
1391968,51
1392592,47
1393216,45
1393844,53
1394464,34
1395092,62
1395724,85
1396344,69
1396972,31
1397596,17
1398224,14
1398852,26
1399472,15
1400100,42
1400724,47
1401348,48
1401980,50
1402600,54
1403228,46
1403852,43
1404476,45
1405104,15
1405724,25
1406352,40
1406980,50
1407600,65
1408232,43
1408852,39
1409480,48
1410108,49
1410728,46
1411356,14
1411980,16
1412608,17
1413236,12
1413856,14
1414484,16
1415104,35
1415728,39
1416356,40
1416976,41
1417604,46
1418228,51
1418852,53
1419480,68
1420104,122
1420784,204
1421460,196
1422132,115
1422808,68
1423436,36
1424056,11
1424684,17
1425308,53
1425932,51
1426560,78
1427176,157
1427860,186
1428536,125
1429212,58
1429836,11
1430460,15
1431084,39
1431716,66
1432336,51
1432964,41
1433588,48
1434216,62
1434844,66
1435468,62
1436096,57
1436724,46
1437344,25
1437972,12
1438596,17
1439228,22
1439856,50
1440472,29
1441100,16
1441724,47
1442348,44
1442976,48
1443592,70
1444224,85
1444844,63
1445468,57
1446096,43
1446712,25
1447344,30
1447972,38
1448592,41
1449220,37
1449844,15
1450472,54
1451100,45
1451720,49
1452348,50
1452972,70
1453596,94
1454224,108
1454900,108
1455576,86
1456200,48
1456816,13
1457444,20
1458068,15
1458692,40
1459324,46
1459944,45
1460572,50
1461196,24
1461820,25
1462448,15
1463064,11
1463692,12
1464316,30
1464944,45
1465572,25
1466196,16
1466828,44
1467456,65
1468080,73
1468708,49
1469332,53
1469960,37
1470588,16
1471208,18
1471836,19
1472464,21
1473088,21
1473716,45
1474336,47
1474964,79
1475596,75
1476216,64
1476844,56
1477468,50
1478096,21
1478724,48
1479344,55
1479972,47
1480596,50
1481220,48
1481852,52
1482472,52
1483100,52
1483724,43
1484348,63
1484976,60
1485596,65
1486228,50
1486856,31
1487472,46
1488104,63
1488724,57
1489356,66
1489984,55
1490600,12
1491228,15
1491852,43
1492480,60
1493108,48
1493728,50
1494356,45
1494980,36
1495608,45
1496236,64
1496856,40
1497484,55
1498108,130
1498788,148
1499464,100
1500140,43
1500760,62
1501388,61
1502008,58
1502636,44
1503268,26
1503888,59
1504520,90
1505144,83
1505772,63
1506400,44
1507024,12
1507652,33
1508280,37
1508900,51
1509532,46
1510152,57
1510784,61
1511408,25
1512032,31
1512660,52
1513284,51
1513912,28
1514544,93
1515164,212
1515844,133
1516516,24
1517136,64
1517764,67
1518384,53
1519016,51
1519644,52
1520264,82
1520892,82
1521516,26
1522148,21
1522776,11
1523396,14
1524024,20
1524648,25
1525272,42
1525900,46
1526520,50
1527148,52
1527772,30
1528396,23
1529028,11
1529648,38
1530276,65
1530908,14
1531528,54
1532156,71
1532784,105
1533468,81
1534096,56
1534712,47
1535344,76
1535968,98
1536592,98
1537224,107
1537892,92
1538516,68
1539148,70
1539768,62
1540396,19
1541020,14
1541644,36
1542272,42
1542896,48
1543524,47
1544148,47
1544772,42
1545400,23
1546024,11
1546652,10
1547280,12
1547904,27
1548532,40
1549156,36
1549788,29
1550416,46
1551032,57
1551664,67
1552288,58
1552908,29
1553540,13
1554160,12
1554788,13
1555412,31
1556036,47
1556668,24
1557288,21
1557916,17
1558544,46
1559168,48
1559796,50
1560420,52
1561052,40
1561680,80
1562296,91
1562924,64
1563548,43
1564172,55
1564800,34
1565416,14
1566048,19
1566672,43
1567296,61
1567924,111
1568596,115
1569272,76
1569900,72
1570520,57
1571148,45
1571772,27
1572400,11
1573028,11
1573648,25
1574276,27
1574904,30
1575528,50
1576156,58
1576780,47
1577412,46
1578040,32
1578664,37
1579292,49
1579916,55
1580548,18
1581176,76
1581800,107
1582480,66
1583108,67
1583728,113
1584408,123
1585084,86
1585704,59
1586332,143
1587004,181
1587684,156
1588360,93
1588984,44
1589612,25
1590236,11
1590860,15
1591492,20
1592112,46
1592740,45
1593372,48
1593992,50
1594624,15
1595248,16
1595876,26
1596508,14
1597128,11
1597760,15
1598384,16
1599008,14
1599636,24
1600256,40
1600884,55
1601508,56
1602128,59
1602760,61
1603376,79
1604004,86
1604632,68
1605248,54
1605876,39
1606500,21
1607128,18
1607756,39
1608376,59
1609004,78
1609628,104
1610300,124
1610976,122
1611644,78
1612268,59
1612900,42
1613516,25
1614148,24
1614772,51
1615396,53
1616024,25
1616640,41
1617268,57
1617892,61
1618516,80
1619144,87
1619768,47
1620396,47
1621028,116
1621700,150
1622380,155
1623060,107
1623732,20
1624356,53
1624980,55
1625604,65
1626236,76
1626856,64
1627484,61
1628108,32
1628732,34
1629364,50
1629984,51
1630612,44
1631244,14
1631864,23
1632496,41
1633116,29
1633748,49
1634376,56
1635000,55
1635628,53
1636256,21
1636880,11
1637508,18
1638128,15
1638760,16
1639380,43
1640000,52
1640628,17
1641244,14
1641872,47
1642500,67
1643116,88
1643748,64
1644368,26
1644996,50
1645624,39
1646240,55
1646868,119
1647540,14
1648160,47
1648788,47
1649404,15
1650032,48
1650656,83
1651276,105
1651956,51
1652576,95
1653204,103
1653884,40
1654500,17
1655132,11
1655752,14
1656376,13
1657004,40
1657624,57
1658252,46
1658872,39
1659496,49
1660124,49
1660748,45
1661376,13
1662004,22
1662624,42
1663252,23
1663876,12
1664504,57
1665132,61
1665748,54
1666376,42
1667000,42
1667620,51
1668252,52
1668872,60
1669500,60
1670120,27
1670740,33
1671372,30
1671992,12
1672620,13
1673248,29
1673864,48
1674496,56
1675116,44
1675748,46
1676376,81
1676992,129
1677672,103
1678344,33
1678968,23
1679596,15
1680220,15
1680848,19
1681476,14
1682092,19
1682724,17
1683344,49
1683972,72
1684600,69
1685216,51
1685844,89
1686468,99
1687088,13
1687716,11
1688336,24
1688964,29
1689584,25
1690208,22
1690840,15
1691460,15
1692088,48
1692716,72
1693336,59
1693964,47
1694588,20
1695216,27
1695844,50
1696464,42
1697092,13
1697712,37
1698336,93
1698964,84
1699584,43
1700212,53
1700836,75
1701456,77
1702088,67
1702704,55
1703332,57
1703960,64
1704580,23
1705208,11
1705828,29
1706460,47
1707088,24
1707704,32
1708332,54
1708956,50
1709580,49
1710208,48
1710832,48
1711460,66
1712084,56
1712708,67
1713336,121
1714004,102
1714680,60
1715304,54
1715920,66
1716548,44
1717172,75
1717796,98
1718424,82
1719048,79
1719676,77
1720300,85
1720924,103
1721604,48
1722220,23
1722852,29
1723480,23
1724096,26
1724728,17
1725352,41
1725976,45
1726604,46
1727224,51
1727852,15
1728476,16
1729100,13
1729728,18
1730344,28
1730976,34
1731604,40
1732224,45
1732852,32
1733476,44
1734104,54
1734732,54
1735352,55
1735980,54
1736604,53
1737228,29
1737860,20
1738480,13
1739108,10
1739732,13
1740356,13
1740988,10
1741604,51
1742236,63
1742864,47
1743480,56
1744108,63
1744732,83
1745360,78
1745988,36
1746608,37
1747236,49
1747860,36
1748484,26
1749112,13
1749736,40
1750364,88
1750988,73
1751616,71
1752244,62
1752864,81
1753492,117
1754176,106
1754844,80
1755468,17
1756092,24
1756716,51
1757348,110
1758020,94
1758648,45
1759276,46
1759896,51
1760528,78
1761148,46
1761780,12
1762408,24
1763024,25
1763652,14
1764276,23
1764900,51
1765528,84
1766144,127
1766828,59
1767452,46
1768072,69
1768700,48
1769324,42
1769952,64
1770580,47
1771200,12
1771828,28
1772452,48
1773076,64
1773704,58
1774324,55
1774952,76
1775576,63
1776200,49
1776828,53
1777448,61
1778076,34
1778708,12
1779328,30
1779956,49
1780580,35
1781212,93
1781840,79
1782456,23
1783084,52
1783708,49
1784332,48
1784964,56
1785584,71
1786212,86
1786836,57
1787460,26
1788092,40
1788712,37
1789344,23
1789972,12
1790592,16
1791224,15
1791848,43
1792480,48
1793108,47
1793728,51
1794356,58
1794980,44
1795604,17
1796232,13
1796848,18
1797476,70
1798100,122
1798776,70
1799400,19
1800020,89
1800648,132
1801332,133
1802004,100
1802680,42
1803308,22
1803928,23
1804556,17
1805180,77
1805808,120
1806488,84
1807100,43
1807732,81
1808356,64
1808976,49
1809604,57
1810224,49
1810852,39
1811480,21
1812104,49
1812732,57
1813356,48
1813984,31
1814616,16
1815232,21
1815860,13
1816484,31
1817108,46
1817736,48
1818360,51
1818988,63
1819612,89
1820236,97
1820864,90
1821480,35
1822108,16
1822740,21
1823360,48
1823988,46
1824612,35
1825240,42
1825872,66
1826488,105
1827168,97
1827784,75
1828408,57
1829040,49
1829656,13
1830284,25
1830908,18
1831536,32
1832164,55
1832788,75
1833420,43
1834048,48
1834672,55
1835300,57
1835924,36
1836552,14
1837180,15
1837800,19
1838428,11
1839052,13
1839676,12
1840308,12
1840928,10
1841556,44
1842188,46
1842808,50
1843436,50
1844060,55
1844688,37
1845316,21
1845936,14
1846564,30
1847188,21
1847812,24
1848444,26
1849060,22
1849692,34
1850316,44
1850936,62
1851568,70
1852184,74
1852812,40
1853436,55
1854064,89
1854692,62
1855316,20
1855948,32
1856580,44
1857200,23
1857828,51
1858452,62
1859076,53
1859708,49
1860328,50
1860956,94
1861580,115
1862256,51
1862880,43
1863500,47
1864132,27
1864760,19
1865384,16
1866012,42
1866636,91
1867264,92
1867896,61
1868512,163
1869196,160
1869872,89
1870488,16
1871116,46
1871740,58
1872372,97
1873000,96
1873616,24
1874248,47
1874872,56
1875496,57
1876124,54
1876744,51
1877372,47
1877996,49
1878620,46
1879252,33
1879876,50
1880504,60
1881136,44
1881752,12
1882384,25
1883008,29
1883636,47
1884268,46
1884888,49
1885516,50
1886140,24
1886764,60
1887392,81
1888012,67
1888640,48
1889260,55
1889884,57
1890516,48
1891140,51
1891768,62
1892400,65
1893016,48
1893648,62
1894272,85
1894904,87
1895532,78
1896152,117
1896832,114
1897508,78
1898128,21
1898756,14
1899380,28
1900012,87
1900640,114
1901316,100
1901992,69
1902624,35
1903240,10
1903872,25
1904496,46
1905124,11
1905756,34
1906376,57
1907008,81
1907632,63
1908256,43
1908884,42
1909504,49
1910136,72
1910760,88
1911384,99
1912012,99
1912632,83
1913264,20
1913892,96
1914512,126
1915196,120
1915868,204
1916540,189
1917220,88
1917840,56
1918472,61
1919100,111
1919772,94
1920400,65
1921020,30
1921648,11
1922276,18
1922900,10
1923528,11
1924156,27
1924776,61
1925404,62
1926028,55
1926660,56
1927288,53
1927904,17
1928532,16
1929156,50
1929780,70
1930408,13
1931032,63
1931660,69
1932284,38
1932912,38
1933540,45
1934164,54
1934796,48
1935424,47
1936040,29
1936668,25
1937292,17
1937924,26
1938552,11
1939172,33
1939800,40
1940424,33
1941048,15
1941680,43
1942296,50
1942928,55
1943552,52
1944176,43
1944804,18
1945428,11
1946060,15
1946688,34
1947312,55
1947940,54
1948564,34
1949188,26
1949820,42
1950440,49
1951068,74
1951692,85
1952316,69
1952948,72
1953568,97
1954196,127
1954880,100
1955548,34
1956176,12
1956796,99
1957420,128
1958104,68
1958720,47
1959348,47
1959980,56
1960600,53
1961228,26
1961852,25
1962484,11
1963112,10
1963732,19
1964360,43
1964988,47
1965612,65
1966240,79
1966856,44
1967488,47
1968108,49
1968732,46
1969360,20
1969984,35
1970612,40
1971240,31
1971860,11
1972492,10
1973112,29
1973744,45
1974372,20
1974992,51
1975620,52
1976244,51
1976868,55
1977500,52
1978120,43
1978748,40
1979372,24
1979996,11
1980628,15
1981252,15
1981880,44
1982512,80
1983128,48
1983760,43
1984384,48
1985012,64
1985644,85
1986264,44
1986892,18
1987516,41
1988140,91
1988768,100
1989436,76
1990064,39
1990692,12
1991312,29
1991940,82
1992564,93
1993196,64
1993824,47
1994448,53
1995076,58
1995700,106
1996376,146
1997060,80
1997680,55
1998308,56
1998940,16
1999560,83
2000188,116
2000864,69
2001480,51
2002108,48
2002728,26
2003356,11
2003984,31
2004608,49
2005236,43
2005860,55
2006492,52
2007120,22
2007736,42
2008364,72
2008988,47
2009612,46
2010240,50
2010856,95
2011484,117
2012168,59
2012784,15
2013412,21
2014036,42
2014668,115
2015348,110
2016020,98
2016644,50
2017268,42
2017892,53
2018520,50
2019144,49
2019776,56
2020404,73
2021024,79
2021652,66
2022276,41
2022908,24
2023536,36
2024160,68
2024788,109
2025464,71
2026080,68
2026712,53
2027336,55
2027964,77
2028596,58
2029216,35
2029844,50
2030468,123
2031152,147
2031828,112
2032500,90
2033124,51
2033756,45
2034376,65
2035008,88
2035632,83
2036256,69
2036884,78
2037504,94
2038136,71
2038760,66
2039384,53
2040012,20
2040632,17
2041264,23
2041892,45
2042512,68
2043144,83
2043768,76
2044396,50
2045028,12
2045648,28
2046276,31
2046904,21
2047528,11
2048160,30
2048772,64
2049400,61
2050020,43
2050644,59
2051272,71
2051888,68
2052516,51
2053144,17
2053760,26
2054388,33
2055008,11
2055640,21
2056268,10
2056884,17
2057516,69
2058140,50
2058760,49
2059388,50
2060008,64
2060636,52
2061260,21
2061880,12
2062508,11
2063128,23
2063756,31
2064380,15
2065000,32
2065628,24
2066252,21
2066880,72
2067508,84
2068128,85
2068756,70
2069380,28
2070008,13
2070636,30
2071256,48
2071884,19
2072508,33
2073132,112
2073812,163
2074480,88
2075108,45
2075736,52
2076360,51
2076988,47
2077612,35
2078232,59
2078864,60
2079480,35
2080108,20
2080732,45
2081352,57
2081980,36
2082600,31
2083228,44
2083856,55
2084472,57
2085100,66
2085724,68
2086352,70
2086980,47
2087600,39
2088228,24
2088852,20
2089476,15
2090104,21
2090728,34
2091356,36
2091980,46
2092600,61
2093232,66
2093848,60
2094476,35
2095100,17
2095728,12
2096356,13
2096980,31
2097608,61
2098236,26
2098856,27
2099484,18
2100108,73
2100736,74
2101364,57
2101984,52
2102612,16
2103236,35
2103856,11
2104488,17
2105104,13
2105732,11
2106356,12
2106980,12
2107608,41
2108232,52
2108860,47
2109488,48
2110112,52
2110740,66
2111364,86
2111992,47
2112624,35
2113240,92
2113872,141
2114544,148
2115220,102
2115896,47
2116512,51
2117136,83
2117764,78
2118384,78
2119016,86
2119636,67
2120260,38
2120892,19
2121512,54
2122140,104
2122824,81
2123440,21
2124068,13
2124692,42
2125320,45
2125948,52
2126568,86
2127196,162
2127880,151
2128548,124
2129224,108
2129900,60
2130520,45
2131148,28
2131768,14
2132396,23
2133024,63
2133648,96
2134276,87
2134900,77
2135532,67
2136160,53
2136776,56
2137408,50
2138032,33
2138652,17
2139284,22
2139904,15
2140532,14
2141156,38
2141780,59
2142408,51
2143024,48
2143656,50
2144284,17
2144904,19
2145532,21
2146156,29
2146784,32
2147416,25
2148032,52
2148660,73
2149284,97
2149908,57
2150540,46
2151160,69
2151788,90
2152412,96
2153032,61
2153664,12
2154280,11
2154908,21
2155536,50
2156160,64
2156788,49
2157412,36
2158044,43
2158672,57
2159292,107
2159972,112
2160652,93
2161272,69
2161900,14
2162524,17
2163152,14
2163780,30
2164400,25
2165028,16
2165652,14
2166276,26
2166908,46
2167528,62
2168156,56
2168780,70
2169404,74
2170036,62
2170656,44
2171284,12
2171916,62
2172536,46
2173164,28
2173788,35
2174420,20
2175048,45
2175664,47
2176296,53
2176920,53
2177540,17
2178172,20
2178792,20
2179420,36
2180044,32
2180668,25
2181296,21
2181912,20
2182540,28
2183164,47
2183792,57
2184420,68
2185044,59
2185672,63
2186304,66
2186920,58
2187548,36
2188172,34
2188804,37
2189432,23
2190048,24
2190680,40
2191304,39
2191928,39
2192556,46
2193176,48
2193804,53
2194428,76
2195056,49
2195684,12
2196308,19
2196940,18
2197568,26
2198192,14
2198824,26
2199448,62
2200072,114
2200752,109
2201428,99
2202056,84
2202684,38
2203304,23
2203932,27
2204556,62
2205188,104
2205868,64
2206488,69
2207116,75
2207744,37
2208368,48
2208996,94
2209620,129
2210300,138
2210980,91
2211600,39
2212228,23
2212852,44
2213476,19
2214104,11
2214728,14
2215360,31
2215988,66
2216608,63
2217236,69
2217860,57
2218492,77
2219120,150
2219796,166
2220472,113
2221156,47
2221776,20
2222404,25
2223028,36
2223652,46
2224284,72
2224904,83
2225532,66
2226156,51
2226784,49
2227412,24
2228036,10
2228664,12
2229296,19
2229912,11
2230544,29
2231168,43
2231800,33
2232428,16
2233048,42
2233676,55
2234300,62
2234924,54
2235556,58
2236176,54
2236804,43
2237428,35
2238056,26
2238688,17
2239312,15
2239944,12
2240576,12
2241192,23
2241820,47
2242444,52
2243076,52
2243704,51
2244324,41
2244952,39
2245576,26
2246200,13
2246828,10
2247448,21
2248076,24
2248700,12
2249328,15
2249956,47
2250580,58
2251212,82
2251844,90
2252464,98
2253096,70
2253716,49
2254340,57
2254972,30
2255592,12
2256220,13
2256844,26
2257468,16
2258096,45
2258712,49
2259340,52
2259964,50
2260592,51
2261220,15
2261844,21
2262472,11
2263104,12
2263720,11
2264348,27
2264972,46
2265600,59
2266232,45
2266848,53
2267476,49
2268100,50
2268724,60
2269356,42
2269976,13
2270604,22
2271232,38
2271856,28
2272488,15
2273108,45
2273740,98
2274368,90
2274992,73
2275620,58
2276244,50
2276868,50
2277500,30
2278120,37
2278752,25
2279372,23
2279996,62
2280628,47
2281248,34
2281876,43
2282508,54
2283128,42
2283756,74
2284384,104
2285064,95
2285688,82
2286304,41
2286932,23
2287556,37
2288184,29
2288812,20
2289432,20
2290060,10
2290684,11
2291312,56
2291940,60
2292568,55
2293196,46
2293828,46
2294448,22
2295076,19
2295700,17
2296324,37
2296956,73
2297576,106
2298256,122
2298936,140
2299612,124
2300288,56
2300912,71
2301536,121
2302216,143
2302892,100
2303564,71
2304192,70
2304808,54
2305436,15
2306064,58
2306680,82
2307308,41
2307932,38
2308560,47
2309192,49
2309808,55
2310436,50
2311060,50
2311684,81
2312316,60
2312936,13
2313564,17
2314188,17
2314816,12
2315444,19
2316064,17
2316692,49
2317324,54
2317944,66
2318572,79
2319196,60
2319828,41
2320460,49
2321080,44
2321708,13
2322332,11
2322956,12
2323584,12
2324208,15
2324836,38
2325460,44
2326084,49
2326712,50
2327336,31
2327964,19
2328596,22
2329216,15
2329844,12
2330468,36
2331100,57
2331728,64
2332352,51
2332980,43
2333604,46
2334228,49
2334860,50
2335480,55
2336108,41
2336732,45
2337356,35
2337984,31
2338604,57
2339232,56
2339860,16
2340480,13
2341108,28
2341732,47
2342364,87
2342992,101
2343668,86
2344296,40
2344920,13
2345544,24
2346172,23
2346792,12
2347424,14
2348052,28
2348672,35
2349304,25
2349928,50
2350556,61
2351188,64
2351808,65
2352440,70
2353064,53
2353688,54
2354316,80
2354936,62
2355568,50
2356192,52
2356816,13
2357444,31
2358064,41
2358692,47
2359324,48
2359944,50
2360576,39
2361200,13
2361828,21
2362456,10
2363080,20
2363708,17
2364332,83
2364960,159
2365640,135
2366308,106
2366988,60
2367616,49
2368232,67
2368860,88
2369484,108
2370160,104
2370836,94
2371456,76
2372084,45
2372716,14
2373336,47
2373968,37
2374592,39
2375216,49
2375848,82
2376464,101
2377144,83
2377772,64
2378392,47
2379020,40
2379648,21
2380276,31
2380908,29
2381528,15
2382156,41
2382780,120
2383456,174
2384132,126
2384804,96
2385424,72
2386056,55
2386672,42
2387300,43
2387924,38
2388548,26
2389180,44
2389800,35
2390432,27
2391060,22
2391680,54
2392312,58
2392936,56
2393568,51
2394200,46
2394816,69
2395448,39
2396072,14
2396696,11
2397328,24
2397944,80
2398576,109
2399256,55
2399880,39
2400512,53
2401136,51
2401764,68
2402396,110
2403068,90
2403696,90
2404316,73
2404944,50
2405572,23
2406192,43
2406824,100
2407504,84
2408120,63
2408748,58
2409372,49
2409996,51
2410628,46
2411248,55
2411876,27
2412500,23
2413124,29
2413756,19
2414376,42
2415008,56
2415636,71
2416256,54
2416884,44
2417508,56
2418140,62
2418768,50
2419392,31
2420020,37
2420644,43
2421268,18
2421900,12
2422520,13
2423148,43
2423772,48
2424400,59
2425028,56
2425648,51
2426276,64
2426908,46
2427528,28
2428156,17
2428784,49
2429412,122
2430096,108
2430764,91
2431392,95
2432020,78
2432640,41
2433268,79
2433892,115
2434572,109
2435248,71
2435872,35
2436500,17
2437132,14
2437752,18
2438380,9
2438956,12
2439588,41
2440220,85
2440840,32
2441468,48
2442092,44
2442724,48
2443352,50
2443976,26
2444608,58
2445232,54
2445856,21
2446484,26
2447104,61
2447736,77
2448360,88
2448984,55
2449612,41
2450232,56
2450864,74
2451492,57
2452112,57
2452744,60
2453368,79
2454000,105
2454680,95
2455296,33
2455928,29
2456552,36
2457176,12
2457808,26
2458424,43
2459052,55
2459680,50
2460296,48
2460928,14
2461548,15
2462180,20
2462808,24
2463424,21
2464056,27
2464676,47
2465300,24
2465928,20
2466544,55
2467176,57
2467800,54
2468424,50
2469052,20
2469672,15
2470300,38
2470932,64
2471552,24
2472180,10
2472804,35
2473432,79
2474064,44
2474680,40
2475312,44
2475936,49
2476560,66
2477188,64
2477808,82
2478436,95
2479060,44
2479684,11
2480316,10
2480936,29
2481564,35
2482196,14
2482816,33
2483444,51
2484068,53
2484696,52
2485328,60
2485944,33
2486572,48
2487196,67
2487820,49
2488452,18
2489072,15
2489700,11
2490324,11
2490948,44
2491576,89
2492200,66
2492828,49
2493460,74
2494080,130
2494760,95
2495384,42
2496008,17
2496636,15
2497256,11
2497884,13
2498508,12
2499132,15
2499764,48
2500384,50
2501012,49
2501644,52
2502264,32
2502896,11
2503516,35
2504148,46
2504780,58
2505400,55
2506032,34
2506656,17
2507280,13
2507908,43
2508528,53
2509160,55
2509780,48
2510404,49
2511036,62
2511656,54
2512288,43
2512916,22
2513536,13
2514168,41
2514792,35
2515420,22
2516052,21
2516672,77
2517304,88
2517928,83
2518552,61
2519180,15
2519800,11
2520428,17
2521052,19
2521680,50
2522308,64
2522928,40
2523556,20
2524188,38
2524808,50
2525436,59
2526064,55
2526692,51
2527324,24
2527944,38
2528576,45
2529200,65
2529824,91
2530452,109
2531124,101
2531804,76
2532432,25
2533048,77
2533680,134
2534356,133
2535028,74
2535656,63
2536280,84
2536908,81
2537540,51
2538160,15
2538792,11
2539416,39
2540040,93
2540668,87
2541288,55
2541916,47
2542544,50
2543168,48
2543796,55
2544416,65
2545048,49
2545676,44
2546296,29
2546928,15
2547552,18
2548180,21
2548812,24
2549432,36
2550064,105
2550740,95
2551360,49
2551992,66
2552612,77
2553240,77
2553872,65
2554492,107
2555172,85
2555792,53
2556424,15
2557056,57
2557676,34
2558308,45
2558932,73
2559560,64
2560192,66
2560804,30
2561432,13
2562060,10
2562676,16
2563304,25
2563928,29
2564556,59
2565184,47
2565808,22
2566436,41
2567056,45
2567684,49
2568312,64
2568928,122
2569612,148
2570288,87
2570900,32
2571532,14
2572152,23
2572784,78
2573412,86
2574032,32
2574660,49
2575284,59
2575908,60
2576536,70
2577160,62
2577788,60
2578412,45
2579036,12
2579664,37
2580284,69
2580912,67
2581540,78
2582160,92
2582788,65
2583412,47
2584040,51
2584668,52
2585288,49
2585916,56
2586540,56
2587164,60
2587792,56
2588412,42
2589040,48
2589664,15
2590284,71
2590916,79
2591536,41
2592164,52
2592792,62
2593416,55
2594044,26
2594668,15
2595296,17
2595928,10
2596544,15
2597172,32
2597796,49
2598420,60
2599048,31
2599672,44
2600300,71
2600924,64
2601548,59
2602180,65
2602800,72
2603428,78
2604060,66
2604680,17
2605308,115
2605984,126
2606652,66
2607276,34
2607896,40
2608528,46
2609148,48
2609776,51
2610404,73
2611028,87
2611660,55
2612288,14
2612912,61
2613540,75
2614164,23
2614788,35
2615420,42
2616040,27
2616668,84
2617292,114
2617968,122
2618644,112
2619316,88
2619936,71
2620568,43
2621184,22
2621816,13
2622436,41
2623060,61
2623688,48
2624312,30
2624940,49
2625568,69
2626184,100
2626864,145
2627532,118
2628204,58
2628828,36
2629452,39
2630080,65
2630708,94
2631328,81
2631956,45
2632580,17
2633208,53
2633836,58
2634456,64
2635084,61
2635708,50
2636332,50
2636960,49
2637576,59
2638204,71
2638828,57
2639452,53
2640080,23
2640696,24
2641324,48
2641952,48
2642572,46
2643204,47
2643824,27
2644452,15
2645080,10
2645704,16
2646332,21
2646956,28
2647580,54
2648208,88
2648824,107
2649504,108
2650180,45
2650800,97
2651428,103
2652104,35
2652720,11
2653348,76
2653968,120
2654648,86
2655276,60
2655896,18
2656524,65
2657148,89
2657780,57
2658408,49
2659024,67
2659652,52
2660276,49
2660900,29
2661532,40
2662152,37
2662784,22
2663404,12
2664028,24
2664652,37
2665268,52
2665900,49
2666528,46
2667144,55
2667772,71
2668396,67
2669024,56
2669652,50
2670272,36
2670900,37
2671524,35
2672148,28
2672776,15
2673392,53
2674020,75
2674644,59
2675268,48
2675896,48
2676512,50
2677140,29
2677768,16
2678392,31
2679020,47
2679644,71
2680276,48
2680904,46
2681520,94
2682148,77
2682772,40
2683400,73
2684028,76
2684648,58
2685276,49
2685900,11
2686524,14
2687152,18
2687776,64
2688408,49
2689032,16
2689656,20
2690284,18
2690904,29
2691536,48
2692164,60
2692784,91
2693412,63
2694036,15
2694660,18
2695292,10
2695912,21
2696540,17
2697164,29
2697788,21
2698416,13
2699032,38
2699664,39
2700292,58
2700912,80
2701540,52
2702164,86
2702796,92
2703424,71
2704040,58
2704672,49
2705292,21
2705920,11
2706552,29
2707168,24
2707796,42
2708420,45
2709044,45
2709676,46
2710296,49
2710924,13
2711548,43
2712176,77
2712804,85
2713428,47
2714060,18
2714688,18
2715312,36
2715940,91
2716564,65
2717188,49
2717820,50
2718440,55
2719068,14
2719692,48
2720316,57
2720944,38
2721568,25
2722196,11
2722824,18
2723448,25
2724076,15
2724700,48
2725328,46
2725956,48
2726576,47
2727204,20
2727824,17
2728452,11
2729084,27
2729704,19
2730332,14
2730956,35
2731580,44
2732208,28
2732824,45
2733452,50
2734076,52
2734704,47
2735332,44
2735956,12
2736588,22
2737220,33
2737840,14
2738468,31
2739092,23
2739720,13
2740348,46
2740968,27
2741596,73
2742220,85
2742844,127
2743528,146
2744196,86
2744820,33
2745452,11
2746072,12
2746700,51
2747324,73
2747948,60
2748580,72
2749200,127
2749880,66
2750508,56
2751128,149
2751808,227
2752484,249
2753156,202
2753832,80
2754456,18
2755080,77
2755708,134
2756380,191
2757056,153
2757740,66
2758360,102
2759044,122
2759720,97
2760344,77
2760972,19
2761596,36
2762228,18
2762856,58
2763480,65
2764112,20
2764736,68
2765360,77
2765988,96
2766608,101
2767288,69
2767912,68
2768528,58
2769160,18
2769784,12
2770412,18
2771040,29
2771664,51
2772292,45
2772916,28
2773540,11
2774172,46
2774792,59
2775424,73
2776048,79
2776668,53
2777300,21
2777924,42
2778552,31
2779180,45
2779800,123
2780480,114
2781156,62
2781776,30
2782404,34
2783024,43
2783656,51
2784284,74
2784904,101
2785584,85
2786208,39
2786832,62
2787460,94
2788080,51
2788708,11
2789332,57
2789956,81
2790588,54
2791208,50
2791836,48
2792464,48
2793088,50
2793716,31
2794340,13
2794972,16
2795600,11
2796216,11
2796848,27
2797472,61
2798096,52
2798724,27
2799344,57
2799976,147
2800656,194
2801332,156
2802008,118
2802684,104
2803364,79
2803988,57
2804612,11
2805244,36
2805872,30
2806488,40
2807120,84
2807740,69
2808368,57
2808996,52
2809616,48
2810244,63
2810868,60
2811492,37
2812124,17
2812748,31
2813380,122
2814060,170
2814732,114
2815408,68
2816040,44
2816652,46
2817284,48
2817904,50
2818532,46
2819164,12
2819784,31
2820412,37
2821036,42
2821660,34
2822288,28
2822912,12
2823540,32
2824164,56
2824788,58
2825420,56
2826040,56
2826668,80
2827300,106
2827972,102
2828648,57
2829272,19
2829896,33
2830524,82
2831144,101
2831824,88
2832452,162
2833124,190
2833800,116
2834480,55
2835104,50
2835736,25
2836356,43
2836988,48
2837616,46
2838240,51
2838868,36
2839492,102
2840168,144
2840848,137
2841524,129
2842196,113
2842872,89
2843496,67
2844124,27
2844756,11
2845376,39
2846008,173
2846684,274
2847356,152
2848036,56
2848656,48
2849284,45
2849912,47
2850528,81
2851160,136
2851836,159
2852516,156
2853192,168
2853868,158
2854540,93
2855164,44
2855788,16
2856420,65
2857052,143
2857724,198
2858400,188
2859080,96
2859704,52
2860332,34
2860960,12
2861580,39
2862212,20
2862832,12
2863464,11
2864088,15
2864712,14
2865340,15
2865960,45
2866588,100
2867272,130
2867940,153
2868616,124
2869292,71
2869912,37
2870540,13
2871164,130
2871844,170
2872520,80
2873144,13
2873772,26
2874404,50
2875024,66
2875652,69
2876276,50
2876908,48
2877536,59
2878156,35
2878784,23
2879408,19
2880032,51
2880660,88
2881276,97
2881908,98
2882532,54
2883152,49
2883784,69
2884400,100
2885080,85
2885704,52
2886320,56
2886948,57
2887572,44
2888196,14
2888828,10
2889448,28
2890076,21
2890700,15
2891324,41
2891952,49
2892572,54
2893200,60
2893824,31
2894448,15
2895076,35
2895700,28
2896328,28
2896956,12
2897576,55
2898204,109
2898880,113
2899548,93
2900172,46
2900792,50
2901420,49
2902052,31
2902672,32
2903300,88
2903924,142
2904608,150
2905284,147
2905956,119
2906632,91
2907260,93
2907880,111
2908560,110
2909240,51
2909864,179
2910544,222
2911220,204
2911892,179
2912572,86
2913192,12
2913816,13
2914444,14
2915064,54
2915692,66
2916320,89
2916944,105
2917624,113
2918292,54
2918916,39
2919548,62
2920168,27
2920796,11
2921420,12
2922044,26
2922672,45
2923296,49
2923924,21
2924556,42
2925176,49
2925804,49
2926428,53
2927060,24
2927688,42
2928308,31
2928936,24
2929560,11
2930184,17
2930812,15
2931432,45
2932060,65
2932684,48
2933308,84
2933940,110
2934612,102
2935288,111
2935968,127
2936644,84
2937268,56
2937900,38
2938520,28
2939152,36
2939776,139
2940456,126
2941140,80
2941760,66
2942392,72
2943020,71
2943640,61
2944272,28
2944896,31
2945524,19
2946156,14
2946776,12
2947404,24
2948028,58
2948652,25
2949284,43
2949904,50
2950532,63
2951156,53
2951780,59
2952408,57
2953032,53
2953660,80
2954288,75
2954912,48
2955540,76
2956164,39
2956792,13
2957424,33
2958044,111
2958724,80
2959344,52
2959968,55
2960600,30
2961220,19
2961852,12
2962480,27
2963096,41
2963728,33
2964352,63
2964980,112
2965664,107
2966332,56
2966960,47
2967588,55
2968208,52
2968836,38
2969460,36
2970092,16
2970720,50
2971344,51
2971972,46
2972596,69
2973220,89
2973852,90
2974472,53
2975100,87
2975724,92
2976352,75
2976980,45
2977604,23
2978232,58
2978860,69
2979480,23
2980108,12
2980732,33
2981364,14
2981992,21
2982612,42
2983240,79
2983864,65
2984488,48
2985116,71
2985736,90
2986364,101
2987048,98
2987664,22
2988292,41
2988920,60
2989548,27
2990180,14
2990800,31
2991428,43
2992052,47
2992676,50
2993304,57
2993928,15
2994556,125
2995240,121
2995908,17
2996532,61
2997156,42
2997780,118
2998464,189
2999132,62
2999760,72
3000388,54
3001008,48
3001636,59
3002260,37
3002888,33
3003516,91
3004136,88
3004768,67
3005392,48
3006016,20
3006648,13
3007264,41
3007896,66
3008528,54
3009144,54
3009772,58
3010396,19
3011028,15
3011660,19
3012280,66
3012908,91
3013532,70
3014160,61
3014788,56
3015408,17
3016040,81
3016660,110
3017340,79
3017968,51
3018592,30
3019224,15
3019852,52
3020472,76
3021104,65
3021728,29
3022352,11
3022984,29
3023600,34
3024232,38
3024856,44
3025480,56
3026112,71
3026728,95
3027360,112
3028040,103
3028708,62
3029336,13
3029960,30
3030584,26
3031216,12
3031832,27
3032464,71
3033092,106
3033764,122
3034440,82
3035064,47
3035688,17
3036316,44
3036936,56
3037568,29
3038192,39
3038816,67
3039448,56
3040072,49
3040700,19
3041332,50
3041952,53
3042580,51
3043204,47
3043836,16
3044464,36
3045088,75
3045720,56
3046344,21
3046968,24
3047596,24
3048216,25
3048844,16
3049468,46
3050096,72
3050728,85
3051352,73
3051984,64
3052612,78
3053232,94
3053864,81
3054488,14
3055112,52
3055744,26
3056360,30
3056992,41
3057616,49
3058240,99
3058872,145
3059540,102
3060220,47
3060848,25
3061464,12
3062096,42
3062720,55
3063344,30
3063976,31
3064596,73
3065224,48
3065852,40
3066476,55
3067108,102
3067784,90
3068408,88
3069040,96
3069656,115
3070340,74
3070964,28
3071588,176
3072272,183
3072940,148
3073612,70
3074236,40
3074856,50
3075484,49
3076116,49
3076736,53
3077364,67
3077988,107
3078672,86
3079292,48
3079912,21
3080540,16
3081164,17
3081788,33
3082420,22
3083040,72
3083668,113
3084348,90
3084968,59
3085596,51
3086220,46
3086852,78
3087480,79
3088104,23
3088732,17
3089356,47
3089980,53
3090612,36
3091232,55
3091860,53
3092492,64
3093112,88
3093740,49
3094364,15
3094996,10
3095628,11
3096248,19
3096876,34
3097504,42
3098128,32
3098756,28
3099376,43
3100004,57
3100632,55
3101256,63
3101884,114
3102556,124
3103236,97
3103864,76
3104480,45
3105112,23
3105736,13
3106360,64
3106992,91
3107608,89
3108240,128
3108920,164
3109596,147
3110276,94
3110896,49
3111520,12
3112152,31
3112776,41
3113408,29
3114036,14
3114656,14
3115284,13
3115912,52
3116540,69
3117172,78
3117792,81
3118424,61
3119048,44
3119672,34
3120300,45
3120920,53
3121548,42
3122176,40
3122800,12
3123428,15
3124052,22
3124684,41
3125312,49
3125928,48
3126560,75
3127184,53
3127812,45
3128444,50
3129064,55
3129692,33
3130316,38
3130944,16
3131572,104
3132244,236
3132924,108
3133604,57
3134224,88
3134852,83
3135480,21
3136104,107
3136784,98
3137400,31
3138028,30
3138660,38
3139280,38
3139908,44
3140532,17
3141156,47
3141788,46
3142408,47
3143036,58
3143664,60
3144288,41
3144916,62
3145544,91
3146172,57
3146804,20
3147424,59
3148056,51
3148680,89
3149312,77
3149940,66
3150560,50
3151192,73
3151816,44
3152440,17
3153068,35
3153688,53
3154320,40
3154948,16
3155568,15
3156196,15
3156824,47
3157452,127
3158136,117
3158804,52
3159432,47
3160056,49
3160680,43
3161308,13
3161936,34
3162564,33
3163196,12
3163816,18
3164448,29
3165072,42
3165704,32
3166332,48
3166952,49
3167584,50
3168208,60
3168832,39
3169464,13
3170084,36
3170712,32
3171344,11
3171964,22
3172592,17
3173220,40
3173852,46
3174484,48
3175104,48
3175732,47
3176356,52
3176984,38
3177612,14
3178232,57
3178864,87
3179488,70
3180112,32
3180744,15
3181360,57
3181992,83
3182624,51
3183244,49
3183872,48
3184500,47
3185132,35
3185760,22
3186384,53
3187016,87
3187640,56
3188264,43
3188896,28
3189512,11
3190144,10
3190768,37
3191392,44
3192024,50
3192648,48
3193280,52
3193912,21
3194532,34
3195164,26
3195788,11
3196420,14
3197052,45
3197672,64
3198304,67
3198928,39
3199552,51
3200184,75
3200804,121
3201484,154
3202160,158
3202828,108
3203504,107
3204180,118
3204852,104
3205528,55
3206152,18
3206768,17
3207396,71
3208020,200
3208700,299
3209376,222
3210052,180
3210728,169
3211408,98
3212024,39
3212652,38
3213276,65
3213900,75
3214532,64
3215152,45
3215780,53
3216412,122
3217084,130
3217760,113
3218440,92
3219064,78
3219692,92
3220316,104
3221000,81
3221620,58
3222240,43
3222868,11
3223492,25
3224116,52
3224748,58
3225368,54
3226000,46
3226620,46
3227248,11
3227876,11
3228500,21
3229132,17
3229760,10
3230376,46
3231008,77
3231632,72
3232264,28
3232892,66
3233512,75
3234140,84
3234764,83
3235392,103
3236072,98
3236688,57
3237316,59
3237948,26
3238568,30
3239196,54
3239820,54
3240452,37
3241080,46
3241704,64
3242332,78
3242956,56
3243580,25
3244212,32
3244832,36
3245460,52
3246092,14
3246712,15
3247340,27
3247968,15
3248596,39
3249228,72
3249848,49
3250476,76
3251104,81
3251728,71
3252356,32
3252976,25
3253604,16
3254228,12
3254856,11
3255484,19
3256104,35
3256736,20
3257364,64
3257984,58
3258612,49
3259240,46
3259868,51
3260500,14
3261120,10
3261748,17
3262376,23
3263000,11
3263632,18
3264252,31
3264880,36
3265504,25
3266128,47
3266756,50
3267376,51
3268004,50
3268636,26
3269256,38
3269884,49
3270512,31
3271140,10
3271772,22
3272392,12
3273024,57
3273648,29
3274272,48
3274900,65
3275520,67
3276152,47
3276776,31
3277400,21
3278028,11
3278644,11
3279276,21
3279904,15
3280520,20
3281148,54
3281768,72
3282396,42
3283028,77
3283648,79
3284276,67
3284896,59
3285520,92
3286148,18
3286768,86
3287396,63
3288016,31
3288640,88
3289268,75
3289888,15
3290516,89
3291144,111
3291812,90
3292436,48
3293060,73
3293688,64
3294316,44
3294936,22
3295564,13
3296188,37
3296812,43
3297440,45
3298056,27
3298684,29
3299304,66
3299928,60
3300556,55
3301176,78
3301804,84
3302432,80
3303052,53
3303684,22
3304304,25
3304932,16
3305564,10
3306184,51
3306812,74
3307436,52
3308060,50
3308688,55
3309304,76
3309936,57
3310560,39
3311180,19
3311812,14
3312432,25
3313060,69
3313692,54
3314312,35
3314940,17
3315564,17
3316196,46
3316824,55
3317440,57
3318072,65
3318696,68
3319320,80
3319948,84
3320568,59
3321196,23
3321820,27
3322444,17
3323072,21
3323692,49
3324320,69
3324948,49
3325568,50
3326196,51
3326820,47
3327452,55
3328080,112
3328752,95
3329376,45
3329996,22
3330620,21
3331248,18
3331864,37
3332492,46
3333116,48
3333740,50
3334368,50
3334992,43
3335620,33
3336252,38
3336872,35
3337500,16
3338124,30
3338752,48
3339384,32
3340000,26
3340628,72
3341252,84
3341876,54
3342504,49
3343120,47
3343752,30
3344376,60
3345000,40
3345628,12
3346252,57
3346880,131
3347560,212
3348228,147
3348904,28
3349532,76
3350152,150
3350832,165
3351508,79
3352128,17
3352756,40
3353376,66
3354008,48
3354636,60
3355256,70
3355884,13
3356508,20
3357140,27
3357768,50
3358392,47
3359024,56
3359648,67
3360272,46
3360900,27
3361520,57
3362148,59
3362772,54
3363392,37
3364020,41
3364636,28
3365268,25
3365896,47
3366512,48
3367144,49
3367764,52
3368396,60
3369024,70
3369640,81
3370268,77
3370892,52
3371520,50
3372148,44
3372768,18
3373396,14
3374020,40
3374644,45
3375276,56
3375896,58
3376524,55
3377148,44
3377776,26
3378404,20
3379028,31
3379660,34
3380288,22
3380904,14
3381532,22
3382156,38
3382784,47
3383412,76
3384032,81
3384660,57
3385284,19
3385904,60
3386536,89
3387152,91
3387780,60
3388404,20
3389028,14
3389660,12
3390280,41
3390912,62
3391540,56
3392160,47
3392788,46
3393412,25
3394040,21
3394668,12
3395288,23
3395916,14
3396540,21
3397164,20
3397792,14
3398412,13
3399040,47
3399664,55
3400288,55
3400916,60
3401540,58
3402168,27
3402800,19
3403416,15
3404044,35
3404668,25
3405300,13
3405928,14
3406544,11
3407176,17
3407800,43
3408424,46
3409052,52
3409672,79
3410300,139
3410984,122
3411652,86
3412276,32
3412900,27
3413524,18
3414156,42
3414776,53
3415404,47
3416028,73
3416652,84
3417284,89
3417904,78
3418532,74
3419164,80
3419784,88
3420412,82
3421036,16
3421668,33
3422296,45
3422920,77
3423548,43
3424172,53
3424796,75
3425428,75
3426048,75
3426676,62
3427300,61
3427924,29
3428556,19
3429176,79
3429808,142
3430488,218
3431156,148
3431832,34
3432464,57
3433080,58
3433708,51
3434332,50
3434964,53
3435592,75
3436216,105
3436896,98
3437520,44
3438144,16
3438772,44
3439392,56
3440024,28
3440652,51
3441272,71
3441900,59
3442524,49
3443152,52
3443784,21
3444400,13
3445032,17
3445656,31
3446280,30
3446908,14
3447528,30
3448156,29
3448780,111
3449456,50
3450084,77
3450708,95
3451340,69
3451968,34
3452592,12
3453220,22
3453848,29
3454472,21
3455100,26
3455720,17
3456352,12
3456972,15
3457596,47
3458228,50
3458848,49
3459476,50
3460108,80
3460728,96
3461356,59
3461980,40
3462608,29
3463240,26
3463856,34
3464484,27
3465108,21
3465736,43
3466364,62
3466984,63
3467612,64
3468236,57
3468860,45
3469492,42
3470112,33
3470740,10
3471372,14
3471992,11
3472624,23
3473248,16
3473876,55
3474508,111
3475180,56
3475808,49
3476432,61
3477056,27
3477684,14
3478304,26
3478936,43
3479564,40
3480184,26
3480812,21
3481440,37
3482068,31
3482700,48
3483320,47
3483948,52
3484572,49
3485196,14
3485824,14
3486448,27
3487076,58
3487700,48
3488324,17
3488952,16
3489576,44
3490204,47
3490836,78
3491456,110
3492136,70
3492760,50
3493384,27
3494012,11
3494632,13
3495260,14
3495884,17
3496508,25
3497140,16
3497760,44
3498388,71
3499020,81
3499640,47
3500268,49
3500892,51
3501524,47
3502156,14
3502776,14
3503404,43
3504028,64
3504652,54
3505284,28
3505904,27
3506536,17
3507160,33
3507784,47
3508416,55
3509032,55
3509664,53
3510296,29
3510912,42
3511544,32
3512168,17
3512796,18
3513428,18
3514048,13
3514676,13
3515304,17
3515928,72
3516560,61
3517176,58
3517808,51
3518432,30
3519056,44
3519688,22
3520304,32
3520936,53
3521564,36
3522184,11
3522812,11
3523436,34
3524068,52
3524696,49
3525312,51
3525940,50
3526564,54
3527188,42
3527820,19
3528440,25
3529068,17
3529692,37
3530316,54
3530944,41
3531568,17
3532196,53
3532828,98
3533448,81
3534076,65
3534700,55
3535328,38
3535960,48
3536580,47
3537208,43
3537832,26
3538456,15
3539084,24
3539704,69
3540332,55
3540960,44
3541580,48
3542212,50
3542832,48
3543464,35
3544092,38
3544712,27
3545340,13
3545968,13
3546596,26
3547224,20
3547848,14
3548476,46
3549100,141
3549780,196
3550460,111
3551132,52
3551752,80
3552384,37
3553000,25
3553628,33
3554252,42
3554876,46
3555508,35
3556128,58
3556760,59
3557388,43
3558008,49
3558640,71
3559264,86
3559892,70
3560524,34
3561144,17
3561772,16
3562400,32
3563024,18
3563652,15
3564272,36
3564900,45
3565524,59
3566148,112
3566832,125
3567500,102
3568180,64
3568804,25
3569424,14
3570052,49
3570680,75
3571304,79
3571932,92
3572560,102
3573240,60
3573864,37
3574484,42
3575112,62
3575736,63
3576360,53
3576988,27
3577608,24
3578236,40
3578864,13
3579488,96
3580120,113
3580796,58
3581424,32
3582056,21
3582676,82
3583308,84
3583932,86
3584560,81
3585188,66
3585808,75
3586436,94
3587060,98
3587684,60
3588312,15
3588936,95
3589568,145
3590248,75
3590872,41
3591500,46
3592128,50
3592752,47
3593380,18
3594000,22
3594628,30
3595252,30
3595876,31
3596508,11
3597132,40
3597764,67
3598392,48
3599012,44
3599644,49
3600268,51
3600896,56
3601524,48
3602144,55
3602772,97
3603396,96
3604020,42
3604652,36
3605272,57
3605900,24
3606524,11
3607144,35
3607776,43
3608400,49
3609028,47
3609656,47
3610276,15
3610908,14
3611532,34
3612160,63
3612788,70
3613408,69
3614036,60
3614660,60
3615288,24
3615916,56
3616536,51
3617164,47
3617788,63
3618416,43
3619044,13
3619668,45
3620300,53
3620928,28
3621544,43
3622176,73
3622800,62
3623428,56
3624060,58
3624680,49
3625308,81
3625932,76
3626556,31
3627184,43
3627808,35
3628436,15
3629068,12
3629688,27
3630316,56
3630940,17
3631572,24
3632204,46
3632824,59
3633452,84
3634076,90
3634700,57
3635332,32
3635952,45
3636580,29
3637204,39
3637828,98
3638460,114
3639132,96
3639760,66
3640388,22
3641008,41
3641636,56
3642260,71
3642888,93
3643516,57
3644136,13
3644768,37
3645392,25
3646016,21
3646644,39
3647264,41
3647892,23
3648524,16
3649144,44
3649772,56
3650396,52
3651024,51
3651656,53
3652276,69
3652904,92
3653528,90
3654152,27
3654784,18
3655400,15
3656028,11
3656652,29
3657276,56
3657908,46
3658528,55
3659156,46
3659788,42
3660408,20
3661040,25
3661660,22
3662292,21
3662924,43
3663544,64
3664176,55
3664800,31
3665420,33
3666052,52
3666672,55
3667300,69
3667924,74
3668548,81
3669180,65
3669800,50
3670432,33
3671060,10
3671680,13
3672308,47
3672936,71
3673564,32
3674196,42
3674816,49
3675448,49
3676072,51
3676696,19
3677328,22
3677944,15
3678576,11
3679200,12
3679824,15
3680456,41
3681072,38
3681704,28
3682332,51
3682952,69
3683584,57
3684208,60
3684836,93
3685468,155
3686140,142
3686820,102
3687496,38
3688112,19
3688740,14
3689364,11
3689988,15
3690620,41
3691240,93
3691868,176
3692548,159
3693220,104
3693896,85
3694512,67
3695136,82
3695768,88
3696388,25
3697016,74
3697640,99
3698260,97
3698892,66
3699512,47
3700140,52
3700772,54
3701392,96
3702024,125
3702696,132
3703372,92
3704000,40
3704616,15
3705244,9
3705820,36
3706448,36
3707076,46
3707696,73
3708324,80
3708956,61
3709576,51
3710208,31
3710832,48
3711460,53
3712092,72
3712712,75
3713340,69
3713964,106
3714640,96
3715260,48
3715880,60
3716508,105
3717192,114
3717860,82
3718484,75
3719108,85
3719732,102
3720416,97
3721032,74
3721660,62
3722292,18
3722912,33
3723540,19
3724164,43
3724796,49
3725428,46
3726048,51
3726680,33
3727304,12
3727928,26
3728556,26
3729176,29
3729804,18
3730428,12
3731056,14
3731688,23
3732312,71
3732940,65
3733572,62
3734192,91
3734824,63
3735448,50
3736072,36
3736704,31
3737320,13
3737952,20
3738576,13
3739200,13
3739828,34
3740448,36
3741076,49
3741708,52
3742328,66
3742960,70
3743584,33
3744216,12
3744844,20
3745464,31
3746092,19
3746716,17
3747340,24
3747972,48
3748592,67
3749224,69
3749848,55
3750472,47
3751100,50
3751720,23
3752348,29
3752980,48
3753600,37
3754228,10
3754856,19
3755484,47
3756116,70
3756736,54
3757368,50
3757992,49
3758616,51
3759248,77
3759868,119
3760552,156
3761228,131
3761900,90
3762528,33
3763152,13
3763776,39
3764408,32
3765028,20
3765656,61
3766288,56
3766908,49
3767536,48
3768164,26
3768792,14
3769424,49
3770044,81
3770672,27
3771296,153
3771972,160
3772652,112
3773324,40
3773952,46
3774580,53
3775200,49
3775832,53
3776456,36
3777080,14
3777708,24
3778328,66
3778960,73
3779584,64
3780208,27
3780836,15
3781460,16
3782092,44
3782724,90
3783344,87
3783976,85
3784600,66
3785224,44
3785856,56
3786472,51
3787104,45
3787728,35
3788352,41
3788984,35
3789600,11
3790228,19
3790860,45
3791480,69
3792108,72
3792732,59
3793364,41
3793992,32
3794616,52
3795248,84
3795868,92
3796492,83
3797124,84
3797744,62
3798376,26
3799000,55
3799624,77
3800256,66
3800876,65
3801504,106
3802188,153
3802860,145
3803540,119
3804220,81
3804840,67
3805468,40
3806092,19
3806724,21
3807356,46
3807976,51
3808608,49
3809236,50
3809860,20
3810488,12
3811112,13
3811744,30
3812376,100
3813044,219
3813724,238
3814396,201
3815076,119
3815756,44
3816376,48
3817000,55
3817628,64
3818248,95
3818880,112
3819560,114
3820228,107
3820908,115
3821588,109
3822260,70
3822888,16
3823512,64
3824136,69
3824768,48
3825388,50
3826020,55
3826644,29
3827268,13
3827900,10
3828520,13
3829152,39
3829784,130
3830452,125
3831132,110
3831804,71
3832432,48
3833064,79
3833688,70
3834320,62
3834952,71
3835572,80
3836200,80
3836828,66
3837452,34
3838084,11
3838704,22
3839336,40
3839964,29
3840588,43
3841220,48
3841840,61
3842468,51
3843100,30
3843720,15
3844348,19
3844972,16
3845604,12
3846232,11
3846852,27
3847480,31
3848104,15
3848728,48
3849356,58
3849976,51
3850604,51
3851228,52
3851852,47
3852484,62
3853104,61
3853732,42
3854364,34
3854984,26
3855612,24
3856236,41
3856868,16
3857496,41
3858116,47
3858744,52
3859368,50
3859992,37
3860624,40
3861240,39
3861868,33
3862492,27
3863116,17
3863748,12
3864368,16
3864996,29
3865628,38
3866248,57
3866876,50
3867500,57
3868132,89
3868764,87
3869384,88
3870016,64
3870640,45
3871264,54
3871896,29
3872512,41
3873144,63
3873768,51
3874392,49
3875024,50
3875640,50
3876272,47
3876900,13
3877520,38
3878152,32
3878776,45
3879404,56
3880036,26
3880656,17
3881284,25
3881908,30
3882536,47
3883164,54
3883784,56
3884416,52
3885040,34
3885664,39
3886296,38
3886920,43
3887548,11
3888180,12
3888800,15
3889428,12
3890056,14
3890684,41
3891316,48
3891936,57
3892564,67
3893188,55
3893812,17
3894440,40
3895064,53
3895692,77
3896316,84
3896944,70
3897576,41
3898200,17
3898828,56
3899460,90
3900080,90
3900712,75
3901336,63
3901960,63
3902592,47
3903208,17
3903840,39
3904464,23
3905088,27
3905716,58
3906336,46
3906968,33
3907596,46
3908216,50
3908848,49
3909472,50
3910100,13
3910732,20
3911352,28
3911984,39
3912608,56
3913232,39
3913864,25
3914480,19
3915108,22
3915736,65
3916360,52
3916992,51
3917608,65
3918236,94
3918868,74
3919488,60
3920120,52
3920744,29
3921372,39
3922004,22
3922624,55
3923252,89
3923876,71
3924504,51
3925132,50
3925752,50
3926384,29
3927008,17
3927636,11
3928264,34
3928888,40
3929520,34
3930152,34
3930768,55
3931400,40
3932024,41
3932656,48
3933284,46
3933904,46
3934532,49
3935156,21
3935784,25
3936412,41
3937032,25
3937660,13
3938284,24
3938908,11
3939540,11
3940164,26
3940792,49
3941424,55
3942040,52
3942672,50
3943296,20
3943924,25
3944552,32
3945176,39
3945804,30
3946428,24
3947052,36
3947684,64
3948304,43
3948932,43
3949556,46
3950180,49
3950812,50
3951436,21
3952068,10
3952696,18
3953320,41
3953948,41
3954572,33
3955204,15
3955832,44
3956456,21
3957084,45
3957712,51
3958336,45
3958968,47
3959584,50
3960216,24
3960844,27
3961464,34
3962096,27
3962720,23
3963348,33
3963980,46
3964600,51
3965232,34
3965856,56
3966480,74
3967112,95
3967728,91
3968360,72
3968984,55
3969608,81
3970236,107
3970908,91
3971536,63
3972164,16
3972784,17
3973416,17
3974040,41
3974664,74
3975292,109
3975964,105
3976644,82
3977268,36
3977888,23
3978516,80
3979140,25
3979772,62
3980404,40
3981024,13
3981652,18
3982276,40
3982904,51
3983532,52
3984152,72
3984784,82
3985404,46
3986032,14
3986660,71
3987288,90
3987916,70
3988548,42
3989168,54
3989800,48
3990424,42
3991048,46
3991676,47
3992296,51
3992928,41
3993556,38
3994180,37
3994812,28
3995432,29
3996064,12
3996692,28
3997312,65
3997944,92
3998568,57
3999200,48
3999828,62
4000448,67
4001080,58
4001700,42
4002324,66
4002956,113
4003628,127
4004304,88
4004932,36
4005552,21
4006180,55
4006804,38
4007428,41
4008060,46
4008680,47
4009308,55
4009932,55
4010556,33
4011188,12
4011808,13
4012436,19
4013068,24
4013688,41
4014316,41
4014940,25
4015572,60
4016200,63
4016824,56
4017452,56
4018076,54
4018700,65
4019332,88
4019952,96
4020580,66
4021204,28
4021828,11
4022456,83
4023076,115
4023756,65
4024384,54
4025000,51
4025628,55
4026252,46
4026880,30
4027512,20
4028132,21
4028760,13
4029384,17
4030008,19
4030636,16
4031256,27
4031888,33
4032520,86
4033136,126
4033816,102
4034492,73
4035112,69
4035744,12
4036360,53
4036988,72
4037616,53
4038236,53
4038868,65
4039492,27
4040124,30
4040752,63
4041376,69
4042004,51
4042628,49
4043260,43
4043892,86
4044512,98
4045144,82
4045764,47
4046388,31
4047020,24
4047640,25
4048268,17
4048892,56
4049520,69
4050148,56
4050776,54
4051404,36
4052036,17
4052656,17
4053284,21
4053908,14
4054536,24
4055164,38
4055784,24
4056412,26
4057036,53
4057664,47
4058292,46
4058912,50
4059540,44
4060172,16
4060792,21
4061424,14
4062048,14
4062676,17
4063308,24
4063928,19
4064560,14
4065184,32
4065808,51
4066436,54
4067056,51
4067688,50
4068312,31
4068936,57
4069568,16
4070184,62
4070816,65
4071444,59
4072064,45
4072692,27
4073320,23
4073948,41
4074580,52
4075200,56
4075832,52
4076456,28
4077080,24
4077708,15
4078328,12
4078960,15
4079584,25
4080208,30
4080836,32
4081456,47
4082084,38
4082716,47
4083336,58
4083968,61
4084592,65
4085220,69
4085852,62
4086472,53
4087100,33
4087728,15
4088352,13
4088980,30
4089600,31
4090228,37
4090856,42
4091480,49
4092112,48
4092728,48
4093360,12
4093992,10
4094616,19
4095248,24
4095876,13
4096508,22
4097136,75
4097752,95
4098380,54
4099000,50
4099624,67
4100252,74
4100872,70
4101500,78
4102120,70
4102744,54
4103372,49
4103992,36
4104620,38
4105248,29
4105864,11
4106492,15
4107116,48
4107744,63
4108372,59
4108992,49
4109620,26
4110240,26
4110864,36
4111492,34
4112112,65
4112740,130
4113420,249
4114092,314
4114768,195
4115444,45
4116064,96
4116692,104
4117368,74
4117988,67
4118616,50
4119240,54
4119868,49
4120492,24
4121112,27
4121744,18
4122360,19
4122988,12
4123612,47
4124232,52
4124864,53
4125480,54
4126108,51
4126736,33
4127360,20
4127988,14
4128612,12
4129240,13
4129868,50
4130488,86
4131116,73
4131740,53
4132364,50
4132996,57
4133616,80
4134244,83
4134868,95
4135492,86
4136120,47
4136744,43
4137372,13
4138000,24
4138624,49
4139252,36
4139876,20
4140504,43
4141132,46
4141752,52
4142380,53
4143004,76
4143628,79
4144260,42
4144880,27
4145508,21
4146132,13
4146756,14
4147388,13
4148008,14
4148636,41
4149264,45
4149880,55
4150512,69
4151136,53
4151764,11
4152396,20
4153016,32
4153644,59
4154268,58
4154892,38
4155520,25
4156144,12
4156772,71
4157400,113
4158076,105
4158756,69
4159376,54
4160004,12
4160632,11
4161256,13
4161884,29
4162508,61
4163128,54
4163760,56
4164376,34
4165004,16
4165628,62
4166256,76
4166884,63
4167508,57
4168136,48
4168764,79
4169384,114
4170064,95
4170680,52
4171304,27
4171932,26
4172552,11
4173180,20
4173804,56
4174428,61
4175056,49
4175680,87
4176308,129
4176992,256
4177660,315
4178336,166
4179016,24
4179632,16
4180260,13
4180884,15
4181508,17
4182140,70
4182760,77
4183388,70
4184012,88
4184636,101
4185316,73
4185936,46
4186564,29
4187192,11
4187816,13
4188444,11
4189068,25
4189700,17
4190328,67
4190944,59
4191576,50
4192200,47
4192824,45
4193452,26
4194072,23
4194700,39
4195324,40
4195952,48
4196580,53
4197204,49
4197836,32
4198468,34
4199088,60
4199716,103
4200388,138
4201060,154
4201736,123
4202404,98
4203024,76
4203652,69
4204272,49
4204900,33
4205524,16
4206148,44
4206776,118
4207444,199
4208120,184
4208800,123
4209464,78
4210092,37
4210724,14
4211344,21
4211972,33
4212596,20
4213228,15
4213856,24
4214472,42
4215104,41
4215728,48
4216352,63
4216980,71
4217600,82
4218228,102
4218912,124
4219580,141
4220256,107
4220936,41
4221560,11
4222188,33
4222812,71
4223444,57
4224072,50
4224696,61
4225324,58
4225948,52
4226568,43
4227196,52
4227816,68
4228444,97
4229068,102
4229744,52
4230372,54
4230996,62
4231628,18
4232256,89
4232880,100
4233560,103
4234228,94
4234848,96
4235476,99
4236104,124
4236784,142
4237460,129
4238132,93
4238756,28
4239388,46
4240008,85
4240636,53
4241260,57
4241888,55
4242520,50
4243136,43
4243768,50
4244392,38
4245016,31
4245644,35
4246264,27
4246892,17
4247516,21
4248140,45
4248772,68
4249392,73
4250024,47
4250652,51
4251272,52
4251900,63
4252524,79
4253156,63
4253784,29
4254408,32
4255036,15
4255660,37
4256288,35
4256916,50
4257536,48
4258164,54
4258788,78
4259416,45
4260044,17
4260664,48
4261292,59
4261920,38
4262536,58
4263168,79
4263792,89
4264420,81
4265048,45
4265664,54
4266292,73
4266916,76
4267540,73
4268172,66
4268792,50
4269420,39
4270048,43
4270672,44
4271300,26
4271920,23
4272548,29
4273180,18
4273800,48
4274428,51
4275052,50
4275684,48
4276312,22
4276932,22
4277560,33
4278184,33
4278808,49
4279436,105
4280108,136
4280784,94
4281412,46
4282032,43
4282660,95
4283284,138
4283960,151
4284644,137
4285316,106
4285992,81
4286624,53
4287240,32
4287868,27
4288496,15
4289116,56
4289748,104
4290424,103
4291100,64
4291728,59
4292344,61
4292972,56
4293596,39
4294224,33
4294852,21
4295472,16
4296104,33
4296732,26
4297352,15
4297984,24
4298608,63
4299236,81
4299868,68
4300488,71
4301120,32
4301740,28
4302364,16
4302996,10
4303616,13
4304244,23
4304868,33
4305492,51
4306120,18
4306744,68
4307372,91
4308004,62
4308624,49
4309252,53
4309876,13
4310508,37
4311136,59
4311760,73
4312388,20
4313012,34
4313636,87
4314268,52
4314888,17
4315516,56
4316144,47
4316768,53
4317396,54
4318024,87
4318652,49
4319284,40
4319904,58
4320536,16
4321160,12
4321788,48
4322420,70
4323040,92
4323668,93
4324292,72
4324916,58
4325548,66
4326168,46
4326796,14
4327420,86
4328048,144
4328728,142
4329396,97
4330016,55
4330644,24
4331264,31
4331892,38
4332520,55
4333144,73
4333772,108
4334444,130
4335120,95
4335752,22
4336368,98
4337000,135
4337680,88
4338304,65
4338936,67
4339560,28
4340188,40
4340820,42
4341440,48
4342068,50
4342692,42
4343316,28
4343948,20
4344568,85
4345196,76
4345824,66
4346448,48
4347076,18
4347696,13
4348324,28
4348956,47
4349576,45
4350208,46
4350832,55
4351464,40
4352096,18
4352708,11
4353340,23
4353964,23
4354584,11
4355216,30
4355832,47
4356460,27
4357084,40
4357712,44
4358340,53
4358960,83
4359588,89
4360220,26
4360840,35
4361468,51
4362092,51
4362724,69
4363352,69
4363972,66
4364600,50
4365224,47
4365848,80
4366476,88
4367096,94
4367724,94
4368348,91
4368972,102
4369656,115
4370324,74
4370948,21
4371576,54
4372200,84
4372828,64
4373452,43
4374076,45
4374708,46
4375328,47
4375956,44
4376588,23
4377208,21
4377840,27
4378460,32
4379092,79
4379724,120
4380396,104
4381076,69
4381704,42
4382320,73
4382952,85
4383576,76
4384208,78
4384836,109
4385508,88
4386132,53
4386760,28
4387380,28
4388012,19
4388632,80
4389260,66
4389884,18
4390512,37
4391140,46
4391768,54
4392396,55
4393028,63
4393648,48
4394276,46
4394900,33
4395528,22
4396156,20
4396776,28
4397408,21
4398032,17
4398656,66
4399288,81
4399904,102
4400588,93
4401216,103
4401884,86
4402512,60
4403136,17
4403760,37
4404392,69
4405008,102
4405688,135
4406364,66
4406984,41
4407612,45
4408236,49
4408864,56
4409492,44
4410112,37
4410744,31
4411368,13
4411992,39
4412624,51
4413240,48
4413872,65
4414504,90
4415120,58
4415752,46
4416376,51
4417004,65
4417636,102
4418308,90
4418936,23
4419560,11
4420184,35
4420812,28
4421432,19
4422064,15
4422692,33
4423312,36
4423944,44
4424568,70
4425196,103
4425876,114
4426548,48
4427172,31
4427804,14
4428424,76
4429056,119
4429728,145
4430404,124
4431080,46
4431696,62
4432324,97
4432956,60
4433576,49
4434208,49
4434832,51
4435460,92
4436092,65
4436712,43
4437340,11
4437968,20
4438592,27
4439220,12
4439840,35
4440472,40
4441100,46
4441720,49
4442348,51
4442972,16
4443604,13
4444236,12
4444856,20
4445484,51
4446108,30
4446732,13
4447364,16
4447984,34
4448616,69
4449240,68
4449864,57
4450492,46
4451112,49
4451744,112
4452428,92
4453048,15
4453680,19
4454304,26
4454928,16
4455560,77
4456176,84
4456808,45
4457432,48
4458056,55
4458688,65
4459304,60
4459936,15
4460564,51
4461184,79
4461816,66
4462440,61
4463068,43
4463700,12
4464320,20
4464952,44
4465576,77
4466200,85
4466828,85
4467448,87
4468076,61
4468700,51
4469328,29
4469956,11
4470576,11
4471208,14
4471836,10
4472456,10
4473088,46
4473712,62
4474344,71
4474972,61
4475592,49
4476224,25
4476848,63
4477472,65
4478104,67
4478724,97
4479352,149
4480036,123
4480704,65
4481332,49
4481956,39
4482580,48
4483208,46
4483832,56
4484460,58
4485084,55
4485708,64
4486340,76
4486960,45
4487588,15
4488220,14
4488840,22
4489468,13
4490092,43
4490724,57
4491352,61
4491976,64
4492608,48
4493232,18
4493856,17
4494484,10
4495104,12
4495736,20
4496360,25
4496984,24
4497612,38
4498232,37
4498864,48
4499492,45
4500112,60
4500744,69
4501368,71
4502000,54
4502628,46
4503248,30
4503880,12
4504504,14
4505128,13
4505760,12
4506376,15
4507004,40
4507628,42
4508252,47
4508880,47
4509496,38
4510128,44
4510756,48
4511376,55
4512004,41
4512628,31
4513256,22
4513888,13
4514504,14
4515136,62
4515760,95
4516384,101
4517064,65
4517688,38
4518316,29
4518948,22
4519568,12
4520196,11
4520820,19
4521452,51
4522080,130
4522756,98
4523384,43
4524008,46
4524632,48
4525260,45
4525880,43
4526508,23
4527140,11
4527760,30
4528392,40
4529012,40
4529644,17
4530272,66
4530896,75
4531528,60
4532148,50
4532772,98
4533404,130
4534076,132
4534756,135
4535436,103
4536108,60
4536736,34
4537364,14
4537984,63
4538616,100
4539292,105
4539964,86
4540592,81
4541208,76
4541840,59
4542472,52
4543088,37
4543720,30
4544344,15
4544972,18
4545604,30
4546224,15
4546856,24
4547480,38
4548104,45
4548732,78
4549352,73
4549984,65
4550608,59
4551232,24
4551864,35
4552480,115
4553160,52
4553792,14
4554408,13
4555036,28
4555664,29
4556296,113
4556976,123
4557652,86
4558276,55
4558908,54
4559528,118
4560212,98
4560832,21
4561456,12
4562084,18
4562704,14
4563332,19
4563956,40
4564584,50
4565212,92
4565836,75
4566468,48
4567100,62
4567720,43
4568348,14
4568972,28
4569604,55
4570232,24
4570852,36
4571484,50
4572108,55
4572732,49
4573364,42
4573984,51
4574616,47
4575244,57
4575864,70
4576496,79
4577120,75
4577752,43
4578380,11
4579000,37
4579632,56
4580256,48
4580880,14
4581512,36
4582132,47
4582760,48
4583384,48
4584012,46
4584640,12
4585260,24
4585892,41
4586520,52
4587144,18
4587776,17
4588400,33
4589028,41
4589660,28
4590280,41
4590908,44
4591536,44
4592160,48
4592788,16
4593408,13
4594036,11
4594664,20
4595288,21
4595916,10
4596536,14
4597164,19
4597796,17
4598416,53
4599044,73
4599668,97
4600300,115
4600984,113
4601652,85
4602276,56
4602908,39
4603528,12
4604156,44
4604784,43
4605416,65
4606048,93
4606664,86
4607296,106
4607972,76
4608596,51
4609224,39
4609840,11
4610468,24
4611100,22
4611720,48
4612348,83
4612972,71
4613604,41
4614232,17
4614848,31
4615480,67
4616104,81
4616728,96
4617356,108
4618028,122
4618704,105
4619384,92
4620008,43
4620636,46
4621260,75
4621884,66
4622516,45
4623136,26
4623768,38
4624396,48
4625016,48
4625644,47
4626268,40
4626900,58
4627528,74
4628152,85
4628780,90
4629404,80
4630028,59
4630660,27
4631280,120
4631960,175
4632644,141
4633316,90
4633944,57
4634568,30
4635188,21
4635820,41
4636440,75
4637072,43
4637696,14
4638320,40
4638952,53
4639576,47
4640204,61
4640836,52
4641456,50
4642084,49
4642708,51
4643336,59
4643964,36
4644584,63
4645212,69
4645836,47
4646460,55
4647092,44
4647712,21
4648340,56
4648972,68
4649592,69
4650220,64
4650844,51
4651476,45
4652108,44
4652728,32
4653360,36
4653984,28
4654608,11
4655236,22
4655856,23
4656488,29
4657112,42
4657736,47
4658368,48
4658984,51
4659616,41
4660244,17
4660864,15
4661492,11
4662116,12
4662748,13
4663380,14
4664000,13
4664628,20
4665252,69
4665880,79
4666508,102
4667180,122
4667860,124
4668540,89
4669160,30
4669792,10
4670416,16
4671036,11
4671668,14
4672288,45
4672916,85
4673548,128
4674220,114
4674900,72
4675520,56
4676144,77
4676772,81
4677392,46
4678020,15
4678648,15
4679272,33
4679900,48
4680524,31
4681156,16
4681784,49
4682408,81
4683036,99
4683664,88
4684292,50
4684924,46
4685544,16
4686172,49
4686796,59
4687424,49
4688052,12
4688672,41
4689300,81
4689932,98
4690552,87
4691180,64
4691808,50
4692436,48
4693068,20
4693688,17
4694320,11
4694944,35
4695568,45
4696200,21
4696816,17
4697448,15
4698072,29
4698696,47
4699328,114
4699996,109
4700676,67
4701304,13
4701920,15
4702552,11
4703176,29
4703804,45
4704436,60
4705056,35
4705688,12
4706316,15
4706936,45
4707568,54
4708192,61
4708824,61
4709452,35
4710072,14
4710704,46
4711328,53
4711956,76
4712584,72
4713208,68
4713836,51
4714464,48
4715088,45
4715716,50
4716336,74
4716968,93
4717596,81
4718216,73
4718848,65
4719472,66
4720104,47
4720732,10
4721352,12
4721980,13
4722608,11
4723232,43
4723860,45
4724480,49
4725108,56
4725736,46
4726360,15
4726992,18
4727608,34
4728240,50
4728872,45
4729488,21
4730120,15
4730744,18
4731376,20
4732004,74
4732624,63
4733256,46
4733880,117
4734556,142
4735236,121
4735908,90
4736532,94
4737160,107
4737828,79
4738456,56
4739084,19
4739704,50
4740336,114
4741012,124
4741688,131
4742364,103
4743036,56
4743664,39
4744296,34
4744912,33
4745544,13
4746168,17
4746792,36
4747424,55
4748044,23
4748672,75
4749296,65
4749920,52
4750552,50
4751180,23
4751812,33
4752440,42
4753064,38
4753696,19
4754320,11
4754948,40
4755580,52
4756200,22
4756832,43
4757456,49
4758080,44
4758708,45
4759328,23
4759960,39
4760592,50
4761208,47
4761840,28
4762464,11
4763092,23
4763724,22
4764344,61
4764972,134
4765652,112
4766324,77
4766952,57
4767576,25
4768208,29
4768836,36
4769456,59
4770084,43
4770712,14
4771336,13
4771968,14
4772584,30
4773216,83
4773840,100
4774516,78
4775144,61
4775768,47
4776396,21
4777028,24
4777648,12
4778276,24
4778904,77
4779528,155
4780212,165
4780884,148
4781564,80
4782192,48
4782812,45
4783440,59
4784064,71
4784688,93
4785320,99
4785936,92
4786568,83
4787192,67
4787820,59
4788452,31
4789076,15
4789708,29
4790340,39
4790960,52
4791592,48
4792220,49
4792844,33
4793476,53
4794096,122
4794780,88
4795408,39
4796028,15
4796656,26
4797284,38
4797916,41
4798548,82
4799168,70
4799800,52
4800428,55
4801052,111
4801732,136
4802404,86
4803028,34
4803660,14
4804280,60
4804908,105
4805584,122
4806256,116
4806932,86
4807552,68
4808184,55
4808812,48
4809432,14
4810064,33
4810688,24
4811312,14
4811944,26
4812560,11
4813192,65
4813816,45
4814440,19
4815068,67
4815692,75
4816324,49
4816952,47
4817572,21
4818200,11
4818824,11
4819452,13
4820084,67
4820704,91
4821332,55
4821960,35
4822584,13
4823212,50
4823832,53
4824464,43
4825092,51
4825712,47
4826340,12
4826964,11
4827596,15
4828228,26
4828848,12
4829476,34
4830104,51
4830728,61
4831356,39
4831976,45
4832608,49
4833236,51
4833860,51
4834488,44
4835112,70
4835744,75
4836372,33
4836992,13
4837624,9
4838196,10
4838832,11
4839460,34
4840080,73
4840708,102
4841384,118
4842056,117
4842732,78
4843352,55
4843984,48
4844612,34
4845232,32
4845864,122
4846540,230
4847212,190
4847892,97
4848512,45
4849144,60
4849772,89
4850392,72
4851024,20
4851648,62
4852272,131
4852956,117
4853628,61
4854256,20
4854884,15
4855504,46
4856136,24
4856760,42
4857384,53
4858016,62
4858632,63
4859264,21
4859888,30
4860512,53
4861144,41
4861768,37
4862400,41
4863028,46
4863648,33
4864284,44
4864904,46
4865536,48
4866164,47
4866784,49
4867412,42
4868040,45
4868660,48
4869292,96
4869912,129
4870596,118
4871272,49
4871896,31
4872528,49
4873152,44
4873776,60
4874408,71
4875024,52
4875656,47
4876280,31
4876904,31
4877532,18
4878156,11
4878788,20
4879420,40
4880040,64
4880668,77
4881292,71
4881924,50
4882552,51
4883172,78
4883804,119
4884484,147
4885156,170
4885832,120
4886508,44
4887128,19
4887756,28
4888376,106
4889056,148
4889740,86
4890360,51
4890992,49
4891616,48
4892240,51
4892868,22
4893488,19
4894120,17
4894748,16
4895368,11
4896000,21
4896620,43
4897252,73
4897884,50
4898504,50
4899136,80
4899760,94
4900384,90
4901016,95
4901636,99
4902264,85
4902892,45
4903516,27
4904148,119
4904824,194
4905508,138
4906188,45
4906808,41
4907440,59
4908072,55
4908688,51
4909320,16
4909948,45
4910580,46
4911212,27
4911832,22
4912468,12
4913092,22
4913716,16
4914348,14
4914968,49
4915604,54
4916232,60
4916848,60
4917476,59
4918100,68
4918732,78
4919360,85
4919976,61
4920608,17
4921232,15
4921860,36
4922492,26
4923112,44
4923740,48
4924364,47
4924988,45
4925620,52
4926240,56
4926868,53
4927500,52
4928120,38
4928748,15
4929372,17
4930000,28
4930628,14
4931248,19
4931876,67
4932500,66
4933128,61
4933756,46
4934376,18
4935008,37
4935632,24
4936256,11
4936884,13
4937504,15
4938132,23
4938764,57
4939384,49
4940012,53
4940636,72
4941268,63
4941900,46
4942520,29
4943148,57
4943776,66
4944400,27
4945028,14
4945648,16
4946276,59
4946900,76
4947524,25
4948156,77
4948776,108
4949456,102
4950140,107
4950812,74
4951440,60
4952068,67
4952688,35
4953320,58
4953944,138
4954624,146
4955308,49
4955928,26
4956560,69
4957188,63
4957808,50
4958440,47
4959060,34
4959692,13
4960324,40
4960944,39
4961572,29
4962196,32
4962824,45
4963452,54
4964072,45
4964700,46
4965324,46
4965948,48
4966580,48
4967200,48
4967828,30
4968460,61
4969080,69
4969708,65
4970332,59
4970964,34
4971592,25
4972212,55
4972840,33
4973464,41
4974088,43
4974716,48
4975336,48
4975968,19
4976592,12
4977216,15
4977844,11
4978464,11
4979092,18
4979724,27
4980344,56
4980972,37
4981600,41
4982228,53
4982860,58
4983480,54
4984112,55
4984736,82
4985360,93
4985992,97
4986608,88
4987240,142
4987920,130
4988596,66
4989224,18
4989848,102
4990524,161
4991204,130
4991876,144
4992556,112
4993232,50
4993856,32
4994484,27
4995116,19
4995736,11
4996368,15
4996992,21
4997620,40
4998252,97
4998872,100
4999552,75
5000176,49
5000800,23
5001428,34
5002052,44
5002684,43
5003316,20
5003936,15
5004568,45
5005192,58
5005820,31
5006452,42
5007072,47
5007704,47
5008328,51
5008952,57
5009580,27
5010200,19
5010832,34
5011460,22
5012080,15
5012708,17
5013336,19
5013964,39
5014596,52
5015216,67
5015848,68
5016472,51
5017096,47
5017728,12
5018344,24
5018972,33
5019596,41
5020224,37
5020852,12
5021472,16
5022100,33
5022732,83
5023352,106
5024036,88
5024656,83
5025284,54
5025916,42
5026536,15
5027168,25
5027792,12
5028416,60
5029048,104
5029716,102
5030396,68
5031024,33
5031644,60
5032276,72
5032900,71
5033524,56
5034156,16
5034776,15
5035408,29
5036040,35
5036660,26
5037288,11
5037916,15
5038548,25
5039176,17
5039800,41
5040432,47
5041056,45
5041680,45
5042308,33
5042928,25
5043560,26
5044184,13
5044808,11
5045436,18
5046056,29
5046688,17
5047316,14
5047936,34
5048568,56
5049192,66
5049824,60
5050452,54
5051072,40
5051704,49
5052328,35
5052952,33
5053584,18
5054204,15
5054832,53
5055460,48
5056084,24
5056716,39
5057336,43
5057968,48
5058596,44
5059216,15
5059844,17
5060472,24
5061100,11
5061732,26
5062352,38
5062984,51
5063612,58
5064236,40
5064868,40
5065488,49
5066120,51
5066744,49
5067368,35
5068000,27
5068624,40
5069256,39
5069888,27
5070504,40
5071136,14
5071760,83
5072392,67
5073024,42
5073640,45
5074272,51
5074900,73
5075524,100
5076208,119
5076876,94
5077504,30
5078136,16
5078756,80
5079388,103
5080072,60
5080688,43
5081316,43
5081944,69
5082572,80
5083204,74
5083824,65
5084456,55
5085080,21
5085704,43
5086336,80
5086952,118
5087636,74
5088264,39
5088880,25
5089512,100
5090188,139
5090868,131
5091548,69
5092168,46
5092800,47
5093428,35
5094048,28
5094680,36
5095304,121
5095988,267
5096668,228
5097340,90
5097968,43
5098600,62
5099216,72
5099848,61
5100472,53
5101096,67
5101728,69
5102348,82
5102980,88
5103604,64
5104232,17
5104864,28
5105488,13
5106120,30
5106752,39
5107372,46
5108000,46
5108628,45
5109256,20
5109888,26
5110508,21
5111140,16
5111764,18
5112392,57
5113024,87
5113644,75
5114276,59
5114908,40
5115528,62
5116160,72
5116788,75
5117420,90
5118052,130
5118728,135
5119404,140
5120084,108
5120752,80
5121376,21
5121996,69
5122620,95
5123248,85
5123864,110
5124544,100
5125220,89
5125840,68
5126468,42
5127088,15
5127712,54
5128340,72
5128960,61
5129588,39
5130212,31
5130836,31
5131464,78
5132088,70
5132716,50
5133348,44
5133968,26
5134596,28
5135220,46
5135852,44
5136480,24
5137096,15
5137728,46
5138352,57
5138976,15
5139604,67
5140224,49
5140852,46
5141476,45
5142100,43
5142728,18
5143352,21
5143980,12
5144612,12
5145232,14
5145860,15
5146484,49
5147116,92
5147744,93
5148364,43
5148992,64
5149616,87
5150240,67
5150868,29
5151488,40
5152116,67
5152740,67
5153364,16
5153996,26
5154616,39
5155244,43
5155876,31
5156496,41
5157124,45
5157748,43
5158380,50
5159012,26
5159632,12
5160264,10
5160888,14
5161512,17
5162140,18
5162760,51
5163388,27
5164012,26
5164636,44
5165268,53
5165892,45
5166520,45
5167152,42
5167772,23
5168400,41
5169024,37
5169652,32
5170284,28
5170904,25
5171536,15
5172156,23
5172780,37
5173412,54
5174032,48
5174660,49
5175284,46
5175908,44
5176540,81
5177164,105
5177848,69
5178468,50
5179088,40
5179716,42
5180344,49
5180968,29
5181596,53
5182216,76
5182848,81
5183472,65
5184096,51
5184724,25
5185348,10
5185976,10
5186608,29
5187224,21
5187852,18
5188476,44
5189108,49
5189740,45
5190360,42
5190992,44
5191616,45
5192240,26
5192868,23
5193488,35
5194120,33
5194744,29
5195368,48
5196000,59
5196624,40
5197252,34
5197884,41
5198504,58
5199136,50
5199760,44
5200388,45
5201020,77
5201640,107
5202320,86
5202948,85
5203568,90
5204196,92
5204820,29
5205448,19
5206080,26
5206696,104
5207380,134
5208052,70
5208672,47
5209300,64
5209928,72
5210556,43
5211188,42
5211808,78
5212440,83
5213064,65
5213692,53
5214324,31
5214944,61
5215576,100
5216252,112
5216932,102
5217612,76
5218232,43
5218856,32
5219488,12
5220104,27
5220732,11
5221360,19
5221984,23
5222616,39
5223240,45
5223868,46
5224496,44
5225120,63
5225748,59
5226372,38
5227004,12
5227632,25
5228256,11
5228884,15
5229508,13
5230132,15
5230764,19
5231384,59
5232016,57
5232640,48
5233264,46
5233896,25
5234520,15
5235148,14
5235780,32
5236400,46
5237028,40
5237656,12
5238280,20
5238912,11
5239528,43
5240160,44
5240784,57
5241408,61
5242040,51
5242656,73
5243288,107
5243968,66
5244584,12
5245212,11
5245836,28
5246464,61
5247096,51
5247712,36
5248344,45
5248964,43
5249584,46
5250216,42
5250832,21
5251460,42
5252084,56
5252708,19
5253336,13
5253960,15
5254588,13
5255216,15
5255832,23
5256464,69
5257088,71
5257716,45
5258344,53
5258960,20
5259592,33
5260216,22
5260840,11
5261468,11
5262088,46
5262716,56
5263340,58
5263964,86
5264596,65
5265220,43
5265848,47
5266476,72
5267096,77
5267724,66
5268348,60
5268980,54
5269608,42
5270224,11
5270852,28
5271476,22
5272104,12
5272732,56
5273352,111
5274036,90
5274660,52
5275280,45
5275908,47
5276532,83
5277164,79
5277792,45
5278412,24
5279040,20
5279664,15
5280288,13
5280916,16
5281536,44
5282164,43
5282788,47
5283412,46
5284040,24
5284660,38
5285292,13
5285920,53
5286536,50
5287164,24
5287788,24
5288416,11
5289044,28
5289664,47
5290292,68
5290916,66
5291540,54
5292168,28
5292784,29
5293412,11
5294036,15
5294664,24
5295292,108
5295964,213
5296644,184
5297320,89
5297936,45
5298564,71
5299188,88
5299812,87
5300444,76
5301068,62
5301696,58
5302324,55
5302944,55
5303572,30
5304200,14
5304828,35
5305460,17
5306080,32
5306708,44
5307332,52
5307956,57
5308588,54
5309208,50
5309836,63
5310464,62
5311088,37
5311720,20
5312344,82
5312972,133
5313656,123
5314324,52
5314952,42
5315572,45
5316196,47
5316828,50
5317452,22
5318080,65
5318712,47
5319332,16
5319960,25
5320588,11
5321216,13
5321844,13
5322464,37
5323092,48
5323720,48
5324344,44
5324976,48
5325592,19
5326220,20
5326844,71
5327472,94
5328100,76
5328724,28
5329352,30
5329980,41
5330600,45
5331228,89
5331852,83
5332480,45
5333108,97
5333728,105
5334408,15
5335032,11
5335656,34
5336284,47
5336908,81
5337540,82
5338168,46
5338792,17
5339420,41
5340044,47
5340676,43
5341304,51
5341924,47
5342552,11
5343176,14
5343800,13
5344432,15
5345048,33
5345676,47
5346300,44
5346928,31
5347556,16
5348180,39
5348812,48
5349440,47
5350056,43
5350688,57
5351312,103
5351992,113
5352668,96
5353288,89
5353916,89
5354548,32
5355168,14
5355800,70
5356424,61
5357052,57
5357684,80
5358304,45
5358936,21
5359560,59
5360184,92
5360812,78
5361432,48
5362060,17
5362684,12
5363312,16
5363940,33
5364564,41
5365196,56
5365824,74
5366448,69
5367076,74
5367700,73
5368328,35
5368956,12
5369576,38
5370208,44
5370832,25
5371456,33
5372084,17
5372704,37
5373336,39
5373964,50
5374584,45
5375216,46
5375840,24
5376472,52
5377100,69
5377720,65
5378348,61
5378972,21
5379596,47
5380224,117
5380900,157
5381576,164
5382256,101
5382932,46
5383556,45
5384180,26
5384804,57
5385436,57
5386060,39
5386688,20
5387320,11
5387936,14
5388564,43
5389188,19
5389820,48
5390448,45
5391068,45
5391696,44
5392320,35
5392944,57
5393572,42
5394192,17
5394820,30
5395448,21
5396072,17
5396700,20
5397324,21
5397956,38
5398584,42
5399208,50
5399836,66
5400464,50
5401092,24
5401724,74
5402344,54
5402972,11
5403596,23
5404220,24
5404852,12
5405472,15
5406100,74
5406732,68
5407352,43
5407980,44
5408604,44
5409236,25
5409864,15
5410488,13
5411116,26
5411740,68
5412364,81
5412996,74
5413616,38
5414244,32
5414872,50
5415496,47
5416124,66
5416744,124
5417424,121
5418104,21
5418728,85
5419356,121
5420040,62
5420656,25
5421284,29
5421908,31
5422540,18
5423172,62
5423792,111
5424476,156
5425148,111
5425828,52
5426456,30
5427080,14
5427712,41
5428340,11
5428960,29
5429588,64
5430212,76
5430836,64
5431468,38
5432088,57
5432716,133
5433400,178
5434068,148
5434744,109
5435424,86
5436048,34
5436676,11
5437304,25
5437932,90
5438564,115
5439236,71
5439864,37
5440488,43
5441108,49
5441740,46
5442360,20
5442988,32
5443620,47
5444240,13
5444868,12
5445492,11
5446120,12
5446752,29
5447368,33
5448000,71
5448620,68
5449244,64
5449876,67
5450496,75
5451124,67
5451748,13
5452372,33
5453004,18
5453624,15
5454252,26
5454880,50
5455504,45
5456132,38
5456756,40
5457388,42
5458016,43
5458632,39
5459264,12
5459888,16
5460512,15
5461140,18
5461760,35
5462388,60
5463016,51
5463640,29
5464268,28
5464888,96
5465516,96
5466148,74
5466768,67
5467396,33
5468024,37
5468652,42
5469284,11
5469904,11
5470532,27
5471160,30
5471784,43
5472416,52
5473032,50
5473664,50
5474284,42
5474908,62
5475540,114
5476216,115
5476900,60
5477528,43
5478144,28
5478776,16
5479400,12
5480024,15
5480652,25
5481272,40
5481900,72
5482532,75
5483152,56
5483784,21
5484408,57
5485036,114
5485720,66
5486336,32
5486968,17
5487592,12
5488216,12
5488844,53
5489464,88
5490092,90
5490724,98
5491344,106
5492024,76
5492648,15
5493272,43
5493900,81
5494520,71
5495148,80
5495772,94
5496400,57
5497028,19
5497648,32
5498276,64
5498908,76
5499528,55
5500156,52
5500784,53
5501416,36
5502048,12
5502664,14
5503296,22
5503920,38
5504544,54
5505176,41
5505792,17
5506424,35
5507048,43
5507672,46
5508304,43
5508920,38
5509552,40
5510180,42
5510800,16
5511428,37
5512056,86
5512684,100
5513368,53
5513984,15
5514616,42
5515240,51
5515864,49
5516492,46
5517112,68
5517744,73
5518376,44
5518992,38
5519624,19
5520248,12
5520876,43
5521508,16
5522128,61
5522756,59
5523384,61
5524008,51
5524636,44
5525256,41
5525888,23
5526512,18
5527136,12
5527768,11
5528392,24
5529024,20
5529652,13
5530272,17
5530900,29
5531524,41
5532152,41
5532784,43
5533404,46
5534036,31
5534660,29
5535284,44
5535916,58
5536536,38
5537168,15
5537796,10
5538416,11
5539044,19
5539672,42
5540300,44
5540932,44
5541552,60
5542184,33
5542808,18
5543432,15
5544060,13
5544680,19
5545308,35
5545936,64
5546560,40
5547188,14
5547808,51
5548440,55
5549072,55
5549688,58
5550320,35
5550944,15
5551576,39
5552204,50
5552824,33
5553452,32
5554080,35
5554704,17
5555336,17
5555952,33
5556584,37
5557208,43
5557832,44
5558464,45
5559080,75
5559712,135
5560392,159
5561068,118
5561748,39
5562376,22
5562992,14
5563624,34
5564248,35
5564880,46
5565508,71
5566128,106
5566812,152
5567484,117
5568164,106
5568840,125
5569516,70
5570136,21
5570768,42
5571384,58
5572016,103
5572696,129
5573364,66
5573988,43
5574616,48
5575240,43
5575868,30
5576488,28
5577116,20
5577748,18
5578368,11
5578996,31
5579624,42
5580252,45
5580884,30
5581504,53
5582132,54
5582756,44
5583380,45
5584012,36
5584632,27
5585260,11
5585884,15
5586512,13
5587140,27
5587760,37
5588392,39
5589024,27
5589640,48
5590272,81
5590896,79
5591528,61
5592156,30
5592776,59
5593408,59
5594032,31
5594656,12
5595288,24
5595904,50
5596536,14
5597160,43
5597784,43
5598416,42
5599032,41
5599664,50
5600296,50
5600912,38
5601544,35
5602168,13
5602796,41
5603428,58
5604048,85
5604676,62
5605300,59
5605924,37
5606556,48
5607176,62
5607804,63
5608432,61
5609056,36
5609684,30
5610308,27
5610936,28
5611568,22
5612188,27
5612816,46
5613440,42
5614068,16
5614700,39
5615320,43
5615952,49
5616576,43
5617200,27
5617828,23
5618448,16
5619076,53
5619704,65
5620328,29
5620956,12
5621584,11
5622216,27
5622844,50
5623464,43
5624096,47
5624720,69
5625348,44
5625980,13
5626600,25
5627232,19
5627856,11
5628480,13
5629108,40
5629728,20
5630360,17
5630992,39
5631612,44
5632244,50
5632864,42
5633492,41
5634124,14
5634744,13
5635372,15
5635996,54
5636620,81
5637252,40
5637872,25
5638500,11
5639124,49
5639748,74
5640380,57
5641000,50
5641628,45
5642256,12
5642880,19
5643508,51
5644132,119
5644816,153
5645488,142
5646164,98
5646788,43
5647420,16
5648040,53
5648668,57
5649292,50
5649920,48
5650552,45
5651172,53
5651804,62
5652428,52
5653052,22
5653680,23
5654304,26
5654932,27
5655564,30
5656184,56
5656812,53
5657436,45
5658068,44
5658700,20
5659320,25
5659948,55
5660576,93
5661200,81
5661828,40
5662448,25
5663076,17
5663700,13
5664328,49
5664956,73
5665576,78
5666208,61
5666836,56
5667456,52
5668088,60
5668708,58
5669340,37
5669972,28
5670592,28
5671220,11
5671848,11
5672472,26
5673100,38
5673720,45
5674348,49
5674972,44
5675600,37
5676228,94
5676848,116
5677528,81
5678160,47
5678776,53
5679408,103
5680084,96
5680704,37
5681332,53
5681952,80
5682584,100
5683264,127
5683932,125
5684608,105
5685288,28
5685912,24
5686540,20
5687164,11
5687796,22
5688428,10
5689048,42
5689676,36
5690300,41
5690928,43
5691556,54
5692176,56
5692808,30
5693432,16
5694056,20
5694688,31
5695312,81
5695944,154
5696628,95
5697248,22
5697876,65
5698500,75
5699128,68
5699756,63
5700376,76
5701008,49
5701632,34
5702256,35
5702888,46
5703512,25
5704144,13
5704772,10
5705392,11
5706024,37
5706648,42
5707272,45
5707904,43
5708520,34
5709152,32
5709780,45
5710404,31
5711032,17
5711656,20
5712288,23
5712920,32
5713536,40
5714168,40
5714792,45
5715424,57
5716052,58
5716672,53
5717304,39
5717928,13
5718552,40
5719184,69
5719804,105
5720484,114
5721164,78
5721784,28
5722416,25
5723040,38
5723664,42
5724296,44
5724912,47
5725544,13
5726168,12
5726792,13
5727424,10
5728044,13
5728672,11
5729304,13
5729920,12
5730552,17
5731176,49
5731808,56
5732440,57
5733060,42
5733692,17
5734316,11
5734944,12
5735572,10
5736192,19
5736820,40
5737444,53
5738068,51
5738700,16
5739320,62
5739948,89
5740580,64
5741200,43
5741828,48
5742452,46
5743084,27
5743716,19
5744336,25
5744964,13
5745588,14
5746212,17
5746844,55
5747464,43
5748092,44
5748716,43
5749344,51
5749972,46
5750596,41
5751228,84
5751860,80
5752480,57
5753108,12
5753736,40
5754364,77
5754996,62
5755616,21
5756248,36
5756872,67
5757496,64
5758124,42
5758744,25
5759376,43
5760004,19
5760620,34
5761252,97
5761872,114
5762556,92
5763180,39
5763800,17
5764428,51
5765052,61
5765676,44
5766304,46
5766928,33
5767556,65
5768180,80
5768804,57
5769432,14
5770060,13
5770688,12
5771316,42
5771936,55
5772568,56
5773192,84
5773820,90
5774452,49
5775072,44
5775704,17
5776328,13
5776948,13
5777580,11
5778200,16
5778828,16
5779452,38
5780080,49
5780708,27
5781332,81
5781964,64
5782592,59
5783212,46
5783840,42
5784464,90
5785096,65
5785724,24
5786344,35
5786972,103
5787656,81
5788272,45
5788900,32
5789524,58
5790156,52
5790788,49
5791408,73
5792040,88
5792660,84
5793284,69
5793916,48
5794536,25
5795168,33
5795792,28
5796416,18
5797044,135
5797716,203
5798396,189
5799076,140
5799748,71
5800376,34
5801004,96
5801624,101
5802304,67
5802920,28
5803544,10
5804176,21
5804796,49
5805424,60
5806052,42
5806676,41
5807308,44
5807928,43
5808560,26
5809188,35
5809808,28
5810436,11
5811064,13
5811696,35
5812324,44
5812944,27
5813572,16
5814200,61
5814824,79
5815456,78
5816072,59
5816704,48
5817328,30
5817952,84
5818580,92
5819204,63
5819836,12
5820468,10
5821088,23
5821720,35
5822344,67
5822976,96
5823604,61
5824224,44
5824852,43
5825476,13
5826100,19
5826732,62
5827352,93
5827980,77
5828612,30
5829232,47
5829860,70
5830488,54
5831116,36
5831748,42
5832368,48
5832996,43
5833624,17
5834248,12
5834876,14
5835496,27
5836128,28
5836752,17
5837376,13
5838008,14
5838624,11
5839256,42
5839888,46
5840504,42
5841136,42
5841760,37
5842388,14
5843020,34
5843640,22
5844268,25
5844892,29
5845516,16
5846148,50
5846768,67
5847400,34
5848024,49
5848648,51
5849276,44
5849896,42
5850524,11
5851156,24
5851776,39
5852408,45
5853032,18
5853660,31
5854292,24
5854912,13
5855544,15
5856168,35
5856792,43
5857424,43
5858040,45
5858668,16
5859292,10
5859920,15
5860548,22
5861168,25
5861800,17
5862428,18
5863048,23
5863676,31
5864300,35
5864932,42
5865564,46
5866184,50
5866816,41
5867440,51
5868064,92
5868696,108
5869364,73
5869992,64
5870624,70
5871240,52
5871872,27
5872496,47
5873128,43
5873760,77
5874376,108
5875060,104
5875740,92
5876360,92
5876992,116
5877668,110
5878340,54
5878968,13
5879588,29
5880216,17
5880848,45
5881468,75
5882100,65
5882724,107
5883408,167
5884084,193
5884756,148
5885436,61
5886064,50
5886684,187
5887368,213
5888044,115
5888716,43
5889340,42
5889964,42
5890588,43
5891220,48
5891840,35
5892468,17
5893096,11
5893720,17
5894352,10
5894968,24
5895600,14
5896232,28
5896848,71
5897480,51
5898104,42
5898736,53
5899364,62
5899984,60
5900616,41
5901240,47
5901864,51
5902492,54
5903112,38
5903744,25
5904368,13
5904992,12
5905620,18
5906244,36
5906876,42
5907504,47
5908128,50
5908760,13
5909384,33
5910012,37
5910644,17
5911264,11
5911896,11
5912520,17
5913144,13
5913776,36
5914392,74
5915024,81
5915652,74
5916272,48
5916904,18
5917528,15
5918156,32
5918788,31
5919408,24
5920040,11
5920660,54
5921284,51
5921916,40
5922536,40
5923168,41
5923792,42
5924416,48
5925044,71
5925664,150
5926348,157
5927028,99
5927648,53
5928280,27
5928904,13
5929528,19
5930156,27
5930776,81
5931408,133
5932088,148
5932764,127
5933444,72
5934064,35
5934688,38
5935320,18
5935944,45
5936576,65
5937208,64
5937824,72
5938456,46
5939080,39
5939712,41
5940340,46
5940960,85
5941588,85
5942212,45
5942836,45
5943468,38
5944088,18
5944716,20
5945340,30
5945968,22
5946596,38
5947220,90
5947852,68
5948484,54
5949104,46
5949736,46
5950360,36
5950984,41
5951616,46
5952232,53
5952864,43
5953488,42
5954112,30
5954744,23
5955360,32
5955988,62
5956620,45
5957240,47
5957868,58
5958496,50
5959124,55
5959756,63
5960376,37
5961004,31
5961628,24
5962252,17
5962884,28
5963504,37
5964136,40
5964760,48
5965384,59
5966012,112
5966684,144
5967364,137
5968040,58
5968664,11
5969292,53
5969916,40
5970544,11
5971176,15
5971800,24
5972432,36
5973060,41
5973680,44
5974312,43
5974936,42
5975560,20
5976192,22
5976808,11
5977440,31
5978064,33
5978688,31
5979320,30
5979940,22
5980572,16
5981204,43
5981824,46
5982456,63
5983080,61
5983712,29
5984340,38
5984960,35
5985588,30
5986216,12
5986840,65
5987472,127
5988140,174
5988820,124
5989500,64
5990120,45
5990752,45
5991376,65
5992000,75
5992628,66
5993248,83
5993880,104
5994560,61
5995176,12
5995808,62
5996432,91
5997064,132
5997744,92
5998368,43
5999000,96
5999632,91
6000252,95
6000884,91
6001504,74
6002136,39
6002768,29
6003384,93
6004012,161
6004688,155
6005360,87
6005984,40
6006608,45
6007236,79
6007868,91
6008488,83
6009116,84
6009744,36
6010376,21
6011004,69
6011624,88
6012256,74
6012880,59
6013504,56
6014136,41
6014756,39
6015384,46
6016016,46
6016640,50
6017268,53
6017892,56
6018524,60
6019152,61
6019776,100
6020460,135
6021140,144
6021812,138
6022492,101
6023164,64
6023792,52
6024424,94
6025048,105
6025728,73
6026352,56
6026972,43
6027600,21
6028224,30
6028848,66
6029476,94
6030096,89
6030728,53
6031352,40
6031976,51
6032608,56
6033232,52
6033864,33
6034496,34
6035112,28
6035744,25
6036372,39
6037000,49
6037632,29
6038248,21
6038880,57
6039508,68
6040132,52
6040764,56
6041384,77
6042016,18
6042648,60
6043264,76
6043896,58
6044520,12
6045148,40
6045780,83
6046400,125
6047080,134
6047764,92
6048384,77
6049016,54
6049640,47
6050268,19
6050900,54
6051520,79
6052152,80
6052776,55
6053400,58
6054032,41
6054652,30
6055280,27
6055908,50
6056532,60
6057164,50
6057784,43
6058416,47
6059044,94
6059664,98
6060296,104
6060972,86
6061592,63
6062224,41
6062844,14
6063472,43
6064096,109
6064772,130
6065452,98
6066072,55
6066696,25
6067328,12
6067944,42
6068576,33
6069200,22
6069824,43
6070456,58
6071072,48
6071704,24
6072336,65
6072952,117
6073636,68
6074256,43
6074888,46
6075516,16
6076136,17
6076768,22
6077396,38
6078020,52
6078652,20
6079272,27
6079904,14
6080540,22
6081160,51
6081792,54
6082416,44
6083044,52
6083676,59
6084296,58
6084924,44
6085548,30
6086176,39
6086804,28
6087424,32
6088056,108
6088736,190
6089404,208
6090084,174
6090764,90
6091384,44
6092016,152
6092692,158
6093368,98
6093992,50
6094612,35
6095244,44
6095868,35
6096492,18
6097124,62
6097748,76
6098380,43
6099008,98
6099632,131
6100316,61
6100936,27
6101564,89
6102192,89
6102816,33
6103448,28
6104080,26
6104696,15
6105328,19
6105952,47
6106584,64
6107212,58
6107832,44
6108464,17
6109088,14
6109712,30
6110344,14
6110964,21
6111592,23
6112220,49
6112844,102
6113528,102
6114196,38
6114820,44
6115452,48
6116072,47
6116704,31
6117328,13
6117956,15
6118588,24
6119208,27
6119840,24
6120468,13
6121088,24
6121720,17
6122344,45
6122976,43
6123608,49
6124224,46
6124856,42
6125480,12
6126104,21
6126736,28
6127352,23
6127984,18
6128612,17
6129240,30
6129868,67
6130488,48
6131120,38
6131752,43
6132372,44
6133004,49
6133632,14
6134264,64
6134896,66
6135516,60
6136148,34
6136772,42
6137400,20
6138032,14
6138652,23
6139284,48
6139916,48
6140540,59
6141172,69
6141796,33
6142428,67
6143060,41
6143684,63
6144316,70
6144940,51
6145564,20
6146192,43
6146808,74
6147440,120
6148120,125
6148788,73
6149416,42
6150036,23
6150664,30
6151292,52
6151912,13
6152544,87
6153168,93
6153792,79
6154420,75
6155040,39
6155668,43
6156300,46
6156920,44
6157548,49
6158172,48
6158804,30
6159436,11
6160056,15
6160684,14
6161308,11
6161932,14
6162560,20
6163184,15
6163816,22
6164440,57
6165064,48
6165692,44
6166312,44
6166944,21
6167572,21
6168192,24
6168820,32
6169448,11
6170076,11
6170708,15
6171328,14
6171956,14
6172584,41
6173208,45
6173836,41
6174456,43
6175088,25
6175712,30
6176336,44
6176964,38
6177584,32
6178216,27
6178844,27
6179464,22
6180096,14
6180720,56
6181348,69
6181980,82
6182600,76
6183228,63
6183856,48
6184480,33
6185108,13
6185728,13
6186356,38
6186980,63
6187608,55
6188236,24
6188856,35
6189484,44
6190116,44
6190736,44
6191368,47
6191992,32
6192624,21
6193256,10
6193876,12
6194508,23
6195132,26
6195756,17
6196388,16
6197008,24
6197636,52
6198264,51
6198888,57
6199520,60
6200144,63
6200772,83
6201404,91
6202024,77
6202656,55
6203280,14
6203908,33
6204540,48
6205160,75
6205792,59
6206416,64
6207040,56
6207672,42
6208288,25
6208920,39
6209548,55
6210168,51
6210800,56
6211424,73
6212052,88
6212684,52
6213304,28
6213936,42
6214560,89
6215184,129
6215868,92
6216488,67
6217116,48
6217748,73
6218368,106
6219052,46
6219672,33
6220300,35
6220932,22
6221552,17
6222184,48
6222808,43
6223432,63
6224064,62
6224680,44
6225312,17
6225944,29
6226560,56
6227188,47
6227816,14
6228444,29
6229076,39
6229696,30
6230328,14
6230952,38
6231576,60
6232208,63
6232824,51
6233456,18
6234080,43
6234704,57
6235336,48
6235952,37
6236588,67
6237216,112
6237888,113
6238564,80
6239184,42
6239808,46
6240440,83
6241064,112
6241748,73
6242376,41
6242992,97
6243624,104
6244300,68
6244920,23
6245552,13
6246168,12
6246800,15
6247424,42
6248048,46
6248676,43
6249300,45
6249932,51
6250560,65
6251180,62
6251808,65
6252436,49
6253064,41
6253692,69
6254312,37
6254944,40
6255568,60
6256192,54
6256824,45
6257440,41
6258068,43
6258700,18
6259320,17
6259948,17
