tempo_arduino_micro_s,valor_ADC
500,57
1004,48
1500,46
2000,54
2508,69
3000,70
3508,74
4000,70
4508,65
5000,68
5500,78
6000,76
6500,60
7000,28
7500,14
8000,12
8500,16
9000,18
9500,18
10000,51
10508,53
11028,57
11556,61
12076,60
12604,36
13124,29
13648,28
14172,27
14700,22
15220,25
15748,38
16268,61
16796,63
17316,61
17836,46
18356,54
18876,63
19396,71
19916,72
20436,69
20956,74
21476,74
21996,76
22516,71
23036,65
23564,40
24084,27
24612,17
25132,17
25660,26
26180,18
26708,49
27228,57
27756,59
28276,60
28804,61
29324,36
29852,41
30372,29
30900,20
31420,25
31948,39
32472,46
32996,64
33516,66
34044,68
34564,44
35092,53
35612,65
36140,77
36660,78
37188,65
37708,69
38236,65
38760,71
39284,69
39804,60
40332,37
40852,26
41372,15
41892,21
42412,27
42932,18
43452,48
43972,59
44492,60
45012,60
45532,60
46052,31
46572,27
47092,32
47612,23
48140,17
48660,33
49188,48
49708,66
50236,62
50760,64
51284,44
51804,54
52332,71
52852,76
53380,75
53900,69
54428,57
54948,62
55476,74
56000,75
56524,56
57044,33
57572,23
58096,16
58620,15
59140,15
59668,28
60188,49
60716,60
61240,62
61764,65
62284,64
62812,37
63332,23
63860,16
64384,12
64908,24
65428,44
65948,50
66468,70
66988,70
67508,63
68028,47
68548,53
69068,69
69588,81
70108,78
70632,79
71152,100
71728,104
72300,68
72828,35
73348,10
73876,13
74396,14
74924,12
75444,21
75972,20
76496,49
77020,51
77540,58
78068,61
78592,58
79116,53
79640,29
80164,26
80684,18
81212,16
81732,23
82260,48
82780,66
83308,70
83828,63
84356,49
84876,55
85404,62
85924,80
86444,76
86964,74
87484,66
88004,63
88524,67
89044,73
89564,71
90088,45
90604,29
91124,17
91644,15
92172,29
92692,21
93220,51
93740,54
94268,56
94792,59
95316,58
95840,45
96364,36
96884,27
97412,20
97932,16
98460,23
98980,43
99508,54
100032,57
100600,62
101168,42
101752,55
102324,67
102900,77
103480,74
104048,76
104624,67
105192,65
105768,57
106336,49
106912,24
107480,19
108056,11
108640,30
109208,34
109792,46
110360,54
110944,57
111512,62
112092,59
112672,31
113240,29
113824,23
114392,22
114976,19
115544,38
116128,54
116696,59
117272,59
117856,48
118424,57
119008,70
119580,72
120160,69
120728,63
121304,66
121888,75
122460,78
123040,66
123608,36
124192,21
124760,14
125344,24
125912,25
126492,50
127072,58
127644,57
128224,61
128792,63
129368,33
129936,26
130512,18
131088,14
131656,27
132240,50
132808,64
133392,64
133960,61
134544,39
135112,56
135692,70
136272,80
136840,73
137424,69
137996,64
138576,72
139144,64
139728,55
140304,38
140876,25
141456,11
142024,31
142608,27
143176,51
143760,52
144328,62
144904,59
145488,62
146056,32
146640,37
147208,35
147792,23
148360,19
148944,34
149520,54
150092,52
150672,67
151244,52
151824,53
152396,70
152976,71
153548,77
154124,70
154704,70
155276,80
155856,77
156428,62
157008,28
157576,15
158160,12
158736,27
159304,19
159888,51
160460,58
161040,58
161608,64
162192,62
162760,43
163336,33
163920,23
164488,21
165060,25
165632,39
166208,58
166776,56
167360,61
167928,44
168496,54
169080,66
169648,73
170224,74
170792,67
171376,63
171944,73
172524,77
173104,62
173676,38
174256,19
174824,15
175408,33
175976,21
176560,53
177128,57
177704,59
178288,58
178856,60
179440,34
180008,33
180592,27
181160,26
181736,27
182320,32
182892,50
183472,64
184044,70
184624,42
185192,56
185776,76
186344,78
186920,69
187504,59
188076,66
188656,83
189224,78
189808,52
190376,30
190956,17
191536,12
192108,23
192688,17
193256,51
193832,59
194404,56
194984,61
195552,58
196132,35
196712,35
197284,30
197864,27
198432,26
199016,35
199588,62
200164,70
200744,64
201316,50
201896,54
202468,70
203048,73
203620,70
204200,67
204772,56
205348,72
205928,79
206496,62
207080,32
207648,21
208232,11
208800,17
209368,17
209944,53
210512,58
211088,62
211656,59
212240,63
212808,37
213392,30
213964,26
214536,22
215120,27
215688,39
216272,60
216840,63
217424,54
217996,50
218576,54
219152,71
219724,72
220304,72
220876,66
221456,72
222024,86
222608,82
223176,53
223756,23
224336,17
224904,13
225488,25
226056,18
226640,52
227208,58
227792,61
228368,63
228936,62
229520,38
230092,32
230672,25
231240,22
231824,30
232396,41
232968,63
233552,60
234124,56
234704,56
235276,54
235856,67
236428,74
237008,67
237584,47
238156,56
238736,74
239308,75
239888,49
240468,32
241048,25
241616,15
242192,26
242776,18
243348,49
243928,56
244500,59
245080,59
245652,58
246228,37
246808,31
247376,22
247960,21
248532,30
249112,33
249684,56
250264,62
250836,59
251412,54
251992,63
252564,66
253144,69
253716,71
254296,65
254868,60
255444,75
256024,69
256596,43
257176,27
257744,15
258320,25
258888,31
259472,19
260040,49
260616,58
261192,57
261760,57
262344,53
262916,24
263496,21
264064,18
264648,21
265224,42
265792,51
266376,67
266944,64
267528,55
268096,54
268680,59
269252,75
269824,81
270408,80
270976,67
271560,57
272132,72
272712,73
273284,37
273864,18
274440,17
275008,19
275592,26
276164,19
276744,46
277312,59
277896,57
278468,61
279040,46
279624,35
280196,27
280776,22
281348,18
281928,27
282496,42
283080,65
283656,62
284228,56
284808,56
285376,63
285960,71
286532,69
287112,65
287684,64
288256,72
288840,77
289408,70
289992,41
290560,31
291144,26
291716,11
292296,32
292872,26
293444,46
294024,58
294596,57
295176,57
295748,40
296328,39
296896,32
297476,32
298056,26
298628,29
299208,25
299776,47
300360,84
300932,76
301512,53
302088,70
302660,75
303240,77
303812,77
304392,69
304972,70
305552,69
306124,69
306700,29
307280,13
307852,10
308432,25
309004,28
309584,31
310156,49
310736,58
311312,65
311884,64
312464,41
313032,35
313616,24
314184,18
314768,15
315340,40
315916,57
316496,69
317068,57
317648,39
318228,56
318808,71
319388,73
319964,66
320548,68
321116,58
321696,75
322264,83
322848,77
323416,40
324000,21
324568,17
325144,20
325728,26
326300,42
326880,56
327456,59
328040,57
328608,59
329176,33
329760,34
330328,33
330904,24
331472,22
332056,38
332628,58
333208,65
333776,65
334344,41
334928,55
335496,68
336080,69
336648,69
337224,71
337796,80
338376,85
338952,72
339524,55
340104,27
340672,16
341256,10
341824,34
342408,32
342976,47
343556,52
344136,58
344708,59
345288,58
345860,34
346440,34
347008,30
347592,21
348168,21
348736,36
349312,56
349884,63
350464,56
351036,35
351616,58
352188,79
352760,79
353344,70
353916,58
354496,46
355068,71
355648,79
356220,66
356800,32
357372,19
357948,17
358528,17
359096,22
359680,48
360248,57
360832,59
361404,63
361980,58
362560,30
363128,27
363712,24
364284,24
364864,28
365432,47
366016,60
366588,54
367164,52
367744,39
368316,51
368896,69
369464,80
370048,68
370616,68
371196,59
371776,68
372348,78
372928,66
373500,22
374080,9
374600,11
375176,27
375748,27
376324,49
376904,55
377476,59
378056,61
378628,59
379208,32
379780,31
380360,26
380944,24
381516,28
382096,43
382668,56
383248,59
383828,63
384412,41
384984,51
385560,73
386144,82
386716,76
387296,67
387868,45
388448,61
389020,75
389596,70
390176,48
390748,34
391328,18
391900,13
392480,16
393048,49
393632,57
394204,59
394780,56
395360,58
395932,31
396512,51
397092,54
397672,37
398244,27
398820,32
399400,58
399972,60
400552,62
401124,38
401704,55
402276,67
402856,67
403428,71
404004,65
404584,65
405156,78
405736,78
406308,57
406888,27
407468,16
408044,12
408624,30
409196,20
409776,48
410348,55
410928,58
411496,59
412072,59
412640,37
413216,45
413800,25
414368,19
414952,25
415520,44
416104,71
416672,72
417248,63
417832,40
418400,55
418984,72
419556,78
420136,80
420704,66
421288,61
421856,76
422432,79
423016,61
423588,34
424168,17
424736,13
425320,28
425888,18
426464,50
427048,52
427620,57
428200,58
428768,59
429352,38
429924,28
430504,13
431072,14
431652,46
432232,61
432804,78
433384,60
433956,53
434536,43
435108,67
435684,70
436264,75
436836,66
437416,60
437988,63
438568,75
439140,70
439720,56
440300,36
440876,19
441456,16
442028,32
442608,23
443176,46
443760,53
444332,58
444908,58
445488,58
446060,29
446640,26
447212,21
447792,16
448364,28
448944,45
449512,74
450092,67
450672,56
451240,48
451824,69
452396,71
452976,69
453548,66
454124,67
454704,65
455276,74
455856,70
456428,46
457008,33
457576,33
458160,13
458740,33
459316,22
459896,46
460468,53
461048,58
461624,56
462208,54
462780,70
463356,53
463936,21
464508,15
465088,30
465660,43
466240,61
466808,55
467392,49
467964,53
468540,63
469120,74
469692,75
470272,66
470852,58
471432,70
472012,85
472588,82
473168,55
473740,38
474320,19
474892,29
475472,40
476044,20
476624,53
477200,54
477772,57
478352,62
478924,53
479504,39
480084,18
480664,11
481232,11
481812,32
482392,50
482964,90
483544,95
484116,59
484696,54
485268,69
485844,74
486424,71
486992,72
487576,74
488148,67
488728,65
489300,56
489880,26
490452,22
491028,25
491608,11
492180,22
492760,20
493332,50
493912,53
494484,55
495056,60
495640,38
496212,33
496792,33
497364,27
497944,17
498512,35
499096,55
499668,74
500244,63
500824,38
501396,56
501976,72
502556,69
503136,74
503708,72
504284,72
504864,86
505436,70
506016,39
506588,13
507168,13
507740,14
508320,26
508900,33
509476,36
510056,50
510628,56
511208,57
511788,59
512372,40
512944,36
513512,29
514096,22
514664,21
515248,39
515816,53
516400,61
516968,64
517552,45
518124,54
518700,70
519280,79
519848,78
520432,71
521000,60
521584,69
522156,83
522732,80
523312,46
523884,27
524464,11
525036,24
525616,18
526184,42
526768,54
527340,57
527916,58
528496,55
529068,28
529648,47
530216,43
530800,24
531372,23
531948,51
532528,63
533100,56
533680,55
534252,53
534832,49
535404,63
535984,78
536556,79
537132,76
537712,75
538280,79
538864,57
539436,60
540016,43
540584,38
541164,19
541744,30
542316,36
542896,48
543468,56
544048,56
544616,59
545200,61
545772,38
546348,35
546928,25
547500,24
548080,25
548656,42
549240,65
549812,72
550388,67
550972,45
551540,54
552120,70
552692,79
553272,79
553852,74
554432,75
555004,83
555580,78
556160,69
556732,46
557312,27
557892,13
558472,31
559052,22
559628,51
560208,56
560780,61
561360,61
561932,57
562512,29
563084,29
563664,25
564248,24
564816,27
565400,40
565972,61
566552,62
567124,63
567704,41
568276,50
568852,68
569432,77
570004,72
570584,63
571156,66
571736,74
572316,70
572892,55
573472,26
574044,18
574624,12
575196,15
575776,27
576356,51
576936,53
577508,58
578084,59
578664,64
579236,64
579816,55
580388,23
580968,9
581488,10
582064,41
582636,77
583212,56
583792,55
584364,35
584944,50
585516,63
586096,67
586676,70
587252,66
587832,70
588404,75
588984,74
589556,60
590136,35
590708,22
591288,14
591868,29
592444,20
593024,47
593596,53
594176,56
594756,56
595336,57
595908,31
596484,30
597064,24
597636,17
598216,23
598788,46
599368,64
599948,59
600528,62
601112,47
601684,61
602264,72
602836,74
603416,74
603996,66
604580,64
605156,74
605732,74
606312,53
606888,37
607464,25
608036,14
608616,27
609188,17
609764,47
610344,52
610916,59
611496,57
612072,58
612648,46
613228,40
613808,29
614388,22
614964,40
615544,46
616116,66
616696,59
617268,42
617848,49
618416,68
618996,73
619576,71
620148,69
620728,58
621300,67
621880,77
622452,73
623032,52
623604,29
624180,15
624760,19
625332,19
625912,20
626484,45
627064,54
627636,59
628212,56
628792,56
629364,43
629944,35
630516,24
631096,24
631668,38
632248,46
632828,62
633404,55
633988,51
634560,49
635136,65
635716,68
636296,74
636876,76
637452,65
638032,68
638604,74
639184,68
639764,45
640348,32
640920,22
641496,12
642080,11
642648,21
643232,46
643800,56
644384,59
644956,58
645536,41
646108,37
646684,26
647264,14
647836,11
648416,45
648984,79
649568,73
650140,51
650716,42
651296,51
651868,62
652448,63
653020,71
653600,70
654172,70
654752,72
655332,67
655908,63
656488,40
657056,37
657632,23
658200,27
658784,40
659352,30
659932,46
660512,57
661080,59
661664,57
662236,32
662816,29
663388,26
663968,17
664540,18
665112,41
665696,42
666264,49
666840,59
667408,61
667992,50
668564,64
669136,80
669720,82
670288,70
670872,62
671444,89
672024,92
672592,80
673168,31
673740,14
674312,18
674896,35
675468,12
676048,35
676616,55
677200,60
677768,64
678352,55
678928,28
679500,23
680080,37
680648,44
681232,32
681804,32
682384,36
682956,54
683532,62
684112,37
684684,52
685264,61
685836,64
686416,67
686984,67
687568,65
688144,94
688716,99
689296,73
689868,18
690448,9
690968,11
691544,41
692112,39
692692,31
693272,51
693844,56
694424,54
694996,56
695576,34
696156,32
696736,30
697316,23
697892,20
698472,34
699044,46
699624,55
700196,59
700776,45
701348,53
701924,60
702504,66
703076,72
703656,75
704232,71
704808,77
705380,79
705960,77
706532,44
707108,22
707688,11
708260,21
708840,34
709412,43
709992,54
710572,57
711148,55
711728,57
712300,35
712880,35
713452,32
714032,39
714612,28
715192,35
715772,53
716352,68
716928,77
717500,50
718080,53
718648,72
719232,75
719804,75
720380,75
720960,74
721528,87
722112,74
722684,59
723264,37
723832,25
724416,11
724988,32
725564,32
726144,46
726716,54
727296,60
727876,61
728456,57
729036,32
729612,30
730192,23
730764,16
731344,12
731916,22
732496,58
733076,73
733652,72
734232,45
734804,56
735384,79
735956,77
736540,74
737116,59
737696,54
738272,72
738852,74
739432,54
740004,23
740584,13
741156,11
741736,15
742308,17
742884,47
743464,51
744036,61
744616,64
745188,57
745768,20
746340,25
746920,16
747492,11
748068,15
748648,35
749220,51
749800,49
750372,54
750952,39
751532,52
752108,72
752688,77
753260,78
753840,58
754412,42
754992,60
755564,79
756144,58
756724,17
757300,14
757880,20
758452,23
759032,17
759604,47
760184,52
760764,55
761340,61
761920,56
762492,33
763072,38
763644,37
764224,30
764804,27
765384,25
765960,46
766536,54
767116,58
767688,48
768268,55
768840,71
769424,68
769996,67
770572,58
771152,56
771724,66
772304,68
772876,58
773456,41
774028,25
774608,16
775184,32
775756,19
776336,47
776908,52
777488,53
778068,56
778648,53
779228,49
779804,37
780384,25
780956,28
781536,41
782108,50
782688,69
783260,63
783836,49
784416,47
784988,62
785568,76
786140,82
786720,72
787292,76
787872,65
788444,64
789020,71
789600,47
790172,24
790752,15
791332,24
791912,33
792492,17
793068,43
793648,55
794220,51
794800,52
795372,40
795952,13
796532,27
797112,38
797692,30
798272,36
798852,38
799424,59
800000,63
800576,50
801152,48
801724,63
802300,70
802880,68
803452,64
804032,63
804604,66
805184,71
805756,65
806336,55
806920,48
807492,22
808072,30
808644,32
809224,17
809796,47
810376,55
810948,58
811524,55
812104,42
812676,28
813256,20
813828,17
814408,19
814988,34
815568,39
816152,51
816724,51
817304,44
817876,52
818456,66
819036,62
819620,63
820192,65
820768,62
821352,67
821920,70
822504,81
823072,70
823656,48
824228,11
824800,45
825384,49
825952,39
826536,50
827108,54
827688,54
828256,56
828840,32
829408,25
829988,22
830568,20
831140,19
831720,36
832292,43
832872,47
833440,43
834016,28
834600,54
835168,59
835752,71
836324,71
836904,57
837476,38
838056,57
838628,66
839204,57
839784,47
840352,54
840936,21
841504,48
842088,55
842656,42
843232,51
843816,50
844388,52
844968,54
845536,19
846120,11
846688,17
847272,29
847844,43
848420,58
849000,54
849568,46
850152,62
850724,53
851304,49
851872,65
852452,65
853032,64
853604,55
854184,52
854756,72
855336,74
855916,61
856496,35
857076,27
857652,11
858232,35
858804,25
859384,47
859956,49
860536,52
861116,53
861692,58
862272,42
862844,41
863424,34
863996,20
864576,15
865156,30
865736,53
866312,60
866884,59
867464,41
868036,48
868616,64
869188,71
869768,62
870340,56
870916,69
871496,90
872068,62
872648,45
873220,42
873800,23
874372,13
874952,37
875528,19
876100,47
876680,56
877252,50
877832,56
878412,53
878992,16
879564,14
880140,13
880720,20
881288,11
881872,12
882444,32
883024,35
883596,44
884176,41
884752,42
885324,54
885904,54
886476,53
887056,37
887628,11
888208,40
888780,61
889356,56
889936,28
890508,19
891088,14
891668,30
892248,26
892820,46
893396,51
893976,53
894552,51
895128,54
895704,22
896284,18
896856,11
897440,12
898008,23
898584,40
899168,59
899740,63
900320,51
900892,34
901472,53
902044,60
902620,61
903200,65
903772,63
904352,68
904924,75
905504,70
906084,54
906664,32
907236,25
907812,11
908392,17
908964,16
909544,43
910116,50
910696,57
911268,58
911844,53
912424,13
912996,15
913576,37
914148,39
914728,27
915308,30
915888,48
916468,47
917044,46
917624,44
918196,52
918776,71
919356,70
919940,63
920516,50
921092,55
921672,78
922244,77
922824,53
923396,32
923976,16
924548,27
925128,37
925704,24
926276,42
926856,49
927428,52
928008,51
928584,53
929168,31
929740,26
930316,29
930896,21
931468,24
932048,22
932624,39
933208,48
933788,56
934364,49
934944,58
935520,65
936096,71
936668,74
937248,75
937828,59
938408,51
938988,51
939564,38
940144,21
940720,11
941296,26
941876,30
942460,17
943036,43
943612,52
944192,54
944764,53
945344,30
945916,15
946496,24
947076,43
947660,41
948240,49
948812,47
949392,50
949964,24
950544,18
951124,46
951704,72
952284,98
952860,71
953440,66
954012,38
954592,32
955172,35
955756,30
956332,27
956908,26
957488,19
958060,16
958640,22
959216,35
959796,52
960372,49
960952,55
961524,53
962100,34
962680,38
963252,33
963832,22
964404,20
964984,31
965556,49
966132,62
966712,71
967284,51
967864,48
968436,74
969016,86
969596,74
970180,58
970760,66
971332,63
971912,58
972488,46
973064,26
973644,22
974224,15
974796,18
975372,12
975952,46
976524,47
977104,53
977676,54
978256,50
978836,18
979412,20
979992,20
980564,12
981144,15
981716,19
982300,33
982876,35
983456,62
984036,36
984612,48
985192,69
985764,78
986344,82
986916,78
987496,71
988068,65
988644,40
989224,19
989796,29
990376,69
990948,79
991528,85
992108,51
992688,48
993260,56
993836,53
994416,51
994988,55
995568,28
996148,22
996728,21
997300,17
997876,26
998456,53
999028,69
999608,59
1000180,47
1000804,29
1001428,50
1002052,65
1002680,72
1003296,68
1003928,67
1004556,86
1005176,97
1005804,75
1006428,18
1007056,16
1007684,11
1008304,29
1008932,19
1009556,45
1010180,51
1010812,50
1011432,52
1012060,28
1012684,24
1013308,24
1013936,22
1014560,22
1015188,26
1015816,58
1016440,73
1017068,55
1017692,52
1018324,69
1018952,70
1019572,62
1020200,50
1020824,50
1021448,71
1022076,68
1022696,51
1023328,32
1023952,17
1024576,40
1025204,43
1025820,30
1026448,48
1027068,51
1027692,52
1028324,51
1028944,18
1029572,31
1030200,29
1030816,21
1031444,25
1032064,34
1032692,49
1033320,57
1033944,49
1034572,50
1035192,68
1035816,77
1036444,78
1037064,79
1037692,80
1038312,85
1038936,69
1039564,30
1040184,14
1040812,19
1041440,37
1042056,25
1042684,46
1043304,51
1043932,55
1044560,56
1045176,56
1045804,31
1046424,44
1047048,31
1047676,16
1048296,26
1048924,41
1049548,61
1050172,57
1050800,41
1051416,57
1052044,71
1052668,64
1053288,63
1053916,49
1054540,55
1055172,88
1055800,101
1056468,47
1057092,19
1057716,16
1058336,32
1058968,17
1059584,45
1060212,50
1060836,55
1061460,54
1062088,25
1062704,13
1063332,12
1063964,18
1064584,11
1065212,15
1065836,27
1066464,48
1067092,53
1067712,52
1068340,51
1068964,53
1069584,53
1070212,42
1070832,44
1071460,64
1072084,68
1072704,50
1073332,47
1073952,49
1074580,12
1075208,24
1075828,36
1076456,48
1077080,63
1077708,64
1078336,54
1078960,31
1079588,23
1080212,13
1080836,17
1081464,42
1082088,56
1082716,75
1083340,69
1083960,43
1084592,47
1085208,61
1085836,74
1086460,76
1087088,77
1087716,73
1088340,68
1088968,74
1089596,38
1090216,23
1090844,20
1091468,10
1092096,34
1092724,74
1093344,65
1093972,56
1094596,57
1095220,39
1095848,14
1096464,22
1097092,20
1097716,11
1098340,50
1098968,112
1099644,181
1100320,191
1101000,94
1101624,56
1102252,57
1102880,66
1103504,69
1104132,70
1104756,69
1105384,44
1106016,31
1106632,25
1107260,36
1107884,12
1108508,19
1109136,34
1109752,54
1110384,53
1111008,54
1111632,53
1112260,18
1112880,12
1113508,10
1114140,10
1114760,17
1115388,34
1116012,52
1116644,60
1117272,64
1117896,46
1118524,61
1119148,56
1119776,58
1120404,48
1121024,65
1121652,77
1122276,70
1122900,27
1123528,18
1124144,14
1124772,16
1125404,18
1126024,45
1126652,50
1127276,52
1127904,53
1128536,44
1129152,33
1129780,14
1130404,11
1131024,22
1131652,43
1132272,55
1132900,61
1133524,65
1134148,45
1134776,70
1135392,78
1136024,69
1136652,58
1137272,41
1137900,72
1138524,80
1139152,63
1139784,31
1140400,24
1141028,13
1141652,11
1142280,17
1142908,46
1143528,51
1144156,53
1144780,52
1145404,29
1146036,26
1146656,27
1147284,23
1147916,24
1148536,30
1149164,45
1149788,66
1150416,73
1151048,50
1151664,63
1152296,67
1152916,71
1153540,70
1154172,67
1154792,64
1155420,61
1156044,53
1156668,43
1157296,24
1157912,35
1158540,48
1159164,44
1159792,51
1160420,53
1161044,52
1161672,55
1162300,29
1162920,27
1163548,26
1164172,23
1164800,36
1165428,44
1166048,56
1166676,54
1167300,32
1167924,53
1168556,69
1169176,68
1169804,61
1170428,71
1171056,82
1171684,79
1172308,51
1172940,20
1173568,20
1174184,15
1174816,15
1175440,15
1176068,44
1176700,51
1177320,55
1177952,51
1178572,45
1179196,62
1179828,44
1180448,16
1181076,11
1181708,29
1182328,77
1182956,69
1183580,51
1184212,47
1184840,67
1185460,70
1186088,66
1186712,57
1187336,55
1187964,77
1188584,73
1189212,46
1189836,30
1190460,19
1191088,17
1191704,31
1192336,22
1192960,42
1193584,53
1194212,52
1194836,53
1195468,35
1196100,31
1196720,19
1197348,13
1197976,27
1198600,43
1199228,51
1199848,57
1200480,45
1201100,54
1201724,63
1202356,75
1202976,71
1203604,43
1204236,48
1204856,71
1205484,77
1206108,50
1206736,39
1207368,29
1207984,15
1208616,16
1209236,49
1209860,54
1210492,52
1211112,57
1211740,53
1212364,49
1212988,42
1213620,40
1214240,43
1214868,57
1215500,61
1216120,48
1216748,39
1217372,32
1218000,57
1218632,69
1219248,65
1219876,61
1220500,53
1221124,71
1221756,68
1222376,55
1223008,21
1223632,11
1224256,21
1224884,28
1225504,15
1226136,42
1226764,50
1227384,54
1228016,56
1228640,29
1229268,21
1229900,22
1230520,35
1231148,30
1231772,33
1232396,53
1233024,49
1233640,39
1234268,47
1234892,67
1235512,85
1236144,82
1236760,58
1237392,47
1238016,72
1238640,69
1239268,49
1239892,25
1240520,11
1241152,21
1241768,19
1242396,35
1243020,51
1243648,53
1244280,51
1244896,56
1245524,41
1246148,29
1246772,17
1247400,24
1248024,40
1248652,47
1249276,51
1249900,63
1250528,37
1251152,53
1251780,64
1252412,60
1253032,67
1253660,64
1254284,68
1254916,76
1255544,60
1256168,27
1256796,12
1257420,9
1257992,22
1258620,19
1259240,48
1259868,49
1260492,55
1261116,55
1261748,48
1262368,34
1262996,26
1263628,20
1264248,22
1264876,26
1265500,33
1266132,36
1266760,50
1267384,41
1268012,61
1268636,61
1269260,59
1269892,58
1270512,47
1271140,73
1271764,83
1272388,64
1273020,24
1273640,25
1274268,19
1274900,38
1275520,17
1276148,43
1276776,54
1277404,57
1278036,57
1278656,33
1279288,24
1279912,13
1280536,17
1281164,35
1281780,48
1282408,50
1283032,50
1283656,42
1284284,55
1284904,73
1285532,68
1286160,60
1286776,60
1287404,69
1288028,80
1288656,71
1289284,34
1289904,11
1290532,10
1291156,16
1291780,18
1292412,44
1293032,49
1293660,60
1294284,66
1294904,57
1295536,41
1296152,35
1296780,17
1297404,10
1298024,22
1298656,40
1299276,55
1299908,59
1300536,34
1301152,55
1301784,81
1302404,83
1303036,71
1303664,52
1304288,61
1304916,68
1305540,72
1306164,46
1306796,17
1307416,10
1308044,29
1308668,21
1309296,46
1309924,49
1310548,51
1311180,50
1311808,37
1312424,47
1313052,40
1313676,39
1314304,50
1314932,52
1315552,56
1316180,38
1316800,33
1317424,46
1318052,57
1318672,65
1319300,71
1319924,68
1320544,69
1321172,69
1321796,55
1322424,55
1323052,35
1323672,23
1324300,21
1324920,39
1325552,19
1326180,42
1326800,52
1327428,55
1328052,58
1328672,32
1329300,24
1329920,16
1330548,12
1331172,25
1331796,46
1332424,55
1333040,47
1333668,43
1334296,51
1334912,67
1335544,71
1336164,72
1336796,62
1337424,64
1338040,65
1338668,64
1339292,34
1339912,18
1340544,10
1341160,24
1341788,21
1342412,48
1343036,53
1343664,51
1344280,51
1344908,56
1345532,52
1346160,49
1346788,29
1347408,18
1348040,31
1348668,40
1349288,50
1349916,51
1350540,35
1351168,46
1351796,60
1352416,68
1353044,67
1353664,65
1354288,73
1354916,90
1355536,85
1356164,28
1356788,10
1357412,21
1358040,29
1358664,17
1359292,45
1359920,50
1360536,51
1361168,53
1361788,35
1362420,26
1363048,16
1363664,13
1364292,16
1364916,39
1365536,65
1366168,66
1366784,48
1367412,47
1368036,67
1368656,70
1369288,69
1369904,67
1370532,40
1371160,50
1371784,53
1372412,38
1373036,21
1373664,26
1374296,13
1374912,33
1375540,22
1376164,49
1376788,51
1377416,51
1378032,51
1378664,25
1379284,21
1379908,21
1380536,19
1381152,26
1381784,43
1382412,76
1383028,65
1383660,26
1384280,57
1384912,58
1385540,60
1386160,68
1386788,64
1387412,59
1388040,65
1388668,58
1389288,40
1389916,22
1390540,10
1391164,32
1391796,30
1392416,47
1393044,49
1393672,51
1394296,53
1394924,53
1395548,21
1396176,40
1396804,38
1397424,25
1398052,29
1398676,45
1399300,51
1399932,58
1400552,31
1401180,63
1401804,66
1402428,77
1403056,70
1403680,47
1404308,44
1404936,54
1405556,60
1406184,35
1406808,27
1407436,11
1408068,26
1408684,17
1409312,45
1409936,51
1410564,52
1411192,56
1411812,31
1412440,30
1413064,33
1413688,32
1414316,30
1414936,33
1415564,60
1416188,60
1416816,32
1417444,53
1418068,63
1418696,62
1419324,63
1419944,87
1420572,63
1421196,55
1421828,59
1422456,51
1423076,53
1423704,61
1424328,13
1424948,57
1425580,42
1426200,54
1426828,56
1427452,50
1428080,56
1428708,47
1429332,49
1429964,31
1430592,11
1431212,13
1431840,45
1432464,63
1433092,53
1433724,22
1434340,51
1434972,55
1435592,64
1436216,72
1436844,58
1437464,46
1438092,74
1438716,81
1439340,35
1439968,22
1440592,17
1441220,21
1441848,23
1442468,46
1443100,51
1443724,53
1444352,54
1444980,53
1445600,24
1446228,10
1446852,41
1447472,60
1448100,52
1448720,46
1449348,41
1449972,45
1450592,42
1451224,55
1451848,61
1452476,67
1453104,65
1453728,75
1454356,86
1454980,70
1455612,51
1456240,30
1456856,16
1457484,17
1458108,31
1458732,18
1459360,45
1459976,50
1460608,53
1461228,55
1461852,29
1462484,23
1463104,16
1463736,11
1464364,18
1464984,49
1465612,73
1466236,73
1466864,52
1467492,47
1468112,67
1468740,73
1469368,65
1469992,62
1470620,58
1471240,65
1471868,67
1472496,59
1473116,46
1473748,23
1474372,44
1475004,49
1475632,45
1476248,51
1476876,52
1477500,52
1478128,55
1478756,19
1479376,37
1480004,33
1480628,15
1481248,18
1481880,40
1482496,71
1483124,69
1483748,36
1484372,53
1485004,63
1485624,66
1486252,60
1486880,45
1487496,43
1488124,61
1488748,57
1489376,29
1490004,16
1490624,13
1491252,21
1491876,18
1492496,49
1493128,52
1493744,55
1494372,56
1495000,42
1495624,35
1496252,26
1496872,15
1497500,14
1498132,42
1498752,55
1499380,46
1500004,43
1500636,49
1501264,53
1501884,60
1502512,74
1503136,76
1503760,81
1504388,78
1505008,63
1505636,41
1506260,32
1506884,19
1507512,13
1508132,36
1508760,18
1509392,43
1510008,56
1510640,62
1511264,55
1511892,17
1512524,12
1513144,11
1513772,13
1514396,34
1515024,50
1515652,62
1516272,53
1516900,39
1517524,50
1518148,69
1518780,76
1519400,71
1520028,49
1520660,44
1521280,61
1521908,63
1522532,35
1523164,15
1523792,10
1524416,35
1525044,34
1525668,46
1526292,51
1526924,50
1527544,53
1528172,53
1528796,29
1529420,39
1530052,30
1530672,24
1531304,37
1531932,49
1532552,61
1533184,59
1533808,32
1534436,54
1535068,67
1535688,63
1536320,63
1536940,61
1537564,76
1538192,91
1538808,78
1539440,33
1540060,15
1540684,16
1541312,29
1541936,17
1542564,46
1543192,48
1543816,52
1544444,52
1545068,30
1545696,19
1546328,11
1546944,11
1547572,13
1548196,37
1548820,85
1549448,75
1550064,51
1550696,48
1551320,55
1551944,61
1552576,66
1553192,68
1553824,63
1554452,70
1555072,73
1555704,54
1556328,23
1556956,11
1557584,29
1558208,35
1558836,32
1559460,50
1560084,53
1560716,54
1561336,51
1561964,18
1562588,32
1563212,31
1563840,24
1564456,40
1565088,36
1565716,48
1566336,52
1566968,41
1567588,52
1568220,81
1568848,76
1569464,68
1570096,51
1570716,51
1571340,65
1571972,70
1572592,53
1573220,43
1573844,12
1574468,51
1575100,36
1575720,49
1576348,52
1576980,58
1577600,52
1578228,47
1578852,23
1579484,18
1580112,18
1580732,26
1581360,42
1581988,52
1582612,37
1583240,31
1583860,41
1584488,52
1585112,64
1585740,71
1586368,73
1586992,72
1587624,71
1588252,46
1588872,37
1589500,12
1590124,11
1590756,19
1591384,38
1592008,22
1592636,45
1593260,54
1593888,53
1594516,53
1595136,39
1595768,23
1596392,13
1597016,21
1597648,44
1598264,47
1598892,48
1599524,44
1600144,44
1600772,48
1601392,65
1602024,60
1602652,62
1603268,77
1603900,60
1604520,62
1605144,64
1605772,38
1606392,20
1607020,15
1607644,24
1608268,30
1608896,45
1609512,48
1610144,53
1610772,57
1611392,55
1612020,29
1612644,25
1613276,21
1613904,14
1614520,33
1615152,40
1615776,37
1616400,51
1617028,54
1617648,48
1618276,63
1618900,62
1619524,75
1620152,83
1620768,78
1621396,70
1622028,48
1622648,15
1623276,10
1623900,17
1624532,36
1625160,17
1625776,52
1626408,50
1627028,53
1627656,54
1628284,36
1628904,24
1629532,24
1630156,27
1630780,32
1631412,48
1632032,65
1632660,57
1633292,45
1633912,48
1634540,74
1635168,85
1635796,79
1636428,69
1637048,70
1637680,83
1638304,66
1638928,36
1639556,14
1640172,25
1640800,15
1641424,25
1642044,17
1642672,44
1643288,53
1643916,55
1644540,52
1645160,16
1645788,16
1646408,23
1647036,13
1647668,28
1648288,57
1648916,65
1649536,56
1650164,46
1650792,51
1651408,62
1652036,68
1652656,65
1653280,65
1653908,62
1654528,80
1655156,81
1655776,50
1656400,33
1657028,16
1657648,27
1658276,23
1658904,45
1659520,52
1660148,54
1660772,52
1661400,53
1662028,31
1662648,66
1663276,69
1663900,32
1664524,41
1665152,55
1665768,47
1666396,41
1667016,35
1667640,43
1668268,67
1668888,75
1669516,64
1670136,65
1670760,65
1671388,69
1672012,65
1672640,29
1673268,16
1673888,11
1674516,30
1675140,21
1675768,45
1676396,52
1677016,51
1677644,55
1678268,36
1678888,22
1679520,11
1680136,10
1680764,30
1681384,54
1682004,72
1682632,56
1683256,51
1683884,45
1684512,64
1685128,65
1685756,60
1686380,61
1687008,65
1687636,71
1688256,69
1688884,51
1689508,16
1690132,12
1690760,11
1691376,15
1692004,23
1692624,47
1693248,54
1693876,52
1694496,55
1695124,32
1695752,29
1696368,20
1696996,16
1697620,31
1698248,56
1698876,80
1699496,79
1700124,47
1700748,60
1701376,73
1702004,66
1702624,72
1703252,55
1703876,58
1704496,66
1705128,62
1705744,43
1706372,30
1706996,19
1707620,14
1708248,12
1708872,46
1709500,51
1710128,54
1710744,52
1711376,58
1712000,40
1712628,28
1713256,15
1713876,14
1714504,31
1715128,56
1715752,68
1716380,63
1717000,45
1717628,50
1718252,57
1718876,63
1719508,67
1720132,81
1720760,82
1721388,56
1722008,26
1722636,17
1723260,21
1723888,13
1724516,19
1725136,16
1725764,48
1726388,50
1727012,54
1727640,53
1728260,30
1728888,29
1729508,25
1730132,18
1730760,17
1731384,32
1732012,61
1732640,62
1733256,62
1733888,49
1734512,67
1735140,71
1735768,66
1736392,62
1737020,66
1737644,87
1738268,59
1738896,30
1739512,19
1740144,11
1740768,28
1741392,27
1742020,22
1742640,44
1743268,52
1743896,51
1744520,57
1745148,27
1745772,18
1746400,20
1747028,23
1747648,34
1748276,41
1748900,59
1749524,56
1750152,37
1750772,49
1751400,64
1752024,59
1752648,65
1753276,58
1753896,61
1754524,75
1755156,75
1755776,47
1756404,28
1757028,12
1757660,24
1758288,20
1758908,46
1759536,53
1760160,54
1760784,56
1761412,48
1762032,16
1762660,15
1763280,29
1763904,41
1764532,50
1765152,59
1765780,57
1766408,54
1767028,36
1767660,53
1768284,68
1768912,69
1769540,68
1770160,78
1770788,67
1771412,64
1772040,75
1772668,46
1773288,12
1773916,24
1774540,34
1775164,22
1775792,43
1776416,52
1777044,52
1777676,54
1778296,33
1778924,31
1779548,26
1780180,19
1780808,15
1781424,24
1782052,59
1782676,71
1783304,56
1783932,48
1784552,69
1785180,70
1785804,65
1786428,61
1787060,75
1787680,88
1788308,60
1788940,40
1789560,23
1790188,11
1790816,27
1791444,15
1792076,36
1792692,46
1793324,53
1793944,50
1794568,55
1795196,30
1795816,34
1796444,28
1797068,21
1797692,34
1798320,40
1798944,46
1799572,50
1800204,38
1800824,48
1801452,70
1802076,71
1802708,79
1803336,52
1803952,19
1804580,46
1805204,75
1805828,47
1806456,18
1807080,12
1807708,29
1808332,16
1808952,47
1809584,49
1810200,52
1810828,52
1811452,46
1812080,40
1812708,33
1813332,21
1813960,13
1814588,25
1815208,42
1815836,50
1816460,47
1817088,43
1817720,54
1818336,57
1818964,66
1819588,62
1820212,56
1820840,65
1821456,58
1822088,44
1822708,34
1823336,30
1823964,14
1824588,27
1825216,17
1825848,44
1826464,55
1827092,55
1827716,54
1828348,19
1828976,31
1829592,30
1830224,15
1830848,18
1831472,33
1832100,72
1832720,73
1833348,44
1833972,58
1834596,81
1835228,78
1835852,68
1836480,61
1837108,59
1837728,49
1838356,47
1838984,37
1839612,13
1840244,11
1840864,27
1841492,20
1842116,46
1842740,53
1843372,52
1843988,56
1844620,54
1845240,36
1845864,41
1846492,28
1847116,22
1847744,35
1848372,47
1848992,54
1849620,53
1850240,28
1850868,57
1851500,86
1852120,72
1852748,57
1853372,43
1853996,39
1854628,35
1855248,55
1855876,35
1856500,29
1857124,19
1857752,19
1858376,17
1859004,46
1859636,52
1860256,51
1860884,52
1861508,31
1862136,30
1862768,27
1863384,21
1864012,20
1864636,39
1865260,61
1865888,58
1866504,48
1867136,46
1867760,61
1868384,67
1869012,68
1869636,67
1870264,74
1870892,87
1871512,76
1872144,48
1872764,26
1873396,14
1874024,18
1874648,21
1875276,26
1875900,49
1876524,55
1877152,61
1877772,63
1878400,60
1879024,45
1879648,19
1880276,11
1880904,24
1881532,41
1882164,56
1882784,51
1883412,31
1884036,49
1884668,70
1885300,72
1885920,75
1886548,52
1887172,55
1887796,88
1888428,78
1889048,28
1889676,10
1890300,12
1890928,35
1891556,25
1892180,45
1892812,51
1893440,54
1894060,53
1894688,48
1895312,26
1895940,25
1896572,18
1897192,30
1897820,53
1898444,67
1899068,47
1899696,30
1900320,36
1900948,53
1901580,58
1902200,67
1902828,68
1903452,59
1904084,57
1904712,74
1905336,69
1905964,38
1906588,18
1907212,24
1907844,38
1908464,33
1909092,43
1909716,51
1910344,51
1910972,51
1911592,36
1912224,27
1912852,14
1913472,15
1914104,28
1914728,46
1915360,63
1915988,53
1916608,40
1917240,51
1917864,58
1918488,70
1919120,70
1919740,56
1920372,57
1920992,70
1921616,67
1922244,46
1922864,29
1923492,17
1924120,22
1924744,24
1925372,43
1925996,49
1926624,52
1927256,54
1927872,56
1928500,17
1929124,18
1929748,31
1930376,38
1931000,49
1931628,52
1932252,62
1932876,53
1933504,30
1934128,51
1934756,69
1935388,70
1936008,63
1936636,45
1937260,51
1937888,69
1938520,66
1939136,34
1939768,19
1940392,13
1941016,15
1941644,16
1942264,43
1942892,51
1943520,53
1944144,55
1944772,41
1945392,35
1946024,26
1946652,20
1947272,21
1947900,36
1948524,55
1949152,52
1949784,42
1950400,47
1951028,60
1951652,67
1952280,68
1952908,66
1953528,64
1954156,74
1954780,75
1955408,45
1956036,14
1956656,18
1957284,13
1957916,24
1958536,21
1959164,47
1959788,56
1960420,61
1961048,56
1961672,46
1962300,37
1962924,18
1963548,22
1964180,45
1964800,47
1965428,59
1966052,58
1966680,35
1967308,47
1967928,67
1968556,67
1969188,66
1969808,66
1970436,65
1971060,73
1971692,68
1972320,39
1972936,24
1973564,11
1974188,28
1974812,22
1975440,50
1976064,51
1976692,53
1977316,51
1977940,52
1978568,37
1979192,41
1979820,46
1980452,28
1981072,25
1981700,40
1982324,45
1982956,43
1983584,39
1984208,56
1984836,61
1985460,66
1986084,67
1986712,54
1987328,69
1987956,73
1988580,57
1989204,24
1989832,25
1990452,12
1991080,32
1991708,21
1992328,43
1992956,53
1993580,54
1994212,56
1994844,28
1995464,26
1996092,27
1996720,27
1997344,37
1997972,46
1998592,63
1999220,61
1999844,51
2000468,50
2001096,66
2001720,72
2002348,77
2002980,86
2003600,96
2004228,90
2004852,59
2005480,26
2006108,17
2006728,13
2007356,27
2007980,46
2008604,38
2009232,50
2009856,53
2010484,55
2011108,55
2011732,35
2012360,28
2012984,22
2013612,14
2014240,32
2014864,35
2015492,40
2016116,40
2016748,29
2017376,52
2017992,70
2018624,65
2019248,64
2019868,58
2020500,58
2021120,70
2021748,74
2022372,31
2023000,11
2023628,11
2024248,28
2024876,17
2025508,48
2026128,53
2026756,54
2027380,56
2028012,48
2028640,26
2029264,21
2029892,20
2030516,20
2031140,21
2031772,32
2032392,47
2033020,55
2033648,48
2034268,55
2034900,58
2035524,61
2036156,68
2036784,52
2037404,66
2038032,78
2038656,64
2039288,17
2039916,10
2040536,12
2041164,15
2041788,18
2042412,50
2043044,57
2043664,51
2044296,53
2044920,21
2045544,25
2046172,31
2046800,25
2047428,30
2048060,39
2048676,58
2049304,58
2049924,48
2050552,48
2051180,61
2051800,66
2052428,69
2053048,61
2053672,60
2054300,71
2054920,71
2055548,44
2056168,26
2056792,18
2057420,16
2058040,23
2058668,44
2059296,53
2059912,51
2060540,56
2061164,55
2061792,34
2062420,12
2063036,15
2063668,33
2064292,40
2064912,40
2065540,48
2066160,59
2066788,40
2067412,58
2068036,71
2068664,82
2069280,72
2069908,56
2070536,58
2071152,59
2071784,60
2072408,31
2073036,17
2073664,11
2074280,27
2074908,20
2075532,43
2076160,52
2076788,54
2077408,52
2078036,38
2078660,37
2079284,19
2079912,10
2080536,16
2081164,56
2081788,64
2082408,49
2083036,39
2083660,45
2084288,68
2084916,73
2085536,66
2086164,55
2086788,40
2087416,48
2088044,58
2088660,46
2089292,21
2089912,16
2090536,14
2091164,28
2091784,19
2092412,53
2093036,53
2093660,54
2094288,53
2094904,21
2095532,36
2096160,24
2096780,21
2097412,27
2098036,31
2098664,51
2099292,56
2099908,41
2100540,46
2101160,64
2101784,68
2102412,60
2103032,51
2103660,61
2104284,75
2104908,73
2105536,39
2106160,23
2106788,10
2107420,42
2108040,45
2108668,44
2109292,50
2109924,53
2110552,56
2111172,59
2111800,45
2112424,17
2113044,11
2113676,10
2114296,32
2114924,52
2115548,57
2116172,58
2116800,38
2117416,58
2118044,67
2118676,68
2119296,69
2119924,62
2120548,59
2121176,59
2121808,47
2122424,30
2123052,31
2123676,13
2124300,29
2124932,14
2125552,45
2126180,53
2126804,57
2127428,53
2128056,27
2128672,19
2129300,26
2129932,24
2130548,30
2131180,30
2131804,46
2132432,62
2133060,59
2133680,49
2134308,58
2134932,58
2135560,61
2136188,62
2136808,62
2137436,86
2138060,93
2138684,65
2139312,19
2139932,10
2140560,25
2141184,20
2141808,34
2142436,54
2143060,49
2143688,58
2144320,62
2144936,54
2145564,31
2146188,22
2146820,16
2147448,21
2148064,31
2148696,66
2149320,69
2149944,42
2150572,47
2151192,59
2151820,63
2152444,63
2153072,59
2153700,59
2154324,62
2154952,59
2155580,35
2156200,21
2156828,14
2157452,16
2158080,17
2158708,47
2159328,51
2159956,53
2160584,57
2161208,58
2161836,48
2162456,25
2163084,11
2163708,12
2164336,27
2164964,50
2165588,59
2166216,44
2166848,41
2167464,63
2168092,67
2168716,61
2169348,58
2169976,38
2170600,68
2171228,82
2171852,65
2172476,41
2173108,30
2173728,19
2174356,36
2174988,14
2175608,48
2176240,49
2176860,55
2177488,53
2178116,41
2178736,31
2179364,21
2179988,13
2180612,21
2181244,44
2181864,59
2182492,47
2183112,42
2183736,49
2184368,62
2184984,64
2185612,67
2186236,54
2186864,50
2187492,61
2188116,73
2188748,50
2189380,17
2190000,14
2190628,13
2191252,30
2191880,45
2192508,51
2193128,55
2193756,50
2194380,52
2195004,25
2195636,22
2196256,19
2196884,11
2197516,31
2198136,56
2198768,61
2199392,59
2200020,39
2200652,54
2201272,63
2201904,63
2202524,65
2203148,53
2203780,71
2204400,90
2205028,93
2205652,67
2206276,44
2206908,14
2207528,52
2208156,23
2208788,46
2209408,51
2210036,54
2210660,58
2211292,48
2211920,64
2212536,38
2213168,18
2213792,19
2214416,36
2215044,50
2215664,50
2216292,56
2216916,50
2217540,61
2218172,72
2218792,71
2219424,63
2220052,55
2220672,63
2221304,68
2221928,64
2222556,36
2223188,14
2223808,28
2224440,32
2225060,23
2225684,51
2226316,53
2226936,52
2227568,52
2228188,32
2228812,32
2229444,24
2230064,19
2230692,25
2231324,35
2231944,41
2232576,29
2233200,21
2233828,47
2234460,54
2235080,58
2235708,60
2236336,43
2236960,52
2237588,70
2238208,70
2238840,44
2239464,25
2240088,14
2240716,24
2241336,25
2241964,46
2242592,52
2243216,53
2243844,53
2244468,53
2245096,28
2245724,18
2246344,12
2246972,12
2247596,44
2248224,66
2248852,52
2249472,52
2250104,37
2250728,63
2251352,68
2251984,64
2252600,61
2253232,49
2253860,66
2254480,60
2255108,51
2255732,35
2256360,30
2256988,11
2257608,28
2258236,25
2258860,45
2259484,56
2260112,53
2260728,51
2261360,26
2261984,25
2262608,22
2263236,20
2263856,27
2264484,35
2265116,49
2265736,57
2266364,58
2266988,49
2267616,62
2268248,67
2268864,67
2269492,60
2270116,59
2270740,75
2271372,71
2271992,45
2272624,25
2273248,22
2273872,19
2274500,39
2275120,37
2275748,53
2276380,52
2277000,53
2277628,55
2278256,35
2278884,45
2279512,27
2280136,13
2280764,13
2281388,22
2282012,45
2282644,65
2283264,45
2283892,49
2284516,56
2285140,69
2285772,71
2286392,63
2287024,67
2287652,73
2288272,64
2288900,28
2289524,12
2290156,11
2290788,26
2291408,20
2292036,45
2292660,47
2293284,53
2293916,54
2294536,47
2295164,41
2295788,24
2296412,14
2297040,22
2297664,55
2298292,65
2298924,55
2299544,51
2300172,48
2300796,65
2301428,68
2302060,66
2302680,67
2303312,53
2303936,61
2304560,66
2305188,56
2305808,34
2306436,19
2307060,16
2307684,27
2308312,18
2308936,49
2309564,49
2310196,54
2310816,55
2311444,31
2312068,31
2312700,31
2313328,21
2313944,25
2314576,32
2315200,51
2315820,56
2316452,62
2317072,45
2317700,69
2318324,76
2318948,71
2319580,59
2320204,61
2320832,75
2321460,75
2322080,35
2322708,10
2323332,10
2323960,27
2324592,35
2325208,44
2325836,51
2326464,52
2327084,57
2327716,53
2328336,22
2328964,17
2329588,15
2330216,11
2330844,20
2331468,41
2332096,78
2332728,78
2333348,47
2333976,55
2334600,71
2335232,69
2335860,68
2336480,61
2337108,72
2337732,83
2338356,76
2338988,38
2339608,19
2340236,15
2340860,31
2341488,17
2342116,46
2342740,54
2343372,54
2344000,60
2344624,37
2345252,24
2345876,18
2346504,33
2347132,42
2347752,42
2348380,55
2349008,53
2349632,46
2350260,50
2350880,57
2351508,62
2352140,84
2352760,93
2353392,67
2354016,49
2354644,65
2355276,50
2355896,12
2356524,13
2357148,38
2357772,47
2358400,39
2359020,53
2359648,53
2360276,54
2360900,57
2361528,28
2362148,26
2362776,19
2363404,14
2364024,24
2364652,27
2365280,45
2365908,67
2366540,54
2367160,51
2367792,68
2368416,71
2369040,73
2369668,70
2370288,67
2370916,68
2371540,56
2372164,36
2372796,23
2373416,12
2374048,20
2374676,15
2375296,47
2375928,49
2376552,60
2377180,57
2377812,40
2378432,34
2379060,41
2379684,35
2380308,22
2380940,34
2381560,61
2382188,75
2382812,59
2383436,47
2384068,64
2384688,72
2385316,80
2385948,78
2386568,58
2387196,48
2387820,65
2388452,69
2389084,48
2389704,34
2390336,13
2390960,32
2391584,31
2392216,49
2392832,50
2393464,57
2394088,52
2394712,25
2395344,24
2395960,30
2396592,19
2397224,18
2397844,35
2398472,64
2399096,67
2399728,37
2400356,48
2400976,75
2401604,90
2402228,62
2402852,27
2403480,45
2404100,93
2404728,91
2405352,43
2405976,17
2406608,12
2407224,49
2407852,42
2408484,46
2409104,53
2409732,54
2410356,51
2410988,51
2411616,26
2412240,23
2412868,17
2413492,25
2414116,53
2414748,42
2415368,31
2415996,34
2416624,37
2417248,55
2417876,58
2418500,57
2419132,58
2419764,54
2420384,65
2421012,70
2421636,63
2422268,38
2422900,23
2423520,13
2424148,26
2424776,16
2425400,44
2426028,53
2426648,57
2427276,58
2427904,38
2428528,28
2429156,17
2429784,13
2430412,25
2431044,40
2431664,55
2432296,59
2432920,49
2433540,51
2434172,60
2434792,75
2435424,75
2436048,63
2436672,74
2437300,90
2437920,77
2438548,26
2439180,10
2439800,13
2440428,26
2441052,34
2441684,39
2442312,49
2442932,55
2443560,53
2444184,57
2444808,32
2445436,28
2446056,28
2446688,27
2447312,38
2447936,43
2448568,49
2449184,51
2449816,29
2450444,55
2451064,65
2451696,63
2452320,63
2452952,55
2453580,51
2454200,53
2454832,60
2455456,43
2456080,29
2456708,14
2457328,17
2457960,15
2458580,46
2459204,51
2459832,50
2460456,56
2461084,58
2461712,50
2462336,37
2462964,13
2463588,12
2464220,26
2464848,34
2465464,32
2466092,27
2466716,44
2467340,58
2467968,63
2468592,67
2469220,67
2469844,49
2470468,43
2471096,51
2471712,56
2472344,43
2472972,26
2473592,27
2474220,48
2474844,23
2475476,46
2476108,54
2476728,53
2477360,54
2477980,48
2478608,40
2479236,24
2479856,16
2480484,20
2481108,36
2481732,52
2482364,54
2482984,48
2483612,52
2484244,58
2484864,72
2485492,75
2486116,70
2486744,59
2487376,54
2487992,47
2488624,25
2489244,22
2489868,25
2490500,21
2491120,39
2491748,48
2492372,50
2493000,52
2493628,51
2494248,53
2494876,22
2495508,24
2496128,40
2496756,48
2497380,49
2498012,45
2498640,46
2499256,45
2499884,25
2500508,57
2501132,69
2501764,67
2502384,64
2503016,72
2503640,77
2504264,57
2504892,44
2505512,25
2506144,20
2506772,11
2507392,19
2508024,19
2508648,44
2509276,49
2509908,56
2510528,54
2511156,32
2511784,29
2512408,28
2513036,26
2513656,23
2514284,31
2514908,60
2515532,59
2516164,48
2516784,50
2517416,66
2518044,65
2518664,67
2519296,69
2519920,65
2520548,69
2521180,60
2521800,46
2522428,45
2523052,34
2523676,26
2524308,28
2524928,31
2525556,49
2526180,53
2526808,60
2527436,56
2528056,41
2528684,23
2529316,14
2529936,14
2530564,20
2531188,42
2531820,61
2532452,49
2533072,29
2533704,45
2534328,57
2534952,68
2535584,73
2536204,63
2536832,62
2537460,73
2538084,65
2538712,35
2539340,13
2539972,10
2540600,23
2541224,21
2541852,45
2542480,49
2543108,51
2543740,52
2544360,43
2544988,40
2545612,23
2546236,15
2546868,14
2547488,44
2548116,59
2548748,59
2549368,57
2550000,44
2550624,60
2551252,65
2551884,68
2552504,72
2553136,75
2553760,71
2554384,61
2555016,50
2555636,29
2556264,18
2556892,21
2557516,34
2558148,16
2558768,48
2559400,55
2560032,54
2560648,57
2561272,28
2561896,18
2562524,24
2563152,32
2563772,30
2564400,29
2565020,47
2565644,61
2566272,52
2566896,49
2567524,71
2568148,74
2568768,70
2569400,60
2570016,49
2570644,61
2571272,65
2571896,29
2572524,11
2573148,12
2573776,16
2574404,22
2575024,46
2575652,50
2576276,52
2576900,53
2577532,54
2578152,28
2578780,12
2579404,16
2580028,28
2580656,50
2581280,59
2581908,64
2582536,63
2583160,39
2583788,58
2584412,67
2585040,70
2585672,77
2586288,79
2586916,62
2587540,54
2588164,45
2588796,18
2589416,21
2590044,12
2590668,28
2591292,19
2591924,44
2592544,50
2593172,54
2593804,58
2594424,37
2595052,27
2595676,20
2596308,11
2596936,11
2597552,28
2598184,71
2598808,69
2599432,62
2600060,48
2600680,57
2601308,65
2601932,74
2602556,68
2603184,54
2603808,68
2604436,77
2605068,52
2605688,27
2606316,10
2606940,29
2607572,24
2608200,30
2608824,51
2609452,50
2610076,53
2610700,53
2611332,30
2611952,35
2612580,28
2613204,22
2613828,25
2614456,32
2615080,52
2615708,57
2616340,46
2616960,47
2617588,61
2618212,68
2618844,72
2619476,67
2620096,63
2620728,72
2621352,58
2621976,28
2622604,15
2623224,11
2623852,19
2624476,15
2625096,50
2625724,50
2626344,55
2626972,59
2627600,63
2628216,49
2628844,25
2629464,15
2630096,11
2630724,24
2631344,62
2631972,63
2632596,57
2633220,41
2633852,67
2634472,60
2635100,57
2635724,59
2636348,62
2636976,68
2637600,61
2638228,55
2638856,43
2639472,34
2640100,12
2640724,29
2641352,22
2641980,44
2642596,53
2643228,52
2643848,53
2644476,31
2645104,30
2645728,14
2646356,14
2646980,24
2647604,43
2648232,63
2648852,71
2649480,53
2650104,51
2650728,62
2651356,79
2651980,69
2652608,52
2653240,40
2653856,64
2654484,73
2655108,54
2655740,24
2656368,10
2656984,38
2657612,26
2658236,41
2658860,50
2659488,51
2660108,51
2660736,61
2661360,31
2661984,13
2662612,11
2663236,13
2663864,33
2664492,56
2665108,69
2665740,85
2666360,55
2666988,50
2667616,59
2668240,68
2668868,64
2669488,70
2670112,62
2670740,51
2671360,60
2671988,40
2672612,39
2673236,36
2673864,11
2674488,14
2675116,46
2675748,52
2676368,59
2676996,58
2677620,42
2678248,30
2678876,31
2679496,32
2680124,27
2680748,34
2681372,51
2682000,48
2682624,43
2683252,42
2683876,59
2684500,60
2685128,67
2685744,68
2686376,63
2687004,67
2687624,70
2688256,57
2688876,20
2689504,11
2690132,20
2690752,18
2691380,19
2692004,47
2692624,51
2693252,54
2693872,55
2694500,27
2695124,28
2695748,33
2696376,29
2696992,22
2697620,20
2698248,34
2698872,38
2699500,42
2700124,46
2700752,52
2701384,62
2702008,74
2702636,91
2703260,95
2703888,74
2704516,47
2705136,11
2705764,10
2706388,12
2707012,19
2707640,16
2708264,47
2708892,50
2709520,51
2710144,56
2710772,58
2711396,28
2712028,22
2712656,22
2713272,24
2713904,40
2714528,41
2715148,36
2715780,43
2716400,49
2717028,53
2717652,63
2718276,67
2718908,63
2719528,58
2720156,62
2720784,68
2721408,58
2722036,24
2722660,24
2723288,18
2723916,10
2724536,25
2725164,55
2725788,52
2726408,64
2727036,60
2727656,31
2728284,19
2728908,14
2729532,34
2730160,42
2730776,49
2731408,49
2732036,57
2732656,87
2733284,56
2733908,56
2734540,64
2735168,67
2735788,63
2736416,61
2737040,80
2737668,79
2738300,66
2738920,38
2739548,11
2740172,22
2740796,18
2741428,22
2742048,50
2742676,49
2743308,51
2743928,52
2744560,32
2745180,38
2745812,28
2746440,14
2747056,15
2747688,25
2748312,56
2748936,72
2749564,55
2750184,46
2750812,62
2751436,65
2752060,64
2752692,53
2753312,70
2753940,95
2754568,90
2755192,51
2755820,21
2756444,11
2757076,24
2757704,22
2758328,50
2758960,48
2759584,55
2760208,61
2760836,59
2761456,41
2762084,31
2762708,23
2763332,16
2763964,24
2764584,38
2765216,42
2765844,48
2766464,40
2767092,64
2767716,61
2768344,55
2768976,59
2769592,44
2770220,64
2770844,84
2771468,83
2772100,48
2772720,21
2773348,20
2773972,40
2774596,21
2775228,42
2775848,54
2776476,56
2777108,53
2777728,21
2778356,29
2778980,44
2779612,23
2780240,24
2780864,38
2781492,49
2782116,49
2782740,55
2783372,46
2783992,61
2784624,71
2785248,77
2785872,69
2786500,75
2787120,71
2787748,58
2788380,26
2789000,23
2789628,24
2790252,19
2790884,41
2791512,46
2792132,52
2792760,52
2793384,51
2794008,58
2794640,11
2795256,43
2795884,47
2796508,37
2797132,49
2797764,50
2798384,67
2799016,76
2799644,56
2800264,51
2800892,64
2801516,64
2802148,61
2802776,57
2803392,56
2804024,65
2804648,70
2805272,43
2805900,23
2806520,11
2807148,24
2807772,17
2808396,47
2809024,48
2809648,53
2810276,56
2810908,40
2811528,36
2812156,25
2812780,20
2813412,18
2814044,28
2814664,51
2815296,45
2815920,41
2816544,49
2817172,62
2817792,69
2818420,71
2819044,64
2819664,53
2820296,58
2820912,55
2821540,38
2822172,20
2822792,16
2823420,16
2824044,25
2824672,20
2825304,53
2825920,52
2826552,53
2827176,56
2827800,34
2828428,40
2829048,43
2829676,34
2830300,31
2830924,31
2831552,48
2832176,41
2832804,35
2833432,47
2834056,65
2834684,61
2835308,59
2835940,51
2836568,44
2837184,76
2837816,86
2838440,43
2839064,25
2839692,12
2840312,37
2840944,35
2841568,47
2842192,50
2842820,54
2843440,52
2844068,52
2844700,18
2845320,12
2845948,16
2846572,30
2847204,43
2847832,47
2848456,65
2849084,77
2849708,40
2850332,59
2850960,68
2851584,67
2852212,65
2852836,53
2853460,74
2854092,78
2854712,61
2855340,24
2855972,12
2856592,17
2857220,26
2857844,17
2858476,47
2859108,50
2859728,53
2860360,58
2860984,28
2861604,15
2862236,13
2862856,19
2863484,19
2864112,30
2864736,55
2865364,69
2865992,64
2866620,47
2867252,51
2867872,69
2868500,71
2869120,59
2869752,69
2870380,85
2871000,83
2871628,41
2872252,25
2872876,11
2873508,30
2874128,38
2874756,40
2875380,52
2876004,53
2876636,53
2877260,52
2877888,18
2878520,12
2879136,13
2879768,29
2880392,43
2881020,43
2881648,68
2882264,66
2882892,32
2883516,58
2884140,75
2884768,73
2885388,59
2886016,46
2886636,54
2887260,65
2887892,61
2888512,31
2889144,20
2889772,12
2890392,24
2891020,21
2891644,48
2892272,49
2892900,58
2893520,52
2894148,40
2894772,43
2895392,45
2896024,20
2896640,11
2897268,18
2897892,40
2898516,58
2899144,60
2899768,44
2900396,67
2901028,70
2901648,69
2902276,62
2902904,52
2903532,58
2904164,52
2904784,47
2905412,42
2906040,34
2906660,13
2907292,36
2907912,20
2908544,46
2909164,50
2909788,51
2910420,57
2911044,27
2911672,27
2912304,27
2912920,17
2913548,21
2914172,43
2914804,64
2915432,62
2916056,55
2916684,47
2917308,59
2917932,72
2918564,68
2919184,70
2919812,63
2920436,54
2921060,56
2921688,42
2922312,26
2922940,19
2923572,14
2924192,23
2924820,47
2925444,49
2926072,56
2926704,55
2927324,56
2927952,30
2928580,35
2929204,32
2929832,18
2930452,26
2931080,35
2931704,49
2932328,56
2932956,32
2933580,57
2934212,61
2934844,58
2935464,65
2936096,66
2936720,77
2937348,69
2937980,50
2938600,15
2939232,11
2939856,12
2940480,20
2941108,16
2941728,43
2942360,51
2942988,57
2943608,56
2944240,25
2944864,24
2945492,30
2946124,18
2946744,13
2947372,23
2947996,65
2948620,77
2949252,69
2949872,49
2950500,68
2951124,68
2951748,69
2952376,63
2953000,55
2953628,69
2954260,74
2954880,53
2955508,21
2956132,11
2956764,23
2957396,33
2958016,35
2958644,49
2959268,50
2959892,51
2960524,56
2961144,31
2961772,25
2962396,14
2963020,23
2963648,44
2964272,55
2964900,65
2965532,67
2966152,48
2966780,51
2967404,64
2968036,72
2968664,62
2969288,63
2969916,66
2970540,70
2971164,85
2971792,73
2972416,40
2973044,11
2973668,41
2974292,30
2974924,46
2975544,50
2976172,56
2976804,56
2977424,40
2978052,17
2978676,18
2979304,47
2979936,43
2980552,29
2981184,45
2981808,51
2982432,41
2983060,48
2983680,57
2984308,66
2984932,71
2985556,68
2986188,72
2986808,77
2987440,69
2988068,48
2988688,14
2989320,10
2989944,15
2990572,15
2991204,16
2991824,48
2992456,50
2993080,53
2993704,53
2994332,38
2994952,33
2995584,21
2996204,22
2996828,24
2997460,39
2998084,55
2998712,55
2999344,48
2999960,46
3000592,64
3001216,77
3001844,69
3002476,60
3003096,57
3003728,71
3004352,66
3004976,31
3005604,18
3006224,17
3006856,15
3007480,26
3008104,46
3008732,53
3009356,54
3009988,55
3010616,52
3011240,29
3011868,25
3012492,19
3013124,15
3013752,38
3014376,50
3015008,54
3015632,56
3016256,37
3016888,67
3017504,80
3018136,78
3018768,63
3019384,31
3020016,43
3020640,63
3021272,64
3021900,38
3022520,27
3023148,13
3023776,25
3024400,17
3025028,46
3025648,54
3026280,56
3026904,59
3027528,35
3028156,30
3028776,23
3029408,30
3030040,57
3030656,59
3031288,60
3031912,52
3032544,43
3033172,48
3033792,59
3034420,61
3035044,65
3035672,68
3036300,64
3036920,71
3037552,65
3038176,46
3038800,31
3039432,15
3040048,16
3040680,21
3041308,36
3041928,48
3042556,51
3043180,52
3043812,56
3044444,18
3045064,15
3045696,11
3046320,11
3046944,43
3047572,55
3048192,73
3048820,68
3049444,41
3050068,47
3050700,62
3051320,61
3051952,62
3052580,66
3053200,71
3053828,79
3054456,68
3055084,35
3055716,19
3056336,13
3056964,20
3057588,19
3058216,43
3058848,54
3059464,54
3060096,53
3060720,39
3061344,29
3061976,25
3062600,19
3063228,15
3063860,27
3064480,46
3065108,59
3065736,64
3066368,46
3066996,56
3067616,64
3068248,65
3068872,72
3069496,68
3070128,66
3070748,59
3071380,46
3072012,40
3072628,25
3073260,22
3073880,45
3074512,21
3075140,51
3075760,55
3076388,54
3077012,53
3077640,24
3078268,36
3078888,55
3079516,45
3080140,20
3080764,12
3081396,47
3082016,59
3082644,41
3083276,55
3083896,65
3084524,65
3085148,63
3085780,57
3086408,56
3087024,60
3087656,59
3088280,47
3088904,37
3089532,23
3090152,15
3090780,20
3091408,41
3092032,42
3092660,50
3093280,53
3093908,53
3094540,18
3095160,25
3095788,48
3096416,42
3097044,53
3097676,54
3098296,64
3098924,62
3099548,40
3100172,54
3100804,58
3101424,71
3102056,69
3102680,61
3103304,58
3103936,58
3104552,67
3105184,53
3105816,29
3106432,19
3107064,44
3107688,21
3108316,50
3108948,53
3109568,55
3110200,51
3110824,35
3111448,28
3112080,26
3112696,19
3113328,18
3113952,31
3114576,55
3115204,61
3115824,74
3116456,46
3117084,60
3117704,69
3118336,69
3118960,60
3119592,49
3120220,61
3120840,65
3121468,40
3122092,26
3122716,23
3123348,10
3123968,18
3124596,39
3125220,48
3125844,55
3126476,54
3127096,54
3127724,29
3128356,19
3128976,11
3129604,20
3130228,59
3130860,65
3131492,48
3132112,44
3132744,41
3133368,55
3133992,60
3134624,61
3135240,60
3135872,61
3136496,63
3137120,74
3137748,69
3138372,48
3139004,36
3139636,18
3140256,37
3140884,35
3141508,44
3142140,49
3142772,50
3143392,51
3144024,37
3144648,24
3145272,17
3145900,15
3146520,26
3147152,61
3147780,77
3148400,69
3149032,51
3149656,47
3150284,77
3150916,74
3151536,72
3152168,63
3152792,57
3153416,74
3154048,67
3154664,63
3155292,38
3155920,19
3156544,21
3157172,36
3157792,20
3158424,49
3159052,52
3159672,61
3160304,60
3160928,25
3161560,23
3162192,35
3162808,32
3163440,26
3164064,46
3164688,62
3165320,54
3165936,41
3166568,49
3167192,67
3167816,79
3168448,66
3169072,55
3169704,61
3170332,68
3170952,57
3171584,36
3172208,27
3172840,25
3173468,10
3174088,16
3174720,49
3175344,51
3175968,56
3176600,60
3177216,53
3177848,25
3178472,22
3179096,27
3179728,23
3180344,32
3180976,45
3181604,41
3182224,49
3182856,49
3183480,52
3184112,72
3184744,73
3185360,62
3185992,49
3186616,61
3187240,65
3187868,57
3188488,36
3189116,30
3189744,13
3190368,35
3191000,22
3191624,51
3192256,50
3192888,53
3193508,53
3194140,30
3194764,31
3195396,39
3196028,39
3196648,37
3197280,54
3197904,79
3198528,78
3199160,51
3199780,51
3200412,77
3201040,80
3201660,67
3202292,53
3202912,55
3203544,65
3204172,70
3204792,53
3205420,23
3206044,12
3206668,25
3207296,26
3207912,40
3208540,50
3209164,53
3209788,55
3210416,52
3211040,25
3211668,22
3212300,21
3212920,17
3213548,18
3214172,36
3214800,69
3215432,83
3216048,52
3216680,54
3217300,68
3217924,72
3218556,67
3219176,71
3219808,64
3220432,62
3221056,61
3221684,31
3222304,20
3222936,11
3223564,30
3224184,23
3224812,47
3225436,52
3226068,56
3226696,60
3227320,42
3227948,26
3228572,18
3229196,15
3229828,12
3230448,39
3231076,67
3231700,67
3232328,56
3232956,48
3233576,61
3234204,74
3234836,73
3235456,64
3236084,49
3236708,67
3237340,58
3237968,45
3238592,37
3239220,29
3239844,11
3240468,22
3241096,20
3241720,50
3242348,53
3242972,55
3243596,57
3244228,31
3244848,31
3245476,23
3246108,16
3246728,21
3247356,25
3247980,40
3248612,57
3249244,52
3249864,47
3250492,58
3251120,69
3251744,66
3252372,52
3252992,53
3253620,63
3254248,64
3254872,35
3255500,22
3256120,11
3256748,35
3257380,29
3258000,46
3258628,51
3259252,52
3259884,52
3260516,52
3261136,27
3261768,28
3262392,38
3263016,32
3263648,33
3264264,43
3264896,51
3265520,60
3266144,44
3266772,59
3267400,64
3268028,70
3268660,66
3269280,73
3269908,77
3270536,65
3271164,58
3271796,28
3272416,19
3273044,13
3273672,27
3274296,17
3274924,43
3275544,51
3276176,58
3276804,52
3277420,36
3278048,35
3278672,29
3279300,21
3279928,18
3280548,24
3281176,46
3281796,65
3282424,60
3283052,48
3283672,61
3284300,66
3284920,65
3285544,69
3286172,77
3286792,89
3287420,71
3288040,34
3288664,15
3289292,10
3289912,20
3290540,17
3291168,37
3291784,53
3292416,51
3293036,52
3293668,54
3294296,31
3294912,33
3295540,27
3296164,29
3296788,35
3297416,41
3298032,56
3298660,52
3299284,36
3299904,52
3300532,61
3301152,64
3301780,61
3302408,67
3303028,55
3303660,66
3304284,62
3304912,31
3305540,17
3306160,11
3306788,35
3307412,34
3308040,45
3308668,53
3309288,55
3309916,54
3310540,52
3311164,28
3311792,19
3312416,21
3313044,33
3313676,42
3314296,48
3314924,48
3315548,43
3316180,46
3316808,58
3317424,69
3318056,69
3318676,65
3319300,65
3319932,76
3320552,79
3321180,75
3321804,44
3322428,12
3323056,37
3323680,42
3324308,18
3324940,46
3325560,52
3326188,56
3326812,56
3327444,26
3328072,34
3328692,35
3329320,24
3329944,29
3330564,44
3331192,63
3331816,57
3332444,35
3333068,51
3333692,69
3334320,75
3334936,68
3335568,72
3336196,73
3336816,84
3337444,83
3338068,55
3338696,21
3339324,10
3339944,29
3340572,33
3341196,45
3341824,51
3342456,62
3343072,62
3343700,57
3344324,40
3344948,34
3345576,27
3346196,35
3346824,66
3347448,67
3348072,59
3348700,43
3349324,33
3349952,54
3350580,71
3351200,77
3351828,71
3352452,51
3353084,52
3353712,79
3354336,86
3354964,45
3355588,24
3356212,13
3356840,13
3357456,16
3358088,45
3358712,51
3359336,61
3359964,57
3360592,37
3361220,33
3361848,30
3362464,33
3363092,26
3363716,31
3364344,48
3364972,44
3365592,45
3366220,52
3366844,61
3367468,74
3368096,67
3368712,61
3369340,46
3369964,66
3370588,74
3371216,58
3371832,35
3372460,20
3373092,16
3373712,33
3374340,21
3374964,49
3375596,53
3376224,51
3376848,59
3377476,39
3378100,29
3378724,24
3379352,16
3379976,23
3380604,33
3381228,50
3381848,49
3382476,34
3383096,51
3383724,59
3384352,70
3384976,71
3385604,69
3386224,71
3386856,75
3387484,74
3388104,48
3388732,24
3389356,11
3389980,32
3390612,39
3391232,48
3391860,51
3392488,52
3393108,59
3393740,62
3394360,49
3394988,36
3395620,22
3396240,17
3396868,36
3397492,48
3398120,44
3398752,47
3399368,37
3399996,59
3400620,69
3401244,73
3401872,76
3402496,73
3403124,73
3403748,60
3404372,63
3405004,42
3405624,22
3406252,13
3406880,26
3407496,17
3408128,44
3408748,54
3409380,56
3410008,51
3410624,38
3411256,37
3411876,30
3412500,21
3413132,24
3413752,44
3414380,66
3415008,56
3415632,41
3416260,46
3416880,60
3417508,64
3418140,64
3418760,60
3419388,62
3420012,64
3420644,56
3421276,44
3421896,30
3422524,14
3423148,19
3423772,34
3424404,34
3425024,51
3425652,56
3426276,55
3426900,55
3427528,34
3428152,19
3428780,13
3429412,10
3430032,24
3430664,45
3431284,62
3431916,62
3432544,38
3433168,51
3433796,65
3434420,67
3435044,68
3435676,74
3436296,77
3436928,68
3437548,58
3438176,31
3438804,37
3439428,29
3440060,20
3440688,18
3441304,44
3441936,51
3442556,53
3443188,52
3443820,39
3444440,21
3445068,22
3445692,32
3446316,25
3446948,35
3447568,54
3448196,61
3448820,58
3449444,50
3450076,56
3450700,69
3451328,68
3451956,70
3452576,78
3453208,91
3453828,76
3454460,35
3455092,10
3455712,19
3456344,25
3456964,23
3457588,21
3458220,55
3458840,51
3459468,55
3460092,54
3460720,37
3461348,39
3461972,38
3462604,24
3463232,27
3463848,41
3464476,53
3465100,37
3465732,17
3466360,54
3466976,77
3467608,87
3468232,83
3468856,79
3469484,71
3470104,72
3470732,59
3471356,31
3471984,21
3472616,14
3473240,68
3473868,100
3474552,77
3475168,76
3475800,78
3476424,63
3477048,54
3477676,20
3478296,14
3478928,11
3479556,11
3480176,23
3480804,39
3481432,43
3482060,43
3482692,38
3483312,60
3483940,68
3484564,75
3485188,78
3485820,66
3486440,66
3487068,62
3487692,47
3488316,33
3488944,26
3489568,14
3490196,27
3490828,16
3491448,46
3492076,54
3492700,53
3493332,56
3493960,35
3494580,46
3495208,27
3495832,15
3496456,27
3497084,59
3497704,71
3498332,55
3498956,39
3499580,51
3500212,60
3500832,71
3501460,68
3502092,64
3502712,68
3503344,77
3503968,76
3504600,64
3505228,32
3505848,10
3506476,30
3507104,21
3507728,44
3508356,52
3508976,51
3509604,55
3510228,55
3510856,26
3511484,39
3512104,53
3512736,55
3513364,62
3513984,58
3514616,57
3515240,56
3515868,40
3516500,52
3517120,64
3517752,65
3518376,64
3519000,60
3519632,69
3520252,84
3520880,72
3521504,37
3522128,26
3522760,12
3523376,20
3524004,18
3524632,50
3525256,49
3525884,55
3526508,54
3527136,39
3527768,25
3528384,19
3529012,18
3529636,19
3530260,40
3530888,59
3531508,57
3532136,48
3532760,47
3533384,57
3534012,56
3534632,65
3535260,66
3535892,60
3536512,76
3537140,74
3537764,46
3538396,23
3539024,26
3539648,15
3540276,10
3540900,20
3541524,49
3542156,56
3542776,55
3543408,53
3544028,19
3544652,23
3545284,32
3545904,35
3546532,31
3547164,39
3547784,48
3548416,45
3549036,32
3549668,52
3550300,70
3550920,82
3551552,70
3552176,61
3552800,57
3553428,39
3554048,26
3554676,12
3555300,11
3555928,19
3556556,16
3557176,28
3557808,46
3558436,52
3559056,56
3559684,55
3560312,63
3560940,33
3561572,19
3562192,16
3562824,11
3563448,10
3564072,17
3564700,13
3565320,22
3565948,25
3566576,78
3567200,87
3567828,109
3568504,125
3569188,112
3569868,105
3570540,58
3571168,19
3571800,72
3572416,91
3573048,111
3573724,88
3574344,53
3574976,57
3575592,64
3576224,61
3576856,58
3577472,58
3578104,47
3578728,22
3579360,11
3579992,16
3580612,44
3581244,63
3581868,57
3582496,31
3583124,57
3583744,68
3584376,66
3585000,57
3585624,41
3586252,56
3586872,73
3587500,72
3588132,32
3588752,25
3589380,13
3590004,16
3590636,17
3591264,50
3591888,52
3592516,52
3593140,53
3593764,33
3594396,14
3595016,12
3595648,14
3596272,17
3596896,32
3597524,39
3598148,41
3598780,48
3599408,48
3600032,51
3600660,68
3601284,71
3601912,69
3602544,51
3603164,65
3603792,71
3604420,39
3605044,11
3605672,25
3606288,39
3606916,30
3607540,23
3608164,50
3608792,53
3609416,56
3610048,58
3610676,27
3611296,29
3611924,25
3612548,26
3613180,41
3613808,51
3614424,62
3615056,57
3615680,38
3616304,52
3616932,66
3617552,71
3618180,71
3618804,74
3619428,81
3620056,89
3620680,79
3621312,47
3621940,22
3622560,14
3623188,40
3623812,43
3624444,46
3625072,52
3625688,55
3626320,55
3626944,55
3627564,47
3628196,45
3628816,33
3629444,18
3630068,29
3630692,40
3631324,72
3631948,91
3632580,55
3633208,58
3633832,71
3634464,65
3635088,63
3635716,52
3636348,72
3636968,79
3637596,72
3638220,49
3638844,47
3639476,32
3640096,18
3640724,36
3641356,58
3641976,54
3642604,51
3643228,53
3643860,29
3644488,38
3645112,48
3645744,33
3646368,16
3646992,66
3647620,86
3648240,57
3648868,25
3649492,55
3650116,67
3650744,61
3651360,63
3651992,45
3652620,11
3653240,16
3653868,23
3654492,45
3655124,67
3655752,85
3656376,116
3657056,77
3657680,46
3658304,59
3658932,58
3659552,59
3660184,60
3660812,12
3661432,13
3662060,13
3662684,19
3663316,12
3663948,14
3664568,34
3665196,47
3665824,33
3666448,52
3667076,55
3667696,59
3668324,57
3668948,15
3669572,15
3670204,35
3670824,43
3671456,25
3672084,26
3672704,16
3673336,19
3673960,18
3674588,45
3675220,49
3675840,54
3676472,56
3677096,37
3677720,40
3678352,31
3678968,13
3679600,11
3680224,20
3680848,33
3681476,17
3682096,15
3682724,71
3683356,118
3684028,125
3684704,132
3685388,113
3686060,63
3686688,20
3687308,18
3687940,12
3688568,31
3689184,36
3689812,50
3690436,77
3691060,80
3691688,99
3692304,89
3692936,64
3693560,55
3694184,11
3694812,13
3695436,11
3696064,11
3696696,16
3697312,27
3697940,36
3698564,59
3699192,63
3699824,54
3700448,64
3701076,60
3701700,52
3702328,51
3702956,60
3703576,78
3704208,75
3704836,36
3705456,19
3706088,13
3706708,16
3707340,20
3707972,48
3708592,60
3709224,57
3709848,57
3710472,25
3711100,14
3711720,21
3712352,16
3712976,23
3713596,55
3714228,66
3714848,56
3715476,59
3716108,50
3716728,63
3717356,68
3717984,69
3718612,67
3719244,71
3719864,86
3720492,68
3721116,18
3721740,12
3722372,28
3722992,12
3723620,23
3724248,37
3724872,52
3725500,62
3726120,71
3726752,76
3727380,91
3728000,103
3728680,77
3729296,50
3729924,48
3730556,40
3731176,64
3731808,64
3732432,33
3733056,62
3733688,76
3734304,69
3734936,72
3735564,78
3736184,102
3736864,112
3737540,78
3738160,33
3738792,34
3739412,21
3740040,11
3740664,36
3741288,62
3741916,53
3742544,57
3743172,67
3743804,44
3744424,38
3745052,35
3745676,27
3746308,17
3746940,26
3747560,50
3748192,39
3748816,32
3749440,53
3750068,78
3750688,95
3751316,82
3751948,45
3752568,21
3753196,25
3753824,13
3754452,23
3755084,11
3755704,14
3756336,16
3756960,29
3757584,71
3758216,65
3758832,52
3759464,54
3760088,64
3760712,89
3761340,72
3761960,45
3762592,13
3763220,10
3763840,20
3764468,13
3765092,13
3765724,16
3766356,74
3766976,97
3767608,106
3768284,101
3768956,98
3769584,78
3770208,45
3770836,12
3771468,46
3772088,55
3772716,82
3773344,124
3774020,68
3774648,46
3775264,57
3775896,60
3776528,75
3777144,85
3777772,53
3778400,29
3779028,29
3779660,34
3780280,37
3780908,30
3781536,20
3782160,34
3782788,50
3783408,61
3784040,72
3784664,82
3785288,71
3785916,48
3786536,58
3787168,67
3787800,51
3788416,29
3789048,41
3789672,21
3790300,11
3790932,48
3791552,52
3792184,56
3792808,54
3793428,53
3794060,14
3794680,16
3795308,12
3795932,12
3796560,12
3797188,24
3797808,59
3798440,66
3799068,39
3799688,65
3800320,79
3800940,85
3801572,87
3802204,106
3802876,91
3803504,85
3804128,74
3804752,40
3805384,19
3806000,81
3806632,107
3807316,45
3807936,49
3808568,63
3809196,64
3809820,63
3810448,84
3811072,58
3811704,17
3812328,22
3812952,26
3813584,16
3814200,29
3814832,35
3815464,31
3816084,56
3816712,79
3817340,77
3817968,65
3818600,72
3819220,74
3819852,57
3820476,28
3821100,15
3821732,35
3822352,15
3822984,11
3823608,11
3824232,50
3824864,57
3825488,59
3826120,55
3826748,58
3827368,35
3828000,18
3828624,11
3829256,17
3829888,18
3830504,32
3831136,92
3831760,111
3832436,88
3833064,51
3833688,55
3834320,66
3834948,74
3835568,72
3836200,57
3836824,48
3837448,51
3838080,30
3838700,20
3839332,31
3839956,67
3840584,63
3841212,48
3841832,52
3842460,53
3843092,54
3843712,25
3844340,18
3844964,15
3845596,11
3846224,13
3846844,26
3847472,40
3848096,16
3848720,30
3849348,88
3849968,107
3850648,96
3851276,67
3851896,55
3852524,66
3853148,70
3853780,50
3854408,18
3855024,43
3855656,71
3856280,80
3856904,48
3857532,48
3858152,69
3858780,62
3859408,63
3860032,55
3860660,60
3861280,93
3861908,75
3862540,34
3863160,31
3863792,67
3864416,84
3865044,51
3865676,29
3866296,55
3866924,69
3867548,73
3868172,83
3868804,90
3869424,87
3870052,82
3870680,69
3871304,48
3871936,15
3872552,31
3873184,59
3873816,49
3874432,58
3875064,75
3875688,89
3876316,63
3876948,34
3877568,18
3878200,15
3878824,11
3879448,11
3880076,29
3880696,53
3881328,36
3881952,34
3882576,49
3883204,72
3883824,85
3884456,81
3885084,77
3885704,77
3886336,88
3886960,63
3887592,42
3888220,15
3888840,15
3889468,33
3890096,29
3890720,24
3891352,56
3891968,57
3892596,59
3893220,59
3893844,23
3894476,18
3895096,16
3895724,24
3896356,49
3896976,77
3897604,108
3898280,84
3898896,38
3899524,52
3900144,70
3900776,73
3901400,67
3902024,71
3902656,87
3903272,90
3903904,97
3904536,64
3905152,47
3905784,37
3906408,15
3907036,28
3907668,62
3908288,63
3908920,55
3909544,58
3910168,49
3910800,11
3911416,14
3912048,17
3912672,70
3913296,125
3913976,148
3914652,134
3915324,108
3916004,59
3916624,57
3917256,58
3917888,60
3918504,52
3919136,41
3919760,52
3920392,65
3921020,59
3921640,57
3922268,54
3922896,33
3923520,41
3924148,82
3924768,91
3925400,73
3926028,58
3926648,56
3927280,49
3927904,63
3928532,76
3929164,81
3929784,90
3930416,96
3931040,81
3931664,43
3932296,16
3932912,81
3933540,84
3934164,70
3934788,60
3935420,40
3936040,43
3936668,48
3937296,60
3937920,42
3938548,20
3939172,11
3939804,48
3940432,56
3941056,48
3941688,57
3942312,54
3942936,59
3943564,31
3944184,17
3944812,11
3945436,16
3946060,16
3946692,11
3947312,36
3947944,64
3948572,58
3949192,49
3949820,80
3950448,89
3951076,77
3951708,64
3952328,53
3952956,75
3953584,49
3954208,29
3954836,32
3955456,52
3956084,72
3956708,56
3957332,21
3957964,54
3958584,58
3959212,60
3959844,58
3960464,26
3961092,11
3961720,14
3962348,23
3962980,12
3963600,28
3964228,35
3964856,27
3965480,15
3966108,66
3966728,83
3967360,80
3967984,64
3968608,38
3969240,26
3969864,33
3970492,33
3971124,26
3971744,27
3972376,18
3973000,41
3973628,38
3974260,54
3974880,57
3975508,56
3976132,55
3976756,60
3977388,48
3978008,38
3978636,22
3979260,19
3979888,54
3980520,75
3981144,95
3981772,82
3982404,44
3983024,70
3983656,79
3984280,82
3984904,76
3985532,58
3986152,61
3986784,41
3987408,37
3988032,30
3988664,31
3989280,13
3989908,27
3990540,18
3991160,47
3991792,59
3992416,57
3993048,56
3993676,24
3994296,12
3994924,16
3995548,13
3996172,11
3996804,11
3997424,15
3998056,21
3998680,40
3999304,91
3999936,104
4000608,76
4001228,64
4001860,42
4002480,37
4003108,35
4003732,11
4004360,73
4004988,94
4005608,62
4006236,46
4006860,30
4007484,46
4008112,54
4008736,56
4009364,54
4009996,58
4010616,24
4011244,12
4011868,22
4012500,11
4013128,19
4013752,54
4014384,95
4015008,115
4015684,103
4016360,57
4016984,60
4017612,73
4018240,83
4018864,93
4019492,89
4020116,79
4020740,67
4021372,24
4021992,10
4022620,17
4023244,13
4023868,27
4024500,54
4025120,53
4025748,57
4026380,62
4027000,49
4027628,39
4028252,17
4028884,11
4029512,10
4030136,18
4030764,57
4031392,59
4032016,73
4032644,58
4033264,54
4033892,68
4034516,78
4035144,76
4035772,71
4036392,79
4037024,68
4037652,38
4038272,18
4038904,48
4039528,19
4040156,11
4040788,48
4041408,56
4042040,56
4042664,55
4043288,59
4043916,28
4044536,37
4045168,52
4045788,43
4046412,37
4047044,28
4047664,27
4048292,38
4048924,38
4049544,57
4050176,71
4050800,75
4051428,65
4052060,54
4052680,58
4053308,47
4053936,30
4054560,20
4055188,39
4055808,31
4056436,48
4057064,28
4057688,48
4058316,52
4058936,59
4059564,59
4060196,28
4060816,16
4061444,11
4062068,12
4062700,10
4063332,20
4063952,50
4064584,65
4065208,59
4065832,56
4066460,80
4067080,81
4067712,85
4068336,91
4068960,100
4069640,113
4070316,109
4070988,48
4071616,19
4072232,64
4072864,78
4073492,52
4074112,47
4074744,56
4075368,60
4076000,60
4076628,63
4077248,58
4077880,51
4078504,28
4079128,23
4079760,35
4080376,39
4081008,39
4081632,31
4082256,17
4082884,77
4083504,72
4084136,71
4084764,78
4085384,87
4086016,64
4086640,60
4087268,52
4087900,20
4088520,11
4089152,12
4089776,11
4090400,35
4091032,50
4091648,55
4092280,59
4092904,65
4093528,58
4094160,50
4094780,36
4095408,17
4096040,10
4096660,28
4097288,57
4097908,61
4098536,45
4099164,52
4099784,81
4100412,95
4101036,95
4101656,73
4102284,38
4102904,26
4103532,26
4104152,11
4104776,35
4105404,69
4106024,96
4106652,71
4107280,25
4107896,56
4108524,57
4109148,57
4109776,59
4110404,21
4111024,22
4111652,12
4112276,10
4112900,18
4113528,16
4114152,27
4114780,23
4115404,26
4116028,50
4116656,71
4117272,68
4117904,62
4118528,48
4119152,71
4119780,79
4120404,63
4121032,24
4121660,22
4122276,11
4122908,49
4123528,57
4124160,51
4124788,55
4125408,56
4126036,59
4126660,54
4127284,25
4127912,21
4128536,13
4129164,13
4129788,30
4130416,29
4131044,21
4131668,27
4132296,36
4132924,57
4133544,61
4134172,60
4134796,61
4135428,56
4136056,56
4136680,53
4137308,57
4137932,51
4138556,38
4139184,14
4139808,18
4140436,17
4141068,45
4141688,53
4142316,63
4142940,64
4143572,40
4144200,49
4144816,59
4145448,46
4146072,37
4146696,39
4147324,44
4147944,31
4148572,31
4149196,60
4149820,66
4150448,63
4151064,58
4151696,47
4152324,36
4152944,59
4153572,70
4154196,56
4154828,33
4155460,20
4156080,16
4156708,12
4157332,50
4157960,65
4158588,60
4159208,66
4159836,66
4160464,25
4161084,25
4161712,18
4162332,16
4162960,59
4163584,118
4164260,170
4164936,177
4165604,108
4166276,55
4166900,63
4167524,68
4168156,75
4168784,83
4169400,98
4170028,91
4170652,72
4171276,46
4171904,42
4172528,17
4173156,33
4173780,21
4174404,56
4175032,53
4175652,59
4176280,55
4176908,62
4177528,63
4178156,52
4178780,26
4179408,23
4180036,28
4180656,46
4181284,57
4181908,51
4182536,53
4183164,80
4183784,86
4184412,83
4185036,69
4185660,63
4186288,50
4186904,52
4187536,49
4188160,37
4188784,19
4189412,11
4190036,21
4190668,44
4191296,53
4191916,58
4192544,57
4193168,55
4193800,39
4194428,31
4195048,34
4195676,70
4196300,105
4196976,72
4197604,41
4198228,40
4198860,34
4199488,56
4200112,59
4200740,73
4201364,87
4201988,97
4202620,98
4203240,91
4203868,84
4204492,54
4205116,30
4205744,26
4206364,63
4206992,51
4207620,57
4208240,79
4208868,83
4209492,70
4210120,43
4210752,25
4211368,11
4212000,11
4212620,10
4213252,16
4213880,36
4214504,33
4215132,30
4215756,49
4216380,60
4217012,65
4217632,61
4218260,58
4218892,55
4219512,92
4220140,98
4220764,61
4221396,11
4222028,19
4222648,33
4223276,24
4223904,29
4224528,55
4225156,54
4225776,58
4226404,57
4227028,33
4227652,21
4228280,20
4228904,25
4229532,40
4230160,44
4230784,56
4231412,51
4232036,44
4232664,54
4233296,68
4233912,76
4234544,71
4235168,67
4235792,58
4236424,70
4237040,66
4237668,37
4238292,17
4238916,10
4239548,28
4240168,21
4240796,51
4241428,54
4242048,59
4242676,61
4243300,57
4243932,48
4244560,31
4245176,18
4245808,12
4246432,16
4247052,33
4247684,30
4248304,30
4248936,35
4249560,71
4250184,97
4250812,100
4251484,94
4252108,76
4252740,67
4253360,48
4253988,31
4254616,19
4255240,11
4255868,49
4256488,80
4257116,55
4257740,67
4258364,80
4258996,64
4259616,58
4260244,16
4260876,24
4261496,28
4262124,15
4262748,18
4263376,28
4264004,58
4264624,60
4265252,48
4265876,48
4266500,69
4267132,83
4267752,76
4268380,50
4269004,51
4269628,77
4270260,80
4270880,37
4271508,13
4272140,10
4272760,26
4273388,37
4274012,47
4274644,54
4275272,54
4275888,57
4276520,58
4277140,23
4277764,17
4278396,26
4279016,38
4279648,47
4280272,50
4280896,52
4281524,56
4282144,42
4282772,56
4283404,62
4284024,73
4284652,79
4285276,70
4285908,70
4286540,81
4287160,91
4287792,58
4288416,56
4289040,42
4289668,18
4290288,24
4290916,50
4291540,59
4292164,63
4292796,56
4293416,31
4294044,81
4294676,98
4295296,71
4295928,77
4296552,88
4297180,86
4297812,71
4298432,44
4299060,53
4299688,64
4300312,61
4300944,62
4301560,60
4302188,69
4302812,111
4303488,116
4304160,76
4304784,17
4305412,28
4306044,79
4306664,78
4307292,55
4307916,73
4308540,77
4309168,61
4309792,55
4310420,12
4311052,10
4311672,13
4312300,24
4312928,45
4313556,57
4314188,42
4314808,24
4315436,18
4316064,62
4316688,83
4317316,90
4317936,69
4318568,47
4319192,58
4319816,79
4320448,59
4321064,26
4321692,23
4322324,16
4322944,14
4323572,17
4324196,48
4324828,56
4325456,60
4326072,61
4326704,49
4327328,53
4327952,48
4328580,29
4329200,20
4329828,30
4330452,61
4331076,53
4331708,34
4332328,54
4332956,66
4333588,74
4334208,91
4334836,90
4335460,88
4336092,81
4336724,61
4337344,21
4337972,15
4338600,10
4339224,14
4339852,18
4340472,25
4341104,55
4341728,55
4342352,57
4342984,58
4343600,18
4344228,19
4344860,48
4345480,75
4346112,93
4346736,112
4347416,101
4348092,58
4348712,22
4349344,69
4349972,80
4350592,77
4351224,77
4351848,68
4352480,58
4353108,50
4353728,52
4354356,37
4354980,33
4355604,15
4356232,22
4356856,17
4357484,51
4358108,53
4358732,58
4359364,59
4359984,35
4360616,11
4361244,16
4361864,15
4362492,13
4363116,44
4363748,58
4364376,48
4364996,38
4365624,49
4366248,63
4366872,77
4367500,68
4368120,63
4368748,32
4369372,11
4369996,10
4370624,11
4371248,11
4371876,11
4372508,14
4373128,20
4373756,19
4374384,50
4375012,57
4375644,56
4376264,56
4376896,25
4377520,21
4378144,19
4378772,21
4379392,36
4380024,42
4380648,46
4381272,42
4381900,21
4382520,62
4383152,81
4383780,83
4384400,73
4385028,69
4385652,64
4386284,64
4386912,60
4387532,43
4388160,17
4388784,17
4389408,48
4390040,34
4390656,50
4391288,60
4391912,60
4392536,59
4393168,54
4393784,29
4394412,35
4395044,34
4395664,33
4396296,40
4396920,60
4397548,68
4398180,78
4398800,57
4399432,64
4400056,80
4400680,85
4401308,64
4401928,38
4402556,40
4403184,45
4403808,47
4404440,22
4405064,15
4405692,11
4406324,20
4406944,19
4407572,48
4408200,53
4408828,54
4409456,57
4410080,27
4410708,22
4411332,28
4411960,30
4412588,18
4413208,19
4413840,30
4414464,30
4415088,46
4415720,51
4416344,57
4416972,59
4417604,64
4418224,60
4418852,59
4419476,72
4420104,73
4420732,51
4421352,23
4421984,17
4422608,12
4423232,21
4423864,54
4424480,58
4425108,56
4425740,58
4426360,56
4426988,38
4427612,43
4428244,33
4428872,42
4429496,66
4430124,81
4430748,78
4431372,73
4432004,47
4432624,63
4433252,76
4433880,80
4434504,79
4435132,76
4435752,61
4436384,49
4437012,17
4437632,27
4438264,18
4438888,11
4439516,25
4440148,16
4440768,51
4441400,54
4442024,57
4442648,60
4443276,46
4443896,41
4444528,40
4445152,43
4445776,45
4446404,48
4447024,48
4447656,42
4448284,44
4448904,51
4449532,85
4450156,105
4450840,85
4451464,67
4452084,49
4452712,84
4453336,81
4453960,27
4454592,23
4455208,28
4455836,43
4456468,38
4457088,27
4457716,52
4458344,56
4458972,60
4459604,56
4460224,14
4460856,24
4461480,27
4462104,21
4462732,63
4463352,54
4463984,41
4464608,28
4465236,21
4465864,48
4466484,57
4467112,64
4467744,65
4468364,60
4468992,61
4469620,82
4470248,85
4470880,43
4471496,13
4472128,13
4472752,35
4473376,23
4474008,53
4474624,56
4475256,59
4475880,60
4476504,48
4477136,23
4477752,39
4478384,55
4479016,14
4479640,27
4480272,66
4480896,99
4481524,95
4482156,51
4482776,69
4483404,69
4484028,66
4484652,56
4485284,12
4485904,11
4486532,18
4487156,53
4487780,86
4488408,81
4489032,82
4489664,67
4490292,23
4490912,48
4491540,57
4492168,56
4492796,56
4493428,16
4494048,11
4494676,11
4495304,13
4495928,11
4496556,16
4497176,48
4497804,51
4498432,28
4499056,55
4499688,75
4500312,75
4500944,69
4501572,66
4502192,65
4502824,72
4503448,79
4504072,48
4504704,34
4505320,34
4505952,12
4506576,13
4507196,52
4507828,56
4508448,58
4509076,56
4509708,58
4510328,46
4510956,51
4511584,35
4512212,19
4512840,47
4513464,71
4514092,79
4514716,73
4515340,36
4515972,62
4516592,71
4517220,70
4517844,69
4518468,61
4519100,73
4519720,80
4520348,78
4520980,57
4521600,48
4522228,17
4522852,27
4523484,19
4524112,45
4524736,56
4525368,56
4525992,61
4526616,38
4527244,28
4527864,27
4528496,34
4529120,49
4529740,98
4530372,123
4531044,74
4531672,38
4532300,56
4532920,85
4533548,100
4534228,95
4534848,94
4535480,78
4536096,65
4536728,52
4537356,29
4537976,16
4538604,12
4539232,27
4539860,27
4540492,48
4541112,57
4541744,57
4542368,60
4542992,57
4543624,31
4544244,47
4544872,45
4545496,44
4546120,70
4546752,76
4547368,93
4547996,83
4548628,54
4549248,53
4549876,59
4550504,63
4551132,60
4551764,48
4552384,59
4553012,87
4553640,103
4554316,86
4554944,83
4555560,78
4556192,49
4556824,52
4557440,65
4558068,57
4558696,53
4559324,59
4559956,44
4560576,75
4561208,115
4561884,161
4562556,156
4563236,133
4563908,104
4564580,59
4565204,26
4565828,58
4566460,86
4567092,94
4567712,97
4568344,88
4568964,74
4569596,79
4570228,75
4570848,41
4571480,24
4572104,18
4572728,18
4573360,18
4573976,47
4574608,54
4575240,56
4575856,60
4576488,52
4577112,50
4577744,43
4578372,34
4578992,30
4579624,45
4580248,55
4580872,40
4581504,31
4582120,47
4582752,64
4583376,68
4584004,73
4584632,76
4585252,76
4585884,82
4586512,62
4587136,34
4587768,10
4588392,11
4589020,17
4589652,26
4590272,21
4590900,53
4591528,53
4592152,56
4592780,59
4593400,55
4594028,57
4594656,30
4595280,20
4595908,38
4596528,55
4597156,59
4597788,40
4598408,32
4599036,50
4599664,68
4600292,90
4600924,91
4601544,74
4602176,63
4602800,81
4603424,80
4604056,30
4604672,10
4605304,22
4605928,48
4606552,51
4607184,54
4607804,59
4608436,60
4609064,59
4609680,56
4610308,19
4610932,13
4611560,11
4612188,11
4612808,17
4613436,40
4614060,56
4614684,56
4615312,31
4615932,67
4616560,85
4617184,83
4617808,78
4618436,51
4619056,48
4619684,58
4620316,34
4620936,12
4621564,17
4622188,27
4622820,31
4623448,17
4624068,47
4624696,53
4625320,61
4625944,57
4626572,27
4627192,28
4627824,25
4628448,14
4629072,21
4629700,30
4630320,57
4630952,60
4631580,43
4632200,50
4632828,64
4633452,69
4634084,71
4634716,69
4635336,59
4635968,63
4636592,70
4637216,64
4637844,44
4638464,29
4639092,13
4639720,15
4640344,32
4640972,55
4641592,56
4642220,55
4642852,58
4643472,60
4644100,53
4644724,39
4645356,35
4645984,38
4646608,34
4647236,41
4647860,60
4648484,57
4649116,56
4649736,64
4650364,67
4650988,66
4651612,53
4652244,35
4652868,48
4653496,75
4654128,50
4654744,27
4655372,10
4655996,40
4656628,45
4657260,46
4657880,52
4658512,55
4659136,56
4659760,44
4660392,21
4661008,17
4661636,10
4662260,10
4662888,25
4663516,53
4664140,60
4664772,61
4665404,52
4666024,55
4666652,72
4667280,71
4667908,61
4668540,33
4669160,63
4669792,85
4670416,72
4671040,40
4671668,16
4672288,22
4672916,21
4673548,35
4674168,59
4674796,56
4675424,56
4676052,56
4676684,16
4677304,19
4677932,17
4678556,12
4679184,21
4679812,71
4680432,123
4681112,110
4681796,57
4682416,51
4683044,63
4683668,67
4684296,67
4684924,63
4685544,59
4686172,64
4686796,61
4687424,34
4688052,18
4688672,12
4689300,29
4689932,24
4690552,50
4691180,56
4691808,55
4692436,59
4693068,52
4693688,47
4694320,32
4694944,18
4695568,12
4696200,14
4696816,36
4697448,62
4698072,75
4698696,53
4699328,74
4699944,81
4700576,83
4701208,82
4701824,81
4702456,86
4703080,83
4703712,54
4704344,11
4704960,11
4705592,27
4706216,48
4706840,26
4707472,52
4708092,55
4708720,57
4709348,60
4709972,41
4710604,40
4711224,15
4711852,10
4712484,26
4713104,51
4713736,76
4714360,66
4714988,43
4715620,56
4716240,71
4716872,75
4717496,73
4718120,70
4718752,65
4719368,61
4720000,62
4720624,42
4721248,21
4721876,11
4722500,41
4723132,38
4723764,48
4724384,55
4725016,56
4725640,58
4726268,56
4726900,28
4727520,23
4728152,24
4728776,29
4729400,42
4730032,35
4730648,29
4731280,37
4731912,38
4732528,57
4733160,75
4733784,97
4734416,72
4735044,39
4735664,42
4736296,54
4736920,59
4737544,24
4738172,15
4738792,13
4739424,31
4740048,21
4740672,45
4741300,57
4741920,57
4742552,54
4743180,30
4743800,29
4744432,21
4745056,25
4745684,41
4746316,48
4746936,58
4747568,51
4748192,41
4748816,54
4749444,66
4750064,75
4750696,62
4751320,58
4751944,49
4752576,68
4753196,57
4753828,33
4754456,15
4755080,13
4755712,25
4756336,16
4756968,41
4757596,55
4758216,57
4758848,55
4759472,60
4760096,24
4760724,42
4761344,50
4761976,38
4762600,27
4763224,45
4763852,62
4764472,51
4765104,52
4765732,54
4766352,57
4766984,63
4767608,61
4768240,59
4768868,76
4769488,85
4770116,75
4770744,38
4771368,11
4772000,10
4772616,28
4773248,17
4773872,51
4774496,54
4775124,60
4775752,64
4776380,49
4777012,37
4777632,32
4778260,33
4778888,32
4779516,43
4780148,48
4780768,43
4781400,44
4782028,47
4782652,68
4783284,70
4783904,67
4784536,74
4785168,74
4785788,85
4786416,79
4787044,57
4787676,24
4788304,11
4788928,21
4789560,25
4790184,22
4790808,52
4791440,56
4792060,60
4792688,54
4793316,21
4793940,13
4794572,10
4795192,11
4795824,13
4796456,13
4797076,20
4797708,21
4798332,27
4798964,47
4799596,56
4800220,61
4800848,61
4801472,39
4802096,41
4802724,14
4803344,12
4803972,15
4804596,10
4805220,11
4805852,22
4806476,20
4807104,53
4807736,55
4808352,56
4808980,57
4809604,57
4810236,28
4810864,19
4811488,11
4812120,11
4812744,15
4813368,39
4814000,45
4814616,42
4815244,40
4815868,64
4816496,71
4817124,71
4817748,71
4818380,63
4819008,51
4819632,46
4820260,39
4820884,16
4821508,11
4822140,18
4822760,44
4823388,31
4824016,48
4824640,58
4825268,59
4825888,57
4826516,23
4827148,18
4827768,19
4828400,16
4829024,21
4829652,32
4830284,46
4830904,43
4831536,34
4832160,54
4832784,71
4833416,85
4834032,70
4834660,53
4835284,32
4835908,37
4836540,38
4837160,20
4837788,15
4838420,13
4839040,25
4839668,41
4840292,45
4840924,55
4841552,56
4842176,58
4842808,57
4843432,18
4844056,23
4844684,13
4845304,11
4845932,16
4846560,31
4847184,50
4847812,76
4848432,63
4849064,52
4849692,60
4850312,61
4850944,56
4851568,31
4852200,75
4852828,94
4853448,91
4854080,54
4854704,43
4855328,29
4855960,11
4856576,15
4857208,52
4857832,52
4858456,60
4859088,63
4859704,79
4860336,79
4860968,63
4861584,44
4862216,19
4862840,21
4863472,56
4864104,71
4864720,58
4865348,50
4865972,84
4866596,90
4867228,91
4867848,86
4868476,96
4869100,96
4869728,75
4870356,53
4870984,31
4871612,13
4872244,42
4872864,79
4873496,54
4874120,54
4874752,57
4875380,66
4876000,71
4876632,44
4877256,21
4877880,11
4878508,13
4879128,38
4879760,48
4880388,44
4881008,36
4881636,18
4882260,74
4882892,85
4883524,78
4884144,61
4884776,51
4885400,55
4886024,75
4886652,76
4887272,29
4887904,17
4888528,19
4889152,25
4889784,21
4890400,48
4891028,53
4891660,53
4892280,55
4892912,45
4893536,26
4894164,30
4894796,36
4895416,46
4896048,67
4896668,78
4897292,64
4897924,50
4898544,40
4899176,63
4899800,76
4900424,74
4901056,67
4901676,58
4902308,69
4902940,78
4903560,71
4904192,44
4904816,37
4905448,17
4906076,10
4906696,26
4907328,52
4907952,53
4908576,53
4909208,54
4909832,28
4910464,39
4911088,64
4911712,86
4912344,85
4912972,63
4913604,53
4914232,46
4914860,27
4915492,52
4916112,75
4916740,76
4917372,70
4917992,71
4918620,76
4919244,72
4919868,50
4920500,12
4921120,12
4921748,15
4922376,34
4923000,32
4923628,51
4924252,55
4924884,59
4925512,57
4926132,57
4926760,37
4927384,48
4928008,34
4928636,18
4929256,29
4929884,49
4930508,85
4931132,108
4931816,69
4932432,63
4933060,67
4933692,66
4934312,67
4934944,72
4935568,82
4936196,75
4936828,54
4937448,33
4938076,31
4938700,24
4939324,11
4939956,16
4940576,47
4941208,64
4941836,58
4942456,56
4943084,29
4943708,26
4944340,22
4944972,16
4945592,21
4946224,47
4946848,85
4947472,70
4948100,46
4948720,52
4949348,64
4949976,79
4950600,79
4951228,88
4951848,93
4952480,96
4953108,90
4953728,68
4954356,42
4954984,16
4955612,36
4956244,33
4956864,38
4957492,55
4958116,56
4958744,63
4959372,66
4959992,62
4960624,55
4961248,33
4961872,17
4962500,30
4963120,37
4963752,41
4964380,43
4965000,32
4965632,61
4966256,77
4966884,80
4967516,74
4968136,73
4968764,76
4969388,87
4970012,78
4970644,30
4971264,16
4971892,34
4972520,63
4973144,47
4973772,51
4974392,57
4975024,59
4975652,61
4976272,42
4976904,40
4977528,23
4978156,11
4978788,10
4979408,31
4980036,51
4980660,52
4981284,42
4981916,48
4982536,82
4983164,72
4983792,61
4984416,61
4985044,57
4985672,56
4986300,52
4986932,42
4987552,23
4988184,21
4988808,11
4989436,11
4990068,30
4990688,52
4991320,56
4991944,56
4992572,53
4993204,22
4993824,30
4994452,47
4995084,29
4995704,43
4996336,67
4996960,93
4997592,85
4998220,52
4998840,52
4999468,53
5000092,61
5000716,59
5001348,58
5001968,65
5002596,78
5003224,78
5003848,55
5004476,32
5005096,15
5005724,15
5006356,15
5006976,50
5007608,54
5008232,56
5008860,58
5009492,52
5010112,19
5010744,17
5011368,25
5011992,35
5012624,49
5013240,63
5013872,61
5014496,51
5015120,36
5015752,60
5016372,70
5017000,69
5017632,59
5018252,40
5018880,53
5019504,83
5020132,77
5020764,42
5021384,32
5022016,12
5022640,13
5023264,36
5023896,57
5024516,60
5025144,57
5025768,58
5026392,63
5027024,90
5027644,78
5028272,48
5028904,36
5029524,48
5030152,71
5030776,70
5031408,67
5032040,49
5032656,59
5033288,67
5033912,79
5034536,85
5035168,72
5035788,63
5036420,70
5037044,69
5037668,61
5038300,46
5038924,23
5039556,46
5040188,48
5040808,57
5041436,57
5042064,55
5042692,54
5043324,35
5043944,30
5044576,27
5045200,41
5045824,51
5046452,46
5047072,47
5047704,48
5048332,37
5048952,60
5049584,64
5050208,64
5050840,66
5051472,72
5052088,78
5052720,75
5053344,60
5053972,26
5054604,16
5055224,12
5055856,34
5056480,25
5057104,47
5057736,54
5058356,54
5058988,54
5059616,33
5060240,27
5060872,23
5061496,19
5062128,17
5062756,36
5063376,55
5064008,49
5064632,45
5065256,53
5065888,62
5066508,67
5067136,64
5067764,77
5068388,76
5069020,76
5069648,77
5070276,54
5070908,30
5071528,14
5072160,29
5072784,35
5073416,33
5074048,54
5074664,57
5075296,57
5075920,60
5076544,61
5077176,67
5077796,43
5078428,28
5079056,36
5079680,40
5080312,47
5080936,53
5081568,34
5082200,58
5082816,80
5083448,80
5084072,85
5084696,85
5085328,91
5085944,78
5086576,41
5087200,11
5087824,14
5088456,19
5089076,44
5089704,30
5090336,52
5090956,53
5091588,55
5092212,58
5092844,43
5093476,36
5094096,42
5094728,44
5095352,34
5095976,37
5096608,51
5097228,56
5097860,49
5098484,46
5099108,71
5099740,79
5100368,72
5101000,63
5101628,42
5102248,71
5102880,82
5103504,49
5104136,13
5104768,10
5105388,24
5106020,27
5106644,19
5107268,50
5107900,56
5108520,56
5109152,57
5109784,19
5110408,16
5111040,11
5111664,19
5112296,19
5112928,12
5113548,45
5114180,54
5114808,51
5115432,49
5116068,65
5116692,70
5117324,58
5117948,24
5118580,35
5119212,69
5119840,73
5120472,36
5121100,11
5121720,23
5122348,36
5122972,20
5123592,54
5124220,59
5124840,53
5125468,57
5126088,61
5126712,36
5127340,29
5127960,20
5128588,17
5129212,38
5129840,63
5130468,67
5131092,51
5131720,32
5132352,72
5132968,89
5133596,81
5134220,63
5134852,47
5135480,54
5136104,43
5136732,25
5137356,11
5137980,12
5138608,16
5139224,29
5139856,17
5140480,46
5141104,57
5141732,59
5142356,61
5142988,46
5143616,38
5144240,21
5144868,12
5145492,12
5146120,17
5146748,32
5147368,28
5147996,47
5148620,53
5149248,65
5149876,68
5150496,66
5151128,55
5151756,51
5152376,59
5153004,60
5153628,42
5154256,22
5154888,12
5155504,27
5156136,41
5156760,41
5157384,55
5158016,62
5158632,62
5159260,58
5159884,31
5160512,34
5161140,14
5161760,13
5162388,22
5163016,33
5163640,42
5164268,44
5164892,27
5165520,66
5166152,72
5166772,79
5167400,69
5168024,56
5168648,52
5169276,57
5169896,67
5170528,52
5171152,34
5171776,13
5172404,35
5173024,42
5173652,56
5174284,62
5174904,57
5175532,59
5176160,41
5176788,39
5177420,48
5178040,36
5178668,25
5179292,34
5179920,53
5180548,53
5181168,42
5181800,47
5182420,70
5183048,88
5183676,78
5184296,73
5184928,38
5185556,54
5186176,62
5186804,45
5187428,20
5188060,10
5188688,28
5189312,31
5189944,19
5190568,55
5191192,58
5191820,59
5192440,59
5193068,33
5193692,29
5194316,24
5194948,16
5195568,25
5196200,28
5196828,42
5197448,42
5198076,29
5198700,56
5199332,79
5199964,72
5200584,70
5201216,55
5201840,58
5202464,73
5203092,61
5203712,33
5204340,17
5204964,13
5205588,22
5206220,28
5206840,51
5207468,52
5208100,62
5208720,63
5209348,59
5209976,38
5210604,46
5211236,40
5211856,12
5212488,11
5213112,46
5213736,69
5214368,62
5214984,40
5215616,67
5216240,72
5216864,81
5217492,69
5218116,64
5218748,51
5219380,45
5220000,61
5220628,35
5221256,26
5221884,11
5222516,14
5223136,24
5223764,47
5224388,54
5225012,58
5225644,58
5226264,30
5226892,28
5227516,26
5228144,21
5228776,22
5229400,45
5230028,76
5230660,75
5231280,54
5231912,53
5232536,64
5233160,75
5233792,75
5234408,78
5235040,61
5235664,52
5236288,44
5236916,44
5237536,50
5238168,37
5238796,11
5239416,18
5240048,43
5240672,56
5241300,57
5241932,59
5242552,60
5243184,33
5243808,35
5244428,55
5245060,66
5245680,79
5246308,75
5246932,85
5247556,71
5248188,28
5248804,65
5249432,78
5250064,77
5250680,72
5251308,67
5251928,67
5252560,78
5253188,78
5253808,52
5254436,41
5255056,29
5255684,13
5256312,20
5256936,48
5257564,57
5258188,57
5258812,57
5259440,36
5260064,17
5260692,19
5261324,30
5261944,22
5262572,47
5263196,71
5263828,76
5264456,88
5265080,57
5265708,62
5266332,68
5266956,71
5267584,69
5268200,63
5268832,80
5269452,81
5270076,73
5270708,30
5271328,11
5271956,27
5272588,32
5273208,21
5273836,49
5274460,56
5275092,58
5275720,59
5276340,25
5276968,28
5277592,29
5278216,25
5278844,22
5279464,37
5280092,61
5280716,67
5281340,59
5281968,49
5282584,59
5283212,64
5283836,69
5284464,59
5285092,54
5285716,68
5286344,67
5286976,49
5287592,32
5288220,13
5288844,22
5289472,25
5290104,49
5290720,56
5291348,57
5291972,57
5292596,57
5293228,31
5293848,23
5294476,13
5295100,12
5295728,36
5296356,50
5296980,53
5297612,54
5298240,37
5298856,59
5299488,70
5300112,79
5300740,83
5301372,67
5301992,63
5302624,73
5303248,71
5303868,46
5304500,30
5305120,18
5305748,17
5306380,30
5307000,45
5307628,53
5308252,57
5308884,56
5309512,34
5310132,37
5310764,35
5311388,37
5312012,46
5312640,66
5313256,85
5313884,81
5314512,73
5315136,54
5315764,72
5316384,81
5317012,75
5317644,71
5318264,70
5318896,70
5319520,70
5320148,57
5320780,44
5321400,28
5322028,18
5322656,26
5323280,31
5323908,54
5324528,60
5325160,60
5325780,59
5326404,25
5327032,27
5327648,48
5328280,62
5328908,46
5329528,33
5330156,58
5330780,54
5331408,32
5332036,60
5332656,79
5333284,74
5333908,77
5334536,73
5335164,62
5335784,59
5336412,49
5337036,21
5337660,15
5338288,14
5338904,47
5339536,47
5340164,50
5340784,55
5341412,57
5342036,56
5342668,52
5343296,42
5343920,32
5344552,18
5345176,13
5345800,24
5346428,46
5347048,46
5347676,45
5348300,42
5348924,59
5349556,62
5350176,69
5350808,71
5351436,56
5352056,65
5352684,76
5353308,68
5353940,31
5354568,10
5355192,26
5355824,37
5356448,22
5357072,49
5357700,59
5358320,58
5358952,59
5359576,33
5360200,35
5360828,22
5361448,19
5362076,31
5362708,27
5363328,45
5363956,56
5364580,53
5365212,47
5365840,61
5366464,69
5367092,69
5367716,74
5368340,66
5368968,70
5369592,75
5370224,58
5370848,28
5371472,18
5372100,14
5372720,19
5373352,47
5373980,55
5374600,54
5375232,57
5375856,61
5376488,66
5377116,66
5377736,37
5378364,19
5378988,27
5379612,30
5380240,41
5380864,47
5381492,29
5382116,65
5382740,75
5383368,81
5383992,75
5384620,68
5385252,58
5385872,45
5386500,45
5387124,20
5387756,10
5388384,15
5389004,35
5389632,20
5390256,46
5390880,56
5391508,56
5392128,59
5392756,37
5393380,28
5394004,21
5394636,15
5395256,15
5395884,32
5396516,57
5397136,53
5397764,45
5398388,53
5399020,73
5399652,70
5400272,68
5400904,70
5401528,75
5402152,83
5402780,82
5403400,54
5404028,18
5404656,11
5405280,24
5405908,39
5406532,32
5407164,52
5407796,56
5408416,57
5409044,58
5409668,13
5410296,11
5410924,34
5411544,51
5412172,44
5412796,28
5413420,34
5414052,40
5414672,47
5415300,49
5415924,53
5416552,60
5417180,57
5417804,57
5418436,68
5419064,81
5419680,69
5420312,43
5420936,29
5421564,18
5422196,24
5422816,35
5423444,55
5424072,56
5424696,56
5425324,56
5425944,50
5426572,11
5427200,13
5427820,16
5428452,11
5429076,17
5429704,53
5430336,66
5430956,65
5431584,56
5432212,58
5432840,65
5433468,67
5434088,73
5434716,65
5435344,73
5435968,72
5436596,49
5437216,28
5437848,13
5438476,28
5439096,39
5439728,19
5440352,50
5440980,56
5441608,57
5442224,58
5442856,27
5443480,17
5444100,10
5444732,12
5445352,25
5445980,43
5446604,67
5447228,72
5447860,54
5448480,49
5449108,59
5449736,60
5450360,63
5450988,54
5451612,60
5452240,75
5452872,79
5453488,59
5454116,40
5454740,29
5455364,11
5455996,20
5456616,45
5457244,57
5457868,63
5458492,57
5459124,57
5459744,27
5460372,20
5461004,22
5461624,27
5462252,46
5462876,54
5463508,60
5464140,58
5464760,32
5465392,59
5466016,67
5466640,82
5467268,76
5467888,74
5468520,71
5469140,80
5469764,82
5470396,49
5471016,14
5471648,25
5472276,40
5472896,20
5473524,47
5474148,57
5474780,63
5475412,59
5476032,38
5476660,31
5477288,27
5477912,19
5478540,16
5479160,25
5479788,45
5480412,49
5481036,52
5481668,50
5482288,62
5482916,78
5483548,80
5484168,71
5484796,39
5485424,59
5486052,75
5486684,58
5487304,32
5487936,15
5488560,27
5489184,27
5489812,32
5490432,57
5491060,58
5491688,61
5492312,60
5492940,37
5493560,32
5494192,21
5494820,18
5495440,30
5496068,35
5496696,53
5497324,49
5497956,28
5498576,57
5499208,62
5499832,66
5500456,71
5501088,63
5501704,65
5502336,82
5502960,73
5503584,36
5504216,24
5504840,19
5505468,16
5506100,18
5506720,51
5507348,53
5507972,55
5508604,60
5509236,58
5509856,37
5510484,23
5511108,18
5511736,19
5512364,41
5512984,65
5513612,73
5514240,67
5514864,47
5515496,65
5516120,65
5516752,73
5517384,73
5518000,64
5518632,82
5519256,85
5519880,78
5520512,45
5521128,20
5521756,16
5522384,19
5523008,22
5523640,48
5524256,57
5524888,56
5525516,59
5526136,61
5526768,61
5527392,50
5528024,28
5528652,17
5529272,29
5529904,47
5530528,40
5531152,36
5531780,49
5532400,58
5533028,68
5533652,70
5534276,66
5534908,54
5535528,58
5536160,79
5536788,60
5537408,22
5538036,14
5538660,21
5539292,16
5539920,50
5540544,55
5541172,55
5541800,59
5542424,57
5543052,42
5543672,42
5544304,24
5544928,12
5545552,21
5546184,25
5546800,33
5547432,52
5548064,43
5548680,60
5549312,71
5549936,71
5550568,67
5551196,58
5551816,62
5552448,62
5553072,57
5553700,21
5554328,12
5554952,11
5555584,20
5556208,17
5556832,47
5557460,55
5558088,60
5558716,64
5559348,74
5559968,46
5560600,14
5561224,11
5561856,35
5562484,66
5563104,73
5563736,50
5564360,33
5564984,51
5565616,62
5566232,63
5566864,63
5567496,55
5568116,38
5568744,72
5569368,93
5570000,64
5570628,35
5571248,21
5571876,19
5572500,34
5573128,30
5573756,48
5574376,56
5575008,54
5575632,57
5576256,15
5576884,18
5577504,23
5578136,41
5578764,59
5579384,58
5580016,85
5580640,84
5581272,45
5581900,53
5582520,71
5583148,76
5583776,70
5584400,70
5585028,70
5585648,74
5586276,69
5586904,49
5587528,25
5588156,15
5588776,11
5589408,17
5590036,49
5590656,53
5591288,60
5591912,57
5592544,48
5593172,21
5593792,21
5594424,35
5595048,19
5595672,15
5596304,40
5596920,54
5597552,59
5598176,52
5598800,55
5599432,59
5600048,61
5600680,68
5601308,64
5601928,78
5602556,79
5603180,65
5603812,42
5604444,30
5605064,15
5605692,35
5606320,22
5606944,44
5607572,58
5608192,58
5608820,56
5609444,27
5610068,26
5610700,21
5611320,18
5611952,23
5612580,33
5613200,46
5613828,44
5614452,47
5615084,51
5615716,67
5616336,73
5616968,73
5617588,70
5618216,82
5618844,89
5619464,71
5620092,34
5620716,14
5621344,13
5621972,35
5622596,49
5623228,51
5623860,54
5624480,57
5625108,60
5625736,58
5626364,36
5626996,29
5627616,30
5628248,17
5628872,24
5629496,33
5630128,39
5630744,41
5631376,40
5632008,52
5632628,70
5633260,72
5633884,63
5634512,49
5635140,61
5635760,72
5636388,77
5637012,38
5637640,15
5638268,20
5638888,37
5639516,16
5640140,55
5640764,60
5641396,57
5642016,56
5642644,31
5643276,24
5643896,23
5644524,20
5645148,25
5645780,33
5646408,61
5647032,76
5647664,77
5648288,59
5648912,60
5649540,64
5650160,69
5650788,68
5651416,62
5652040,70
5652668,74
5653288,62
5653916,35
5654548,16
5655168,35
5655796,35
5656424,35
5657052,48
5657684,57
5658304,56
5658932,59
5659556,19
5660180,42
5660808,56
5661432,53
5662060,46
5662684,27
5663312,32
5663940,45
5664560,51
5665188,49
5665820,62
5666440,65
5667068,72
5667696,86
5668324,92
5668956,70
5669576,54
5670208,32
5670832,35
5671456,19
5672088,38
5672704,47
5673336,51
5673960,55
5674584,59
5675212,56
5675832,41
5676464,16
5677092,10
5677712,11
5678344,15
5678968,33
5679600,56
5680228,68
5680848,67
5681476,48
5682104,67
5682728,61
5683356,60
5683976,58
5684604,48
5685228,70
5685852,77
5686484,59
5687108,29
5687736,18
5688368,11
5688984,17
5689612,17
5690236,46
5690868,53
5691500,52
5692120,55
5692752,37
5693376,46
5694004,45
5694632,35
5695252,34
5695884,39
5696508,59
5697136,55
5697764,42
5698388,51
5699020,64
5699652,70
5700272,89
5700904,73
5701528,54
5702152,47
5702784,26
5703400,16
5704032,27
5704656,23
5705280,19
5705908,15
5706528,56
5707160,60
5707788,54
5708408,59
5709040,56
5709664,17
5710292,27
5710924,23
5711544,18
5712176,40
5712800,52
5713424,56
5714056,49
5714672,32
5715304,55
5715928,58
5716552,59
5717184,63
5717800,46
5718432,58
5719064,72
5719680,70
5720312,47
5720936,26
5721568,22
5722200,48
5722820,29
5723448,45
5724076,56
5724700,54
5725332,65
5725952,55
5726584,44
5727208,30
5727832,20
5728464,16
5729084,28
5729716,47
5730344,54
5730968,51
5731600,51
5732224,62
5732856,69
5733488,68
5734108,71
5734740,75
5735364,87
5735984,77
5736616,45
5737232,25
5737864,19
5738488,14
5739112,15
5739740,42
5740364,53
5740996,56
5741624,64
5742248,61
5742876,29
5743500,17
5744132,14
5744764,14
5745384,44
5746012,67
5746636,81
5747260,79
5747892,44
5748512,63
5749140,79
5749772,80
5750392,77
5751024,76
5751648,75
5752280,75
5752912,68
5753528,40
5754160,19
5754784,12
5755408,21
5756036,18
5756656,47
5757288,55
5757912,62
5758536,64
5759168,53
5759788,43
5760420,22
5761048,13
5761664,11
5762292,29
5762916,48
5763544,51
5764176,53
5764792,51
5765424,59
5766048,56
5766668,70
5767300,77
5767920,78
5768548,78
5769172,69
5769796,57
5770428,30
5771048,20
5771676,19
5772308,28
5772928,20
5773556,51
5774180,55
5774812,58
5775440,59
5776064,32
5776692,31
5777316,25
5777940,19
5778568,15
5779184,17
5779816,37
5780440,45
5781064,47
5781692,46
5782312,60
5782944,65
5783572,71
5784192,59
5784820,55
5785444,59
5786076,47
5786704,28
5787328,27
5787956,36
5788580,17
5789204,13
5789836,52
5790456,53
5791088,63
5791712,72
5792336,81
5792964,78
5793584,68
5794216,53
5794844,42
5795464,48
5796092,44
5796716,42
5797348,38
5797980,30
5798600,71
5799228,68
5799852,74
5800476,74
5801108,76
5801728,87
5802356,99
5802984,100
5803660,58
5804288,29
5804912,30
5805540,68
5806172,44
5806792,48
5807420,57
5808048,58
5808668,60
5809300,31
5809920,43
5810548,27
5811176,12
5811800,16
5812432,35
5813048,95
5813680,78
5814308,52
5814928,55
5815560,67
5816184,85
5816816,78
5817444,62
5818064,66
5818692,78
5819320,67
5819944,45
5820572,22
5821192,13
5821824,23
5822448,38
5823072,46
5823704,56
5824328,58
5824956,55
5825588,55
5826208,27
5826836,38
5827464,39
5828092,26
5828724,29
5829344,35
5829976,41
5830600,45
5831224,25
5831856,64
5832472,78
5833104,75
5833736,59
5834352,39
5834984,51
5835608,59
5836240,49
5836868,28
5837488,19
5838116,11
5838740,23
5839368,18
5839996,50
5840616,55
5841248,58
5841872,55
5842496,33
5843124,43
5843744,43
5844372,30
5845004,28
5845624,35
5846256,49
5846880,53
5847508,47
5848140,50
5848760,62
5849392,71
5850016,69
5850640,67
5851268,67
5851888,81
5852520,79
5853144,68
5853768,51
5854400,35
5855016,11
5855648,24
5856280,29
5856896,48
5857524,59
5858152,55
5858780,59
5859412,39
5860032,51
5860660,39
5861288,17
5861912,19
5862544,45
5863160,68
5863792,77
5864416,62
5865040,48
5865668,68
5866288,85
5866916,78
5867548,58
5868168,58
5868796,78
5869424,81
5870056,41
5870684,11
5871304,10
5871936,17
5872560,18
5873188,50
5873820,55
5874440,66
5875072,69
5875696,60
5876320,30
5876952,18
5877576,21
5878208,19
5878840,30
5879456,48
5880088,43
5880712,48
5881344,47
5881976,63
5882592,71
5883224,69
5883848,64
5884472,61
5885104,104
5885776,102
5886452,62
5887080,31
5887700,19
5888332,21
5888956,36
5889580,29
5890208,49
5890832,55
5891464,57
5892088,59
5892712,30
5893340,39
5893968,39
5894596,29
5895228,42
5895848,43
5896480,56
5897104,52
5897732,27
5898364,54
5898984,71
5899612,64
5900236,61
5900860,47
5901492,39
5902112,57
5902740,73
5903372,35
5903992,17
5904624,12
5905248,19
5905876,20
5906508,51
5907128,56
5907760,56
5908384,56
5909008,51
5909636,26
5910256,15
5910888,11
5911512,17
5912136,32
5912768,36
5913384,28
5914016,25
5914644,40
5915264,82
5915896,99
5916520,73
5917152,59
5917780,24
5918400,12
5919032,22
5919656,39
5920280,14
5920908,12
5921528,16
5922156,35
5922780,20
5923404,44
5924036,60
5924656,65
5925284,59
5925916,30
5926536,34
5927164,27
5927792,19
5928420,25
5929052,39
5929672,60
5930300,56
5930928,44
5931552,55
5932180,70
5932800,72
5933428,68
5934056,68
5934680,72
5935312,75
5935932,69
5936560,52
5937192,47
5937812,27
5938444,31
5939068,33
5939700,48
5940332,54
5940952,55
5941580,61
5942208,60
5942832,14
5943460,12
5944080,20
5944708,20
5945332,25
5945960,37
5946588,63
5947212,78
5947844,51
5948472,53
5949096,61
5949728,66
5950352,61
5950984,51
5951612,57
5952232,60
5952860,62
5953484,43
5954108,35
5954740,13
5955360,21
5955988,19
5956620,52
5957240,55
5957868,58
5958496,54
5959124,38
5959756,49
5960376,64
5961004,63
5961628,46
5962252,45
5962884,54
5963504,51
5964136,48
5964760,51
5965384,66
5966016,69
5966632,73
5967264,68
5967896,58
5968512,65
5969144,68
5969768,42
5970400,21
5971028,18
5971648,14
5972280,12
5972904,41
5973528,55
5974160,58
5974776,61
5975408,67
5976032,37
5976656,15
5977288,12
5977904,18
5978536,42
5979168,52
5979788,66
5980416,57
5981040,36
5981672,49
5982304,66
5982920,66
5983552,60
5984176,49
5984800,60
5985428,69
5986048,75
5986680,54
5987304,39
5987928,13
5988556,40
5989176,20
5989808,60
5990440,55
5991056,57
5991684,56
5992308,55
5992940,43
5993572,26
5994192,13
5994824,13
5995448,35
5996072,58
5996704,61
5997324,46
5997952,42
5998576,60
5999204,71
5999832,72
6000460,73
6001092,52
6001720,53
6002340,53
6002968,31
6003596,13
6004224,10
6004856,20
6005472,25
6006104,22
6006728,47
6007356,59
6007984,64
6008608,61
6009240,43
6009872,22
6010488,14
6011120,19
6011744,33
6012376,40
6013008,52
6013624,36
6014256,22
6014880,54
6015504,63
6016136,65
6016752,65
6017384,70
6018008,73
6018632,79
6019264,67
6019880,33
6020512,19
6021140,14
6021760,23
6022388,27
6023016,51
6023648,53
6024276,55
6024896,56
6025528,54
6026152,21
6026776,13
6027408,10
6028024,15
6028656,40
6029280,51
6029904,57
6030536,63
6031156,46
6031788,53
6032420,60
6033040,61
6033672,67
6034296,76
6034928,91
6035556,95
6036176,81
6036808,31
6037432,11
6038056,27
6038688,47
6039308,31
6039940,45
6040564,54
6041192,58
6041824,59
6042448,34
6043076,31
6043708,17
6044328,15
6044956,30
6045584,41
6046212,55
6046844,44
6047464,42
6048096,53
6048720,56
6049344,59
6049972,61
6050592,57
6051224,63
6051852,89
6052472,89
6053104,55
6053728,29
6054360,21
6054992,11
6055612,21
6056240,43
6056868,53
6057492,58
6058124,60
6058744,55
6059376,24
6060000,14
6060624,11
6061256,12
6061876,35
6062508,54
6063136,54
6063760,42
6064392,29
6065016,55
6065648,66
6066276,62
6066896,58
6067528,45
6068152,55
6068776,74
6069408,63
6070024,33
6070656,25
6071280,16
6071904,16
6072536,18
6073160,51
6073792,55
6074424,58
6075040,65
6075672,67
6076296,64
6076928,37
6077560,15
6078176,13
6078808,21
6079436,51
6080060,60
6080692,51
6081312,49
6081940,57
6082572,66
6083192,65
6083824,59
6084448,69
6085080,82
6085708,78
6086328,69
6086960,45
6087584,27
6088208,21
6088836,33
6089456,24
6090088,47
6090712,54
6091336,60
6091968,57
6092588,34
6093220,31
6093848,22
6094468,22
6095096,35
6095720,37
6096352,56
6096980,46
6097600,28
6098228,57
6098856,63
6099480,67
6100112,70
6100728,57
6101360,56
6101984,63
6102608,69
6103240,42
6103860,20
6104488,10
6105120,37
6105740,37
6106368,49
6106996,53
6107624,59
6108256,57
6108880,52
6109512,31
6110136,24
6110760,19
6111392,22
6112012,42
6112640,49
6113268,50
6113892,56
6114524,45
6115148,65
6115780,76
6116412,79
6117032,79
6117664,79
6118292,85
6118920,71
6119552,51
6120172,23
6120800,18
6121428,14
6122052,19
6122684,18
6123304,48
6123936,57
6124568,64
6125188,61
6125816,39
6126444,39
6127076,34
6127704,24
6128328,26
6128960,27
6129584,39
6130208,69
6130840,71
6131468,49
6132096,61
6132724,67
6133348,76
6133980,75
6134608,63
6135240,61
6135872,66
6136492,43
6137124,23
6137748,17
6138376,23
6139008,28
6139628,51
6140260,53
6140888,56
6141512,57
6142144,56
6142764,18
6143396,24
6144032,26
6144644,24
6145276,32
6145900,39
6146528,42
6147156,46
6147776,33
6148404,60
6149028,68
6149652,59
6150284,66
6150904,54
6151532,57
6152160,48
6152780,57
6153412,46
6154032,35
6154664,13
6155292,12
6155912,15
6156544,44
6157168,56
6157796,58
6158428,58
6159048,35
6159680,34
6160304,53
6160924,59
6161556,52
6162176,38
6162804,51
6163428,69
6164052,56
6164684,52
6165304,72
6165932,80
6166564,82
6167184,75
6167816,68
6168440,78
6169068,80
6169700,66
6170320,49
6170948,29
6171572,19
6172200,37
6172828,40
6173448,48
6174076,58
6174704,60
6175328,62
6175960,38
6176584,25
6177212,21
6177844,30
6178464,49
6179092,61
6179720,47
6180348,35
6180980,34
6181600,49
6182228,63
6182856,67
6183480,57
6184112,42
6184728,63
6185360,95
6185988,87
6186608,35
6187240,13
6187864,11
6188492,28
6189124,18
6189744,54
6190376,54
6191000,59
6191624,55
6192256,47
6192872,53
6193504,35
6194128,17
6194752,18
6195384,34
6196008,46
6196636,33
6197268,30
6197888,49
6198516,61
6199144,65
6199772,72
6200404,75
6201024,59
6201656,71
6202280,79
6202904,70
6203532,28
6204152,10
6204784,28
6205408,31
6206032,20
6206664,44
6207284,58
6207916,61
6208548,59
6209168,22
6209796,20
6210424,24
6211052,19
6211684,22
6212304,32
6212936,61
6213560,63
6214184,39
6214816,54
6215436,72
6216068,73
6216692,67
6217316,57
6217948,48
6218572,53
6219204,51
6219832,34
6220456,28
6221088,17
6221712,22
6222344,31
6222976,48
6223596,52
6224228,59
6224852,59
6225476,48
6226108,10
6226728,19
6227356,22
6227988,14
6228608,39
6229236,67
6229864,60
6230492,62
6231124,53
6231744,62
6232376,63
6233000,67
6233624,59
6234252,50
6234872,67
6235504,56
6236128,40
6236752,11
6237384,19
6238000,26
6238632,27
6239264,25
6239884,52
6240516,57
6241140,55
6241772,54
6242400,29
6243020,34
6243652,30
6244276,25
6244900,31
6245532,44
6246152,59
6246784,61
6247408,49
6248032,51
6248660,61
6249284,65
6249912,71
6250544,59
6251164,53
6251792,77
6252416,83
6253044,56
6253676,32
6254296,21
6254928,16
6255552,23
6256176,48
6256804,55
6257424,58
6258052,59
6258680,56
6259304,35
6259932,33
6260556,25
6261188,16
6261820,23
6262440,32
6263068,47
