tempo_arduino_micro_s,valor_ADC
500,18
1004,15
1504,10
2000,10
2508,15
3000,37
3508,49
4000,59
4508,47
5000,30
5500,14
6000,52
6500,58
7000,60
7500,58
8000,63
8500,41
9000,14
9500,26
10000,56
10508,75
11028,52
11556,12
12076,35
12604,34
13124,13
13648,41
14172,85
14700,95
15220,84
15748,57
16268,53
16796,25
17316,27
17836,35
18356,48
18876,100
19452,143
20024,111
20608,95
21124,87
21652,86
22172,55
22700,38
23220,58
23748,73
24268,87
24796,91
25316,66
25844,21
26364,15
26892,32
27412,39
27940,30
28460,28
28988,23
29508,13
30036,10
30556,16
31084,49
31604,55
32132,49
32652,47
33180,45
33700,20
34220,15
34740,12
35260,18
35780,19
36300,27
36820,11
37340,20
37860,30
38380,32
38904,21
39420,49
39948,52
40468,48
40996,52
41516,49
42044,28
42564,62
43092,66
43612,37
44140,13
44660,22
45188,10
45708,12
46236,26
46756,12
47284,57
47804,67
48332,60
48852,49
49380,53
49900,52
50428,20
50948,25
51476,23
51996,34
52524,36
53044,56
53572,51
54092,60
54620,46
55140,26
55668,33
56188,51
56716,68
57236,65
57756,59
58276,59
58796,72
59320,87
59836,81
60360,56
60876,18
61396,27
61920,52
62436,71
62956,79
63480,74
64000,41
64520,40
65044,49
65572,46
66092,47
66620,51
67140,21
67668,17
68188,25
68716,19
69236,13
69764,32
70284,22
70812,33
71332,55
71860,45
72380,41
72908,55
73428,66
73956,69
74476,68
75004,45
75524,11
76052,29
76576,43
77100,15
77620,48
78148,84
78668,92
79196,46
79720,13
80244,16
80764,43
81292,41
81812,49
82332,47
82852,47
83372,36
83892,11
84412,34
84932,60
85452,63
85972,48
86492,35
87012,34
87536,46
88052,55
88572,43
89100,42
89620,49
90148,49
90668,47
91196,53
91720,56
92244,57
92764,57
93292,62
93812,61
94340,26
94864,17
95388,32
95908,19
96436,13
96956,24
97484,47
98004,51
98532,51
99056,52
99580,47
100100,28
100672,19
101240,37
101824,42
102392,34
102972,43
103552,42
104120,55
104696,61
105264,70
105848,57
106416,51
106984,62
107560,85
108128,108
108756,138
109376,145
110000,121
110628,107
111244,89
111820,79
112396,74
112976,16
113544,55
114120,71
114696,51
115264,47
115848,52
116416,62
117000,52
117568,27
118152,13
118720,33
119296,29
119880,12
120452,18
121032,78
121604,112
122236,70
122804,40
123376,47
123960,50
124528,48
125112,32
125684,15
126264,23
126832,58
127416,64
127988,31
128564,47
129144,120
129764,108
130392,36
130960,59
131536,87
132120,67
132688,53
133272,54
133840,92
134424,76
134992,45
135568,25
136136,19
136712,11
137296,14
137864,13
138448,17
139016,56
139592,85
140160,64
140744,48
141320,50
141888,43
142472,56
143040,51
143624,47
144192,47
144776,46
145344,39
145920,13
146504,11
147072,34
147656,53
148228,46
148808,47
149376,53
149952,57
150524,54
151100,19
151680,27
152248,57
152832,72
153404,88
153984,101
154604,83
155176,41
155752,53
156324,85
156904,87
157472,91
158056,84
158628,81
159204,80
159784,79
160356,66
160936,35
161504,22
162088,17
162656,11
163232,9
163748,34
164324,47
164904,46
165472,51
166048,50
166616,60
167200,53
167768,23
168344,11
168912,28
169480,14
170064,11
170632,36
171216,52
171784,57
172368,47
172936,50
173520,50
174096,50
174664,49
175248,59
175816,80
176400,83
176968,82
177552,44
178124,27
178696,56
179280,104
179900,103
180528,56
181096,43
181680,45
182248,47
182824,50
183408,28
183976,11
184560,11
185128,11
185712,13
186280,27
186856,19
187440,30
188008,30
188592,23
189160,51
189744,60
190316,67
190896,69
191468,52
192044,19
192624,14
193192,23
193768,20
194336,11
194920,12
195488,10
196064,24
196648,13
197216,42
197800,46
198368,46
198952,49
199524,60
200104,32
200672,12
201248,17
201832,19
202404,13
202984,20
203552,26
204136,13
204708,29
205284,35
205864,44
206432,46
207008,50
207576,47
208160,49
208728,12
209304,17
209872,27
210440,43
211024,35
211592,21
212176,10
212744,24
213328,22
213896,23
214480,41
215056,46
215624,45
216208,48
216776,24
217360,25
217928,43
218512,47
219080,32
219660,42
220240,58
220808,95
221392,84
221964,43
222544,57
223116,126
223748,130
224380,106
224996,97
225572,101
226196,109
226820,83
227396,65
227968,24
228544,22
229112,22
229696,12
230268,17
230848,43
231416,48
231992,48
232576,58
233148,87
233728,131
234348,144
234980,97
235556,41
236124,18
236704,18
237276,17
237856,24
238428,38
239008,43
239580,66
240156,69
240736,119
241356,113
241988,48
242556,13
243136,27
243708,35
244284,13
244864,27
245432,31
246016,62
246592,102
247228,86
247796,57
248372,51
248952,50
249524,50
250104,23
250672,13
251256,12
251824,10
252404,11
252984,14
253552,24
254136,35
254708,26
255288,16
255868,75
256452,98
257032,56
257600,50
258184,51
258752,43
259328,50
259896,57
260480,43
261048,14
261616,11
262200,19
262768,46
263352,34
263924,27
264504,39
265072,48
265656,51
266224,50
266804,22
267384,18
267952,16
268536,33
269108,44
269688,45
270256,41
270832,15
271416,28
271984,26
272568,47
273136,48
273720,50
274292,56
274872,53
275444,20
276016,11
276600,37
277168,26
277752,41
278324,67
278904,53
279476,47
280052,40
280632,35
281204,38
281784,48
282352,55
282936,65
283504,48
284088,15
284656,50
285236,94
285816,116
286440,92
287016,43
287588,63
288168,95
288736,35
289304,57
289888,70
290460,70
291040,60
291612,62
292192,67
292760,76
293340,80
293920,70
294492,24
295072,14
295644,34
296224,61
296796,70
297376,66
297956,60
298532,52
299112,48
299684,51
300264,14
300836,26
301416,19
301988,11
302564,13
303144,14
303716,47
304296,45
304868,44
305448,42
306020,42
306600,67
307172,63
307748,52
308328,42
308896,65
309480,88
310052,66
310632,38
311204,19
311776,24
312360,12
312928,12
313512,18
314084,45
314664,52
315236,50
315816,49
316388,49
316964,16
317544,11
318116,23
318696,61
319268,117
319900,157
320532,110
321148,45
321724,15
322296,40
322872,70
323444,72
324024,62
324592,57
325172,60
325752,48
326324,44
326904,55
327476,54
328056,13
328624,55
329192,38
329776,22
330344,28
330928,63
331496,54
332080,52
332648,63
333232,61
333800,26
334376,17
334960,24
335528,32
336112,63
336680,99
337264,106
337884,76
338456,37
339032,44
339604,64
340184,72
340752,64
341336,52
341908,54
342484,72
343064,75
343636,43
344216,26
344784,42
345368,47
345940,12
346520,9
347040,15
347608,43
348192,51
348760,50
349344,68
349916,74
350496,64
351068,69
351648,75
352220,75
352792,73
353376,64
353944,53
354528,15
355100,58
355680,108
356308,133
356932,101
357560,81
358132,62
358712,50
359292,52
359872,66
360444,79
361016,77
361600,87
362168,67
362752,12
363324,48
363904,44
364476,47
365052,51
365632,50
366204,50
366784,43
367356,96
367936,161
368568,191
369192,138
369820,92
370388,70
370968,40
371540,27
372120,15
372692,54
373268,65
373848,66
374416,67
375000,62
375572,58
376152,69
376732,74
377308,70
377888,62
378460,66
379040,49
379612,15
380192,33
380764,51
381344,48
381924,50
382500,67
383080,55
383652,40
384232,91
384808,127
385444,115
386072,85
386636,66
387216,50
387784,21
388368,13
388940,48
389520,72
390092,59
390668,67
391248,59
391820,62
392400,62
392972,79
393552,66
394124,15
394704,31
395280,11
395852,18
396432,37
397004,29
397584,39
398156,47
398736,50
399308,51
399884,47
400464,24
401032,22
401616,13
402184,11
402768,13
403340,35
403920,44
404496,32
405064,22
405648,39
406220,66
406800,77
407380,80
407960,63
408532,66
409108,74
409688,57
410260,39
410840,11
411408,26
411992,50
412564,82
413136,74
413720,44
414288,43
414872,56
415440,64
416024,51
416592,43
417168,10
417736,18
418312,33
418896,53
419464,57
420048,40
420616,19
421192,28
421760,26
422344,40
422920,46
423488,50
424072,62
424640,72
425224,55
425792,47
426376,19
426944,32
427524,72
428104,95
428676,94
429256,52
429828,29
430408,61
430976,51
431560,43
432136,50
432708,49
433288,40
433856,11
434440,20
435008,32
435592,14
436168,15
436744,10
437328,41
437900,63
438480,31
439048,46
439632,66
440204,75
440784,73
441360,62
441932,48
442512,28
443084,11
443664,17
444236,11
444816,17
445384,17
445964,26
446544,47
447116,41
447696,47
448276,52
448856,53
449424,50
450004,32
450584,19
451152,19
451736,12
452308,25
452888,23
453456,13
454040,24
454612,54
455188,62
455768,42
456336,46
456920,51
457492,49
458072,49
458644,55
459220,69
459800,76
460372,66
460952,42
461524,46
462104,54
462672,20
463256,15
463828,23
464404,48
464984,47
465552,52
466136,48
466716,31
467296,17
467864,28
468444,36
469024,16
469596,12
470176,18
470748,33
471328,37
471900,31
472480,40
473056,46
473636,54
474216,63
474788,76
475368,80
475948,53
476528,14
477108,32
477684,35
478264,27
478836,32
479416,35
479988,36
480572,67
481148,83
481728,80
482296,80
482876,76
483456,46
484028,14
484608,12
485180,11
485760,15
486332,45
486908,76
487488,106
488112,100
488740,67
489308,49
489888,61
490460,71
491036,53
491616,34
492188,45
492768,73
493340,69
493920,36
494492,20
495064,31
495648,28
496220,18
496800,16
497368,44
497952,44
498524,50
499104,53
499676,54
500252,66
500832,44
501404,12
501984,13
502556,12
503136,23
503708,53
504284,38
504864,20
505436,20
506016,61
506588,60
507168,63
507740,65
508320,64
508900,47
509476,28
510056,10
510628,12
511208,33
511788,68
512372,73
512944,56
513520,23
514104,46
514672,60
515256,56
515824,47
516408,77
516980,96
517560,66
518132,32
518708,35
519288,64
519856,42
520440,25
521008,43
521592,46
522164,37
522740,64
523320,51
523892,47
524472,75
525044,100
525676,79
526244,50
526816,14
527400,31
527968,35
528552,13
529124,27
529704,41
530276,22
530856,57
531428,101
532056,101
532684,90
533248,48
533832,13
534404,12
534984,22
535560,14
536132,27
536712,43
537284,47
537864,32
538432,15
539016,56
539588,74
540164,59
540744,61
541316,51
541896,42
542468,26
543048,17
543620,10
544200,18
544776,14
545348,24
545928,43
546496,46
547080,67
547652,60
548232,53
548804,54
549376,50
549960,35
550532,61
551112,114
551736,155
552364,98
552936,21
553508,22
554088,12
554660,22
555240,49
555812,43
556392,43
556972,50
557548,53
558128,53
558700,36
559280,41
559852,59
560432,71
561012,41
561592,32
562164,25
562740,11
563320,11
563892,40
564472,47
565044,50
565624,47
566196,50
566772,97
567352,109
567976,42
568552,17
569124,30
569704,12
570276,35
570852,47
571432,47
572004,28
572584,47
573156,51
573736,56
574316,50
574896,60
575476,71
576052,79
576632,83
577204,70
577784,37
578356,27
578936,20
579508,15
580084,17
580664,41
581236,48
581816,49
582388,48
582968,52
583548,44
584128,47
584712,50
585284,23
585864,13
586436,49
587016,45
587588,19
588168,17
588740,15
589316,73
589896,68
590468,54
591048,49
591620,41
592200,19
592780,21
593360,11
593936,12
594508,40
595088,62
595660,54
596240,43
596812,28
597392,45
597964,46
598540,47
599120,47
599692,51
600272,21
600852,11
601432,27
602012,45
602588,20
603168,24
603740,37
604320,28
604892,21
605472,20
606044,59
606624,69
607204,66
607780,70
608364,52
608932,47
609512,56
610092,55
610672,33
611252,15
611828,12
612412,49
612984,79
613560,55
614136,43
614716,48
615292,47
615872,49
616444,49
617016,12
617600,14
618168,11
618752,15
619324,11
619904,10
620476,27
621052,28
621632,30
622204,34
622784,43
623356,47
623936,57
624516,61
625096,51
625680,33
626252,15
626832,11
627404,14
627984,20
628556,29
629136,28
629708,11
630284,24
630864,55
631436,56
632016,48
632596,65
633176,98
633756,98
634332,43
634912,30
635484,42
636064,39
636636,56
637220,70
637796,75
638376,73
638956,48
639532,53
640116,64
640684,57
641264,48
641836,20
642416,12
642984,43
643560,98
644144,131
644768,160
645396,124
646016,30
646592,21
647160,39
647740,43
648320,46
648888,54
649472,51
650044,39
650624,24
651196,14
651772,12
652352,18
652924,45
653504,48
654076,43
654656,21
655236,18
655816,61
656400,67
656968,61
657544,54
658116,49
658696,19
659264,29
659848,32
660416,11
660992,16
661576,36
662148,26
662728,16
663296,40
663880,36
664452,57
665032,52
665608,50
666176,45
666752,26
667320,12
667904,13
668472,11
669056,18
669624,22
670200,35
670784,73
671356,84
671936,49
672508,51
673088,79
673660,94
674240,67
674812,56
675388,32
675968,34
676536,14
677120,16
677688,14
678272,41
678844,24
679416,33
680000,41
680568,44
681144,51
681712,50
682296,47
682864,51
683448,24
684020,17
684592,15
685176,35
685748,14
686328,13
686900,14
687480,12
688052,13
688624,15
689208,47
689780,43
690360,48
690932,55
691512,51
692092,34
692672,47
693244,75
693820,68
694400,27
694968,19
695552,40
696124,20
696704,22
697276,43
697852,51
698432,49
699004,50
699584,62
700156,103
700788,89
701360,43
701932,28
702512,27
703084,31
703664,30
704240,22
704816,21
705384,28
705968,46
706540,50
707116,55
707696,64
708268,52
708848,21
709420,13
710000,9
710520,27
711096,16
711668,10
712244,10
712824,14
713396,35
713976,75
714556,62
715136,46
715716,50
716292,47
716872,20
717444,13
718024,38
718596,38
719176,24
719748,28
720328,31
720904,26
721472,15
722056,28
722628,44
723208,59
723776,62
724360,65
724932,82
725508,49
726088,29
726660,56
727240,50
727812,56
728392,42
728972,30
729552,31
730128,17
730700,52
731280,45
731852,45
732432,50
733012,51
733592,27
734172,12
734748,14
735328,21
735900,11
736484,15
737060,64
737640,76
738216,83
738796,47
739376,59
739948,96
740528,124
741152,112
741780,113
742408,95
742972,78
743552,49
744124,28
744704,21
745276,14
745856,33
746428,56
747004,29
747584,45
748156,46
748736,51
749308,50
749888,61
750468,22
751048,24
751624,50
752196,64
752776,67
753348,31
753928,14
754508,15
755088,22
755668,44
756244,57
756824,53
757396,49
757976,50
758556,35
759136,50
759716,59
760292,63
760872,42
761444,20
762024,31
762596,93
763176,79
763756,26
764336,48
764916,50
765492,47
766072,47
766648,35
767224,21
767804,14
768388,27
768960,28
769536,13
770120,11
770692,18
771272,27
771844,41
772424,43
772996,42
773576,48
774152,51
774724,49
775304,52
775876,87
776456,87
777036,65
777616,32
778196,15
778772,14
779352,51
779924,40
780504,31
781076,44
781656,45
782228,70
782804,57
783384,22
783956,11
784536,18
785108,10
785688,14
786268,14
786848,15
787420,82
787996,110
788628,43
789196,50
789776,60
790356,67
790940,53
791516,47
792092,54
792672,79
793244,71
793828,38
794404,15
794984,39
795556,40
796132,15
796712,38
797288,42
797864,43
798436,47
799016,46
799596,47
800180,30
800752,24
801332,13
801912,16
802484,34
803064,49
803636,38
804216,35
804788,66
805364,26
805944,88
806516,86
807096,49
807668,50
808248,37
808828,17
809408,45
809980,58
810556,42
811136,29
811708,26
812288,13
812860,11
813440,22
814012,57
814588,54
815168,53
815744,50
816320,49
816892,20
817472,11
818044,27
818624,57
819208,54
819780,36
820360,21
820928,18
821512,75
822084,95
822664,50
823232,52
823808,65
824392,64
824960,34
825544,38
826116,56
826696,60
827268,35
827848,17
828424,19
828992,27
829576,20
830144,18
830728,50
831296,53
831880,60
832452,67
833024,76
833608,70
834176,81
834760,67
835328,14
835912,75
836484,152
837116,163
837744,185
838360,196
838992,119
839612,49
840184,57
840760,70
841332,67
841912,70
842484,86
843064,95
843636,86
844216,47
844788,36
845364,51
845944,27
846512,11
847096,22
847668,46
848248,48
848816,53
849392,57
849976,50
850544,41
851128,27
851700,23
852280,15
852852,56
853432,145
854060,208
854680,197
855308,132
855932,53
856508,60
857084,114
857712,97
858288,62
858860,22
859440,27
860012,19
860592,32
861164,72
861740,90
862320,40
862892,15
863472,20
864044,43
864624,47
865196,50
865772,52
866352,69
866924,40
867504,11
868076,11
868656,10
869228,15
869808,29
870380,21
870956,20
871536,24
872108,38
872688,49
873260,48
873840,48
874408,50
874984,27
875568,50
876140,50
876720,49
877292,27
877872,17
878444,19
879024,10
879596,24
880172,22
880752,43
881324,45
881904,48
882476,58
883056,69
883628,47
884200,13
884784,15
885356,27
885936,45
886508,42
887088,40
887660,25
888240,13
888812,29
889388,66
889968,93
890540,79
891120,56
891700,36
892280,40
892860,47
893436,56
894016,44
894588,20
895168,10
895744,16
896324,17
896896,15
897480,46
898056,46
898628,47
899208,48
899776,59
900360,92
900932,79
901512,54
902092,81
902664,104
903300,86
903868,52
904448,14
905016,42
905600,61
906168,83
906748,81
907328,85
907900,81
908480,76
909052,90
909632,97
910204,114
910836,54
911416,23
911984,65
912568,57
913140,21
913720,25
914292,40
914872,47
915444,48
916020,48
916600,39
917172,64
917752,67
918332,49
918912,17
919492,11
920068,12
920648,22
921220,30
921800,48
922372,44
922952,49
923524,50
924104,47
924680,47
925252,28
925832,40
926404,55
926984,65
927556,69
928136,60
928712,36
929292,14
929872,18
930444,23
931024,41
931596,51
932176,71
932756,68
933332,40
933912,13
934488,12
935064,11
935636,10
936216,15
936796,25
937376,19
937956,13
938532,20
939112,45
939688,60
940264,79
940844,78
941424,49
941996,32
942572,25
943152,27
943724,38
944304,21
944876,18
945456,19
946028,10
946608,12
947180,37
947756,47
948336,47
948908,46
949488,55
950060,40
950640,36
951220,11
951796,32
952380,38
952952,72
953532,99
954104,105
954732,100
955356,81
955928,47
956512,45
957088,48
957664,58
958244,80
958824,79
959404,63
959980,36
960564,39
961136,37
961712,38
962284,30
962864,11
963436,16
964016,45
964584,48
965164,48
965744,50
966316,66
966896,99
967476,96
968056,62
968636,23
969212,24
969792,49
970364,68
970944,40
971516,21
972100,62
972676,89
973260,76
973840,67
974412,73
974992,57
975564,26
976144,59
976724,62
977304,41
977876,47
978452,45
979032,34
979604,19
980184,21
980756,50
981336,48
981916,44
982492,50
983072,53
983644,43
984224,39
984796,48
985376,62
985948,60
986528,47
987100,49
987676,38
988256,37
988828,41
989408,52
989980,58
990560,59
991140,61
991716,64
992296,48
992868,64
993448,73
994020,48
994600,11
995172,14
995752,43
996332,45
996908,19
997488,45
998060,46
998640,61
999220,53
999800,44
1000372,19
1000992,53
1001620,85
1002240,68
1002868,19
1003492,31
1004116,89
1004744,104
1005412,59
1006036,49
1006668,60
1007288,49
1007916,48
1008540,14
1009164,17
1009792,56
1010416,55
1011044,11
1011668,13
1012292,11
1012920,12
1013544,34
1014172,48
1014804,44
1015424,47
1016052,51
1016676,26
1017304,13
1017936,18
1018552,53
1019184,84
1019808,97
1020432,100
1021112,75
1021736,53
1022364,39
1022996,46
1023616,54
1024248,66
1024868,78
1025496,93
1026120,103
1026792,93
1027420,67
1028040,55
1028664,35
1029292,12
1029908,28
1030540,44
1031160,50
1031784,51
1032412,54
1033032,79
1033660,115
1034340,143
1035008,93
1035636,39
1036260,29
1036880,15
1037508,54
1038128,63
1038756,73
1039384,83
1040000,56
1040628,51
1041248,54
1041876,50
1042508,43
1043128,27
1043756,27
1044380,15
1045000,10
1045632,26
1046248,12
1046876,45
1047496,47
1048120,50
1048748,45
1049368,50
1049996,19
1050620,23
1051240,28
1051868,16
1052492,16
1053120,32
1053748,28
1054368,13
1054996,20
1055620,51
1056248,72
1056876,66
1057496,69
1058124,72
1058744,57
1059368,69
1059996,44
1060616,12
1061244,10
1061868,12
1062488,49
1063116,84
1063736,71
1064364,56
1064992,52
1065612,48
1066240,49
1066860,27
1067492,11
1068120,22
1068736,32
1069364,34
1069988,15
1070612,34
1071240,65
1071856,52
1072484,40
1073108,46
1073732,66
1074360,78
1074976,51
1075608,12
1076236,14
1076856,21
1077484,19
1078104,23
1078732,33
1079364,13
1079984,44
1080612,54
1081236,47
1081860,49
1082488,47
1083112,46
1083740,32
1084364,52
1084988,45
1085616,24
1086232,22
1086860,23
1087484,26
1088112,18
1088740,24
1089360,48
1089988,48
1090616,52
1091232,66
1091860,77
1092484,77
1093112,80
1093740,51
1094360,12
1094988,13
1095612,29
1096236,47
1096864,46
1097488,42
1098116,78
1098740,76
1099364,51
1099992,19
1100616,28
1101244,39
1101876,29
1102496,20
1103124,12
1103748,30
1104380,54
1105008,60
1105624,43
1106256,48
1106876,54
1107500,52
1108132,54
1108752,52
1109380,19
1110004,32
1110628,27
1111260,12
1111880,36
1112512,84
1113140,59
1113760,37
1114388,65
1115012,56
1115644,54
1116272,58
1116892,51
1117520,67
1118144,61
1118768,41
1119396,12
1120016,15
1120644,21
1121268,31
1121892,27
1122520,42
1123144,45
1123772,50
1124404,48
1125024,29
1125652,34
1126276,43
1126908,35
1127536,17
1128152,17
1128780,11
1129404,36
1130028,27
1130656,44
1131272,53
1131900,49
1132524,47
1133148,39
1133776,13
1134400,22
1135028,23
1135660,30
1136280,49
1136908,50
1137532,37
1138164,23
1138792,36
1139408,48
1140040,50
1140660,55
1141284,59
1141916,45
1142536,22
1143164,11
1143788,12
1144412,19
1145044,20
1145668,12
1146296,37
1146924,73
1147544,65
1148172,47
1148796,55
1149424,92
1150052,87
1150672,25
1151300,32
1151928,46
1152552,51
1153180,40
1153800,21
1154428,33
1155052,46
1155672,45
1156304,52
1156920,72
1157548,61
1158180,31
1158800,40
1159428,51
1160052,58
1160680,52
1161308,30
1161928,27
1162556,19
1163180,12
1163804,37
1164432,45
1165052,50
1165680,53
1166304,52
1166928,12
1167556,24
1168176,17
1168804,16
1169432,24
1170048,34
1170680,49
1171300,15
1171932,14
1172560,44
1173176,45
1173808,54
1174432,71
1175056,41
1175684,28
1176304,13
1176932,49
1177556,79
1178184,91
1178812,74
1179432,28
1180060,33
1180692,60
1181312,54
1181940,47
1182564,49
1183196,38
1183828,34
1184448,32
1185076,23
1185700,14
1186324,27
1186952,30
1187576,13
1188204,14
1188828,39
1189452,49
1190080,52
1190700,51
1191328,50
1191956,10
1192576,12
1193204,20
1193828,34
1194460,21
1195088,15
1195704,30
1196336,26
1196960,23
1197584,56
1198212,54
1198832,49
1199460,51
1200084,15
1200708,21
1201336,27
1201960,43
1202588,38
1203220,16
1203840,13
1204468,13
1205092,18
1205720,46
1206348,59
1206968,51
1207596,51
1208220,29
1208844,16
1209476,28
1210096,47
1210724,29
1211348,45
1211972,40
1212604,24
1213224,24
1213852,43
1214484,43
1215104,81
1215736,83
1216360,51
1216988,25
1217616,39
1218240,22
1218868,49
1219492,43
1220116,16
1220748,34
1221368,75
1221996,93
1222620,94
1223244,71
1223876,50
1224496,54
1225124,36
1225756,37
1226376,31
1227004,23
1227632,17
1228260,14
1228892,10
1229508,21
1230140,51
1230760,86
1231384,81
1232012,52
1232628,49
1233260,34
1233884,25
1234504,12
1235136,17
1235752,11
1236380,22
1237012,33
1237632,55
1238260,68
1238884,45
1239512,79
1240144,84
1240760,57
1241388,50
1242012,55
1242636,57
1243264,47
1243880,29
1244512,24
1245136,33
1245756,11
1246388,10
1247008,41
1247636,39
1248268,50
1248888,62
1249516,110
1250192,95
1250812,52
1251444,36
1252064,31
1252692,11
1253316,15
1253940,13
1254572,16
1255192,41
1255820,84
1256444,86
1257072,66
1257700,55
1258324,62
1258952,51
1259584,21
1260200,17
1260828,23
1261452,21
1262080,13
1262712,14
1263328,15
1263960,58
1264584,56
1265208,49
1265836,54
1266456,43
1267084,52
1267712,14
1268336,35
1268964,34
1269588,37
1270220,38
1270852,28
1271472,47
1272100,55
1272728,47
1273352,52
1273980,64
1274600,57
1275228,44
1275852,56
1276476,57
1277108,45
1277728,26
1278356,17
1278988,14
1279608,27
1280240,18
1280860,41
1281488,49
1282116,48
1282732,51
1283360,30
1283984,15
1284612,12
1285240,15
1285860,54
1286492,73
1287112,65
1287736,43
1288364,32
1288984,47
1289612,61
1290232,52
1290856,51
1291484,30
1292108,44
1292736,57
1293364,59
1293984,74
1294612,68
1295236,41
1295864,15
1296492,10
1297112,39
1297740,44
1298364,48
1298984,49
1299616,49
1300232,58
1300860,49
1301484,27
1302108,16
1302736,27
1303352,28
1303984,32
1304612,28
1305232,14
1305860,61
1306484,71
1307112,65
1307744,59
1308360,33
1308988,31
1309612,53
1310236,66
1310868,28
1311484,19
1312116,30
1312736,35
1313356,26
1313984,44
1314604,48
1315236,59
1315864,60
1316480,48
1317108,27
1317728,17
1318360,11
1318988,12
1319608,22
1320236,42
1320856,39
1321480,27
1322108,38
1322728,67
1323356,73
1323980,58
1324600,55
1325232,20
1325848,11
1326476,11
1327096,10
1327720,10
1328352,14
1328972,13
1329600,38
1330232,29
1330848,39
1331476,49
1332100,48
1332728,51
1333356,16
1333976,25
1334604,38
1335228,26
1335848,13
1336476,28
1337092,37
1337724,34
1338344,24
1338968,49
1339596,46
1340216,50
1340844,49
1341472,32
1342088,12
1342716,25
1343340,53
1343972,49
1344600,16
1345220,12
1345852,42
1346472,17
1347096,55
1347724,72
1348344,61
1348972,57
1349596,50
1350216,24
1350848,41
1351464,57
1352092,54
1352720,45
1353344,27
1353972,18
1354592,15
1355224,17
1355852,50
1356472,47
1357100,54
1357724,57
1358344,35
1358976,21
1359592,13
1360220,23
1360844,15
1361464,46
1362092,23
1362708,24
1363340,38
1363960,47
1364584,51
1365212,47
1365836,48
1366464,44
1367092,38
1367712,38
1368340,34
1368964,19
1369592,21
1370220,32
1370840,25
1371468,25
1372092,42
1372716,58
1373344,98
1373964,117
1374644,96
1375268,90
1375888,82
1376516,38
1377140,12
1377768,26
1378400,42
1379016,76
1379644,81
1380268,32
1380892,45
1381520,54
1382140,51
1382768,46
1383392,27
1384016,17
1384644,12
1385264,31
1385892,50
1386520,39
1387140,25
1387768,16
1388392,15
1389020,41
1389652,43
1390272,50
1390900,61
1391524,38
1392148,24
1392780,36
1393400,28
1394028,10
1394652,18
1395272,32
1395904,49
1396520,22
1397148,63
1397776,82
1398400,73
1399028,58
1399652,48
1400280,15
1400908,14
1401528,12
1402156,12
1402780,26
1403404,40
1404032,58
1404656,69
1405284,75
1405908,50
1406532,47
1407160,60
1407784,57
1408416,26
1409044,51
1409664,108
1410344,95
1410960,36
1411588,18
1412216,16
1412840,15
1413468,19
1414092,41
1414712,48
1415344,48
1415960,53
1416588,27
1417212,17
1417840,13
1418468,11
1419092,15
1419720,29
1420348,64
1420968,73
1421596,74
1422220,50
1422852,51
1423480,54
1424096,51
1424728,42
1425348,23
1425972,41
1426600,54
1427224,41
1427852,27
1428476,15
1429104,27
1429732,29
1430356,28
1430988,49
1431620,50
1432240,49
1432868,55
1433492,29
1434120,12
1434748,32
1435368,13
1435996,23
1436620,14
1437244,22
1437872,49
1438488,41
1439120,47
1439748,44
1440368,46
1440996,56
1441620,42
1442248,29
1442876,28
1443496,21
1444124,33
1444748,63
1445376,88
1446004,55
1446624,17
1447252,61
1447872,90
1448496,84
1449124,55
1449744,38
1450372,20
1450996,13
1451616,15
1452248,21
1452872,16
1453500,37
1454128,38
1454752,30
1455380,34
1456004,59
1456632,72
1457260,67
1457880,57
1458508,16
1459132,18
1459756,49
1460388,63
1461008,33
1461636,13
1462260,10
1462884,19
1463512,31
1464136,40
1464764,46
1465396,48
1466016,51
1466644,16
1467268,25
1467896,30
1468528,14
1469144,12
1469776,14
1470400,31
1471024,43
1471652,54
1472272,44
1472900,52
1473524,51
1474148,47
1474776,40
1475400,28
1476028,12
1476656,30
1477272,37
1477904,32
1478528,34
1479156,12
1479784,17
1480400,69
1481032,77
1481652,81
1482276,74
1482904,54
1483528,16
1484156,11
1484780,11
1485404,11
1486032,32
1486652,27
1487280,37
1487908,32
1488528,27
1489156,45
1489780,45
1490408,47
1491040,48
1491656,37
1492284,33
1492908,40
1493532,29
1494160,10
1494784,12
1495412,13
1496036,13
1496660,23
1497288,44
1497908,58
1498536,51
1499164,50
1499784,33
1500412,14
1501036,23
1501668,21
1502296,19
1502916,39
1503544,56
1504168,55
1504792,45
1505420,41
1506040,49
1506668,48
1507292,54
1507916,67
1508548,99
1509168,114
1509848,115
1510528,104
1511204,76
1511828,32
1512460,14
1513080,32
1513708,36
1514332,46
1514964,61
1515596,60
1516216,66
1516844,104
1517520,135
1518188,125
1518864,91
1519488,43
1520116,31
1520748,82
1521368,91
1521996,106
1522672,106
1523340,76
1523964,62
1524588,54
1525220,11
1525848,11
1526464,18
1527096,24
1527720,47
1528344,43
1528972,58
1529592,55
1530224,17
1530848,51
1531472,57
1532104,49
1532720,50
1533352,15
1533980,11
1534600,11
1535232,13
1535856,25
1536488,18
1537116,32
1537736,45
1538364,31
1538988,47
1539608,59
1540240,62
1540856,57
1541484,56
1542108,63
1542732,49
1543360,39
1543976,25
1544608,20
1545236,11
1545856,46
1546484,71
1547108,52
1547736,47
1548368,57
1548984,50
1549616,47
1550236,28
1550860,28
1551492,14
1552112,11
1552740,13
1553364,17
1553988,24
1554616,25
1555240,18
1555868,47
1556500,52
1557120,61
1557748,62
1558372,44
1559000,24
1559632,24
1560252,25
1560880,11
1561504,29
1562128,17
1562756,23
1563376,18
1564004,53
1564628,60
1565252,50
1565880,48
1566504,25
1567132,22
1567764,23
1568384,32
1569012,13
1569636,11
1570264,14
1570892,38
1571512,32
1572140,49
1572764,62
1573388,79
1574020,75
1574640,51
1575268,13
1575892,15
1576516,21
1577148,39
1577768,38
1578396,35
1579028,12
1579648,13
1580276,30
1580900,45
1581532,49
1582160,66
1582780,87
1583408,97
1584032,53
1584656,16
1585284,14
1585904,14
1586536,11
1587160,17
1587784,16
1588412,16
1589032,41
1589660,48
1590292,60
1590912,61
1591544,23
1592168,43
1592796,58
1593428,46
1594048,30
1594676,30
1595304,35
1595928,20
1596556,19
1597176,45
1597808,47
1598432,53
1599056,57
1599684,67
1600304,64
1600932,35
1601560,15
1602176,11
1602804,19
1603428,15
1604056,18
1604684,44
1605304,68
1605932,94
1606556,59
1607176,51
1607808,47
1608424,18
1609052,23
1609676,67
1610296,68
1610928,40
1611544,39
1612172,13
1612796,14
1613424,21
1614052,45
1614676,51
1615308,55
1615936,71
1616556,55
1617184,51
1617808,47
1618436,24
1619064,11
1619688,14
1620316,35
1620940,35
1621564,31
1622192,45
1622816,61
1623444,70
1624076,67
1624696,63
1625324,64
1625948,67
1626576,60
1627208,25
1627824,23
1628452,37
1629076,68
1629704,79
1630332,55
1630952,45
1631580,49
1632208,50
1632832,47
1633460,14
1634080,17
1634708,20
1635340,42
1635960,28
1636588,13
1637212,14
1637844,16
1638476,18
1639092,64
1639720,52
1640340,50
1640964,53
1641592,19
1642208,25
1642836,20
1643456,17
1644080,22
1644708,20
1645328,13
1645956,46
1646576,34
1647200,44
1647828,47
1648452,46
1649080,47
1649708,38
1650324,13
1650956,26
1651576,31
1652204,29
1652832,10
1653452,18
1654084,30
1654704,39
1655328,32
1655956,46
1656576,56
1657204,73
1657828,61
1658448,13
1659080,57
1659696,76
1660324,42
1660952,29
1661568,15
1662196,35
1662820,45
1663448,25
1664080,87
1664696,89
1665320,75
1665944,62
1666564,34
1667192,21
1667808,12
1668440,11
1669060,37
1669684,66
1670312,77
1670928,49
1671556,38
1672180,44
1672804,50
1673432,58
1674056,55
1674684,52
1675312,22
1675928,19
1676560,35
1677180,39
1677812,41
1678440,44
1679056,14
1679684,25
1680308,31
1680928,44
1681556,50
1682176,49
1682804,48
1683424,19
1684044,30
1684676,26
1685292,28
1685920,32
1686552,21
1687168,24
1687796,13
1688420,24
1689048,70
1689676,64
1690292,59
1690920,55
1691544,50
1692168,47
1692796,60
1693416,62
1694044,18
1694668,66
1695292,43
1695920,34
1696536,23
1697168,45
1697788,54
1698416,56
1699044,50
1699664,78
1700296,89
1700924,46
1701544,45
1702172,17
1702796,16
1703424,26
1704052,34
1704672,29
1705300,27
1705920,66
1706544,69
1707172,53
1707792,51
1708420,12
1709044,21
1709668,25
1710296,19
1710920,12
1711548,24
1712180,50
1712800,42
1713428,29
1714052,73
1714680,78
1715308,75
1715928,70
1716556,31
1717180,17
1717804,27
1718432,60
1719048,39
1719680,32
1720304,86
1720928,85
1721556,83
1722180,48
1722808,50
1723436,69
1724056,66
1724684,52
1725308,46
1725936,54
1726568,54
1727184,50
1727812,43
1728436,23
1729060,29
1729688,36
1730312,35
1730940,49
1731564,51
1732188,91
1732816,55
1733432,15
1734060,13
1734692,19
1735312,30
1735940,27
1736564,61
1737196,95
1737824,83
1738440,37
1739072,57
1739696,51
1740320,47
1740948,48
1741564,28
1742196,12
1742820,41
1743440,93
1744068,81
1744684,45
1745316,11
1745944,37
1746560,52
1747188,57
1747812,58
1748444,46
1749072,53
1749688,44
1750320,12
1750944,11
1751568,11
1752196,14
1752816,12
1753444,21
1754068,44
1754692,62
1755320,38
1755944,53
1756572,62
1757204,64
1757824,69
1758452,62
1759076,52
1759708,19
1760336,10
1760960,11
1761588,10
1762212,47
1762832,61
1763460,42
1764080,49
1764708,53
1765332,51
1765952,46
1766584,19
1767200,11
1767828,12
1768456,16
1769080,18
1769708,11
1770332,25
1770960,18
1771588,14
1772208,49
1772836,63
1773460,72
1774084,93
1774716,86
1775336,70
1775968,47
1776592,41
1777216,23
1777844,22
1778464,55
1779092,50
1779724,18
1780344,37
1780972,44
1781596,54
1782228,49
1782856,48
1783476,26
1784104,25
1784728,19
1785352,17
1785980,33
1786600,51
1787228,62
1787852,46
1788476,16
1789108,58
1789728,69
1790356,59
1790988,63
1791608,50
1792240,46
1792860,73
1793488,67
1794120,14
1794736,21
1795364,17
1795988,36
1796612,19
1797244,46
1797864,51
1798492,47
1799116,47
1799740,40
1800368,16
1800984,18
1801616,23
1802236,27
1802864,54
1803492,79
1804116,71
1804744,55
1805376,43
1805992,58
1806620,65
1807244,67
1807872,58
1808500,56
1809120,67
1809748,73
1810372,62
1810996,12
1811624,46
1812240,29
1812872,24
1813492,17
1814116,45
1814748,63
1815372,70
1816000,57
1816628,50
1817248,13
1817876,61
1818500,45
1819132,34
1819760,35
1820376,67
1821008,108
1821684,112
1822356,68
1822984,51
1823604,50
1824236,51
1824864,33
1825480,40
1826108,91
1826732,135
1827408,138
1828084,127
1828756,74
1829376,31
1830008,75
1830624,56
1831256,54
1831880,69
1832504,68
1833132,63
1833752,57
1834380,26
1835004,18
1835632,59
1836260,69
1836884,48
1837516,20
1838144,78
1838764,71
1839392,49
1840016,52
1840644,51
1841272,50
1841896,25
1842524,27
1843148,86
1843776,101
1844456,58
1845072,23
1845700,13
1846328,11
1846944,45
1847576,55
1848200,47
1848828,49
1849456,60
1850076,69
1850704,32
1851328,15
1851952,11
1852580,11
1853200,19
1853828,16
1854452,35
1855076,20
1855704,52
1856328,62
1856956,66
1857588,61
1858208,54
1858836,75
1859460,93
1860088,93
1860720,74
1861336,41
1861964,12
1862588,24
1863212,50
1863844,106
1864516,113
1865192,129
1865868,109
1866540,63
1867164,23
1867796,11
1868416,14
1869044,21
1869668,18
1870296,24
1870928,50
1871544,39
1872176,47
1872800,61
1873420,62
1874052,60
1874672,51
1875300,47
1875924,69
1876548,73
1877180,38
1877800,19
1878428,11
1879060,18
1879680,41
1880308,42
1880932,47
1881564,49
1882196,50
1882816,51
1883444,13
1884072,30
1884696,12
1885324,21
1885944,48
1886572,59
1887196,76
1887820,43
1888452,14
1889072,57
1889700,59
1890328,59
1890952,64
1891580,60
1892204,52
1892836,56
1893464,69
1894084,37
1894712,15
1895336,16
1895960,45
1896588,38
1897208,43
1897836,47
1898460,49
1899084,57
1899716,70
1900336,42
1900964,22
1901596,48
1902216,13
1902844,79
1903472,119
1904152,66
1904776,20
1905396,81
1906024,85
1906648,66
1907272,59
1907900,49
1908520,30
1909148,33
1909780,10
1910400,29
1911028,42
1911652,13
1912284,13
1912916,39
1913536,20
1914168,48
1914792,53
1915416,53
1916048,55
1916664,30
1917296,45
1917920,53
1918544,43
1919176,12
1919796,19
1920428,50
1921056,66
1921672,32
1922300,62
1922924,64
1923556,60
1924184,53
1924800,20
1925428,27
1926052,11
1926676,20
1927304,11
1927928,11
1928556,14
1929180,66
1929804,91
1930432,65
1931048,46
1931680,53
1932308,48
1932928,45
1933556,11
1934180,11
1934812,13
1935440,28
1936056,53
1936688,27
1937308,68
1937932,97
1938564,68
1939184,46
1939812,60
1940440,93
1941064,116
1941744,42
1942360,11
1942992,12
1943620,11
1944240,37
1944868,40
1945496,70
1946120,79
1946748,32
1947368,49
1947996,75
1948620,79
1949244,77
1949876,44
1950496,29
1951124,13
1951756,12
1952376,19
1953004,15
1953628,20
1954256,22
1954888,15
1955504,53
1956136,57
1956756,52
1957384,47
1958012,31
1958632,11
1959260,21
1959884,30
1960508,13
1961140,34
1961760,37
1962388,23
1963020,63
1963640,64
1964268,70
1964892,76
1965524,49
1966156,56
1966776,32
1967404,15
1968028,43
1968648,25
1969276,10
1969896,64
1970524,60
1971148,45
1971772,23
1972404,42
1973024,47
1973652,50
1974284,54
1974904,70
1975532,75
1976156,116
1976840,130
1977512,47
1978128,16
1978756,69
1979380,105
1980056,57
1980680,51
1981304,61
1981932,65
1982564,50
1983184,27
1983816,20
1984440,16
1985060,12
1985692,10
1986312,10
1986940,17
1987564,37
1988188,27
1988816,58
1989432,82
1990064,79
1990692,54
1991312,37
1991944,10
1992568,11
1993196,10
1993824,16
1994448,30
1995076,34
1995700,41
1996324,37
1996956,35
1997576,44
1998204,48
1998828,53
1999452,49
2000080,14
2000700,14
2001332,10
2001960,10
2002576,12
2003208,25
2003828,56
2004460,83
2005088,85
2005708,48
2006336,48
2006960,48
2007584,55
2008212,86
2008832,111
2009512,103
2010188,57
2010808,15
2011436,29
2012060,21
2012684,25
2013312,15
2013936,43
2014564,48
2015188,54
2015812,67
2016444,27
2017064,14
2017692,11
2018320,15
2018944,13
2019572,24
2020196,49
2020828,44
2021456,17
2022072,68
2022704,105
2023380,70
2024000,59
2024628,86
2025248,97
2025876,91
2026508,78
2027128,66
2027760,26
2028380,25
2029012,113
2029692,170
2030364,83
2030992,44
2031620,51
2032240,51
2032868,47
2033492,27
2034124,25
2034752,48
2035376,88
2036004,110
2036680,42
2037296,19
2037928,14
2038548,24
2039176,53
2039800,72
2040424,73
2041052,61
2041676,39
2042308,22
2042936,22
2043560,18
2044188,12
2044816,12
2045444,11
2046076,10
2046696,23
2047328,44
2047952,53
2048576,51
2049204,46
2049820,18
2050448,11
2051068,22
2051692,15
2052320,20
2052944,14
2053572,39
2054200,46
2054816,46
2055444,41
2056068,44
2056696,50
2057324,66
2057944,72
2058572,47
2059192,49
2059816,45
2060444,30
2061064,19
2061692,23
2062312,13
2062936,32
2063564,36
2064184,48
2064812,48
2065440,50
2066056,49
2066684,36
2067308,27
2067936,11
2068564,10
2069180,31
2069812,25
2070432,21
2071056,29
2071684,39
2072304,42
2072932,58
2073556,59
2074180,56
2074808,43
2075432,53
2076060,69
2076688,54
2077312,14
2077940,21
2078564,45
2079192,13
2079824,22
2080440,42
2081068,45
2081692,47
2082312,48
2082944,44
2083560,13
2084188,35
2084812,63
2085432,72
2086060,99
2086680,101
2087360,77
2087980,50
2088600,36
2089228,60
2089852,77
2090480,58
2091108,50
2091728,43
2092356,77
2092980,71
2093600,59
2094232,32
2094848,13
2095476,40
2096100,63
2096724,27
2097352,36
2097968,45
2098596,45
2099224,45
2099844,19
2100472,14
2101096,15
2101724,13
2102356,40
2102976,44
2103604,17
2104228,29
2104852,51
2105480,99
2106100,105
2106780,70
2107404,54
2108024,31
2108652,15
2109276,15
2109908,12
2110536,16
2111152,23
2111784,14
2112408,14
2113028,42
2113660,41
2114280,43
2114908,44
2115532,45
2116152,99
2116784,136
2117452,103
2118128,44
2118756,30
2119376,47
2120004,57
2120628,35
2121252,19
2121880,34
2122496,99
2123128,119
2123808,76
2124424,51
2125052,31
2125676,22
2126304,12
2126936,11
2127552,19
2128184,74
2128808,77
2129428,59
2130060,62
2130680,50
2131308,43
2131928,46
2132552,47
2133180,17
2133800,12
2134428,11
2135056,22
2135680,24
2136308,30
2136932,30
2137560,25
2138192,40
2138808,47
2139436,69
2140060,55
2140684,54
2141316,52
2141936,46
2142564,49
2143188,21
2143812,17
2144444,10
2145064,11
2145692,34
2146320,66
2146944,59
2147572,43
2148196,45
2148828,44
2149456,46
2150072,19
2150704,46
2151328,65
2151948,60
2152580,50
2153200,43
2153828,46
2154452,51
2155076,16
2155704,83
2156320,81
2156952,85
2157580,78
2158200,57
2158828,33
2159452,35
2160084,31
2160712,23
2161328,11
2161956,35
2162580,46
2163204,26
2163832,42
2164456,45
2165084,45
2165708,69
2166332,70
2166964,39
2167584,23
2168212,24
2168844,59
2169464,48
2170092,53
2170716,72
2171348,53
2171976,41
2172600,48
2173228,47
2173852,47
2174476,45
2175108,40
2175728,74
2176360,67
2176980,55
2177604,41
2178232,37
2178848,17
2179476,11
2180104,14
2180728,41
2181356,77
2181980,109
2182660,78
2183284,47
2183904,32
2184532,20
2185156,17
2185780,16
2186408,13
2187032,33
2187660,28
2188284,15
2188912,59
2189540,66
2190164,66
2190796,49
2191424,24
2192048,11
2192676,15
2193300,63
2193924,87
2194556,84
2195176,41
2195808,11
2196432,11
2197056,49
2197684,48
2198304,46
2198936,45
2199564,44
2200184,15
2200812,42
2201436,37
2202068,18
2202696,20
2203320,22
2203948,32
2204572,38
2205196,33
2205828,45
2206448,53
2207076,62
2207700,64
2208324,63
2208956,52
2209576,63
2210204,36
2210836,14
2211456,27
2212084,58
2212708,69
2213340,31
2213968,40
2214584,48
2215216,54
2215840,51
2216460,24
2217092,11
2217712,41
2218340,61
2218964,62
2219588,41
2220220,33
2220840,48
2221468,45
2222100,54
2222720,70
2223348,79
2223972,61
2224604,35
2225236,48
2225856,57
2226484,41
2227108,13
2227736,11
2228364,22
2228984,14
2229612,15
2230236,47
2230864,44
2231492,46
2232112,47
2232744,47
2233372,12
2233992,15
2234620,11
2235248,21
2235876,30
2236508,24
2237128,44
2237756,47
2238384,25
2239008,43
2239640,54
2240256,50
2240888,58
2241508,63
2242132,93
2242764,109
2243436,96
2244060,35
2244692,28
2245312,81
2245940,69
2246564,38
2247188,42
2247820,65
2248440,57
2249068,46
2249692,35
2250316,33
2250948,16
2251568,13
2252196,11
2252828,10
2253444,29
2254076,33
2254700,20
2255328,45
2255956,45
2256576,45
2257204,47
2257828,44
2258452,19
2259080,27
2259700,19
2260328,11
2260952,16
2261576,57
2262204,54
2262824,58
2263452,41
2264084,37
2264704,44
2265332,50
2265956,51
2266588,20
2267216,31
2267832,39
2268464,29
2269084,49
2269708,31
2270340,28
2270960,27
2271588,19
2272216,45
2272840,61
2273468,74
2274088,62
2274716,46
2275348,41
2275968,43
2276596,13
2277220,10
2277852,18
2278484,19
2279104,17
2279732,31
2280356,40
2280980,45
2281608,50
2282232,74
2282860,76
2283484,52
2284112,35
2284740,29
2285360,17
2285988,17
2286620,18
2287240,35
2287872,18
2288496,19
2289124,52
2289756,61
2290376,88
2291008,85
2291632,77
2292256,57
2292884,71
2293504,32
2294136,45
2294760,43
2295380,14
2296012,26
2296632,42
2297260,38
2297892,54
2298512,51
2299140,44
2299764,18
2300396,21
2301024,18
2301648,23
2302276,50
2302904,68
2303528,75
2304160,50
2304772,19
2305400,55
2306024,93
2306648,120
2307328,81
2307944,55
2308572,24
2309200,25
2309816,28
2310448,36
2311068,26
2311692,15
2312324,16
2312944,29
2313572,50
2314196,66
2314824,60
2315452,47
2316072,47
2316700,25
2317332,38
2317952,33
2318580,25
2319204,11
2319836,52
2320464,90
2321088,82
2321716,53
2322340,42
2322964,47
2323592,48
2324216,52
2324844,93
2325468,140
2326144,146
2326820,140
2327492,95
2328112,47
2328740,16
2329360,21
2329988,18
2330612,52
2331236,53
2331868,49
2332492,47
2333120,30
2333748,56
2334368,75
2335000,78
2335624,73
2336252,46
2336880,31
2337504,25
2338132,23
2338756,57
2339380,74
2340012,70
2340632,65
2341260,55
2341884,64
2342512,43
2343140,14
2343764,23
2344396,51
2345024,58
2345648,41
2346276,11
2346900,43
2347528,41
2348156,44
2348776,45
2349408,47
2350032,39
2350656,43
2351284,21
2351904,19
2352536,53
2353164,43
2353784,37
2354416,27
2355040,29
2355672,41
2356300,47
2356920,51
2357548,47
2358172,29
2358796,36
2359428,40
2360048,46
2360676,30
2361300,33
2361924,36
2362556,22
2363176,29
2363808,59
2364436,58
2365056,55
2365688,60
2366312,47
2366940,21
2367572,76
2368192,110
2368876,90
2369496,77
2370120,69
2370748,85
2371368,68
2371996,42
2372628,52
2373248,59
2373876,72
2374504,92
2375132,102
2375816,95
2376432,67
2377060,13
2377684,26
2378308,25
2378940,28
2379560,23
2380188,30
2380820,40
2381440,47
2382068,64
2382692,65
2383324,45
2383952,16
2384576,13
2385204,21
2385828,16
2386456,12
2387084,18
2387704,17
2388332,21
2388960,92
2389580,125
2390264,74
2390888,45
2391520,15
2392148,11
2392768,49
2393400,47
2394024,12
2394648,27
2395280,14
2395896,39
2396528,39
2397152,40
2397776,44
2398408,45
2399024,48
2399656,26
2400284,14
2400904,13
2401532,31
2402156,63
2402788,40
2403416,18
2404036,23
2404664,19
2405288,49
2405912,62
2406544,77
2407160,87
2407788,57
2408412,15
2409036,12
2409664,10
2410288,11
2410916,29
2411548,22
2412168,37
2412796,43
2413420,27
2414052,42
2414684,45
2415304,55
2415936,64
2416560,26
2417184,24
2417812,109
2418484,133
2419160,101
2419844,64
2420464,28
2421092,15
2421716,25
2422344,52
2422972,51
2423592,59
2424224,101
2424904,116
2425572,90
2426200,23
2426824,124
2427500,182
2428180,194
2428852,67
2429472,71
2430104,117
2430772,98
2431400,52
2432032,90
2432648,196
2433328,222
2433996,138
2434668,82
2435292,88
2435916,110
2436600,81
2437224,40
2437840,21
2438468,25
2439092,80
2439716,93
2440348,75
2440968,57
2441596,51
2442220,31
2442848,17
2443476,16
2444100,15
2444732,32
2445364,46
2445984,15
2446616,30
2447240,47
2447868,47
2448500,50
2449120,49
2449748,20
2450372,16
2451000,11
2451632,11
2452248,36
2452880,26
2453504,40
2454128,51
2454760,61
2455384,43
2456016,61
2456644,83
2457264,86
2457896,87
2458516,92
2459140,59
2459772,25
2460392,13
2461020,10
2461644,10
2462268,31
2462896,54
2463512,46
2464144,53
2464768,71
2465392,60
2466020,68
2466644,56
2467272,14
2467900,78
2468520,122
2469200,57
2469816,13
2470440,18
2471068,20
2471688,17
2472316,41
2472940,51
2473564,48
2474196,51
2474820,53
2475448,51
2476080,56
2476696,56
2477328,31
2477948,12
2478580,56
2479212,42
2479832,21
2480464,53
2481084,44
2481708,65
2482340,56
2482960,37
2483588,71
2484212,85
2484836,86
2485464,27
2486088,23
2486720,36
2487348,90
2487968,135
2488652,145
2489324,103
2489996,70
2490620,48
2491244,75
2491876,74
2492504,40
2493128,42
2493756,33
2494384,42
2495008,39
2495636,13
2496256,13
2496884,49
2497508,63
2498132,47
2498764,68
2499384,74
2500012,27
2500640,18
2501264,12
2501892,11
2502516,12
2503148,21
2503780,12
2504400,15
2505028,17
2505652,45
2506276,52
2506908,56
2507528,59
2508156,18
2508784,57
2509408,71
2510036,35
2510660,17
2511292,29
2511924,12
2512544,29
2513172,15
2513800,49
2514428,44
2515060,64
2515680,56
2516308,61
2516936,73
2517560,33
2518188,14
2518808,12
2519440,15
2520064,14
2520688,21
2521316,33
2521944,47
2522572,89
2523200,88
2523824,83
2524456,81
2525080,65
2525704,53
2526336,65
2526952,81
2527584,41
2528208,25
2528832,11
2529460,11
2530080,29
2530708,48
2531340,47
2531960,49
2532592,51
2533216,29
2533844,19
2534476,23
2535096,63
2535728,102
2536404,84
2537024,43
2537652,13
2538272,41
2538904,112
2539584,113
2540260,80
2540884,69
2541508,72
2542132,54
2542764,30
2543384,17
2544012,88
2544636,96
2545264,57
2545896,37
2546520,23
2547148,43
2547780,42
2548400,51
2549032,59
2549656,70
2550280,53
2550912,56
2551528,47
2552160,13
2552784,13
2553408,42
2554040,33
2554660,16
2555288,86
2555920,79
2556540,80
2557172,83
2557796,57
2558428,54
2559060,62
2559680,15
2560312,27
2560936,31
2561556,44
2562188,24
2562808,13
2563436,48
2564056,47
2564676,49
2565308,50
2565928,53
2566556,13
2567184,13
2567800,17
2568428,23
2569052,35
2569680,37
2570308,54
2570928,54
2571556,45
2572180,42
2572804,51
2573432,49
2574056,49
2574684,26
2575308,19
2575932,63
2576564,88
2577184,55
2577812,38
2578444,35
2579064,12
2579692,26
2580316,44
2580948,45
2581576,48
2582192,47
2582820,45
2583444,37
2584068,55
2584700,46
2585320,40
2585948,35
2586572,24
2587196,15
2587824,28
2588444,31
2589072,50
2589700,59
2590320,58
2590948,53
2591572,38
2592204,26
2592832,26
2593448,41
2594076,27
2594700,21
2595332,25
2595960,13
2596576,19
2597208,48
2597832,45
2598456,61
2599084,74
2599704,64
2600332,30
2600956,26
2601584,77
2602212,90
2602836,52
2603468,16
2604096,14
2604720,34
2605348,92
2605972,85
2606600,50
2607228,57
2607848,112
2608528,100
2609208,20
2609832,19
2610460,25
2611088,13
2611716,32
2612348,46
2612968,23
2613596,43
2614220,48
2614844,50
2615476,47
2616096,49
2616724,23
2617356,18
2617976,28
2618604,17
2619228,13
2619860,17
2620488,15
2621112,23
2621744,22
2622364,51
2622988,59
2623616,55
2624240,53
2624868,67
2625488,84
2626108,82
2626740,85
2627356,56
2627988,24
2628616,23
2629232,69
2629860,55
2630484,47
2631112,50
2631740,53
2632360,52
2632988,30
2633608,24
2634236,23
2634868,24
2635488,37
2636116,43
2636740,49
2637364,43
2637996,26
2638616,45
2639244,57
2639868,63
2640496,77
2641124,91
2641748,84
2642376,85
2643004,78
2643624,51
2644252,40
2644872,33
2645504,13
2646132,23
2646752,24
2647380,46
2648004,50
2648624,50
2649256,48
2649872,48
2650500,29
2651124,11
2651748,46
2652376,76
2653000,59
2653628,39
2654256,15
2654880,15
2655508,42
2656132,52
2656760,49
2657392,52
2658008,57
2658636,57
2659260,51
2659884,54
2660512,39
2661128,24
2661760,26
2662384,21
2663008,14
2663636,43
2664260,47
2664888,51
2665516,50
2666136,44
2666764,15
2667388,21
2668016,19
2668644,35
2669264,16
2669892,79
2670516,69
2671140,69
2671768,60
2672384,46
2673016,49
2673636,48
2674260,50
2674888,16
2675512,35
2676140,77
2676768,93
2677392,75
2678020,22
2678644,49
2679272,62
2679904,27
2680520,41
2681148,48
2681772,53
2682396,62
2683024,57
2683648,46
2684276,31
2684900,20
2685520,97
2686152,126
2686820,117
2687496,85
2688128,76
2688740,46
2689368,59
2689992,72
2690616,56
2691244,47
2691860,67
2692492,69
2693112,54
2693736,43
2694368,37
2694992,22
2695620,17
2696248,24
2696872,45
2697500,52
2698124,56
2698752,58
2699384,50
2700000,37
2700628,61
2701252,47
2701876,28
2702508,92
2703128,85
2703756,84
2704380,96
2705008,49
2705636,46
2706260,69
2706888,89
2707516,51
2708136,14
2708764,21
2709388,60
2710020,58
2710648,15
2711264,21
2711896,34
2712520,26
2713144,17
2713772,50
2714392,48
2715020,48
2715644,47
2716272,31
2716900,39
2717524,41
2718152,33
2718784,15
2719400,10
2720032,23
2720652,25
2721284,21
2721912,45
2722528,71
2723156,105
2723832,101
2724504,82
2725124,74
2725748,52
2726376,15
2727004,23
2727624,33
2728252,61
2728876,76
2729500,61
2730128,41
2730744,47
2731376,48
2732000,48
2732624,55
2733252,36
2733872,24
2734500,17
2735132,14
2735752,19
2736380,29
2737004,23
2737636,13
2738264,15
2738884,56
2739512,50
2740136,51
2740760,49
2741388,16
2742008,25
2742636,70
2743260,120
2743936,112
2744612,82
2745232,86
2745860,41
2746492,16
2747112,41
2747740,53
2748364,71
2748988,94
2749620,125
2750292,93
2750920,50
2751548,28
2752168,20
2752796,26
2753420,16
2754048,29
2754680,35
2755296,45
2755924,62
2756548,72
2757172,70
2757804,55
2758424,42
2759052,32
2759676,10
2760304,12
2760932,17
2761556,12
2762188,17
2762820,18
2763440,31
2764068,43
2764692,51
2765320,59
2765948,66
2766568,38
2767196,17
2767820,41
2768444,55
2769072,54
2769696,60
2770324,60
2770956,58
2771576,54
2772204,41
2772828,48
2773460,56
2774088,61
2774708,57
2775336,39
2775960,63
2776584,65
2777212,48
2777832,49
2778460,22
2779084,49
2779708,51
2780340,44
2780960,52
2781588,49
2782220,46
2782840,44
2783468,52
2784096,44
2784724,36
2785352,30
2785976,35
2786604,35
2787228,27
2787848,36
2788480,39
2789096,80
2789724,117
2790408,106
2791072,80
2791700,67
2792324,69
2792952,102
2793636,46
2794256,39
2794884,65
2795508,68
2796132,61
2796764,44
2797388,46
2798020,63
2798648,69
2799268,57
2799896,48
2800520,24
2801152,19
2801780,38
2802400,33
2803028,13
2803652,31
2804276,34
2804908,18
2805528,54
2806156,79
2806780,72
2807408,65
2808036,38
2808660,11
2809288,11
2809920,46
2810536,24
2811164,11
2811792,11
2812420,11
2813052,14
2813672,77
2814304,102
2814984,52
2815600,50
2816232,60
2816852,73
2817484,90
2818112,86
2818728,60
2819356,68
2819980,100
2820660,64
2821284,32
2821904,121
2822584,142
2823260,125
2823932,92
2824556,85
2825180,41
2825804,16
2826436,24
2827056,43
2827684,44
2828312,41
2828932,53
2829560,52
2830184,41
2830812,52
2831440,73
2832064,63
2832692,49
2833316,36
2833940,40
2834568,16
2835184,10
2835816,39
2836440,60
2837064,24
2837692,12
2838312,32
2838944,45
2839572,72
2840192,71
2840820,59
2841444,35
2842076,34
2842704,46
2843328,47
2843956,13
2844580,21
2845204,11
2845836,10
2846456,15
2847084,44
2847708,42
2848332,47
2848964,49
2849584,23
2850212,26
2850844,35
2851464,35
2852092,12
2852716,48
2853348,57
2853980,51
2854600,56
2855228,42
2855852,60
2856476,70
2857108,60
2857728,49
2858356,11
2858980,20
2859604,41
2860236,26
2860856,25
2861484,16
2862116,20
2862736,50
2863368,56
2863992,54
2864624,57
2865252,50
2865872,53
2866504,14
2867128,16
2867752,47
2868384,55
2869000,49
2869628,39
2870252,40
2870876,30
2871504,24
2872124,44
2872752,63
2873380,70
2874000,63
2874628,49
2875252,43
2875884,53
2876512,45
2877132,13
2877760,11
2878384,19
2879008,43
2879636,40
2880256,43
2880884,46
2881504,54
2882128,57
2882756,54
2883376,29
2884004,11
2884632,20
2885248,21
2885876,38
2886500,65
2887128,57
2887756,16
2888376,47
2889004,91
2889624,88
2890248,74
2890876,82
2891496,98
2892124,94
2892748,42
2893372,40
2894004,98
2894624,79
2895252,66
2895884,48
2896504,16
2897132,50
2897756,46
2898388,45
2899016,50
2899632,20
2900264,38
2900888,90
2901508,95
2902140,31
2902760,53
2903388,124
2904072,91
2904688,67
2905316,45
2905940,42
2906572,47
2907200,48
2907816,31
2908448,35
2909072,75
2909700,101
2910384,96
2911000,81
2911628,71
2912256,26
2912880,94
2913508,80
2914132,66
2914764,62
2915392,51
2916012,48
2916640,21
2917264,15
2917892,15
2918524,11
2919144,30
2919772,40
2920396,57
2921020,75
2921648,46
2922272,51
2922900,79
2923528,99
2924152,103
2924832,103
2925508,68
2926128,29
2926756,21
2927376,34
2928004,43
2928628,14
2929252,70
2929884,63
2930508,49
2931136,48
2931768,59
2932388,53
2933016,30
2933640,27
2934268,23
2934900,16
2935520,11
2936148,16
2936776,39
2937400,30
2938032,15
2938648,51
2939280,53
2939904,62
2940528,60
2941160,57
2941784,41
2942412,41
2943044,34
2943664,11
2944296,23
2944920,21
2945540,40
2946172,86
2946792,68
2947420,42
2948048,67
2948672,89
2949300,62
2949920,12
2950548,19
2951176,29
2951796,29
2952424,51
2953048,49
2953676,55
2954304,52
2954928,30
2955556,65
2956180,81
2956804,61
2957436,70
2958056,101
2958736,91
2959364,71
2959984,45
2960612,11
2961236,14
2961868,16
2962496,16
2963112,23
2963744,45
2964368,50
2964996,48
2965628,48
2966248,32
2966876,30
2967500,25
2968128,15
2968756,24
2969376,14
2970008,47
2970636,72
2971256,62
2971884,51
2972508,46
2973136,67
2973768,62
2974384,46
2975012,10
2975636,12
2976264,10
2976892,10
2977512,17
2978140,30
2978764,61
2979388,37
2980020,25
2980640,49
2981268,63
2981900,58
2982520,50
2983148,62
2983772,47
2984404,43
2985032,40
2985648,18
2986280,70
2986904,66
2987528,38
2988156,16
2988776,57
2989408,53
2990032,61
2990656,51
2991284,36
2991904,51
2992536,72
2993164,70
2993784,50
2994412,19
2995036,15
2995668,51
2996300,42
2996920,45
2997548,48
2998172,49
2998800,48
2999428,40
3000048,18
3000676,47
3001300,36
3001924,16
3002556,12
3003176,19
3003808,25
3004436,19
3005056,29
3005688,57
3006312,68
3006940,65
3007572,60
3008192,59
3008824,66
3009448,62
3010072,47
3010700,16
3011320,12
3011948,69
3012572,112
3013248,102
3013928,42
3014552,61
3015176,105
3015860,84
3016480,36
3017108,13
3017740,63
3018360,135
3019044,119
3019716,70
3020336,41
3020968,31
3021584,23
3022216,48
3022840,81
3023464,91
3024096,85
3024716,47
3025348,43
3025980,66
3026600,88
3027228,58
3027852,15
3028484,47
3029116,14
3029736,15
3030368,44
3030992,52
3031620,56
3032252,46
3032872,35
3033504,61
3034136,35
3034752,23
3035384,23
3036008,50
3036640,70
3037268,54
3037888,34
3038520,44
3039144,57
3039768,67
3040400,74
3041016,73
3041648,66
3042268,94
3042892,84
3043524,20
3044144,59
3044772,57
3045404,62
3046024,75
3046656,34
3047280,45
3047908,49
3048540,48
3049160,55
3049792,27
3050412,33
3051040,20
3051668,12
3052288,33
3052916,48
3053540,91
3054168,99
3054796,48
3055416,49
3056048,65
3056676,55
3057296,54
3057924,37
3058552,40
3059180,55
3059816,51
3060432,25
3061064,30
3061688,54
3062312,65
3062944,58
3063564,45
3064192,44
3064820,51
3065444,47
3066076,39
3066700,11
3067332,33
3067964,60
3068584,43
3069216,15
3069840,48
3070472,54
3071104,53
3071724,37
3072356,79
3072980,95
3073600,87
3074228,94
3074848,103
3075528,76
3076152,55
3076768,20
3077396,12
3078020,11
3078652,52
3079280,87
3079904,56
3080532,39
3081156,49
3081780,53
3082412,56
3083032,23
3083660,12
3084284,11
3084912,19
3085540,24
3086164,32
3086796,49
3087424,60
3088044,48
3088672,46
3089296,67
3089924,85
3090552,75
3091172,64
3091804,70
3092428,84
3093052,83
3093680,58
3094304,20
3094936,22
3095564,76
3096184,73
3096812,46
3097436,45
3098068,49
3098700,48
3099320,48
3099948,15
3100576,12
3101200,17
3101828,11
3102448,43
3103076,69
3103704,85
3104328,80
3104956,66
3105576,49
3106208,46
3106836,48
3107456,53
3108088,96
3108712,126
3109392,130
3110076,65
3110696,21
3111328,31
3111960,32
3112580,53
3113208,89
3113832,71
3114464,66
3115092,78
3115712,111
3116396,74
3117016,41
3117640,55
3118272,15
3118888,99
3119516,190
3120200,213
3120876,221
3121552,170
3122236,89
3122856,54
3123488,49
3124108,51
3124740,35
3125368,54
3125992,76
3126624,76
3127248,53
3127868,20
3128500,32
3129120,69
3129748,38
3130380,53
3131000,85
3131628,61
3132256,55
3132884,32
3133516,10
3134136,15
3134768,12
3135392,28
3136016,47
3136644,32
3137264,42
3137892,53
3138520,45
3139144,51
3139772,71
3140392,73
3141024,65
3141652,64
3142272,59
3142904,48
3143528,31
3144160,14
3144788,10
3145408,17
3146040,19
3146664,25
3147288,45
3147916,48
3148536,51
3149168,51
3149792,13
3150416,12
3151044,16
3151664,30
3152296,64
3152924,78
3153544,77
3154176,62
3154800,41
3155428,48
3156060,55
3156680,64
3157312,64
3157936,60
3158560,51
3159192,47
3159808,29
3160440,37
3161064,37
3161688,25
3162316,12
3162936,16
3163568,49
3164196,56
3164816,50
3165444,49
3166068,36
3166700,11
3167332,13
3167952,31
3168584,19
3169212,19
3169836,59
3170468,62
3171088,55
3171720,47
3172344,46
3172968,52
3173600,69
3174224,67
3174856,43
3175484,51
3176104,59
3176732,62
3177360,41
3177988,35
3178620,12
3179240,32
3179872,21
3180496,50
3181120,86
3181748,82
3182368,58
3183000,22
3183632,12
3184252,11
3184880,11
3185504,12
3186136,18
3186768,43
3187388,72
3188020,67
3188644,44
3189268,51
3189900,63
3190520,68
3191152,67
3191776,77
3192404,78
3193036,104
3193708,84
3194336,31
3194968,21
3195584,33
3196216,19
3196840,45
3197464,48
3198096,50
3198712,48
3199344,48
3199972,57
3200600,61
3201228,32
3201848,12
3202476,12
3203104,19
3203720,15
3204352,19
3204976,29
3205604,47
3206232,52
3206852,52
3207480,60
3208104,65
3208724,89
3209356,124
3210028,106
3210704,80
3211332,75
3211952,53
3212580,37
3213208,17
3213828,93
3214460,159
3215132,153
3215812,91
3216436,46
3217056,32
3217684,35
3218308,89
3218936,66
3219568,39
3220184,53
3220812,38
3221436,20
3222060,51
3222692,73
3223312,63
3223944,53
3224568,27
3225192,31
3225820,76
3226444,107
3227128,85
3227748,90
3228368,40
3228996,11
3229620,13
3230244,43
3230872,50
3231496,51
3232128,55
3232748,57
3233372,74
3234004,47
3234628,31
3235256,19
3235888,19
3236504,15
3237132,13
3237756,24
3238388,37
3239020,69
3239640,74
3240272,67
3240892,61
3241516,61
3242148,59
3242768,22
3243396,25
3244020,22
3244644,17
3245276,28
3245900,32
3246532,37
3247160,40
3247784,47
3248416,50
3249040,52
3249668,33
3250300,38
3250920,33
3251552,37
3252176,49
3252796,45
3253428,50
3254048,37
3254676,23
3255308,48
3255928,59
3256560,61
3257184,59
3257812,62
3258444,62
3259064,57
3259692,50
3260320,22
3260944,11
3261572,14
3262192,34
3262824,17
3263448,55
3264072,64
3264700,52
3265320,64
3265948,65
3266580,22
3267200,25
3267828,54
3268452,66
3269084,85
3269716,83
3270336,92
3270968,53
3271592,28
3272216,81
3272844,62
3273464,56
3274096,49
3274720,24
3275344,44
3275976,49
3276596,51
3277228,34
3277856,32
3278472,55
3279100,70
3279720,90
3280352,86
3280980,60
3281596,51
3282228,51
3282848,85
3283472,99
3284100,158
3284772,176
3285448,64
3286068,15
3286688,15
3287316,13
3287940,19
3288568,47
3289196,91
3289816,108
3290496,109
3291168,72
3291784,23
3292412,32
3293036,29
3293664,34
3294292,28
3294912,63
3295540,96
3296164,67
3296788,45
3297416,44
3298032,50
3298660,50
3299284,46
3299904,40
3300532,66
3301152,68
3301780,57
3302408,18
3303028,36
3303660,74
3304284,84
3304912,56
3305540,50
3306160,61
3306788,58
3307412,53
3308040,57
3308668,68
3309288,57
3309916,38
3310540,14
3311164,15
3311792,12
3312416,37
3313044,33
3313676,40
3314296,47
3314924,52
3315548,50
3316180,27
3316808,16
3317424,15
3318052,30
3318676,54
3319300,54
3319932,50
3320552,23
3321180,25
3321804,77
3322428,89
3323056,108
3323724,119
3324400,39
3325028,23
3325648,12
3326276,28
3326900,20
3327524,11
3328156,12
3328772,45
3329400,54
3330024,42
3330644,45
3331276,48
3331896,55
3332524,66
3333152,59
3333768,70
3334396,85
3335020,53
3335652,23
3336280,15
3336896,23
3337524,15
3338148,39
3338772,83
3339400,87
3340024,64
3340652,53
3341276,52
3341900,31
3342528,32
3343152,33
3343780,31
3344412,54
3345032,101
3345712,100
3346380,102
3347052,52
3347676,49
3348300,49
3348932,51
3349560,73
3350180,114
3350860,121
3351532,127
3352204,98
3352828,74
3353452,41
3354084,14
3354712,15
3355332,52
3355960,59
3356584,62
3357208,53
3357840,23
3358456,17
3359088,46
3359712,60
3360336,17
3360964,22
3361580,18
3362212,24
3362840,19
3363456,50
3364084,51
3364708,48
3365336,49
3365964,46
3366584,24
3367212,44
3367836,49
3368456,33
3369088,14
3369704,59
3370332,85
3370956,69
3371580,34
3372208,59
3372824,73
3373456,63
3374076,57
3374704,38
3375332,48
3375956,33
3376588,19
3377216,31
3377840,18
3378468,34
3379092,44
3379720,62
3380348,96
3380968,91
3381596,57
3382220,48
3382840,59
3383472,67
3384088,60
3384716,37
3385340,20
3385968,19
3386596,14
3387220,15
3387848,19
3388476,45
3389096,58
3389724,56
3390348,51
3390980,42
3391608,18
3392228,18
3392856,15
3393480,22
3394100,47
3394732,60
3395352,21
3395980,45
3396604,94
3397232,127
3397912,111
3398584,75
3399200,52
3399828,19
3400448,27
3401076,15
3401700,12
3402324,45
3402952,76
3403568,147
3404248,136
3404928,48
3405548,45
3406180,49
3406804,48
3407424,48
3408056,19
3408672,55
3409300,77
3409932,82
3410552,21
3411180,43
3411804,36
3412436,43
3413064,37
3413684,39
3414312,43
3414936,49
3415560,54
3416188,20
3416808,12
3417436,11
3418060,12
3418684,21
3419316,28
3419936,32
3420568,19
3421196,17
3421816,44
3422444,47
3423068,49
3423700,49
3424328,38
3424952,38
3425580,47
3426204,48
3426828,39
3427460,23
3428080,14
3428708,11
3429332,11
3429956,51
3430588,51
3431208,50
3431836,50
3432468,49
3433088,28
3433716,58
3434340,51
3434972,45
3435600,40
3436224,29
3436852,37
3437476,41
3438100,25
3438732,55
3439352,69
3439984,59
3440608,61
3441232,61
3441860,67
3442480,68
3443108,65
3443740,58
3444360,44
3444988,13
3445612,11
3446240,18
3446868,44
3447488,67
3448116,84
3448740,60
3449364,53
3449996,66
3450616,47
3451244,19
3451868,12
3452492,19
3453124,16
3453744,14
3454372,13
3455004,42
3455624,57
3456256,61
3456876,71
3457508,70
3458136,42
3458756,31
3459384,45
3460008,27
3460632,28
3461260,14
3461880,24
3462508,15
3463132,26
3463756,44
3464384,48
3465004,51
3465632,48
3466260,25
3466880,17
3467508,11
3468132,11
3468764,21
3469396,37
3470016,57
3470648,61
3471272,67
3471896,57
3472524,58
3473144,67
3473772,58
3474396,31
3475024,33
3475656,33
3476272,43
3476904,114
3477584,136
3478252,103
3478932,26
3479560,32
3480176,65
3480808,60
3481432,48
3482064,48
3482692,34
3483312,16
3483940,25
3484564,39
3485188,45
3485820,22
3486440,15
3487068,24
3487692,59
3488316,81
3488944,51
3489568,49
3490196,48
3490828,52
3491448,47
3492076,40
3492700,33
3493332,47
3493960,39
3494580,37
3495208,40
3495832,13
3496456,39
3497084,41
3497704,46
3498332,48
3498956,48
3499580,19
3500212,32
3500832,19
3501460,46
3502092,76
3502712,85
3503344,91
3503968,75
3504600,45
3505228,46
3505848,65
3506480,61
3507104,55
3507728,45
3508356,45
3508976,35
3509604,21
3510228,14
3510856,21
3511484,12
3512104,47
3512736,71
3513364,48
3513984,45
3514616,48
3515240,55
3515868,89
3516500,82
3517120,35
3517752,12
3518376,13
3519000,16
3519632,20
3520252,26
3520880,15
3521504,45
3522128,46
3522756,50
3523376,66
3524004,54
3524632,13
3525252,11
3525880,15
3526504,19
3527132,20
3527764,38
3528384,35
3529012,39
3529636,17
3530260,48
3530888,48
3531504,49
3532136,50
3532760,28
3533384,36
3534012,39
3534632,13
3535260,64
3535892,86
3536512,57
3537140,47
3537764,53
3538396,45
3539024,51
3539648,60
3540276,76
3540900,107
3541576,68
3542208,15
3542824,16
3543456,22
3544084,15
3544704,11
3545332,16
3545956,12
3546588,33
3547216,43
3547840,49
3548468,48
3549092,49
3549720,50
3550348,50
3550968,19
3551596,12
3552224,37
3552848,43
3553476,28
3554096,13
3554724,21
3555356,40
3555976,54
3556608,61
3557232,67
3557860,68
3558492,67
3559112,94
3559744,81
3560368,52
3560992,45
3561620,77
3562240,63
3562868,34
3563496,50
3564120,48
3564748,51
3565368,48
3565996,47
3566628,78
3567248,90
3567880,69
3568504,29
3569132,27
3569764,56
3570384,58
3571016,94
3571640,67
3572264,52
3572896,78
3573512,92
3574144,73
3574768,76
3575392,74
3576024,72
3576648,37
3577276,11
3577908,34
3578528,79
3579160,128
3579836,95
3580456,45
3581088,48
3581708,56
3582340,61
3582964,64
3583592,59
3584224,29
3584844,12
3585476,51
3586104,37
3586720,25
3587352,18
3587976,19
3588604,67
3589236,75
3589856,68
3590484,60
3591108,54
3591732,27
3592364,18
3592984,13
3593612,31
3594236,20
3594864,20
3595492,27
3596120,12
3596748,51
3597380,48
3598000,57
3598628,82
3599252,71
3599880,73
3600512,65
3601128,42
3601756,12
3602380,13
3603004,19
3603636,16
3604256,32
3604884,24
3605512,50
3606136,69
3606764,77
3607388,62
3608016,30
3608644,10
3609264,38
3609892,44
3610516,15
3611140,17
3611772,14
3612392,11
3613020,29
3613644,47
3614268,47
3614896,50
3615520,50
3616148,21
3616776,26
3617400,36
3618028,15
3618652,31
3619280,98
3619912,129
3620580,104
3621256,53
3621880,54
3622504,66
3623132,59
3623756,63
3624388,86
3625016,113
3625688,100
3626360,58
3626976,18
3627600,11
3628228,45
3628848,105
3629528,95
3630152,78
3630768,54
3631400,55
3632024,49
3632648,35
3633276,36
3633896,59
3634528,57
3635152,33
3635776,13
3636404,20
3637024,19
3637652,22
3638284,37
3638904,43
3639532,54
3640160,51
3640788,47
3641416,10
3642040,23
3642668,13
3643292,15
3643916,17
3644548,10
3645168,16
3645796,31
3646420,41
3647044,47
3647676,52
3648296,54
3648924,55
3649556,16
3650176,67
3650804,83
3651428,48
3652060,12
3652688,35
3653308,14
3653936,70
3654560,97
3655184,48
3655812,63
3656432,55
3657060,50
3657684,49
3658308,79
3658940,90
3659560,73
3660192,35
3660820,11
3661440,16
3662068,39
3662692,58
3663324,51
3663956,50
3664576,55
3665204,47
3665832,49
3666456,13
3667084,10
3667704,12
3668332,14
3668960,27
3669580,24
3670212,40
3670832,60
3671464,41
3672092,46
3672712,89
3673344,124
3674020,107
3674692,26
3675320,10
3675936,26
3676568,52
3677200,32
3677816,25
3678448,11
3679072,11
3679704,37
3680336,44
3680952,45
3681584,57
3682208,58
3682832,55
3683460,61
3684080,37
3684708,14
3685336,12
3685960,21
3686592,46
3687208,33
3687836,24
3688464,55
3689080,85
3689708,94
3690332,81
3690960,69
3691588,54
3692208,41
3692836,18
3693460,12
3694084,41
3694716,45
3695336,39
3695968,20
3696592,39
3697216,56
3697844,50
3698464,50
3699092,54
3699724,92
3700344,77
3700972,49
3701596,43
3702228,65
3702860,62
3703480,41
3704108,45
3704732,16
3705356,57
3705988,60
3706608,54
3707236,56
3707860,53
3708484,65
3709116,76
3709736,63
3710368,23
3710996,17
3711616,22
3712248,16
3712868,25
3713500,43
3714128,54
3714752,48
3715380,48
3716004,32
3716628,49
3717260,42
3717880,23
3718508,11
3719132,53
3719756,119
3720440,178
3721108,160
3721784,65
3722404,54
3723024,87
3723652,83
3724276,83
3724904,121
3725584,111
3726252,55
3726872,25
3727504,18
3728120,15
3728748,33
3729372,54
3729996,49
3730628,54
3731248,60
3731876,59
3732508,50
3733128,17
3733756,62
3734384,75
3735016,52
3735644,11
3736264,16
3736896,16
3737520,13
3738144,27
3738772,70
3739392,53
3740024,49
3740644,49
3741268,17
3741900,28
3742520,29
3743152,41
3743780,31
3744400,31
3745028,31
3745652,64
3746284,49
3746912,42
3747536,48
3748168,48
3748788,50
3749416,28
3750044,14
3750664,19
3751292,18
3751920,25
3752544,24
3753172,35
3753800,16
3754428,15
3755060,45
3755680,53
3756312,54
3756936,57
3757568,45
3758196,14
3758816,27
3759448,37
3760072,44
3760696,64
3761324,93
3761944,89
3762572,56
3763204,43
3763824,49
3764452,49
3765080,49
3765708,50
3766340,12
3766960,29
3767592,61
3768216,92
3768840,99
3769468,60
3770088,37
3770716,29
3771344,17
3771968,91
3772596,106
3773268,101
3773948,72
3774576,47
3775192,29
3775824,21
3776448,13
3777072,67
3777700,103
3778372,60
3779000,21
3779628,14
3780248,42
3780876,50
3781504,49
3782132,48
3782764,24
3783384,11
3784016,11
3784640,25
3785264,15
3785892,16
3786512,21
3787144,41
3787768,25
3788392,68
3789024,85
3789648,54
3790276,51
3790908,42
3791528,15
3792156,14
3792780,21
3793412,37
3794044,32
3794664,13
3795292,13
3795920,11
3796544,31
3797172,44
3797792,51
3798424,52
3799052,48
3799672,45
3800304,24
3800928,15
3801560,15
3802188,13
3802808,14
3803436,25
3804064,38
3804688,41
3805320,51
3805936,70
3806568,67
3807192,60
3807816,32
3808448,26
3809068,31
3809696,26
3810328,13
3810948,38
3811576,28
3812200,45
3812832,45
3813460,42
3814080,47
3814712,50
3815336,53
3815960,39
3816592,24
3817208,15
3817840,58
3818464,50
3819088,21
3819720,14
3820336,22
3820968,17
3821596,76
3822216,90
3822848,53
3823472,50
3824104,53
3824732,11
3825352,11
3825984,23
3826608,23
3827232,10
3827864,11
3828480,15
3829112,21
3829736,23
3830360,49
3830992,48
3831616,54
3832248,73
3832880,70
3833500,44
3834132,20
3834756,11
3835388,12
3836020,10
3836640,13
3837272,31
3837896,52
3838524,47
3839156,46
3839780,59
3840412,54
3841040,57
3841656,77
3842288,80
3842908,80
3843540,60
3844168,22
3844784,12
3845416,18
3846040,11
3846664,48
3847292,45
3847912,53
3848544,76
3849168,115
3849844,110
3850520,32
3851144,30
3851772,30
3852404,34
3853024,48
3853652,53
3854276,50
3854900,40
3855528,58
3856152,55
3856780,55
3857404,72
3858032,71
3858660,53
3859284,54
3859916,32
3860544,15
3861168,21
3861796,34
3862420,39
3863044,22
3863676,40
3864296,59
3864928,84
3865552,88
3866176,52
3866804,30
3867424,44
3868052,53
3868684,33
3869304,30
3869936,13
3870560,78
3871188,104
3871872,58
3872488,47
3873116,65
3873740,91
3874364,84
3874996,39
3875616,12
3876244,11
3876876,33
3877496,39
3878128,11
3878752,18
3879380,13
3880012,58
3880632,65
3881264,52
3881888,48
3882512,55
3883140,37
3883760,50
3884392,37
3885016,25
3885640,23
3886268,31
3886888,45
3887516,19
3888148,25
3888768,60
3889400,47
3890024,50
3890652,51
3891284,35
3891904,24
3892532,16
3893156,18
3893780,10
3894408,11
3895024,24
3895656,50
3896280,93
3896904,116
3897584,100
3898260,68
3898884,64
3899512,18
3900136,71
3900768,116
3901452,141
3902124,180
3902804,175
3903476,116
3904148,66
3904772,29
3905396,49
3906028,57
3906660,58
3907280,57
3907908,47
3908532,40
3909160,44
3909788,50
3910408,61
3911036,69
3911664,56
3912288,75
3912920,70
3913544,83
3914176,60
3914804,47
3915424,49
3916056,24
3916680,37
3917312,35
3917940,66
3918560,40
3919192,27
3919816,21
3920440,69
3921068,110
3921740,86
3922368,85
3922996,102
3923668,86
3924296,30
3924920,19
3925544,25
3926176,26
3926792,18
3927424,12
3928048,19
3928672,15
3929304,14
3929928,77
3930560,62
3931188,48
3931808,54
3932440,81
3933064,45
3933692,12
3934324,28
3934944,35
3935572,12
3936200,16
3936820,13
3937452,30
3938072,45
3938700,40
3939324,58
3939952,70
3940584,62
3941208,63
3941836,80
3942468,108
3943140,114
3943816,33
3944440,26
3945064,57
3945692,73
3946316,50
3946948,38
3947576,47
3948192,55
3948824,65
3949448,45
3950076,37
3950708,30
3951328,18
3951960,13
3952584,12
3953208,24
3953836,43
3954456,68
3955084,44
3955716,48
3956336,49
3956964,54
3957592,70
3958220,73
3958852,75
3959472,77
3960104,45
3960728,14
3961352,40
3961984,49
3962600,63
3963232,47
3963856,45
3964480,51
3965108,48
3965728,47
3966360,17
3966988,10
3967608,16
3968240,11
3968864,13
3969492,13
3970120,18
3970744,41
3971372,52
3972000,46
3972620,64
3973252,62
3973872,66
3974500,61
3975124,46
3975748,29
3976380,12
3977000,36
3977628,12
3978260,24
3978880,21
3979508,27
3980136,44
3980764,48
3981396,55
3982016,56
3982648,29
3983272,12
3983896,25
3984528,46
3985144,88
3985772,110
3986456,86
3987072,53
3987704,21
3988328,47
3988960,48
3989588,46
3990208,52
3990840,53
3991464,48
3992088,54
3992720,62
3993336,56
3993968,53
3994592,51
3995216,12
3995848,75
3996464,40
3997096,43
3997728,53
3998344,70
3998976,63
3999600,19
4000232,12
4000860,28
4001480,71
4002108,67
4002732,49
4003356,57
4003984,53
4004608,49
4005236,47
4005860,62
4006484,80
4007112,67
4007732,48
4008360,56
4008988,74
4009608,69
4010236,55
4010860,52
4011492,60
4012120,30
4012744,15
4013376,43
4014000,49
4014624,57
4015252,69
4015872,84
4016500,87
4017124,72
4017748,66
4018380,34
4019000,46
4019632,85
4020260,78
4020880,29
4021508,58
4022132,121
4022816,104
4023488,54
4024112,51
4024740,22
4025372,20
4025992,64
4026620,69
4027244,32
4027876,26
4028504,12
4029124,12
4029752,38
4030376,59
4031004,49
4031632,46
4032256,49
4032884,13
4033508,11
4034132,18
4034764,35
4035384,32
4036012,27
4036640,32
4037264,37
4037892,33
4038516,47
4039148,54
4039780,63
4040400,60
4041028,43
4041652,40
4042276,79
4042908,85
4043528,33
4044156,36
4044784,59
4045408,93
4046036,92
4046660,68
4047292,64
4047920,59
4048544,51
4049172,43
4049796,60
4050428,74
4051060,61
4051680,33
4052308,21
4052932,43
4053560,59
4054188,57
4054808,73
4055440,100
4056120,58
4056736,51
4057364,98
4057992,154
4058672,127
4059348,36
4059968,64
4060600,145
4061280,154
4061948,169
4062628,177
4063308,85
4063928,47
4064560,54
4065184,55
4065808,56
4066436,31
4067056,28
4067688,15
4068312,24
4068936,30
4069564,28
4070184,81
4070816,72
4071444,34
4072064,47
4072692,47
4073320,53
4073948,49
4074580,30
4075200,81
4075832,96
4076456,53
4077080,13
4077708,43
4078328,95
4078960,72
4079584,46
4080208,59
4080836,58
4081456,50
4082088,61
4082716,60
4083336,70
4083968,37
4084592,13
4085220,41
4085852,37
4086472,37
4087100,27
4087728,13
4088352,47
4088980,72
4089600,87
4090228,76
4090856,48
4091480,28
4092112,19
4092732,29
4093360,24
4093992,28
4094616,26
4095248,13
4095876,21
4096508,36
4097136,46
4097752,47
4098380,49
4099004,49
4099624,35
4100252,30
4100868,14
4101500,10
4102120,18
4102744,13
4103372,14
4103992,53
4104620,80
4105248,42
4105864,53
4106492,62
4107116,79
4107744,107
4108424,67
4109040,30
4109668,26
4110288,19
4110912,31
4111540,28
4112160,20
4112788,25
4113416,52
4114032,110
4114716,112
4115388,69
4116008,21
4116636,34
4117256,40
4117884,21
4118508,27
4119128,24
4119760,40
4120376,29
4121004,34
4121636,48
4122252,90
4122884,87
4123504,63
4124132,49
4124764,35
4125384,35
4126012,21
4126636,12
4127260,18
4127888,17
4128508,97
4129136,114
4129816,48
4130432,49
4131060,48
4131684,51
4132312,48
4132944,13
4133560,15
4134188,15
4134812,26
4135436,16
4136068,26
4136688,52
4137316,39
4137940,15
4138564,67
4139192,88
4139808,87
4140440,87
4141068,84
4141688,78
4142316,30
4142940,21
4143572,36
4144200,33
4144816,14
4145448,73
4146072,118
4146748,108
4147424,72
4148048,51
4148676,51
4149304,46
4149920,43
4150552,23
4151176,30
4151804,41
4152436,39
4153056,15
4153684,30
4154308,51
4154932,56
4155560,47
4156184,50
4156812,50
4157436,58
4158064,114
4158744,162
4159420,176
4160092,124
4160768,58
4161384,26
4162012,12
4162640,43
4163256,124
4163936,249
4164604,217
4165284,132
4165960,45
4166576,22
4167200,19
4167828,28
4168448,41
4169076,73
4169700,71
4170324,61
4170952,38
4171568,47
4172200,107
4172880,188
4173544,189
4174224,134
4174904,80
4175528,66
4176156,48
4176780,15
4177408,48
4178040,68
4178656,77
4179284,74
4179908,55
4180528,45
4181160,46
4181776,51
4182404,49
4183028,12
4183652,30
4184280,42
4184904,19
4185532,23
4186164,58
4186784,44
4187412,25
4188036,22
4188668,44
4189296,54
4189912,59
4190544,69
4191168,51
4191792,41
4192424,51
4193040,49
4193668,43
4194292,25
4194916,12
4195544,31
4196172,15
4196800,47
4197428,46
4198048,50
4198680,59
4199300,56
4199932,42
4200560,28
4201176,20
4201804,61
4202428,67
4203052,34
4203680,48
4204296,88
4204924,54
4205548,49
4206172,61
4206800,51
4207424,47
4208052,19
4208680,24
4209304,61
4209932,38
4210556,17
4211184,47
4211816,69
4212432,57
4213060,28
4213684,44
4214308,49
4214940,48
4215560,53
4216192,31
4216812,13
4217436,11
4218068,17
4218692,11
4219324,11
4219952,19
4220572,17
4221200,22
4221824,45
4222452,56
4223084,57
4223704,54
4224336,33
4224956,19
4225580,49
4226208,84
4226832,74
4227460,45
4228084,29
4228708,12
4229336,39
4229960,62
4230588,54
4231220,50
4231840,60
4232468,54
4233092,21
4233724,11
4234352,38
4234972,39
4235600,11
4236224,23
4236848,17
4237476,22
4238096,31
4238724,52
4239348,51
4239976,48
4240604,48
4241228,40
4241856,20
4242488,33
4243104,67
4243736,87
4244360,79
4244988,42
4245616,18
4246240,68
4246868,73
4247496,63
4248120,49
4248748,52
4249368,43
4249996,71
4250620,118
4251300,149
4251976,126
4252652,87
4253272,74
4253904,47
4254520,20
4255148,55
4255780,86
4256400,80
4257028,60
4257652,47
4258280,77
4258912,99
4259528,90
4260160,55
4260780,37
4261404,25
4262036,20
4262656,24
4263284,44
4263908,45
4264532,56
4265160,56
4265776,49
4266408,31
4267036,12
4267656,32
4268284,31
4268908,11
4269540,23
4270168,46
4270784,70
4271416,59
4272040,47
4272664,59
4273292,58
4273912,65
4274544,67
4275168,62
4275792,50
4276420,24
4277040,20
4277668,28
4278300,32
4278920,31
4279548,16
4280176,44
4280804,57
4281432,63
4282056,63
4282684,18
4283308,15
4283932,16
4284564,12
4285184,23
4285812,53
4286436,37
4287060,23
4287692,82
4288312,107
4288992,58
4289616,47
4290232,56
4290864,33
4291488,18
4292108,34
4292740,53
4293360,53
4293988,59
4294616,47
4295240,15
4295868,11
4296488,49
4297116,69
4297748,71
4298368,69
4299000,55
4299624,12
4300252,22
4300884,26
4301500,25
4302132,30
4302756,32
4303380,55
4304008,92
4304624,136
4305304,104
4305984,67
4306608,47
4307236,47
4307860,14
4308484,24
4309116,58
4309736,56
4310368,31
4310992,79
4311616,109
4312296,99
4312920,108
4313600,107
4314280,70
4314896,49
4315524,49
4316148,25
4316772,24
4317404,24
4318028,18
4318660,23
4319292,38
4319912,85
4320544,104
4321220,80
4321840,45
4322468,50
4323088,48
4323716,54
4324340,58
4324964,55
4325596,65
4326220,77
4326852,60
4327480,39
4328100,33
4328728,37
4329352,50
4329980,88
4330612,68
4331232,49
4331860,53
4332484,72
4333108,64
4333740,54
4334360,83
4334988,123
4335672,148
4336340,138
4337020,90
4337640,19
4338264,64
4338896,59
4339512,72
4340144,107
4340824,130
4341492,103
4342172,85
4342796,94
4343416,99
4344044,71
4344668,34
4345300,14
4345928,39
4346552,65
4347184,48
4347808,91
4348432,126
4349112,133
4349788,122
4350468,75
4351096,28
4351712,10
4352344,23
4352968,47
4353592,66
4354220,40
4354840,60
4355468,74
4356092,74
4356720,58
4357348,47
4357972,31
4358604,64
4359232,54
4359852,19
4360480,17
4361104,27
4361732,33
4362364,30
4362984,31
4363612,44
4364236,52
4364860,61
4365488,50
4366104,16
4366736,11
4367364,37
4367984,75
4368616,89
4369236,16
4369868,31
4370500,17
4371120,23
4371752,51
4372376,67
4373000,66
4373628,57
4374248,31
4374880,11
4375500,43
4376128,65
4376756,50
4377376,30
4378008,12
4378636,45
4379256,28
4379884,48
4380512,62
4381140,49
4381772,50
4382392,43
4383024,29
4383648,55
4384272,40
4384900,17
4385520,13
4386148,21
4386772,27
4387396,36
4388028,34
4388648,62
4389276,67
4389908,74
4390528,73
4391156,85
4391784,88
4392412,64
4393044,31
4393664,11
4394292,10
4394916,44
4395544,66
4396172,16
4396792,49
4397424,48
4398048,50
4398672,53
4399304,45
4399920,29
4400552,12
4401184,19
4401804,55
4402432,72
4403060,97
4403692,122
4404372,129
4405044,68
4405668,47
4406300,55
4406920,67
4407548,103
4408224,156
4408900,169
4409576,143
4410252,96
4410876,88
4411508,51
4412128,16
4412760,16
4413384,45
4414008,58
4414636,55
4415256,52
4415888,36
4416516,14
4417136,65
4417764,91
4418388,71
4419020,43
4419652,18
4420272,63
4420900,120
4421576,158
4422252,138
4422932,74
4423552,56
4424184,29
4424812,64
4425432,91
4426060,101
4426736,112
4427404,122
4428080,97
4428704,36
4429328,22
4429956,48
4430576,59
4431204,88
4431828,131
4432504,118
4433184,62
4433808,32
4434436,41
4435068,22
4435688,12
4436316,16
4436944,32
4437568,19
4438196,66
4438816,101
4439500,71
4440128,69
4440744,55
4441376,49
4442000,62
4442628,29
4443260,12
4443880,17
4444512,15
4445136,41
4445760,95
4446388,58
4447008,52
4447640,50
4448268,49
4448888,51
4449516,40
4450140,12
4450772,47
4451404,58
4452024,28
4452652,20
4453280,13
4453904,27
4454536,36
4455152,41
4455784,47
4456408,49
4457032,49
4457660,42
4458280,51
4458908,47
4459540,60
4460160,53
4460788,69
4461416,53
4462048,23
4462676,64
4463296,75
4463928,56
4464552,61
4465176,64
4465808,30
4466424,52
4467056,102
4467736,78
4468360,17
4468992,21
4469616,24
4470244,31
4470876,40
4471496,63
4472128,61
4472752,51
4473376,55
4474008,72
4474624,84
4475256,73
4475880,33
4476504,13
4477136,13
4477752,14
4478384,34
4479016,34
4479640,20
4480276,44
4480896,48
4481528,51
4482156,48
4482776,18
4483404,15
4484028,20
4484652,90
4485280,132
4485956,95
4486580,38
4487212,44
4487832,60
4488460,96
4489084,80
4489716,67
4490344,49
4490968,64
4491596,71
4492224,54
4492848,67
4493476,54
4494096,23
4494724,40
4495348,64
4495976,70
4496608,49
4497232,48
4497860,55
4498492,64
4499112,62
4499744,39
4500368,18
4500996,23
4501628,10
4502248,11
4502880,20
4503504,13
4504128,14
4504760,38
4505376,53
4506008,59
4506640,69
4507256,100
4507936,114
4508604,94
4509224,89
4509852,62
4510472,21
4511100,10
4511724,25
4512348,31
4512980,21
4513604,46
4514232,73
4514864,57
4515480,48
4516108,20
4516732,51
4517364,49
4517992,30
4518616,15
4519244,26
4519868,44
4520492,50
4521124,60
4521744,43
4522372,50
4522996,53
4523620,48
4524252,17
4524876,23
4525504,53
4526136,45
4526752,12
4527384,11
4528008,18
4528636,12
4529268,11
4529888,52
4530516,49
4531144,56
4531768,52
4532396,55
4533016,62
4533644,16
4534268,58
4534896,101
4535576,78
4536200,48
4536832,29
4537460,13
4538080,47
4538708,56
4539336,49
4539960,57
4540588,72
4541208,62
4541840,46
4542468,64
4543088,51
4543720,15
4544344,15
4544972,29
4545604,47
4546224,38
4546856,43
4547480,45
4548100,50
4548732,52
4549352,24
4549984,11
4550608,25
4551232,49
4551860,48
4552480,39
4553108,19
4553740,12
4554360,30
4554992,45
4555616,61
4556248,77
4556876,95
4557496,77
4558124,70
4558748,70
4559372,59
4560004,36
4560624,14
4561252,15
4561876,47
4562504,80
4563132,117
4563804,138
4564484,86
4565108,46
4565728,57
4566360,44
4566984,14
4567608,14
4568236,12
4568856,15
4569484,17
4570112,20
4570736,20
4571368,37
4571992,77
4572624,78
4573252,61
4573872,57
4574504,17
4575128,26
4575752,61
4576384,71
4577004,22
4577632,30
4578256,89
4578880,60
4579508,26
4580128,58
4580760,59
4581388,83
4582008,116
4582692,74
4583312,17
4583944,83
4584572,149
4585244,116
4585924,99
4586552,108
4587220,138
4587900,114
4588576,57
4589200,137
4589880,131
4590556,89
4591176,83
4591808,67
4592424,61
4593056,45
4593684,11
4594304,48
4594936,71
4595560,39
4596188,16
4596820,40
4597440,48
4598072,45
4598696,49
4599320,20
4599948,11
4600568,18
4601196,19
4601824,16
4602448,11
4603076,22
4603696,28
4604328,41
4604956,42
4605576,48
4606208,54
4606832,54
4607464,40
4608096,21
4608708,24
4609340,28
4609960,28
4610584,31
4611212,16
4611832,12
4612460,28
4613084,70
4613708,79
4614340,55
4614960,49
4615588,47
4616220,68
4616840,100
4617520,95
4618140,86
4618764,98
4619392,112
4620064,76
4620688,66
4621312,30
4621936,105
4622616,130
4623292,108
4623964,86
4624592,99
4625208,111
4625888,87
4626520,42
4627136,11
4627768,11
4628392,23
4629016,12
4629644,35
4630264,49
4630892,48
4631520,53
4632144,48
4632772,31
4633392,53
4634024,92
4634652,106
4635324,76
4635952,36
4636576,39
4637200,46
4637828,35
4638448,46
4639076,63
4639704,75
4640328,59
4640956,23
4641576,43
4642204,110
4642888,134
4643556,114
4644232,101
4644912,65
4645536,29
4646164,49
4646792,83
4647420,47
4648052,131
4648724,191
4649404,182
4650080,147
4650756,134
4651436,141
4652116,99
4652736,26
4653368,15
4653992,15
4654616,41
4655244,98
4655864,98
4656496,83
4657120,66
4657744,59
4658372,61
4658992,76
4659624,73
4660252,40
4660872,45
4661500,28
4662124,30
4662756,37
4663388,38
4664008,46
4664636,59
4665264,53
4665888,21
4666516,18
4667136,17
4667768,31
4668392,24
4669016,16
4669648,15
4670264,30
4670896,19
4671524,43
4672144,46
4672772,47
4673396,56
4674028,49
4674656,17
4675272,27
4675904,59
4676528,76
4677152,69
4677780,59
4678400,24
4679028,11
4679652,28
4680280,47
4680908,54
4681528,71
4682160,56
4682788,26
4683408,21
4684036,13
4684664,16
4685292,27
4685924,20
4686544,16
4687172,17
4687800,24
4688424,59
4689052,48
4689672,56
4690304,51
4690928,30
4691552,51
4692180,22
4692804,55
4693436,40
4694068,15
4694688,22
4695320,58
4695944,42
4696576,44
4697204,52
4697824,48
4698452,47
4699080,33
4699704,11
4700332,16
4700952,42
4701584,67
4702212,35
4702832,15
4703464,15
4704088,18
4704716,49
4705348,54
4705968,50
4706600,54
4707224,60
4707848,62
4708480,63
4709096,43
4709728,16
4710352,15
4710980,20
4711608,23
4712232,54
4712864,75
4713492,43
4714112,53
4714744,57
4715368,63
4715996,56
4716628,22
4717248,41
4717876,51
4718504,99
4719128,95
4719760,70
4720380,44
4721008,25
4721632,52
4722256,59
4722884,46
4723504,60
4724136,36
4724764,12
4725384,18
4726016,27
4726640,12
4727268,12
4727900,16
4728520,27
4729152,45
4729776,63
4730400,55
4731032,49
4731648,51
4732280,45
4732904,31
4733528,15
4734156,34
4734776,42
4735408,13
4736040,19
4736656,17
4737284,14
4737908,21
4738540,59
4739172,61
4739792,52
4740424,49
4741048,16
4741672,14
4742304,48
4742920,69
4743552,21
4744176,105
4744852,136
4745532,121
4746204,44
4746824,44
4747456,69
4748076,63
4748704,51
4749336,14
4749960,10
4750592,19
4751216,31
4751848,32
4752480,23
4753096,37
4753728,57
4754352,53
4754976,65
4755608,102
4756276,66
4756904,52
4757532,20
4758152,25
4758784,65
4759408,56
4760040,68
4760668,59
4761288,33
4761920,67
4762540,67
4763168,43
4763796,48
4764416,52
4765044,52
4765672,108
4766348,126
4767028,22
4767648,32
4768272,56
4768900,71
4769520,73
4770152,42
4770776,21
4771400,54
4772032,51
4772648,57
4773280,69
4773908,66
4774528,58
4775160,56
4775784,34
4776416,14
4777044,20
4777664,22
4778292,53
4778920,47
4779544,18
4780176,50
4780792,46
4781424,51
4782052,52
4782676,15
4783308,10
4783928,14
4784560,38
4785192,37
4785812,28
4786444,47
4787068,73
4787700,71
4788332,42
4788952,47
4789584,58
4790208,90
4790832,120
4791516,125
4792188,112
4792868,58
4793496,20
4794116,10
4794744,19
4795372,16
4795996,38
4796628,81
4797252,59
4797884,48
4798516,55
4799136,94
4799772,83
4800396,28
4801024,26
4801656,14
4802272,127
4802956,122
4803632,63
4804256,60
4804884,49
4805508,47
4806140,55
4806768,58
4807392,45
4808020,56
4808644,69
4809268,62
4809900,42
4810520,35
4811152,73
4811780,70
4812400,28
4813032,49
4813652,47
4814284,49
4814912,51
4815536,50
4816164,17
4816788,34
4817416,43
4818044,27
4818664,35
4819292,72
4819916,112
4820592,94
4821220,35
4821848,54
4822476,85
4823108,78
4823728,63
4824356,22
4824984,16
4825608,14
4826236,22
4826856,21
4827488,30
4828112,45
4828736,43
4829368,39
4829984,52
4830616,53
4831248,50
4831864,48
4832496,20
4833120,11
4833752,29
4834380,43
4835000,63
4835632,95
4836256,92
4836880,60
4837508,34
4838128,51
4838760,79
4839384,95
4840008,73
4840636,55
4841256,31
4841884,31
4842516,48
4843136,55
4843768,65
4844392,85
4845020,59
4845652,26
4846272,47
4846900,59
4847528,52
4848152,47
4848780,77
4849400,155
4850084,191
4850764,132
4851436,83
4852064,64
4852688,18
4853312,23
4853944,33
4854560,23
4855192,118
4855876,155
4856548,106
4857228,80
4857848,82
4858472,68
4859104,28
4859728,14
4860360,43
4860988,49
4861608,44
4862240,24
4862864,36
4863496,65
4864128,51
4864744,47
4865372,49
4865996,16
4866620,36
4867252,18
4867872,15
4868500,40
4869132,22
4869752,21
4870384,34
4871008,31
4871640,45
4872268,49
4872888,60
4873520,49
4874144,38
4874768,36
4875396,39
4876016,52
4876644,44
4877272,25
4877896,11
4878524,16
4879144,13
4879776,52
4880408,47
4881024,48
4881652,49
4882276,45
4882908,62
4883540,100
4884212,66
4884840,105
4885520,107
4886188,64
4886816,25
4887440,81
4888068,156
4888752,177
4889420,149
4890100,94
4890728,70
4891344,61
4891976,28
4892600,60
4893224,88
4893856,60
4894472,37
4895104,59
4895728,78
4896352,58
4896980,47
4897604,49
4898236,52
4898868,48
4899488,30
4900120,23
4900744,20
4901376,15
4902004,13
4902624,16
4903256,35
4903880,57
4904504,43
4905136,49
4905752,63
4906384,79
4907016,66
4907636,55
4908264,54
4908892,65
4909520,78
4910152,61
4910776,52
4911408,17
4912032,10
4912660,15
4913288,40
4913912,47
4914544,48
4915168,49
4915796,26
4916428,11
4917048,40
4917676,86
4918308,116
4918980,107
4919656,114
4920340,102
4921012,40
4921636,90
4922260,131
4922936,120
4923616,116
4924292,99
4924916,109
4925600,120
4926268,106
4926944,34
4927576,32
4928192,61
4928820,50
4929444,16
4930068,42
4930696,50
4931316,58
4931944,49
4932568,55
4933192,68
4933820,29
4934440,12
4935068,24
4935700,74
4936320,120
4937000,133
4937668,140
4938340,83
4938964,45
4939588,62
4940220,76
4940852,94
4941472,96
4942100,101
4942776,112
4943444,106
4944120,81
4944744,52
4945372,37
4946004,62
4946624,51
4947252,51
4947876,77
4948500,77
4949132,72
4949752,68
4950384,42
4951008,25
4951632,14
4952264,56
4952880,63
4953512,59
4954144,51
4954764,77
4955392,94
4956020,79
4956648,65
4957280,53
4957896,58
4958528,86
4959152,109
4959828,62
4960456,10
4961072,31
4961700,78
4962332,97
4962952,57
4963584,49
4964204,46
4964836,54
4965468,79
4966088,104
4966768,106
4967448,94
4968064,64
4968692,51
4969316,38
4969948,28
4970576,26
4971196,28
4971824,52
4972448,65
4973076,63
4973704,56
4974324,64
4974952,94
4975580,83
4976204,63
4976832,15
4977456,41
4978084,44
4978716,48
4979336,42
4979964,41
4980588,72
4981220,127
4981904,123
4982572,32
4983200,13
4983828,26
4984448,59
4985076,56
4985704,29
4986332,29
4986964,57
4987584,58
4988216,58
4988840,78
4989464,72
4990092,56
4990712,84
4991344,109
4992028,51
4992648,19
4993276,21
4993900,14
4994532,85
4995164,158
4995836,108
4996516,48
4997144,44
4997760,50
4998388,53
4999016,30
4999644,11
5000276,10
5000896,29
5001524,32
5002152,29
5002776,19
5003404,23
5004024,52
5004652,41
5005280,53
5005904,69
5006532,76
5007152,73
5007784,37
5008416,26
5009032,44
5009664,55
5010288,43
5010916,39
5011548,19
5012168,11
5012800,20
5013424,45
5014048,47
5014680,52
5015296,53
5015928,33
5016552,41
5017180,28
5017812,25
5018436,69
5019064,98
5019692,84
5020312,40
5020944,23
5021568,113
5022248,131
5022932,117
5023604,87
5024232,108
5024912,100
5025580,56
5026208,48
5026836,37
5027456,60
5028088,36
5028712,71
5029340,157
5030024,164
5030692,140
5031372,74
5032000,51
5032616,30
5033248,71
5033872,51
5034504,17
5035132,20
5035752,25
5036384,15
5037012,17
5037636,21
5038268,50
5038888,52
5039520,52
5040148,61
5040768,55
5041396,59
5042024,87
5042652,108
5043336,74
5043952,38
5044584,27
5045208,25
5045832,36
5046464,43
5047080,51
5047712,74
5048340,124
5049012,128
5049692,110
5050364,87
5050992,59
5051624,25
5052248,27
5052880,71
5053508,107
5054180,52
5054808,69
5055432,82
5056056,87
5056688,74
5057304,74
5057936,56
5058568,67
5059184,70
5059816,51
5060440,37
5061072,13
5061700,41
5062320,65
5062952,47
5063576,43
5064200,48
5064832,49
5065452,46
5066084,16
5066708,15
5067332,10
5067964,10
5068584,39
5069216,53
5069848,27
5070468,15
5071096,16
5071724,50
5072356,55
5072988,48
5073608,49
5074240,13
5074864,43
5075488,73
5076120,88
5076740,71
5077372,63
5077996,24
5078624,28
5079256,34
5079880,40
5080512,57
5081140,98
5081760,145
5082440,104
5083116,40
5083736,26
5084368,25
5084988,27
5085616,17
5086248,16
5086868,13
5087500,18
5088124,61
5088756,58
5089388,62
5090008,52
5090640,35
5091264,28
5091888,37
5092520,84
5093136,69
5093768,52
5094392,28
5095020,45
5095648,45
5096276,41
5096908,60
5097540,50
5098160,49
5098792,48
5099416,12
5100044,18
5100676,12
5101296,10
5101928,14
5102552,27
5103176,58
5103808,75
5104436,63
5105064,46
5105696,46
5106320,46
5106952,50
5107580,31
5108212,60
5108844,94
5109464,78
5110096,69
5110720,45
5111348,15
5111980,16
5112604,29
5113236,44
5113868,46
5114488,49
5115120,45
5115748,21
5116380,24
5117012,23
5117636,24
5118268,15
5118892,13
5119520,32
5120152,50
5120768,75
5121396,54
5122020,45
5122640,65
5123268,59
5123888,49
5124516,17
5125144,24
5125760,41
5126388,50
5127012,31
5127640,10
5128272,20
5128888,45
5129516,33
5130140,47
5130764,65
5131392,94
5132016,67
5132644,25
5133268,12
5133892,64
5134520,106
5135196,92
5135824,68
5136452,36
5137072,15
5137700,16
5138324,45
5138952,51
5139580,51
5140200,47
5140828,14
5141452,12
5142076,38
5142704,52
5143328,31
5143956,29
5144588,18
5145208,54
5145836,83
5146460,52
5147092,44
5147720,51
5148340,52
5148968,37
5149592,23
5150216,17
5150848,18
5151464,36
5152096,40
5152716,43
5153340,41
5153972,33
5154592,41
5155220,52
5155852,50
5156472,49
5157100,72
5157728,101
5158408,107
5159088,102
5159756,76
5160384,61
5161012,40
5161632,12
5162260,12
5162884,37
5163512,49
5164144,57
5164760,57
5165392,73
5166016,77
5166640,52
5167268,25
5167888,12
5168520,11
5169140,21
5169764,57
5170396,65
5171020,40
5171652,47
5172280,61
5172904,69
5173532,72
5174156,73
5174788,59
5175420,42
5176040,12
5176668,21
5177292,30
5177916,11
5178548,20
5179168,31
5179800,43
5180428,40
5181048,53
5181680,55
5182300,26
5182932,11
5183564,26
5184184,34
5184812,17
5185436,29
5186060,53
5186692,42
5187312,32
5187940,48
5188564,73
5189188,90
5189820,70
5190440,53
5191068,27
5191700,16
5192320,18
5192948,11
5193572,12
5194204,12
5194836,10
5195456,23
5196088,68
5196712,67
5197336,49
5197968,49
5198588,49
5199216,27
5199840,13
5200464,21
5201092,74
5201712,111
5202396,58
5203024,38
5203640,73
5204268,70
5204892,43
5205516,55
5206148,61
5206768,58
5207396,35
5208020,15
5208644,13
5209276,14
5209896,21
5210524,16
5211156,15
5211776,46
5212408,55
5213032,78
5213660,86
5214292,75
5214912,62
5215544,41
5216168,18
5216792,15
5217420,19
5218040,47
5218668,76
5219296,85
5219920,70
5220548,36
5221168,36
5221800,86
5222428,109
5223100,75
5223728,56
5224348,25
5224972,26
5225604,38
5226224,39
5226852,11
5227476,20
5228104,11
5228732,30
5229352,79
5229984,88
5230612,72
5231232,55
5231864,48
5232488,51
5233120,40
5233748,44
5234368,159
5235052,217
5235732,198
5236404,189
5237084,164
5237756,72
5238384,51
5239016,83
5239640,82
5240272,81
5240904,80
5241520,74
5242152,85
5242776,77
5243400,45
5244028,31
5244648,13
5245276,36
5245900,16
5246524,46
5247152,46
5247776,49
5248408,51
5249036,35
5249656,12
5250284,28
5250904,31
5251536,20
5252164,11
5252784,34
5253412,51
5254036,70
5254664,47
5255292,48
5255912,48
5256540,47
5257164,40
5257788,11
5258416,32
5259032,59
5259664,45
5260292,30
5260912,57
5261540,59
5262164,57
5262792,87
5263424,85
5264040,78
5264668,96
5265292,94
5265920,55
5266548,20
5267168,23
5267796,43
5268420,79
5269044,136
5269728,122
5270396,68
5271024,64
5271652,40
5272272,50
5272904,48
5273524,50
5274152,30
5274780,71
5275400,76
5276028,48
5276652,42
5277276,31
5277908,24
5278528,11
5279156,17
5279788,44
5280408,44
5281036,47
5281660,49
5282288,34
5282916,33
5283536,16
5284164,33
5284788,28
5285412,31
5286040,33
5286656,17
5287284,45
5287908,66
5288532,73
5289160,67
5289776,56
5290404,45
5291032,12
5291656,19
5292284,13
5292908,30
5293540,37
5294168,27
5294784,20
5295416,11
5296040,15
5296660,49
5297292,56
5297912,48
5298540,48
5299164,52
5299792,48
5300420,23
5301040,11
5301668,35
5302300,66
5302920,91
5303548,63
5304176,17
5304804,48
5305432,52
5306056,53
5306684,52
5307308,39
5307932,30
5308564,48
5309184,45
5309812,25
5310440,24
5311064,19
5311692,39
5312312,38
5312940,43
5313572,47
5314192,49
5314824,52
5315444,49
5316076,12
5316704,12
5317328,13
5317956,10
5318584,37
5319208,62
5319836,56
5320456,47
5321084,51
5321708,60
5322336,63
5322964,48
5323588,52
5324220,42
5324852,60
5325468,81
5326096,106
5326772,92
5327392,67
5328020,21
5328636,12
5329268,35
5329892,51
5330512,46
5331144,59
5331760,82
5332392,59
5333020,63
5333640,59
5334268,36
5334892,37
5335524,68
5336152,86
5336772,53
5337400,17
5338024,103
5338700,144
5339376,98
5340000,57
5340628,44
5341260,36
5341880,37
5342508,26
5343132,21
5343760,19
5344388,31
5345008,23
5345636,14
5346260,50
5346884,47
5347512,46
5348132,49
5348760,55
5349388,42
5350008,35
5350640,50
5351260,68
5351892,66
5352520,21
5353144,27
5353772,27
5354396,24
5355020,52
5355652,63
5356272,61
5356900,61
5357524,72
5358148,92
5358780,57
5359400,24
5360028,13
5360660,16
5361280,19
5361908,11
5362532,15
5363164,40
5363796,44
5364416,54
5365044,85
5365668,81
5366292,35
5366924,25
5367544,24
5368172,11
5368796,15
5369420,80
5370052,92
5370672,65
5371304,45
5371932,48
5372552,49
5373184,47
5373808,53
5374436,67
5375068,80
5375688,101
5376372,115
5377048,87
5377664,56
5378292,10
5378916,11
5379544,40
5380172,51
5380792,61
5381420,52
5382044,49
5382668,68
5383300,97
5383920,81
5384548,57
5385172,64
5385796,61
5386428,90
5387048,80
5387676,21
5388304,71
5388928,67
5389556,52
5390180,54
5390812,60
5391440,66
5392056,52
5392688,49
5393312,42
5393936,12
5394564,56
5395184,88
5395816,58
5396440,41
5397064,48
5397692,50
5398312,50
5398944,24
5399572,16
5400192,17
5400820,14
5401444,23
5402076,30
5402708,40
5403328,25
5403956,22
5404584,80
5405208,102
5405888,112
5406556,68
5407184,37
5407812,20
5408432,37
5409060,39
5409684,35
5410308,59
5410940,58
5411560,12
5412188,11
5412812,48
5413436,62
5414068,88
5414688,91
5415316,55
5415948,46
5416568,87
5417196,102
5417872,146
5418548,176
5419228,136
5419900,84
5420528,70
5421156,44
5421776,65
5422404,89
5423028,69
5423656,59
5424284,48
5424904,49
5425532,45
5426160,48
5426784,29
5427412,17
5428036,12
5428668,26
5429296,74
5429912,81
5430544,72
5431168,56
5431796,59
5432428,55
5433048,56
5433676,38
5434300,13
5434924,43
5435556,108
5436228,142
5436908,76
5437536,44
5438152,47
5438784,61
5439408,89
5440032,71
5440660,24
5441280,57
5441908,82
5442532,77
5443156,25
5443784,18
5444404,29
5445032,13
5445660,35
5446280,44
5446908,50
5447532,60
5448164,56
5448792,45
5449412,27
5450040,40
5450664,15
5451288,22
5451916,16
5452536,29
5453164,17
5453788,46
5454412,80
5455040,122
5455716,89
5456340,71
5456972,62
5457592,51
5458220,56
5458844,50
5459468,21
5460100,10
5460720,15
5461348,39
5461972,71
5462596,47
5463228,40
5463848,49
5464476,54
5465108,59
5465728,30
5466356,13
5466980,23
5467612,31
5468244,64
5468864,70
5469492,43
5470116,38
5470740,67
5471372,44
5471992,47
5472624,53
5473248,53
5473872,51
5474500,19
5475120,40
5475752,55
5476380,39
5477000,17
5477632,21
5478256,18
5478888,59
5479516,80
5480136,48
5480764,50
5481388,49
5482012,54
5482644,11
5483264,12
5483892,11
5484520,41
5485144,60
5485772,54
5486392,17
5487024,19
5487652,55
5488272,63
5488904,95
5489524,58
5490156,50
5490784,30
5491408,18
5492036,63
5492660,79
5493284,40
5493916,13
5494536,55
5495164,85
5495792,34
5496416,41
5497044,49
5497668,62
5498300,51
5498932,22
5499552,56
5500184,36
5500808,31
5501436,31
5502068,13
5502688,22
5503320,27
5503944,19
5504568,53
5505200,62
5505816,59
5506444,61
5507068,54
5507696,24
5508324,39
5508952,45
5509580,42
5510212,32
5510832,39
5511464,46
5512088,39
5512712,23
5513340,51
5513960,79
5514592,72
5515216,65
5515840,47
5516468,23
5517088,13
5517716,35
5518348,40
5518968,31
5519600,33
5520224,32
5520852,19
5521484,46
5522104,60
5522732,54
5523360,50
5523984,31
5524616,34
5525232,50
5525864,69
5526488,62
5527112,55
5527744,42
5528360,11
5528992,11
5529624,45
5530240,49
5530868,49
5531492,47
5532124,52
5532756,39
5533376,25
5534004,17
5534632,41
5535256,89
5535884,107
5536556,68
5537184,29
5537812,45
5538432,97
5539060,111
5539740,78
5540360,95
5540988,114
5541660,90
5542288,87
5542916,79
5543536,49
5544168,17
5544792,92
5545420,141
5546104,90
5546720,61
5547352,100
5548028,125
5548708,90
5549336,46
5549960,15
5550592,26
5551220,47
5551840,37
5552472,21
5553096,17
5553720,73
5554352,102
5555020,66
5555648,51
5556280,66
5556896,64
5557524,13
5558152,13
5558780,47
5559412,98
5560032,120
5560712,104
5561396,64
5562016,45
5562648,37
5563272,47
5563904,55
5564536,70
5565152,74
5565784,79
5566412,85
5567036,65
5567668,58
5568288,17
5568920,45
5569548,48
5570168,43
5570800,45
5571424,97
5572052,119
5572736,127
5573404,96
5574032,45
5574660,22
5575280,48
5575908,47
5576536,13
5577164,41
5577796,30
5578416,23
5579044,15
5579672,76
5580296,92
5580928,49
5581544,57
5582172,73
5582800,104
5583472,102
5584156,58
5584776,41
5585404,53
5586036,85
5586656,67
5587288,43
5587908,45
5588536,52
5589164,51
5589784,53
5590416,43
5591044,11
5591664,13
5592296,11
5592920,17
5593552,49
5594184,76
5594800,55
5595432,32
5596056,35
5596680,54
5597312,55
5597928,71
5598560,67
5599184,37
5599808,17
5600440,60
5601064,43
5601692,18
5602324,26
5602944,50
5603572,54
5604196,50
5604828,39
5605456,46
5606080,51
5606708,50
5607332,40
5607956,55
5608588,12
5609208,53
5609836,48
5610460,45
5611088,33
5611716,18
5612336,26
5612964,40
5613596,46
5614216,49
5614844,52
5615472,38
5616100,11
5616732,12
5617352,17
5617980,12
5618608,17
5619232,31
5619860,69
5620480,79
5621108,45
5621732,50
5622360,60
5622992,81
5623608,66
5624240,27
5624868,19
5625488,34
5626120,37
5626744,57
5627376,72
5628004,35
5628624,25
5629256,26
5629880,47
5630504,50
5631136,50
5631756,51
5632388,29
5633012,14
5633632,10
5634264,12
5634884,21
5635516,15
5636144,13
5636764,24
5637392,38
5638016,43
5638644,52
5639276,68
5639896,67
5640524,47
5641148,35
5641772,88
5642404,110
5643076,82
5643700,60
5644332,20
5644952,41
5645580,40
5646204,41
5646836,46
5647464,46
5648088,91
5648716,138
5649392,92
5650008,52
5650640,18
5651256,56
5651888,15
5652516,60
5653136,116
5653816,66
5654440,39
5655064,64
5655692,59
5656312,73
5656944,68
5657568,87
5658192,107
5658872,94
5659488,57
5660116,12
5660748,14
5661368,37
5662000,30
5662624,19
5663248,49
5663876,45
5664496,46
5665124,57
5665748,51
5666372,77
5667004,80
5667624,92
5668256,74
5668884,56
5669504,58
5670136,40
5670760,18
5671388,59
5672020,86
5672640,87
5673268,79
5673896,76
5674520,77
5675148,71
5675768,51
5676400,19
5677024,12
5677648,14
5678276,18
5678896,27
5679524,44
5680156,48
5680776,56
5681408,57
5682032,44
5682660,27
5683292,12
5683912,13
5684540,17
5685164,25
5685788,17
5686420,28
5687040,87
5687668,129
5688352,77
5688968,51
5689596,73
5690224,85
5690852,115
5691536,132
5692212,116
5692892,44
5693520,54
5694136,75
5694768,83
5695392,89
5696016,74
5696644,98
5697264,82
5697892,60
5698520,52
5699144,24
5699772,21
5700392,32
5701024,13
5701652,17
5702272,48
5702904,64
5703528,65
5704160,48
5704788,81
5705408,89
5706040,55
5706664,51
5707288,39
5707920,48
5708536,66
5709168,68
5709792,37
5710416,21
5711048,11
5711664,60
5712296,79
5712928,71
5713548,57
5714176,53
5714804,53
5715432,48
5716064,13
5716684,19
5717312,13
5717940,15
5718564,31
5719196,42
5719816,39
5720448,37
5721072,39
5721696,49
5722328,65
5722952,106
5723636,122
5724316,135
5724988,132
5725668,146
5726348,108
5727020,23
5727648,42
5728280,62
5728896,66
5729528,77
5730152,133
5730836,146
5731516,79
5732140,67
5732768,73
5733400,48
5734024,24
5734660,17
5735280,31
5735912,21
5736540,14
5737160,19
5737788,45
5738412,59
5739036,70
5739668,83
5740288,99
5740916,77
5741540,60
5742164,72
5742796,56
5743416,31
5744048,13
5744676,13
5745296,49
5745924,37
5746548,43
5747180,45
5747812,47
5748432,47
5749060,22
5749688,12
5750312,17
5750940,13
5751560,34
5752192,51
5752816,65
5753440,57
5754072,21
5754696,58
5755328,71
5755956,59
5756576,68
5757208,66
5757832,93
5758464,102
5759144,69
5759768,12
5760400,54
5761028,61
5761648,84
5762276,69
5762900,47
5763528,91
5764156,71
5764776,55
5765404,34
5766028,44
5766660,59
5767288,51
5767904,65
5768532,81
5769156,79
5769780,83
5770408,73
5771032,63
5771660,46
5772284,64
5772912,89
5773540,105
5774216,128
5774892,155
5775572,130
5776244,81
5776868,90
5777500,82
5778120,51
5778748,28
5779372,43
5779996,45
5780628,64
5781248,109
5781928,157
5782612,167
5783284,90
5783908,93
5784536,142
5785212,115
5785892,69
5786512,39
5787140,17
5787772,52
5788392,102
5789072,135
5789752,136
5790428,148
5791108,118
5791788,96
5792408,67
5793036,34
5793660,69
5794292,111
5794972,150
5795644,54
5796272,45
5796900,52
5797520,47
5798148,47
5798776,41
5799404,92
5800036,113
5800708,76
5801336,18
5801960,88
5802584,139
5803264,123
5803932,76
5804552,46
5805184,50
5805800,56
5806432,53
5807056,59
5807680,49
5808308,55
5808928,63
5809556,43
5810188,42
5810808,47
5811440,29
5812064,12
5812692,40
5813324,49
5813944,50
5814576,54
5815200,51
5815824,59
5816456,38
5817072,13
5817700,32
5818324,14
5818948,14
5819580,14
5820200,13
5820828,15
5821460,59
5822080,73
5822708,53
5823336,56
5823968,16
5824600,22
5825216,33
5825844,11
5826472,38
5827096,19
5827724,11
5828344,38
5828972,17
5829596,43
5830224,50
5830856,50
5831472,50
5832104,25
5832732,15
5833352,18
5833984,19
5834608,13
5835240,11
5835868,47
5836488,45
5837120,45
5837744,62
5838368,47
5838996,46
5839616,49
5840248,53
5840868,40
5841492,29
5842124,68
5842744,125
5843424,138
5844104,141
5844780,115
5845460,69
5846088,45
5846704,50
5847336,71
5847960,78
5848584,120
5849264,173
5849940,140
5850616,106
5851300,91
5851920,83
5852552,37
5853176,24
5853800,51
5854432,101
5855108,117
5855788,91
5856416,64
5857032,54
5857664,52
5858288,52
5858912,61
5859544,33
5860168,15
5860796,11
5861428,40
5862048,28
5862680,41
5863304,49
5863932,46
5864564,50
5865184,51
5865816,19
5866440,18
5867064,17
5867692,12
5868312,23
5868944,25
5869572,44
5870192,61
5870824,43
5871448,46
5872080,65
5872708,67
5873328,67
5873960,70
5874584,59
5875208,73
5875836,76
5876456,61
5877088,55
5877716,18
5878340,37
5878972,51
5879592,62
5880224,89
5880856,112
5881524,90
5882152,53
5882776,46
5883404,38
5884032,45
5884656,64
5885288,69
5885912,56
5886536,15
5887168,67
5887796,134
5888480,131
5889152,65
5889776,49
5890404,28
5891028,13
5891656,43
5892284,89
5892904,86
5893536,83
5894164,71
5894784,31
5895416,15
5896040,37
5896668,48
5897300,58
5897920,80
5898552,120
5899228,151
5899900,119
5900580,78
5901200,28
5901828,13
5902460,36
5903080,59
5903712,47
5904336,37
5904960,54
5905588,56
5906208,51
5906836,59
5907468,66
5908088,72
5908716,15
5909340,41
5909972,63
5910604,47
5911224,31
5911856,22
5912480,17
5913104,47
5913736,54
5914352,59
5914984,56
5915608,18
5916232,17
5916864,20
5917480,13
5918112,29
5918740,48
5919360,37
5919992,13
5920616,16
5921244,39
5921876,45
5922496,50
5923124,49
5923752,25
5924376,20
5925004,62
5925624,65
5926256,57
5926880,49
5927504,37
5928132,16
5928752,11
5929384,41
5930012,44
5930632,47
5931264,47
5931888,47
5932520,11
5933148,22
5933768,21
5934400,26
5935024,81
5935648,74
5936280,85
5936896,80
5937528,49
5938152,41
5938776,50
5939408,50
5940024,55
5940652,66
5941284,73
5941904,82
5942532,73
5943156,45
5943788,26
5944416,12
5945040,37
5945668,31
5946292,39
5946916,47
5947548,54
5948168,57
5948796,35
5949424,13
5950048,22
5950680,12
5951304,23
5951936,59
5952568,82
5953184,49
5953816,27
5954440,43
5955068,48
5955700,48
5956320,47
5956948,43
5957576,34
5958200,69
5958832,89
5959448,73
5960080,74
5960708,76
5961328,67
5961956,57
5962584,54
5963212,45
5963844,59
5964464,84
5965096,73
5965720,46
5966344,33
5966976,25
5967592,26
5968224,37
5968848,41
5969472,65
5970100,87
5970720,63
5971352,42
5971980,62
5972600,77
5973232,86
5973856,110
5974540,127
5975220,103
5975892,94
5976520,67
5977148,17
5977768,40
5978400,75
5979024,41
5979656,40
5980288,45
5980904,46
5981532,51
5982160,49
5982784,76
5983416,50
5984032,18
5984660,19
5985292,25
5985912,24
5986544,19
5987168,39
5987800,49
5988428,51
5989048,63
5989680,60
5990304,36
5990928,22
5991560,45
5992180,41
5992808,21
5993432,10
5994060,14
5994692,27
5995312,37
5995944,34
5996576,46
5997192,46
5997824,49
5998448,50
5999080,48
5999708,20
6000328,12
6000960,32
6001584,71
6002208,94
6002840,82
6003456,35
6004084,24
6004708,66
6005336,85
6005964,92
6006584,98
6007216,89
6007844,55
6008464,64
6009096,74
6009720,53
6010348,51
6010980,43
6011600,11
6012232,14
6012856,61
6013480,53
6014112,51
6014732,51
6015360,35
6015988,95
6016612,124
6017296,80
6017912,57
6018544,93
6019172,114
6019844,72
6020472,19
6021096,117
6021772,157
6022452,106
6023124,55
6023744,24
6024372,20
6024992,43
6025620,76
6026252,68
6026872,26
6027504,57
6028128,116
6028812,88
6029436,47
6030056,47
6030688,50
6031312,47
6031936,40
6032568,24
6033192,13
6033824,18
6034456,26
6035072,41
6035704,40
6036328,37
6036960,37
6037588,32
6038208,65
6038840,65
6039468,61
6040092,57
6040724,40
6041344,48
6041976,72
6042604,59
6043228,16
6043856,43
6044476,45
6045104,38
6045736,19
6046352,66
6046984,56
6047608,49
6048240,47
6048868,15
6049488,12
6050116,15
6050744,26
6051368,26
6052000,61
6052616,115
6053300,94
6053928,55
6054548,46
6055176,67
6055800,93
6056432,85
6057064,62
6057680,71
6058312,77
6058936,75
6059564,63
6060192,12
6060816,39
6061448,119
6062128,151
6062804,78
6063432,47
6064056,45
6064680,49
6065308,31
6065928,11
6066560,15
6067184,21
6067808,12
6068440,18
6069064,16
6069696,12
6070324,25
6070944,38
6071576,56
6072200,57
6072832,51
6073464,53
6074080,48
6074712,91
6075336,117
6076016,81
6076640,45
6077264,31
6077896,11
6078528,21
6079148,19
6079780,44
6080404,48
6081028,52
6081660,52
6082280,47
6082908,21
6083536,10
6084160,19
6084788,40
6085408,64
6086040,89
6086668,70
6087288,25
6087916,67
6088544,96
6089172,70
6089804,54
6090424,32
6091056,33
6091680,43
6092304,19
6092936,20
6093552,43
6094184,59
6094808,46
6095432,34
6096064,58
6096680,74
6097308,59
6097940,49
6098560,45
6099188,31
6099816,16
6100448,16
6101076,12
6101696,13
6102328,16
6102952,18
6103580,13
6104212,26
6104832,49
6105464,47
6106088,50
6106712,49
6107344,27
6107964,48
6108592,21
6109224,27
6109848,35
6110480,19
6111104,19
6111736,24
6112368,17
6112988,49
6113616,50
6114244,55
6114868,50
6115500,20
6116120,32
6116752,43
6117384,44
6118004,38
6118636,25
6119260,34
6119892,27
6120524,15
6121144,59
6121776,91
6122400,79
6123024,64
6123656,38
6124276,31
6124904,22
6125528,35
6126156,52
6126788,40
6127408,51
6128040,79
6128672,66
6129288,40
6129920,45
6130544,49
6131176,50
6131808,63
6132428,65
6133060,58
6133688,27
6134312,24
6134944,41
6135564,19
6136196,45
6136820,58
6137448,51
6138080,79
6138704,96
6139336,103
6140020,107
6140692,89
6141320,32
6141948,18
6142572,17
6143204,18
6143832,17
6144464,58
6145096,116
6145764,82
6146388,47
6147012,48
6147636,53
6148268,54
6148888,29
6149516,19
6150140,10
6150768,12
6151396,10
6152020,19
6152652,58
6153280,92
6153904,82
6154536,54
6155160,51
6155784,55
6156412,48
6157032,63
6157660,112
6158344,144
6159012,157
6159692,110
6160364,96
6160984,99
6161612,61
6162232,16
6162864,41
6163492,46
6164112,49
6164740,48
6165364,27
6165996,48
6166628,83
6167248,90
6167876,79
6168504,56
6169128,59
6169756,33
6170376,23
6171004,46
6171632,56
6172256,63
6172884,74
6173508,69
6174140,27
6174772,12
6175392,27
6176024,75
6176648,113
6177328,67
6177952,46
6178568,48
6179196,27
6179824,50
6180448,55
6181080,56
6181704,51
6182332,28
6182964,74
6183584,47
6184216,12
6184840,16
6185472,27
6186100,47
6186720,41
6187352,37
6187976,67
6188600,78
6189232,82
6189848,92
6190480,101
6191160,85
6191784,73
6192416,40
6193040,16
6193668,17
6194300,12
6194920,19
6195552,15
6196176,39
6196800,46
6197428,51
6198048,66
6198680,62
6199308,46
6199928,52
6200560,57
6201184,41
6201816,21
6202444,13
6203064,18
6203696,25
6204320,45
6204944,76
6205576,90
6206192,83
6206824,71
6207448,37
6208072,33
6208700,34
6209320,24
6209948,16
6210580,26
6211200,52
6211828,73
6212456,32
6213088,53
6213716,60
6214336,51
6214968,48
6215592,21
6216220,21
6216852,24
6217472,64
6218104,92
6218728,68
6219352,29
6219984,98
6220604,81
6221236,51
6221868,48
6222488,50
6223120,50
6223744,20
6224376,20
6225004,31
6225624,22
6226256,24
6226880,43
6227504,53
6228132,62
6228752,79
6229384,51
6230008,48
6230632,47
6231264,50
6231888,42
6232520,14
6233148,29
6233768,40
6234396,55
6235024,48
6235656,21
6236284,32
6236904,69
6237536,41
6238160,54
6238784,52
6239416,49
6240032,50
6240664,29
6241292,49
6241912,49
6242544,37
6243168,23
6243800,24
6244428,15
6245048,31
6245680,17
6246304,44
6246928,48
6247560,46
6248176,49
6248804,17
6249428,11
6250052,14
6250684,12
6251304,26
6251936,39
6252564,58
6253184,69
6253816,44
6254440,47
6255068,60
6255700,63
6256320,60
6256952,62
6257576,40
6258200,29
6258828,35
6259448,10
6260080,24
6260704,29
6261328,63
