tempo_arduino_micro_s,valor_ADC
500,41
1004,45
1504,46
2000,48
2508,47
3000,24
3508,13
4000,10
4508,16
5000,11
5500,24
6000,20
6500,30
7000,27
7500,13
8000,16
8500,28
9000,44
9500,46
10000,49
10508,72
11028,100
11608,106
12176,84
12700,70
13220,71
13740,25
14260,41
14780,83
15300,103
15876,129
16456,118
17024,64
17552,48
18076,47
18604,47
19124,53
19652,84
20172,83
20700,60
21220,20
21748,22
22268,36
22796,40
23316,63
23844,77
24364,84
24892,62
25412,41
25940,50
26460,73
26988,88
27508,100
28088,80
28604,52
29124,55
29644,67
30164,95
30684,118
31260,93
31788,71
32308,49
32836,54
33356,25
33884,46
34404,61
34932,68
35452,71
35980,78
36500,96
37028,98
37548,76
38076,46
38596,34
39124,26
39644,12
40172,32
40692,45
41220,37
41740,16
42268,72
42788,88
43316,80
43836,83
44364,86
44884,86
45412,59
45932,35
46460,32
46980,30
47508,20
48028,10
48548,20
49068,56
49588,75
50112,31
50628,50
51148,44
51672,49
52188,59
52708,68
53228,99
53748,116
54328,89
54844,84
55372,52
55892,14
56420,68
56940,100
57520,131
58092,113
58672,92
59188,79
59716,47
60236,68
60764,120
61340,140
61916,118
62496,49
63012,24
63540,46
64060,36
64588,25
65108,24
65636,12
66156,16
66684,40
67204,63
67732,62
68252,58
68780,50
69300,48
69828,15
70348,13
70876,20
71396,23
71924,22
72444,12
72972,19
73492,66
74020,115
74596,103
75176,50
75696,45
76212,49
76732,87
77256,146
77832,130
78404,148
78984,126
79556,67
80084,30
80604,17
81132,82
81652,102
82232,96
82748,52
83276,21
83796,38
84324,46
84844,61
85372,63
85892,51
86420,27
86940,39
87460,33
87980,36
88504,28
89020,11
89540,22
90064,28
90580,59
91100,73
91624,122
92200,171
92768,170
93352,174
93924,166
94504,112
95076,17
95604,83
96128,171
96704,195
97276,243
97852,219
98432,92
98948,20
99476,84
100000,103
100620,85
101188,64
101768,55
102336,58
102916,31
103496,11
104064,15
104640,74
105208,137
105836,66
106404,13
106976,30
107552,64
108120,91
108704,61
109276,51
109856,47
110424,56
111008,71
111580,62
112156,51
112736,51
113304,79
113888,77
114456,41
115040,11
115612,18
116184,11
116768,32
117340,54
117920,46
118488,48
119072,49
119640,38
120224,52
120792,45
121372,28
121952,18
122520,33
123104,43
123672,68
124256,40
124824,24
125400,104
126028,140
126648,143
127272,145
127896,155
128520,199
129144,169
129764,117
130392,26
130960,35
131536,107
132172,192
132788,176
133416,91
133988,80
134568,107
135196,92
135764,62
136344,79
136912,79
137496,30
138068,12
138648,31
139216,30
139792,15
140376,30
140948,37
141528,27
142096,54
142680,75
143252,102
143880,126
144504,126
145124,123
145752,144
146376,137
146996,81
147572,20
148144,12
148720,41
149288,138
149924,165
150552,43
151116,58
151696,52
152268,75
152848,80
153420,82
154000,66
154576,19
155152,29
155736,41
156304,18
156888,80
157456,75
158040,60
158612,46
159188,51
159768,64
160340,67
160920,93
161488,126
162124,121
162744,105
163364,137
163992,144
164612,107
165240,56
165808,21
166376,109
167004,52
167568,49
168152,45
168720,50
169304,67
169872,98
170448,125
171084,114
171700,51
172276,41
172848,65
173432,102
174056,90
174624,67
175208,49
175776,45
176360,50
176928,51
177512,55
178084,51
178656,46
179240,46
179808,52
180384,53
180952,62
181536,45
182104,34
182688,43
183256,18
183832,41
184416,47
184984,63
185560,57
186132,43
186712,13
187280,32
187856,50
188440,62
189008,43
189592,35
190164,19
190744,25
191312,17
191896,58
192468,74
193040,52
193624,49
194192,58
194776,45
195344,66
195928,82
196496,29
197072,47
197656,81
198228,102
198860,110
199480,74
200056,50
200624,40
201200,50
201784,113
202404,182
203032,161
203656,71
204232,33
204808,21
205376,14
205952,11
206520,16
207104,29
207672,27
208256,21
208824,55
209392,62
209968,56
210536,57
211112,48
211684,48
212264,57
212832,43
213416,43
213984,30
214564,21
215144,11
215712,34
216296,33
216864,43
217448,73
218020,79
218592,53
219176,51
219748,51
220328,34
220896,25
221480,27
222048,42
222632,43
223204,44
223780,48
224360,45
224928,38
225512,42
226080,56
226664,55
227232,59
227808,46
228392,23
228964,20
229544,32
230116,32
230696,12
231264,12
231848,11
232416,15
232992,13
233576,43
234148,47
234728,48
235296,64
235880,77
236452,67
237028,45
237608,14
238176,32
238760,37
239332,14
239912,24
240492,18
241072,13
241644,32
242216,63
242800,85
243372,93
243952,95
244524,102
245156,83
245728,38
246300,17
246880,10
247448,29
248032,62
248600,86
249184,108
249804,59
250376,44
250952,44
251524,50
252104,49
252676,47
253256,22
253828,39
254408,91
254984,111
255608,96
256184,86
256752,18
257328,101
257948,123
258568,86
259144,67
259712,54
260296,74
260864,104
261500,42
262068,37
262640,61
263224,42
263792,15
264376,13
264944,14
265528,22
266100,13
266680,51
267248,58
267824,53
268408,48
268976,54
269560,22
270128,11
270712,35
271284,83
271856,123
272492,144
273108,104
273736,67
274308,52
274888,16
275464,75
276036,115
276668,146
277284,149
277912,126
278540,81
279108,103
279740,103
280360,72
280936,17
281508,58
282084,123
282716,135
283336,55
283912,51
284484,56
285064,47
285636,50
286212,26
286792,32
287364,21
287944,11
288516,10
289096,45
289664,73
290248,68
290824,47
291392,34
291976,42
292544,63
293128,96
293696,104
294332,60
294904,39
295476,46
296056,56
296624,75
297208,56
297776,37
298360,14
298928,19
299504,11
300088,58
300660,66
301240,63
301812,49
302392,57
302972,96
303552,113
304188,102
304808,90
305384,72
305956,58
306536,62
307116,54
307692,39
308272,22
308840,43
309424,59
309996,75
310576,80
311148,90
311728,101
312356,91
312924,70
313504,29
314076,28
314656,77
315228,74
315808,24
316380,15
316956,42
317536,57
318108,82
318688,63
319260,51
319840,37
320420,75
320992,136
321628,112
322244,68
322820,34
323392,18
323976,12
324544,16
325120,42
325704,50
326276,52
326856,52
327428,48
328008,15
328576,29
329152,69
329720,51
330296,23
330880,19
331448,26
332032,14
332600,28
333184,16
333752,55
334332,75
334912,80
335480,72
336064,41
336632,17
337208,36
337776,59
338360,66
338928,25
339504,45
340088,131
340708,171
341336,118
341960,45
342528,54
343112,50
343684,48
344264,52
344836,28
345416,31
345988,35
346568,60
347144,78
347716,99
348296,87
348864,35
349448,16
350016,35
350600,41
351172,83
351748,86
352328,53
352896,19
353480,25
354048,63
354632,85
355200,75
355784,20
356360,44
356932,65
357512,63
358084,99
358664,100
359284,66
359860,54
360436,49
361008,50
361592,60
362164,86
362744,89
363316,55
363896,21
364468,38
365044,22
365624,13
366196,18
366776,56
367348,60
367928,51
368508,47
369088,53
369656,84
370232,88
370816,51
371388,11
371968,13
372540,41
373120,60
373692,34
374268,14
374848,16
375420,51
376000,51
376568,53
377152,48
377724,48
378304,79
378876,91
379452,81
380032,43
380604,11
381184,11
381756,11
382336,16
382916,13
383492,46
384072,46
384644,48
385224,51
385792,55
386376,36
386948,59
387528,86
388104,98
388676,85
389256,79
389824,65
390408,24
390976,33
391560,57
392132,122
392760,158
393388,148
394008,138
394636,117
395256,83
395828,85
396408,67
396980,13
397560,28
398132,59
398712,111
399336,113
399960,80
400536,88
401108,99
401688,84
402256,51
402840,33
403412,41
403988,25
404568,37
405136,71
405720,47
406292,20
406872,15
407444,14
408020,36
408600,74
409172,81
409752,68
410324,89
410904,88
411472,85
412048,81
412616,56
413192,64
413776,40
414344,22
414928,12
415496,14
416080,11
416648,32
417224,53
417800,81
418368,80
418952,72
419524,78
420104,92
420672,43
421256,29
421824,30
422400,35
422984,47
423552,16
424128,15
424696,31
425280,65
425848,67
426432,49
427000,51
427580,48
428160,34
428728,57
429312,74
429884,93
430464,56
431032,17
431612,12
432192,19
432760,12
433344,54
433916,51
434496,54
435076,67
435656,67
436240,48
436808,43
437392,51
437964,79
438544,47
439116,18
439696,43
440268,39
440844,31
441424,43
441996,79
442576,64
443144,50
443728,54
444300,58
444880,48
445456,13
446028,58
446608,98
447180,67
447760,44
448340,51
448920,65
449488,45
450068,54
450648,83
451216,59
451800,49
452372,51
452952,39
453524,19
454100,11
454680,17
455252,13
455832,47
456404,78
456984,105
457604,81
458180,61
458760,44
459332,51
459912,50
460484,53
461064,60
461632,70
462216,92
462788,87
463364,67
463944,60
464516,42
465096,16
465668,34
466248,42
466816,45
467400,48
467976,48
468548,51
469128,50
469700,13
470280,12
470860,12
471440,11
472012,19
472584,25
473168,34
473740,45
474320,60
474892,43
475472,47
476044,48
476624,45
477200,47
477772,43
478352,98
478924,135
479556,102
480180,78
480752,83
481328,62
481896,16
482480,13
483048,26
483632,39
484204,65
484784,80
485356,59
485932,53
486512,41
487084,28
487664,30
488236,26
488816,29
489384,29
489964,30
490544,50
491116,61
491696,45
492268,50
492848,63
493416,79
494000,71
494572,50
495148,29
495728,44
496300,53
496880,47
497448,52
498032,52
498604,30
499180,19
499760,36
500332,40
500912,52
501484,46
502064,55
502636,44
503216,23
503788,17
504364,11
504944,16
505516,17
506096,19
506676,18
507256,27
507836,48
508412,71
508992,49
509564,56
510144,50
510716,49
511300,18
511876,14
512460,39
513040,78
513608,72
514192,55
514760,45
515344,25
515912,41
516496,66
517064,54
517644,47
518224,54
518796,47
519376,28
519944,11
520528,12
521096,41
521680,59
522256,65
522824,58
523408,54
523980,78
524560,135
525184,133
525812,54
526388,52
526960,90
527536,103
528160,75
528736,68
529308,93
529884,82
530464,44
531036,22
531616,29
532188,11
532768,19
533336,46
533920,45
534488,62
535064,122
535700,122
536320,91
536896,41
537468,14
538048,33
538616,40
539192,23
539776,22
540348,22
540928,17
541496,24
542080,55
542652,50
543228,73
543808,131
544432,136
545060,153
545680,175
546308,137
546936,69
547508,38
548088,41
548664,20
549248,15
549820,19
550396,41
550976,76
551552,117
552180,128
552800,81
553376,61
553948,52
554524,30
555104,13
555676,15
556256,15
556836,15
557416,23
557988,20
558564,49
559144,47
559716,49
560296,49
560868,49
561448,47
562020,53
562600,77
563172,61
563748,23
564328,46
564896,40
565480,52
566052,40
566632,39
567204,43
567780,50
568360,53
568932,51
569512,18
570084,22
570664,22
571236,12
571816,17
572388,34
572964,46
573544,54
574116,50
574696,27
575268,47
575848,57
576420,64
576992,62
577576,56
578148,50
578728,66
579300,112
579932,114
580556,62
581124,24
581704,16
582276,14
582856,17
583428,40
584008,44
584576,46
585160,49
585736,48
586308,48
586888,46
587460,19
588040,22
588620,20
589200,34
589780,118
590408,204
591036,199
591656,107
592284,50
592856,85
593428,91
594008,71
594580,62
595160,62
595732,68
596312,63
596884,40
597460,30
598040,27
598612,11
599192,11
599764,36
600344,46
600924,54
601504,56
602084,46
602660,30
603240,21
603812,12
604392,19
604972,35
605552,25
606124,22
606700,24
607280,84
607856,151
608488,91
609052,46
609632,54
610204,56
610780,56
611360,56
611932,32
612512,30
613088,73
613668,83
614244,83
614828,67
615400,48
615980,47
616560,55
617132,46
617712,48
618284,73
618864,76
619436,27
620012,14
620592,17
621164,54
621744,62
622316,76
622896,83
623476,90
624056,155
624692,171
625312,61
625888,55
626460,102
627092,124
627724,116
628344,96
628920,34
629492,14
630072,10
630652,13
631232,11
631816,55
632392,59
632968,31
633540,40
634124,50
634700,54
635284,51
635860,49
636436,62
637016,53
637592,37
638172,16
638748,24
639328,34
639908,36
640484,47
641064,70
641632,55
642216,53
642788,96
643368,117
643988,101
644612,104
645240,96
645808,114
646444,120
647064,105
647684,91
648260,54
648832,21
649408,19
649980,45
650560,47
651132,121
651764,198
652396,190
653016,112
653644,59
654216,52
654792,33
655376,31
655948,59
656528,105
657148,99
657724,37
658296,68
658880,110
659508,112
660128,91
660700,75
661276,60
661856,45
662424,27
663000,24
663584,12
664156,33
664736,39
665308,11
665888,28
666456,29
667032,41
667600,54
668176,51
668760,54
669332,67
669912,92
670484,35
671064,57
671636,99
672212,70
672792,29
673360,14
673944,26
674512,30
675096,48
675668,60
676248,60
676816,51
677392,48
677976,18
678548,35
679128,53
679700,59
680280,28
680848,11
681424,13
682008,19
682576,12
683160,40
683732,47
684312,45
684884,46
685464,50
686036,30
686612,30
687192,30
687764,32
688344,18
688912,33
689496,87
690068,113
690696,88
691272,37
691844,40
692424,62
692996,126
693628,76
694200,53
694772,125
695404,143
696024,132
696652,99
697220,67
697800,19
698376,48
698948,49
699528,25
700100,43
700680,71
701252,89
701832,58
702412,46
702988,18
703568,30
704140,32
704720,13
705292,20
705872,24
706444,41
707024,39
707600,47
708172,49
708752,48
709324,55
709904,55
710476,47
711056,35
711628,36
712204,50
712784,49
713356,39
713936,57
714516,64
715096,38
715676,10
716252,15
716832,40
717404,47
717984,46
718556,46
719136,47
719708,26
720288,50
720856,67
721436,51
722016,65
722588,95
723168,138
723792,135
724420,85
724992,47
725568,84
726144,131
726768,156
727396,139
728020,107
728640,65
729216,22
729788,10
730368,23
730940,59
731520,77
732092,39
732668,27
733248,45
733820,46
734400,47
734972,48
735552,54
736132,31
736712,85
737288,48
737860,20
738440,47
739008,42
739592,20
740164,13
740744,13
741316,38
741892,79
742472,60
743044,47
743624,49
744196,35
744776,13
745348,42
745928,54
746504,23
747076,32
747656,50
748228,61
748808,45
749376,39
749960,80
750540,72
751116,45
751696,84
752268,117
752900,101
753524,53
754100,15
754676,20
755252,34
755832,45
756404,36
756984,36
757564,24
758144,52
758724,83
759300,57
759880,50
760456,56
761032,59
761604,45
762184,19
762756,14
763336,27
763920,24
764492,13
765072,27
765644,31
766224,23
766804,41
767384,49
767964,47
768540,48
769120,43
769692,11
770272,13
770844,18
771424,13
771996,35
772572,44
773152,42
773724,16
774304,15
774876,57
775456,85
776036,87
776616,77
777188,83
777764,96
778344,102
778968,90
779544,50
780116,26
780696,44
781268,40
781844,61
782424,50
782996,24
783576,43
784156,47
784736,47
785308,53
785884,73
786464,62
787036,22
787616,18
788188,52
788768,71
789348,66
789928,83
790508,95
791084,92
791664,46
792236,50
792816,45
793396,51
793980,60
794556,46
795132,65
795712,86
796288,81
796864,27
797436,13
798020,14
798596,10
799176,12
799760,33
800336,47
800912,52
801484,51
802064,53
802636,53
803216,59
803788,40
804364,12
804944,34
805516,37
806096,30
806676,27
807256,33
807828,50
808404,103
809036,155
809656,143
810284,87
810852,61
811432,43
812012,31
812588,15
813168,16
813740,41
814320,74
814900,110
815532,127
816164,95
816732,62
817312,55
817884,47
818464,48
819044,46
819624,16
820200,11
820768,11
821344,14
821912,20
822496,39
823064,38
823648,34
824220,35
824792,40
825376,57
825944,86
826528,86
827096,63
827680,42
828248,42
828832,84
829400,111
830032,90
830608,48
831176,11
831760,43
832332,93
832912,113
833532,81
834108,59
834688,58
835256,53
835840,33
836408,22
836992,14
837564,22
838140,16
838720,18
839288,19
839872,19
840440,15
841024,15
841592,76
842176,101
842812,108
843432,107
844060,101
844680,111
845308,106
845936,60
846500,14
847080,75
847652,89
848232,103
848852,93
849424,34
850000,39
850568,48
851152,68
851724,72
852304,66
852876,51
853456,17
854032,28
854604,14
855184,15
855756,39
856336,15
856916,45
857496,39
858068,35
858644,55
859224,53
859796,47
860376,48
860956,22
861536,41
862108,50
862684,18
863264,63
863836,137
864468,175
865088,115
865716,47
866284,47
866860,51
867440,48
868012,50
868592,71
869164,104
869796,76
870368,29
870940,11
871520,16
872092,15
872672,39
873244,64
873824,79
874396,72
874972,46
875552,52
876124,57
876704,61
877276,63
877856,55
878436,59
879016,74
879588,80
880164,63
880744,27
881312,17
881896,33
882468,42
883048,32
883620,40
884192,56
884776,61
885348,56
885928,25
886500,15
887080,10
887652,22
888232,11
888804,16
889380,19
889960,15
890532,18
891112,23
891692,61
892272,62
892844,47
893420,50
894000,47
894576,21
895152,35
895728,43
896308,28
896880,11
897464,10
898036,24
898612,45
899192,64
899764,92
900344,113
900968,60
901544,48
902116,51
902692,43
903272,44
903844,55
904424,78
904996,84
905576,75
906148,64
906724,73
907304,73
907876,33
908456,47
909028,50
909608,55
910180,58
910760,61
911340,38
911916,23
912496,29
913068,17
913648,16
914220,32
914800,37
915380,46
915956,40
916536,42
917108,45
917688,47
918260,52
918840,55
919420,14
920000,11
920584,19
921156,22
921736,13
922308,17
922888,33
923456,32
924040,27
924612,18
925188,84
925768,94
926340,105
926972,120
927592,143
928220,144
928848,80
929412,35
929992,111
930616,124
931244,111
931872,113
932488,108
933116,70
933684,51
934264,49
934836,49
935412,47
935992,15
936564,17
937144,26
937716,26
938296,27
938868,19
939448,35
940028,38
940604,22
941184,28
941760,83
942336,120
942968,139
943596,119
944228,114
944848,83
945424,74
945996,34
946576,37
947156,97
947732,130
948364,84
948932,17
949512,40
950084,41
950664,52
951236,50
951812,50
952396,34
952968,19
953544,42
954116,35
954696,21
955276,13
955856,40
956440,58
957016,51
957596,30
958168,47
958744,48
959324,85
959908,72
960484,50
961056,55
961640,74
962212,85
962792,72
963372,36
963952,23
964524,19
965100,11
965680,12
966252,23
966832,43
967404,49
967984,55
968556,52
969136,30
969716,16
970292,11
970872,21
971444,29
972024,24
972604,14
973184,15
973764,22
974340,20
974920,42
975492,44
976072,50
976644,50
977224,51
977796,12
978376,17
978960,28
979532,36
980112,33
980684,29
981264,17
981836,30
982416,13
982996,67
983572,79
984152,82
984724,57
985304,51
985876,24
986456,45
987024,68
987604,64
988184,59
988756,56
989336,17
989908,13
990488,32
991068,76
991648,67
992228,53
992804,50
993384,54
993956,49
994536,52
995108,63
995688,72
996268,66
996844,33
997424,13
997996,10
998576,31
999148,25
999728,40
1000300,46
1000924,45
1001552,48
1002176,47
1002804,25
1003428,19
1004052,22
1004680,26
1005296,11
1005928,25
1006552,28
1007172,28
1007804,34
1008424,43
1009052,46
1009680,56
1010304,88
1010932,97
1011556,47
1012184,25
1012816,28
1013432,34
1014064,25
1014684,70
1015308,138
1015992,71
1016608,46
1017236,65
1017868,104
1018540,136
1019216,132
1019892,72
1020512,13
1021140,20
1021764,59
1022396,135
1023080,161
1023748,116
1024428,46
1025052,48
1025668,79
1026296,88
1026916,67
1027544,35
1028172,36
1028788,63
1029416,89
1030040,61
1030664,19
1031288,29
1031908,47
1032540,41
1033160,44
1033784,52
1034412,54
1035028,46
1035660,51
1036280,87
1036904,69
1037532,13
1038156,58
1038784,43
1039412,34
1040032,33
1040656,26
1041280,41
1041908,67
1042536,45
1043152,66
1043780,135
1044456,137
1045124,43
1045748,42
1046372,84
1047000,83
1047628,76
1048248,47
1048876,27
1049496,18
1050120,44
1050748,50
1051368,45
1051996,49
1052620,19
1053240,13
1053868,27
1054488,47
1055116,43
1055740,12
1056360,36
1056992,35
1057612,32
1058240,41
1058868,49
1059488,60
1060116,53
1060740,81
1061368,47
1061996,13
1062616,29
1063244,13
1063868,20
1064488,31
1065120,48
1065736,24
1066364,41
1066984,52
1067608,56
1068236,50
1068856,49
1069484,17
1070112,13
1070728,11
1071356,12
1071980,21
1072612,22
1073240,24
1073856,15
1074484,27
1075108,93
1075732,75
1076360,65
1076984,69
1077612,95
1078232,99
1078856,82
1079484,30
1080104,22
1080732,12
1081360,26
1081976,11
1082608,23
1083228,47
1083860,47
1084488,50
1085104,47
1085732,27
1086356,15
1086980,17
1087612,22
1088232,20
1088860,12
1089480,17
1090104,41
1090732,38
1091352,43
1091980,76
1092604,59
1093224,51
1093856,49
1094476,13
1095108,25
1095736,24
1096352,23
1096980,10
1097604,26
1098232,47
1098860,14
1099480,28
1100108,54
1100732,56
1101356,55
1101988,48
1102608,19
1103236,19
1103860,12
1104484,12
1105112,10
1105736,27
1106368,66
1106996,89
1107616,80
1108244,49
1108868,45
1109496,69
1110124,88
1110744,91
1111372,107
1112048,144
1112716,121
1113392,64
1114016,30
1114640,15
1115268,12
1115888,15
1116516,47
1117140,80
1117764,96
1118396,130
1119068,175
1119744,125
1120428,44
1121048,18
1121676,36
1122300,59
1122928,41
1123556,12
1124180,15
1124808,48
1125440,61
1126056,63
1126684,53
1127308,40
1127936,49
1128568,20
1129184,15
1129812,21
1130436,43
1131056,30
1131688,71
1132304,81
1132932,56
1133556,46
1134180,45
1134808,51
1135432,52
1136064,21
1136692,26
1137312,24
1137940,15
1138564,28
1139192,54
1139824,74
1140440,52
1141068,26
1141692,48
1142316,72
1142948,108
1143620,108
1144296,84
1144924,83
1145544,79
1146176,75
1146800,64
1147424,79
1148052,70
1148672,25
1149300,25
1149924,43
1150548,51
1151176,54
1151800,52
1152432,31
1153060,70
1153680,156
1154360,155
1155028,118
1155700,102
1156376,97
1156992,40
1157624,15
1158252,63
1158872,67
1159500,83
1160124,89
1160748,100
1161428,88
1162048,81
1162676,88
1163304,90
1163928,94
1164556,72
1165180,41
1165808,102
1166492,83
1167112,67
1167740,51
1168364,48
1168988,56
1169616,55
1170232,29
1170860,28
1171492,36
1172112,19
1172740,22
1173364,30
1173996,45
1174624,125
1175296,174
1175968,92
1176600,52
1177216,56
1177844,16
1178468,11
1179096,67
1179728,97
1180344,79
1180972,34
1181596,44
1182220,63
1182852,28
1183472,44
1184100,48
1184724,49
1185348,52
1185976,15
1186592,14
1187224,16
1187852,20
1188472,57
1189100,66
1189724,31
1190352,31
1190984,47
1191600,67
1192232,116
1192908,146
1193580,120
1194256,72
1194880,60
1195508,88
1196140,21
1196760,71
1197392,124
1198068,80
1198688,41
1199316,15
1199940,41
1200572,46
1201204,48
1201824,51
1202452,43
1203076,53
1203708,38
1204336,22
1204952,21
1205584,29
1206208,42
1206832,21
1207460,13
1208080,62
1208708,65
1209332,57
1209956,66
1210584,95
1211208,111
1211888,94
1212512,41
1213128,17
1213760,27
1214384,11
1215008,24
1215636,26
1216256,41
1216884,51
1217508,46
1218132,48
1218760,46
1219384,23
1220012,11
1220640,20
1221264,15
1221892,21
1222516,25
1223148,23
1223776,12
1224400,14
1225028,48
1225652,51
1226276,51
1226908,53
1227528,19
1228156,24
1228784,57
1229408,51
1230036,17
1230660,19
1231288,15
1231916,30
1232536,20
1233164,44
1233788,48
1234416,51
1235044,48
1235664,26
1236292,22
1236916,15
1237540,35
1238168,70
1238792,69
1239420,37
1240044,13
1240668,55
1241296,89
1241912,67
1242544,51
1243172,46
1243792,50
1244420,23
1245044,21
1245672,20
1246304,11
1246920,10
1247552,16
1248176,35
1248800,51
1249428,38
1250048,53
1250676,104
1251356,127
1252028,74
1252652,14
1253276,13
1253900,12
1254532,10
1255152,12
1255780,18
1256404,33
1257028,90
1257656,51
1258272,51
1258904,77
1259532,80
1260152,85
1260780,78
1261404,66
1262036,69
1262668,51
1263288,24
1263916,105
1264596,181
1265268,164
1265944,90
1266568,45
1267196,52
1267828,62
1268448,65
1269076,51
1269704,12
1270328,14
1270956,10
1271576,11
1272204,11
1272828,15
1273456,14
1274084,21
1274708,62
1275340,60
1275972,75
1276592,101
1277276,80
1277896,86
1278520,88
1279152,66
1279768,16
1280400,22
1281020,32
1281644,21
1282272,102
1282948,77
1283572,48
1284200,49
1284816,72
1285444,73
1286064,51
1286688,43
1287316,54
1287936,52
1288564,72
1289188,76
1289808,71
1290440,39
1291056,21
1291684,81
1292312,90
1292928,89
1293556,113
1294232,134
1294904,122
1295584,86
1296200,64
1296828,75
1297456,96
1298072,58
1298700,27
1299324,17
1299952,39
1300580,64
1301200,99
1301828,148
1302504,182
1303172,141
1303848,94
1304472,93
1305096,72
1305724,26
1306344,16
1306972,47
1307596,41
1308220,47
1308848,50
1309464,47
1310096,47
1310720,30
1311340,51
1311972,101
1312644,108
1313320,82
1313940,57
1314556,30
1315188,13
1315812,14
1316432,40
1317060,67
1317680,90
1318308,87
1318936,44
1319552,15
1320184,23
1320804,47
1321432,39
1322060,10
1322676,36
1323308,59
1323928,66
1324552,63
1325180,46
1325800,53
1326428,62
1327048,70
1327672,80
1328300,74
1328920,53
1329548,11
1330172,18
1330800,19
1331428,60
1332052,41
1332680,17
1333308,42
1333924,58
1334556,80
1335176,110
1335856,103
1336532,61
1337152,43
1337780,25
1338408,19
1339024,20
1339652,65
1340276,104
1340956,101
1341632,47
1342248,48
1342876,50
1343504,61
1344124,45
1344748,26
1345372,65
1346000,87
1346628,48
1347244,34
1347876,14
1348496,26
1349124,16
1349752,44
1350372,52
1351000,53
1351624,57
1352248,69
1352876,90
1353496,65
1354124,19
1354748,10
1355376,30
1356004,59
1356628,47
1357256,17
1357884,52
1358504,85
1359132,87
1359756,48
1360384,54
1361012,12
1361632,33
1362260,26
1362880,17
1363504,17
1364132,21
1364752,17
1365380,31
1366004,20
1366624,39
1367256,50
1367876,47
1368508,47
1369136,46
1369752,77
1370380,47
1371004,11
1371632,53
1372260,71
1372880,54
1373508,24
1374128,15
1374752,51
1375380,56
1376000,74
1376628,103
1377308,114
1377980,87
1378604,69
1379228,73
1379852,56
1380480,39
1381096,17
1381724,43
1382348,83
1382976,94
1383604,55
1384224,49
1384852,48
1385480,49
1386100,98
1386728,101
1387404,46
1388028,11
1388660,12
1389280,21
1389908,27
1390532,33
1391156,42
1391788,61
1392408,66
1393036,71
1393660,96
1394288,107
1394968,113
1395636,85
1396256,59
1396884,22
1397504,27
1398132,78
1398756,81
1399380,71
1400008,51
1400624,52
1401252,54
1401884,64
1402504,56
1403132,30
1403756,11
1404384,21
1405016,12
1405632,17
1406260,37
1406884,15
1407508,44
1408140,86
1408756,88
1409388,71
1410008,71
1410632,74
1411260,46
1411880,29
1412508,16
1413136,66
1413760,80
1414388,72
1415012,69
1415640,45
1416268,43
1416888,56
1417516,90
1418140,120
1418816,155
1419488,161
1420164,119
1420840,20
1421468,36
1422088,43
1422716,62
1423340,124
1424016,185
1424688,104
1425364,98
1425984,171
1426664,122
1427332,79
1427956,15
1428588,70
1429208,119
1429888,103
1430564,91
1431184,68
1431816,35
1432440,46
1433068,67
1433700,63
1434320,47
1434948,51
1435568,50
1436192,19
1436820,26
1437440,21
1438068,12
1438692,15
1439316,51
1439944,73
1440564,52
1441192,44
1441820,51
1442440,87
1443068,109
1443744,54
1444360,23
1444988,34
1445608,30
1446236,11
1446860,21
1447480,37
1448112,37
1448728,35
1449356,41
1449980,51
1450608,47
1451236,51
1451860,47
1452488,58
1453116,114
1453788,110
1454464,45
1455088,18
1455708,43
1456340,69
1456964,63
1457592,28
1458220,49
1458840,66
1459468,67
1460092,63
1460720,67
1461352,83
1461968,111
1462648,97
1463272,48
1463896,38
1464524,21
1465144,13
1465772,16
1466400,45
1467024,53
1467652,63
1468276,60
1468904,22
1469536,12
1470152,11
1470780,20
1471408,25
1472032,42
1472660,62
1473280,52
1473908,75
1474532,54
1475156,49
1475784,49
1476400,62
1477032,58
1477660,46
1478280,57
1478908,62
1479532,59
1480160,65
1480792,78
1481408,45
1482036,28
1482660,33
1483284,46
1483912,47
1484532,48
1485160,56
1485780,90
1486404,114
1487084,97
1487704,70
1488332,25
1488960,30
1489584,39
1490212,51
1490836,86
1491460,141
1492144,127
1492812,87
1493436,61
1494068,14
1494688,36
1495316,29
1495940,34
1496572,82
1497200,71
1497820,25
1498448,32
1499068,65
1499692,51
1500324,46
1500944,54
1501572,54
1502196,69
1502820,89
1503452,73
1504076,35
1504704,16
1505336,33
1505952,45
1506580,33
1507204,21
1507832,42
1508464,50
1509084,48
1509712,57
1510336,69
1510960,67
1511588,92
1512208,103
1512888,88
1513516,60
1514136,47
1514764,37
1515392,33
1516020,40
1516652,42
1517272,46
1517900,47
1518524,47
1519148,71
1519780,123
1520452,87
1521076,31
1521708,12
1522328,21
1522956,28
1523580,34
1524212,55
1524840,44
1525464,51
1526092,77
1526716,129
1527392,136
1528068,99
1528688,91
1529316,73
1529948,14
1530568,56
1531196,128
1531876,114
1532548,52
1533176,47
1533800,47
1534428,49
1535060,48
1535680,20
1536312,13
1536932,12
1537556,10
1538184,10
1538808,11
1539436,15
1540060,20
1540680,23
1541312,51
1541928,66
1542556,73
1543188,64
1543808,51
1544436,47
1545060,54
1545688,35
1546320,46
1546936,80
1547564,73
1548188,22
1548812,100
1549492,91
1550112,54
1550740,50
1551372,48
1551992,49
1552624,31
1553248,31
1553876,39
1554508,76
1555128,89
1555760,68
1556384,46
1557008,24
1557636,25
1558256,83
1558884,101
1559568,99
1560184,60
1560812,26
1561436,27
1562068,24
1562696,13
1563312,13
1563940,12
1564564,11
1565188,12
1565820,30
1566440,77
1567068,69
1567692,46
1568316,51
1568948,24
1569568,32
1570196,33
1570828,58
1571448,64
1572076,45
1572700,45
1573332,25
1573960,16
1574584,49
1575212,56
1575836,62
1576460,69
1577092,74
1577712,67
1578340,61
1578964,62
1579588,39
1580220,10
1580840,39
1581468,76
1582100,73
1582720,47
1583348,44
1583976,51
1584604,59
1585236,52
1585856,32
1586488,13
1587112,31
1587736,60
1588364,36
1588984,22
1589612,13
1590236,13
1590860,19
1591492,59
1592112,66
1592744,62
1593372,58
1593992,43
1594624,17
1595248,10
1595876,14
1596508,18
1597128,12
1597760,22
1598384,47
1599008,47
1599636,40
1600256,44
1600884,49
1601508,49
1602128,25
1602760,18
1603376,41
1604004,13
1604632,23
1605248,23
1605876,14
1606500,14
1607128,16
1607756,53
1608376,69
1609004,52
1609624,46
1610248,50
1610876,55
1611496,51
1612124,14
1612748,28
1613372,36
1614004,17
1614624,44
1615252,70
1615884,48
1616504,46
1617132,59
1617756,50
1618388,63
1619016,60
1619632,48
1620264,61
1620888,39
1621508,21
1622140,15
1622760,27
1623388,65
1624012,99
1624636,117
1625316,92
1625936,56
1626564,58
1627192,110
1627868,114
1628544,118
1629224,95
1629848,90
1630476,67
1631100,17
1631732,47
1632364,40
1632984,56
1633612,76
1634236,73
1634860,60
1635492,44
1636112,51
1636740,47
1637364,29
1637992,29
1638620,25
1639244,27
1639872,27
1640500,16
1641116,64
1641744,73
1642368,53
1642996,50
1643624,45
1644240,58
1644868,60
1645488,30
1646108,22
1646736,36
1647356,52
1647988,18
1648612,24
1649232,24
1649860,48
1650476,50
1651108,54
1651736,48
1652352,29
1652980,84
1653604,49
1654232,16
1654860,83
1655480,131
1656160,106
1656828,58
1657448,25
1658076,45
1658696,47
1659328,52
1659956,52
1660576,42
1661204,70
1661828,86
1662456,88
1663084,27
1663704,45
1664332,44
1664952,69
1665576,101
1666256,118
1666920,115
1667600,68
1668220,56
1668840,37
1669468,14
1670088,13
1670708,21
1671340,21
1671960,41
1672588,29
1673208,24
1673832,14
1674460,55
1675084,92
1675712,82
1676340,70
1676960,48
1677588,24
1678212,44
1678840,99
1679468,133
1680140,96
1680764,27
1681384,14
1682004,12
1682632,38
1683256,51
1683884,52
1684512,51
1685128,69
1685756,58
1686380,30
1687008,11
1687636,10
1688256,25
1688884,31
1689508,36
1690132,52
1690760,45
1691376,41
1692004,51
1692624,59
1693248,50
1693876,36
1694496,40
1695124,41
1695752,48
1696372,49
1697000,47
1697620,35
1698248,23
1698880,35
1699496,43
1700124,49
1700744,49
1701376,47
1702004,48
1702624,81
1703252,94
1703876,79
1704496,61
1705128,37
1705744,17
1706372,15
1706996,27
1707620,56
1708248,107
1708920,114
1709600,75
1710224,47
1710840,13
1711468,47
1712092,65
1712716,42
1713344,11
1713964,10
1714592,13
1715220,30
1715840,37
1716468,43
1717092,50
1717720,48
1718348,47
1718968,49
1719596,79
1720220,52
1720844,37
1721472,31
1722096,32
1722724,42
1723348,23
1723972,15
1724600,51
1725216,60
1725848,74
1726476,72
1727096,89
1727724,102
1728400,103
1729076,75
1729700,27
1730320,18
1730948,52
1731572,88
1732192,90
1732824,73
1733444,69
1734076,66
1734704,81
1735320,69
1735952,36
1736576,12
1737204,10
1737836,14
1738456,12
1739084,20
1739708,16
1740332,17
1740964,42
1741580,68
1742212,63
1742832,49
1743456,47
1744084,20
1744708,58
1745336,87
1745964,90
1746584,55
1747212,46
1747832,30
1748464,32
1749092,39
1749712,41
1750340,57
1750968,86
1751588,89
1752220,78
1752840,34
1753468,27
1754092,48
1754716,36
1755348,18
1755968,28
1756596,69
1757228,114
1757900,76
1758528,47
1759152,68
1759776,85
1760404,64
1761024,56
1761652,69
1762276,76
1762896,55
1763524,42
1764144,26
1764772,27
1765400,46
1766024,49
1766652,64
1767276,86
1767904,84
1768532,65
1769152,39
1769780,12
1770404,48
1771024,56
1771652,12
1772272,45
1772900,31
1773524,17
1774148,61
1774776,85
1775392,73
1776020,54
1776652,47
1777272,35
1777900,43
1778524,38
1779156,11
1779788,62
1780408,74
1781036,67
1781660,45
1782284,37
1782916,86
1783536,101
1784216,80
1784844,59
1785464,26
1786092,13
1786716,11
1787348,35
1787976,36
1788600,27
1789228,23
1789852,26
1790480,39
1791108,47
1791728,64
1792360,54
1792980,47
1793604,42
1794232,13
1794848,39
1795480,55
1796108,62
1796728,69
1797356,35
1797980,17
1798608,32
1799236,36
1799856,52
1800484,60
1801108,63
1801736,68
1802364,69
1802984,52
1803612,32
1804232,29
1804856,31
1805484,24
1806100,21
1806732,19
1807352,15
1807976,64
1808608,75
1809232,78
1809860,79
1810488,93
1811112,103
1811792,102
1812468,74
1813088,33
1813716,11
1814340,39
1814972,94
1815600,108
1816268,105
1816944,80
1817568,66
1818192,72
1818820,60
1819440,17
1820068,42
1820700,67
1821320,50
1821948,20
1822572,57
1823204,15
1823832,61
1824452,91
1825080,98
1825704,98
1826324,83
1826956,33
1827576,15
1828204,11
1828828,29
1829452,83
1830080,70
1830700,28
1831328,22
1831956,25
1832576,72
1833204,92
1833828,47
1834460,60
1835088,77
1835708,70
1836336,97
1836960,120
1837636,62
1838260,21
1838880,29
1839508,29
1840140,22
1840760,59
1841388,114
1842064,80
1842688,54
1843316,52
1843936,55
1844564,78
1845184,58
1845808,20
1846436,18
1847056,12
1847684,12
1848304,14
1848928,14
1849560,49
1850180,51
1850812,51
1851440,50
1852064,53
1852692,53
1853316,31
1853948,23
1854576,14
1855192,11
1855824,15
1856448,14
1857068,23
1857700,68
1858320,85
1858948,78
1859572,62
1860196,41
1860824,94
1861448,112
1862128,49
1862752,30
1863368,21
1863996,13
1864620,21
1865244,18
1865872,42
1866496,77
1867124,85
1867748,79
1868372,72
1869004,47
1869624,30
1870252,13
1870880,10
1871504,24
1872132,83
1872756,97
1873388,73
1874016,32
1874632,44
1875264,57
1875888,65
1876512,51
1877140,16
1877760,25
1878388,15
1879012,41
1879640,64
1880268,50
1880888,33
1881516,75
1882148,59
1882768,43
1883396,48
1884020,49
1884652,50
1885280,30
1885904,19
1886532,12
1887156,14
1887780,18
1888412,30
1889032,51
1889660,39
1890284,16
1890908,56
1891536,81
1892160,79
1892788,90
1893420,94
1894040,90
1894672,84
1895292,75
1895924,74
1896552,55
1897172,16
1897800,49
1898424,69
1899048,21
1899676,37
1900296,59
1900924,59
1901548,53
1902172,16
1902804,19
1903428,46
1904060,58
1904688,83
1905304,137
1905988,176
1906660,116
1907332,20
1907956,77
1908584,124
1909264,177
1909940,135
1910612,114
1911292,113
1911972,69
1912592,17
1913224,27
1913848,53
1914472,68
1915104,57
1915728,22
1916360,54
1916988,50
1917608,48
1918236,48
1918864,14
1919496,15
1920128,33
1920744,29
1921372,25
1921992,33
1922616,59
1923248,71
1923864,31
1924492,64
1925116,90
1925744,53
1926372,47
1926996,51
1927628,63
1928256,64
1928872,68
1929500,35
1930124,11
1930756,37
1931384,90
1932000,85
1932632,43
1933256,51
1933880,46
1934508,47
1935128,46
1935756,21
1936380,18
1937008,46
1937636,53
1938260,50
1938888,38
1939520,30
1940136,33
1940764,25
1941388,64
1942020,81
1942648,80
1943272,82
1943900,94
1944528,103
1945204,82
1945832,65
1946452,54
1947084,45
1947712,31
1948328,33
1948960,49
1949584,49
1950212,47
1950844,48
1951464,50
1952092,60
1952716,93
1953340,55
1953968,12
1954592,11
1955220,40
1955852,79
1956472,115
1957152,173
1957828,172
1958500,82
1959124,49
1959748,59
1960380,91
1961008,107
1961680,135
1962352,124
1963028,81
1963648,65
1964276,35
1964900,11
1965532,17
1966164,40
1966784,52
1967412,62
1968036,62
1968656,45
1969284,55
1969904,68
1970532,64
1971156,31
1971780,12
1972408,30
1973032,37
1973660,46
1974292,44
1974912,57
1975540,75
1976164,74
1976796,74
1977424,107
1978096,105
1978768,72
1979384,58
1980008,47
1980640,12
1981264,57
1981892,65
1982524,44
1983144,45
1983772,49
1984400,49
1985028,48
1985656,26
1986280,12
1986908,13
1987532,21
1988156,31
1988784,33
1989404,28
1990032,20
1990660,15
1991280,59
1991908,51
1992532,155
1993216,118
1993892,15
1994512,66
1995140,82
1995768,85
1996392,83
1997020,97
1997644,69
1998276,12
1998904,24
1999524,56
2000152,51
2000776,49
2001404,48
2002032,48
2002656,67
2003284,36
2003908,11
2004532,16
2005160,34
2005776,27
2006408,13
2007032,25
2007656,53
2008284,46
2008908,49
2009536,46
2010168,34
2010784,39
2011412,67
2012036,79
2012668,46
2013296,24
2013916,11
2014544,57
2015168,78
2015792,47
2016424,44
2017040,47
2017668,47
2018292,49
2018916,29
2019544,47
2020168,49
2020800,33
2021428,30
2022048,42
2022676,104
2023352,131
2024028,76
2024652,52
2025272,79
2025904,98
2026532,79
2027152,61
2027784,51
2028408,78
2029036,90
2029664,78
2030288,89
2030916,57
2031540,18
2032168,15
2032796,54
2033416,75
2034048,67
2034668,48
2035292,27
2035924,31
2036548,28
2037176,16
2037808,13
2038424,13
2039056,16
2039680,13
2040308,13
2040940,51
2041560,47
2042192,48
2042816,52
2043440,41
2044068,11
2044688,11
2045320,23
2045944,30
2046568,30
2047200,54
2047824,46
2048456,34
2049084,50
2049700,50
2050328,49
2050952,51
2051580,47
2052208,15
2052824,23
2053452,26
2054072,14
2054696,12
2055324,32
2055944,95
2056572,113
2057252,85
2057872,47
2058500,55
2059120,52
2059752,49
2060380,31
2061000,52
2061628,85
2062248,77
2062872,33
2063500,12
2064120,13
2064748,11
2065368,20
2065992,43
2066620,46
2067240,48
2067868,51
2068496,26
2069112,17
2069740,24
2070364,22
2070992,30
2071624,51
2072240,70
2072872,54
2073492,33
2074120,41
2074748,84
2075368,104
2076048,89
2076664,73
2077288,75
2077916,74
2078540,31
2079168,12
2079800,36
2080416,49
2081044,119
2081716,124
2082384,65
2083012,46
2083632,48
2084260,68
2084888,95
2085504,76
2086132,56
2086756,22
2087384,10
2088012,30
2088632,32
2089260,21
2089880,13
2090504,43
2091132,47
2091752,46
2092380,50
2093004,53
2093628,65
2094256,63
2094872,39
2095500,17
2096124,60
2096752,54
2097380,14
2098004,14
2098632,32
2099260,88
2099876,69
2100508,48
2101128,51
2101756,38
2102388,26
2103008,24
2103636,17
2104260,29
2104884,106
2105564,169
2106236,135
2106912,85
2107540,46
2108160,51
2108788,57
2109412,79
2110036,75
2110668,50
2111288,40
2111916,35
2112548,52
2113168,63
2113796,42
2114420,12
2115048,19
2115676,30
2116296,40
2116924,48
2117548,47
2118172,47
2118800,13
2119424,21
2120052,31
2120676,24
2121300,12
2121928,13
2122544,36
2123172,66
2123804,26
2124424,51
2125052,47
2125676,75
2126304,60
2126936,38
2127552,77
2128184,81
2128808,55
2129428,15
2130060,10
2130680,12
2131308,56
2131932,52
2132552,44
2133184,50
2133800,49
2134428,46
2135056,34
2135680,25
2136308,47
2136932,81
2137560,78
2138192,39
2138808,18
2139440,20
2140064,56
2140688,68
2141316,52
2141936,62
2142564,59
2143188,45
2143812,35
2144444,24
2145064,17
2145692,13
2146320,34
2146944,27
2147572,13
2148196,13
2148828,20
2149456,40
2150072,45
2150704,55
2151328,57
2151948,20
2152580,48
2153200,77
2153828,68
2154452,35
2155076,21
2155704,19
2156320,13
2156952,24
2157580,61
2158200,65
2158828,69
2159452,82
2160084,71
2160712,80
2161328,99
2161956,75
2162580,60
2163204,50
2163832,13
2164456,45
2165084,92
2165708,76
2166332,109
2167012,139
2167684,96
2168308,57
2168940,12
2169560,28
2170188,34
2170816,42
2171440,30
2172068,23
2172688,36
2173316,37
2173940,51
2174564,46
2175196,50
2175820,55
2176452,61
2177080,66
2177696,59
2178324,47
2178948,67
2179576,46
2180204,14
2180824,30
2181452,45
2182076,16
2182700,42
2183328,46
2183944,50
2184576,58
2185200,85
2185820,91
2186452,51
2187076,13
2187704,13
2188332,49
2188952,103
2189632,86
2190248,43
2190872,51
2191504,96
2192124,98
2192752,67
2193376,36
2194000,24
2194628,53
2195248,77
2195876,61
2196508,25
2197128,23
2197756,57
2198380,67
2199012,52
2199644,43
2200264,51
2200892,51
2201516,56
2202144,21
2202772,18
2203392,32
2204020,52
2204644,81
2205268,90
2205900,68
2206520,38
2207148,21
2207780,96
2208400,93
2209028,59
2209652,51
2210280,53
2210912,64
2211528,60
2212160,55
2212784,30
2213408,11
2214036,56
2214656,120
2215336,85
2215960,54
2216576,64
2217208,89
2217832,79
2218460,52
2219092,39
2219712,13
2220340,11
2220964,13
2221588,25
2222220,23
2222840,29
2223468,28
2224092,58
2224716,68
2225348,59
2225968,59
2226596,49
2227228,50
2227848,57
2228476,33
2229100,17
2229732,11
2230360,16
2230984,47
2231616,49
2232240,37
2232864,40
2233492,47
2234112,51
2234744,71
2235368,43
2235992,42
2236620,19
2237240,14
2237872,12
2238500,16
2239120,13
2239752,24
2240376,53
2241004,45
2241632,54
2242256,135
2242936,164
2243612,95
2244232,23
2244860,11
2245484,24
2246116,20
2246744,45
2247360,33
2247992,53
2248616,73
2249240,73
2249868,66
2250488,66
2251116,77
2251744,59
2252368,26
2253000,30
2253616,72
2254244,23
2254872,24
2255488,17
2256120,12
2256740,15
2257372,43
2258000,56
2258616,51
2259244,49
2259868,49
2260492,13
2261120,11
2261736,11
2262364,27
2262992,32
2263616,40
2264244,20
2264864,11
2265492,17
2266124,46
2266744,47
2267372,49
2267996,50
2268628,36
2269256,28
2269880,19
2270508,20
2271132,11
2271760,23
2272388,46
2273008,57
2273636,84
2274260,97
2274884,78
2275512,49
2276136,59
2276764,76
2277396,89
2278016,122
2278696,103
2279372,63
2279992,33
2280620,14
2281240,53
2281868,53
2282492,44
2283120,50
2283752,48
2284372,52
2285004,53
2285632,46
2286256,24
2286884,12
2287508,11
2288136,14
2288764,25
2289384,34
2290012,64
2290636,61
2291264,53
2291892,68
2292512,81
2293140,82
2293772,78
2294392,56
2295020,21
2295644,17
2296276,64
2296904,67
2297528,59
2298156,36
2298780,15
2299404,42
2300036,46
2300656,50
2301288,55
2301912,41
2302536,34
2303168,37
2303784,30
2304416,35
2305044,30
2305664,13
2306292,15
2306912,25
2307544,43
2308172,49
2308792,56
2309420,49
2310044,31
2310668,39
2311296,40
2311920,32
2312548,14
2313172,19
2313796,40
2314428,24
2315048,23
2315676,59
2316308,54
2316928,50
2317556,46
2318180,50
2318812,38
2319440,44
2320056,37
2320688,28
2321308,44
2321932,59
2322564,58
2323184,49
2323812,21
2324436,81
2325060,111
2325744,98
2326360,83
2326988,61
2327620,28
2328240,17
2328868,13
2329492,30
2330120,41
2330748,67
2331368,96
2331996,45
2332624,43
2333248,46
2333876,46
2334496,51
2335124,57
2335756,72
2336376,45
2337004,30
2337628,34
2338256,13
2338888,30
2339504,58
2340132,65
2340756,57
2341384,50
2342012,69
2342632,81
2343260,67
2343884,43
2344508,87
2345140,81
2345760,50
2346388,17
2347020,10
2347640,29
2348268,25
2348892,37
2349524,55
2350152,70
2350776,65
2351408,64
2352032,29
2352656,41
2353284,84
2353904,79
2354536,20
2355160,28
2355784,44
2356416,20
2357032,64
2357660,108
2358344,67
2358960,75
2359588,109
2360268,40
2360888,27
2361516,56
2362136,41
2362764,11
2363388,22
2364016,13
2364644,15
2365268,21
2365900,42
2366532,46
2367152,63
2367784,62
2368408,45
2369032,33
2369660,29
2370280,35
2370908,41
2371532,70
2372156,45
2372788,16
2373408,16
2374036,59
2374668,77
2375288,69
2375920,62
2376544,43
2377172,17
2377804,22
2378424,50
2379052,77
2379676,75
2380304,53
2380932,20
2381552,47
2382180,27
2382804,42
2383428,47
2384060,46
2384680,47
2385308,12
2385940,14
2386560,15
2387188,24
2387812,20
2388444,14
2389076,49
2389696,85
2390328,49
2390952,60
2391576,100
2392260,142
2392932,119
2393612,79
2394236,67
2394856,53
2395488,52
2396112,12
2396736,69
2397368,90
2397984,34
2398616,41
2399244,52
2399864,47
2400496,126
2401172,112
2401844,59
2402468,89
2403088,160
2403768,124
2404448,71
2405072,40
2405700,49
2406328,64
2406952,55
2407580,40
2408200,48
2408828,68
2409452,104
2410128,105
2410804,112
2411476,130
2412148,93
2412776,38
2413400,13
2414028,51
2414660,56
2415280,20
2415908,44
2416536,55
2417160,57
2417788,55
2418408,30
2419036,29
2419660,29
2420284,24
2420916,16
2421536,11
2422164,25
2422796,46
2423416,60
2424048,50
2424668,51
2425300,64
2425932,65
2426552,51
2427184,25
2427808,24
2428432,44
2429064,58
2429680,25
2430308,31
2430936,51
2431560,49
2432192,43
2432808,47
2433436,53
2434068,48
2434688,51
2435316,33
2435940,17
2436572,15
2437204,26
2437824,17
2438452,18
2439076,23
2439700,26
2440332,22
2440952,45
2441580,50
2442208,59
2442832,51
2443460,41
2444080,62
2444708,81
2445340,118
2446012,125
2446692,100
2447372,33
2447992,31
2448624,48
2449248,40
2449876,53
2450508,52
2451128,57
2451760,41
2452384,41
2453008,22
2453636,12
2454256,51
2454888,108
2455568,171
2456236,291
2456916,178
2457588,54
2458208,47
2458840,57
2459460,59
2460092,83
2460720,115
2461388,123
2462064,100
2462744,55
2463368,63
2463996,58
2464620,31
2465248,14
2465880,80
2466496,142
2467176,149
2467860,84
2468480,44
2469108,13
2469732,19
2470360,37
2470992,46
2471608,34
2472240,19
2472864,61
2473488,55
2474116,40
2474736,54
2475364,61
2475988,60
2476616,46
2477244,54
2477864,77
2478496,77
2479124,62
2479744,51
2480376,35
2480996,11
2481628,27
2482256,39
2482872,44
2483504,53
2484128,75
2484752,81
2485380,93
2486000,43
2486628,31
2487252,15
2487876,23
2488508,31
2489128,23
2489756,13
2490384,34
2491008,93
2491636,87
2492260,69
2492892,58
2493520,48
2494144,28
2494772,10
2495400,11
2496024,19
2496652,18
2497272,13
2497900,29
2498524,17
2499148,43
2499780,50
2500400,49
2501028,47
2501660,37
2502280,51
2502908,27
2503532,23
2504164,29
2504792,22
2505416,13
2506048,14
2506672,32
2507296,45
2507924,63
2508544,65
2509176,53
2509800,57
2510420,55
2511052,60
2511672,38
2512304,17
2512932,32
2513552,44
2514184,63
2514808,42
2515436,29
2516068,46
2516688,47
2517316,48
2517944,49
2518568,31
2519196,35
2519816,24
2520448,17
2521072,29
2521696,54
2522324,80
2522948,78
2523580,49
2524208,40
2524824,59
2525456,59
2526080,49
2526708,19
2527340,39
2527960,53
2528592,53
2529216,33
2529840,36
2530468,28
2531088,11
2531720,13
2532344,49
2532968,50
2533600,54
2534224,57
2534856,47
2535484,32
2536104,32
2536736,37
2537360,13
2537988,49
2538620,40
2539240,63
2539872,108
2540552,64
2541168,47
2541796,49
2542424,68
2543052,92
2543684,80
2544304,43
2544936,23
2545560,49
2546184,58
2546816,38
2547432,42
2548060,29
2548688,29
2549312,40
2549940,48
2550560,49
2551188,50
2551820,18
2552440,23
2553068,16
2553696,14
2554324,34
2554956,42
2555576,19
2556208,13
2556832,14
2557456,51
2558088,53
2558704,59
2559336,53
2559964,50
2560592,47
2561220,22
2561836,17
2562468,30
2563096,11
2563712,31
2564340,25
2564964,12
2565592,43
2566220,49
2566840,46
2567468,47
2568092,47
2568712,21
2569340,30
2569960,41
2570588,41
2571212,63
2571832,70
2572464,78
2573080,61
2573708,22
2574332,69
2574960,67
2575588,58
2576212,54
2576840,35
2577468,26
2578088,38
2578716,59
2579340,70
2579968,84
2580600,80
2581216,32
2581844,27
2582468,50
2583088,53
2583720,49
2584336,62
2584964,68
2585588,78
2586212,109
2586892,112
2587564,109
2588236,64
2588860,29
2589480,14
2590108,20
2590736,57
2591360,69
2591988,82
2592612,77
2593244,77
2593872,84
2594488,82
2595120,86
2595744,73
2596368,38
2596996,12
2597616,25
2598244,13
2598868,45
2599492,53
2600124,48
2600744,61
2601372,76
2602004,104
2602676,102
2603352,82
2603976,68
2604600,63
2605228,56
2605848,31
2606476,16
2607100,39
2607728,83
2608356,96
2608980,102
2609664,81
2610284,60
2610904,39
2611536,34
2612156,34
2612780,14
2613412,10
2614032,12
2614660,20
2615284,33
2615908,43
2616540,49
2617164,53
2617796,50
2618424,83
2619040,125
2619724,99
2620344,70
2620968,25
2621596,13
2622216,39
2622844,40
2623468,19
2624088,48
2624716,52
2625332,58
2625964,50
2626592,29
2627208,50
2627836,86
2628456,86
2629088,48
2629716,12
2630336,11
2630964,33
2631588,83
2632212,85
2632840,65
2633456,50
2634088,59
2634708,55
2635332,29
2635960,24
2636584,12
2637212,10
2637844,26
2638464,112
2639144,101
2639812,32
2640432,33
2641060,46
2641680,45
2642308,49
2642928,46
2643552,15
2644180,60
2644804,78
2645432,64
2646060,40
2646680,40
2647308,12
2647932,31
2648560,24
2649188,38
2649808,48
2650436,55
2651060,53
2651684,17
2652312,23
2652928,57
2653556,73
2654180,54
2654804,36
2655432,25
2656052,43
2656680,39
2657308,43
2657928,46
2658556,50
2659180,52
2659808,39
2660440,36
2661056,26
2661688,28
2662312,21
2662936,28
2663564,48
2664184,41
2664812,18
2665432,39
2666056,44
2666684,59
2667304,67
2667932,59
2668560,50
2669176,45
2669804,33
2670428,24
2671056,44
2671684,44
2672304,33
2672932,26
2673556,16
2674180,97
2674812,127
2675484,82
2676108,64
2676732,53
2677360,18
2677988,17
2678612,57
2679240,55
2679872,14
2680488,47
2681116,66
2681740,54
2682368,47
2683000,53
2683616,49
2684244,50
2684868,23
2685488,21
2686120,40
2686736,77
2687364,105
2688048,74
2688660,39
2689288,15
2689912,22
2690540,44
2691172,51
2691792,93
2692420,119
2693096,67
2693712,15
2694340,10
2694960,21
2695588,24
2696220,10
2696840,19
2697468,41
2698092,26
2698720,37
2699348,45
2699968,53
2700596,55
2701224,49
2701844,20
2702476,20
2703096,12
2703724,12
2704348,11
2704972,13
2705600,23
2706216,48
2706844,33
2707476,53
2708096,65
2708724,64
2709348,57
2709976,65
2710608,58
2711224,78
2711852,85
2712476,49
2713100,11
2713732,48
2714352,96
2714980,84
2715604,45
2716228,48
2716856,48
2717472,50
2718100,34
2718732,10
2719352,16
2719980,24
2720608,17
2721236,17
2721864,16
2722480,12
2723112,14
2723736,39
2724360,78
2724988,87
2725608,67
2726236,49
2726860,11
2727480,31
2728112,20
2728728,32
2729356,47
2729980,32
2730608,28
2731236,34
2731860,34
2732488,41
2733120,46
2733736,53
2734364,61
2734988,46
2735620,37
2736248,52
2736872,71
2737500,41
2738124,13
2738748,20
2739380,18
2740000,14
2740628,41
2741256,46
2741876,49
2742504,54
2743128,63
2743756,16
2744388,25
2745008,16
2745636,11
2746260,16
2746884,24
2747516,88
2748136,114
2748816,63
2749444,46
2750064,49
2750692,49
2751316,45
2751948,29
2752580,20
2753200,15
2753828,26
2754452,11
2755080,27
2755708,46
2756328,34
2756956,22
2757580,73
2758204,89
2758836,80
2759456,52
2760084,12
2760716,12
2761336,11
2761964,17
2762588,10
2763220,11
2763848,20
2764472,50
2765104,25
2765724,61
2766348,58
2766980,57
2767600,49
2768228,20
2768852,25
2769476,21
2770104,13
2770720,15
2771352,41
2771980,52
2772600,21
2773228,14
2773852,51
2774484,86
2775112,110
2775788,65
2776412,38
2777036,11
2777660,13
2778292,18
2778912,19
2779540,26
2780172,50
2780792,103
2781472,77
2782096,47
2782724,63
2783356,56
2783976,68
2784608,59
2785232,24
2785856,47
2786484,58
2787104,104
2787784,137
2788460,72
2789080,25
2789708,23
2790332,33
2790960,48
2791588,47
2792208,51
2792836,51
2793460,43
2794084,51
2794716,59
2795340,44
2795968,42
2796600,45
2797216,16
2797848,19
2798472,15
2799100,40
2799732,46
2800352,47
2800980,51
2801604,17
2802228,11
2802856,12
2803480,11
2804108,13
2804732,22
2805360,33
2805988,27
2806612,18
2807244,53
2807872,72
2808492,74
2809120,60
2809744,32
2810372,15
2811004,18
2811624,27
2812252,13
2812876,21
2813500,35
2814132,46
2814752,28
2815380,41
2816012,50
2816628,53
2817260,51
2817880,56
2818512,49
2819140,34
2819760,13
2820388,63
2821012,113
2821688,116
2822368,92
2822984,78
2823612,42
2824244,58
2824864,70
2825492,75
2826116,79
2826748,82
2827376,88
2827992,33
2828624,26
2829248,16
2829868,27
2830500,15
2831120,17
2831748,26
2832372,42
2832996,48
2833628,45
2834248,49
2834880,33
2835508,38
2836128,25
2836756,23
2837380,19
2838012,14
2838640,20
2839264,15
2839892,14
2840516,68
2841140,103
2841824,92
2842440,66
2843068,28
2843700,18
2844320,11
2844948,11
2845572,29
2846204,69
2846836,87
2847456,107
2848136,53
2848752,46
2849376,65
2850004,53
2850628,52
2851260,49
2851888,21
2852504,20
2853136,17
2853760,15
2854388,57
2855020,44
2855640,37
2856272,52
2856896,51
2857520,47
2858148,49
2858768,54
2859400,50
2860024,13
2860648,41
2861276,84
2861900,99
2862532,97
2863164,88
2863784,60
2864416,62
2865040,69
2865668,47
2866300,48
2866920,64
2867552,93
2868172,69
2868796,26
2869424,28
2870048,28
2870676,24
2871308,24
2871928,59
2872556,88
2873180,106
2873864,54
2874484,55
2875104,83
2875732,65
2876356,40
2876980,17
2877612,38
2878232,53
2878860,43
2879484,42
2880112,48
2880740,41
2881360,57
2881992,95
2882620,57
2883240,47
2883868,49
2884488,48
2885116,13
2885748,56
2886368,92
2886996,40
2887620,19
2888244,13
2888872,12
2889496,25
2890124,24
2890748,48
2891376,51
2892004,49
2892628,55
2893260,38
2893888,21
2894504,32
2895132,35
2895756,23
2896388,26
2897016,15
2897632,49
2898264,37
2898884,43
2899508,47
2900140,50
2900760,59
2901388,33
2902012,29
2902640,21
2903268,21
2903892,48
2904524,59
2905152,73
2905776,57
2906404,47
2907028,46
2907656,65
2908284,86
2908904,90
2909532,104
2910212,135
2910884,126
2911560,99
2912184,64
2912808,25
2913436,17
2914056,70
2914684,115
2915368,135
2916036,150
2916712,104
2917396,57
2918016,39
2918648,37
2919268,11
2919900,47
2920528,41
2921152,46
2921780,35
2922404,49
2923028,77
2923660,60
2924280,49
2924908,53
2925532,48
2926156,52
2926788,68
2927408,113
2928088,120
2928768,96
2929392,74
2930020,56
2930644,17
2931268,23
2931900,28
2932520,53
2933148,75
2933780,109
2934452,117
2935128,83
2935752,82
2936376,72
2937004,16
2937624,62
2938252,118
2938936,166
2939604,184
2940280,138
2940964,74
2941584,71
2942216,55
2942840,48
2943472,29
2944100,40
2944720,55
2945348,44
2945972,46
2946596,75
2947224,63
2947848,29
2948476,16
2949100,39
2949728,47
2950356,47
2950980,47
2951612,20
2952240,12
2952856,10
2953484,15
2954108,17
2954740,23
2955368,46
2955988,39
2956616,24
2957240,59
2957864,89
2958496,110
2959164,84
2959792,79
2960420,82
2961040,63
2961668,33
2962292,129
2962972,98
2963596,57
2964216,56
2964844,33
2965468,45
2966092,48
2966720,49
2967344,48
2967972,32
2968604,18
2969224,29
2969852,33
2970476,13
2971104,11
2971736,17
2972352,16
2972984,21
2973608,42
2974228,65
2974860,49
2975480,47
2976108,52
2976732,11
2977356,23
2977984,33
2978604,25
2979232,11
2979860,11
2980480,13
2981108,11
2981732,42
2982364,63
2982992,58
2983616,71
2984244,89
2984868,65
2985492,14
2986124,83
2986744,132
2987428,136
2988108,112
2988780,50
2989408,13
2990032,21
2990656,65
2991284,90
2991904,152
2992588,190
2993264,171
2993940,85
2994564,31
2995188,36
2995816,124
2996496,195
2997172,176
2997844,98
2998468,41
2999088,60
2999716,72
3000348,54
3000968,51
3001596,48
3002220,61
3002852,66
3003484,64
3004104,34
3004736,11
3005360,14
3005984,14
3006616,30
3007232,39
3007864,47
3008488,55
3009112,55
3009740,51
3010360,65
3010992,73
3011620,43
3012240,11
3012868,23
3013492,44
3014124,31
3014756,16
3015376,47
3016008,44
3016628,46
3017256,50
3017884,45
3018504,13
3019136,13
3019760,11
3020384,24
3021016,57
3021640,65
3022268,56
3022900,95
3023520,103
3024200,46
3024824,60
3025448,51
3026076,52
3026696,59
3027328,71
3027952,46
3028576,24
3029208,12
3029832,19
3030464,55
3031092,90
3031712,119
3032396,148
3033068,116
3033740,82
3034364,53
3034992,74
3035620,140
3036304,246
3036972,242
3037648,151
3038332,101
3039004,60
3039632,53
3040264,41
3040880,72
3041508,90
3042132,58
3042764,57
3043396,75
3044016,78
3044644,78
3045268,36
3045896,11
3046524,10
3047144,11
3047772,13
3048396,39
3049024,57
3049652,55
3050272,53
3050900,47
3051532,18
3052152,20
3052784,61
3053408,74
3054040,110
3054720,100
3055396,80
3056024,47
3056652,16
3057272,86
3057904,136
3058580,144
3059256,139
3059932,126
3060604,76
3061232,13
3061860,54
3062480,65
3063108,53
3063736,37
3064360,21
3064988,14
3065608,50
3066236,52
3066864,47
3067488,50
3068120,26
3068744,53
3069376,53
3070008,19
3070628,11
3071260,10
3071884,51
3072520,73
3073148,42
3073768,50
3074396,60
3075020,55
3075644,57
3076272,44
3076896,21
3077524,23
3078156,42
3078776,55
3079404,37
3080028,15
3080660,46
3081288,51
3081904,39
3082532,43
3083156,47
3083784,52
3084412,44
3085032,24
3085660,33
3086284,59
3086908,67
3087540,39
3088160,17
3088788,16
3089420,38
3090040,24
3090668,46
3091292,45
3091924,49
3092556,48
3093176,18
3093804,21
3094428,38
3095052,39
3095684,12
3096304,11
3096936,11
3097560,21
3098184,57
3098812,54
3099432,47
3100064,48
3100692,50
3101312,34
3101944,36
3102568,65
3103200,62
3103828,62
3104448,62
3105080,35
3105704,15
3106328,14
3106956,54
3107576,66
3108208,54
3108832,67
3109456,108
3110136,85
3110760,17
3111392,63
3112024,70
3112640,44
3113272,13
3113896,29
3114520,14
3115152,44
3115768,57
3116396,55
3117024,59
3117648,67
3118276,44
3118896,57
3119528,57
3120156,43
3120776,21
3121404,57
3122028,66
3122660,43
3123292,24
3123912,61
3124540,126
3125216,141
3125884,52
3126508,49
3127132,99
3127764,130
3128448,96
3129064,29
3129692,11
3130316,21
3130940,17
3131572,16
3132192,41
3132820,45
3133452,46
3134072,47
3134704,27
3135328,25
3135960,11
3136592,11
3137208,15
3137836,33
3138460,15
3139084,49
3139716,40
3140336,42
3140964,49
3141592,56
3142216,60
3142848,57
3143464,62
3144096,69
3144724,54
3145344,35
3145976,16
3146600,11
3147228,27
3147860,52
3148480,57
3149112,52
3149736,59
3150360,55
3150992,49
3151608,16
3152240,43
3152864,51
3153488,47
3154120,30
3154736,18
3155368,13
3155996,12
3156616,23
3157248,62
3157872,51
3158500,47
3159132,54
3159752,31
3160384,15
3161008,20
3161632,28
3162260,14
3162880,31
3163508,36
3164136,51
3164760,39
3165392,43
3166008,46
3166640,46
3167272,49
3167892,31
3168524,17
3169148,13
3169780,22
3170408,18
3171032,14
3171664,32
3172288,38
3172912,29
3173544,41
3174164,63
3174796,69
3175420,59
3176048,60
3176676,37
3177300,39
3177932,48
3178564,38
3179184,24
3179816,11
3180440,33
3181064,28
3181696,16
3182312,43
3182944,49
3183568,46
3184192,49
3184824,26
3185440,23
3186072,12
3186700,11
3187320,24
3187952,48
3188576,54
3189208,45
3189836,30
3190456,45
3191088,49
3191712,55
3192336,58
3192968,60
3193588,48
3194220,55
3194848,42
3195472,12
3196104,12
3196720,25
3197352,16
3197984,24
3198608,55
3199240,53
3199868,47
3200500,61
3201128,46
3201744,15
3202372,24
3202996,57
3203620,92
3204248,125
3204916,128
3205592,117
3206268,95
3206888,55
3207516,50
3208140,53
3208764,54
3209392,60
3210012,71
3210640,92
3211268,105
3211940,96
3212568,63
3213192,42
3213820,24
3214448,20
3215072,51
3215700,60
3216324,56
3216948,50
3217576,62
3218200,68
3218828,54
3219452,19
3220080,20
3220708,48
3221332,73
3221964,103
3222644,108
3223316,82
3223940,49
3224568,74
3225192,85
3225820,81
3226444,90
3227072,77
3227704,55
3228320,49
3228952,33
3229576,29
3230204,14
3230836,10
3231456,18
3232084,46
3232708,47
3233332,46
3233964,47
3234584,22
3235212,14
3235836,26
3236464,47
3237092,29
3237716,13
3238348,42
3238980,62
3239600,115
3240280,145
3240956,121
3241636,52
3242260,48
3242884,36
3243512,15
3244144,16
3244764,27
3245392,26
3246020,23
3246644,38
3247272,28
3247892,30
3248520,60
3249144,57
3249768,52
3250400,47
3251024,50
3251656,24
3252284,19
3252904,21
3253532,11
3254160,21
3254788,39
3255420,46
3256040,26
3256668,42
3257292,126
3257968,172
3258648,154
3259324,82
3259944,23
3260576,27
3261192,42
3261824,43
3262448,12
3263072,33
3263704,84
3264328,73
3264956,31
3265588,44
3266208,47
3266836,47
3267464,55
3268092,59
3268724,60
3269344,83
3269972,94
3270600,81
3271224,48
3271852,29
3272472,19
3273104,15
3273732,46
3274352,58
3274984,67
3275608,69
3276240,60
3276868,54
3277484,76
3278112,100
3278788,82
3279408,62
3280036,58
3280652,47
3281280,23
3281900,44
3282524,51
3283152,48
3283768,68
3284396,102
3285076,72
3285696,50
3286324,35
3286948,27
3287568,43
3288196,86
3288812,107
3289496,68
3290116,40
3290736,64
3291364,56
3291984,54
3292616,56
3293244,63
3293864,92
3294492,89
3295116,49
3295744,11
3296372,25
3296992,40
3297620,55
3298240,28
3298864,40
3299492,54
3300112,61
3300740,55
3301364,21
3301988,17
3302616,30
3303236,23
3303868,30
3304496,47
3305112,61
3305740,49
3306364,45
3306992,41
3307624,48
3308240,57
3308868,58
3309492,61
3310116,73
3310744,53
3311360,49
3311988,47
3312612,30
3313236,23
3313868,14
3314488,16
3315116,37
3315748,46
3316368,46
3316996,50
3317620,49
3318252,12
3318880,11
3319496,16
3320128,35
3320752,18
3321372,53
3322004,111
3322676,154
3323352,140
3324032,80
3324656,50
3325284,84
3325908,142
3326584,172
3327260,174
3327932,112
3328604,28
3329228,67
3329848,13
3330476,22
3331104,12
3331720,35
3332348,50
3332972,51
3333600,47
3334228,47
3334848,12
3335476,13
3336100,19
3336724,15
3337352,49
3337968,90
3338596,104
3339276,89
3339896,42
3340524,58
3341148,88
3341776,91
3342404,70
3343024,46
3343652,42
3344276,43
3344900,35
3345532,10
3346152,13
3346780,23
3347404,48
3348028,32
3348656,42
3349280,49
3349908,49
3350536,52
3351160,33
3351788,21
3352412,11
3353044,13
3353672,15
3354288,15
3354920,21
3355540,15
3356164,17
3356796,44
3357416,80
3358048,102
3358728,104
3359396,50
3360020,28
3360644,24
3361272,21
3361900,48
3362520,32
3363148,22
3363772,50
3364396,71
3365024,43
3365640,41
3366268,49
3366892,49
3367516,65
3368144,44
3368760,33
3369392,28
3370020,34
3370640,13
3371268,40
3371892,72
3372520,51
3373152,21
3373768,40
3374396,48
3375020,52
3375644,50
3376276,41
3376896,43
3377524,34
3378148,15
3378772,65
3379404,56
3380024,14
3380648,14
3381280,20
3381896,44
3382524,49
3383148,49
3383776,49
3384404,34
3385024,34
3385652,51
3386272,28
3386896,16
3387528,24
3388144,65
3388772,58
3389396,29
3390020,42
3390652,80
3391272,52
3391900,52
3392532,50
3393152,29
3393780,61
3394404,77
3395032,76
3395664,27
3396280,14
3396908,27
3397532,38
3398156,23
3398788,39
3399408,51
3400036,74
3400660,94
3401284,50
3401912,48
3402528,149
3403208,225
3403884,162
3404556,67
3405180,15
3405804,24
3406428,53
3407056,60
3407676,81
3408304,89
3408932,58
3409552,19
3410180,14
3410804,17
3411436,10
3412064,11
3412680,23
3413312,24
3413936,13
3414560,13
3415188,48
3415808,46
3416436,49
3417060,46
3417684,42
3418316,31
3418936,32
3419564,17
3420196,12
3420816,19
3421444,20
3422068,27
3422696,30
3423328,31
3423948,50
3424576,50
3425200,51
3425824,49
3426456,29
3427072,52
3427704,59
3428328,35
3428952,14
3429580,57
3430200,104
3430884,84
3431508,37
3432128,43
3432756,58
3433380,53
3434004,65
3434636,46
3435256,31
3435884,12
3436508,29
3437136,63
3437764,70
3438384,75
3439016,63
3439644,48
3440264,42
3440892,57
3441516,69
3442144,89
3442776,76
3443392,57
3444024,40
3444644,32
3445268,24
3445896,23
3446520,35
3447148,12
3447772,29
3448396,49
3449024,45
3449648,51
3450276,54
3450908,58
3451528,50
3452156,54
3452780,51
3453412,17
3454044,58
3454664,74
3455296,71
3455920,45
3456544,24
3457172,47
3457792,48
3458420,48
3459044,56
3459668,87
3460296,87
3460920,24
3461548,56
3462180,85
3462800,104
3463480,67
3464096,30
3464720,36
3465348,40
3465968,47
3466596,48
3467220,46
3467844,23
3468476,28
3469096,19
3469724,11
3470356,10
3470976,11
3471608,18
3472232,32
3472860,60
3473488,43
3474112,51
3474740,53
3475368,57
3475988,58
3476620,54
3477240,53
3477868,39
3478496,44
3479120,33
3479748,35
3480368,13
3480996,13
3481628,38
3482244,46
3482876,68
3483500,51
3484128,48
3484756,13
3485376,20
3486004,43
3486628,51
3487252,72
3487884,84
3488504,95
3489132,95
3489756,48
3490380,48
3491008,94
3491632,112
3492312,110
3492992,116
3493668,128
3494344,91
3494976,50
3495592,32
3496224,11
3496844,21
3497476,38
3498104,34
3498728,41
3499356,47
3499984,47
3500608,49
3501236,16
3501856,14
3502488,54
3503116,53
3503736,41
3504368,63
3504992,71
3505620,85
3506252,114
3506924,74
3507552,45
3508176,59
3508800,54
3509428,44
3510048,62
3510680,80
3511308,72
3511928,14
3512560,10
3513184,33
3513816,45
3514444,38
3515064,55
3515696,51
3516320,47
3516944,47
3517576,62
3518192,68
3518824,15
3519448,41
3520072,40
3520700,11
3521320,23
3521948,53
3522580,92
3523200,81
3523828,48
3524452,63
3525080,66
3525708,68
3526328,71
3526960,56
3527580,48
3528204,56
3528836,29
3529456,27
3530084,79
3530708,50
3531332,20
3531964,47
3532584,51
3533216,61
3533844,53
3534464,46
3535092,26
3535716,15
3536348,41
3536976,37
3537592,11
3538224,37
3538848,35
3539472,17
3540100,55
3540720,87
3541348,87
3541972,94
3542600,96
3543228,83
3543848,79
3544476,57
3545108,72
3545728,57
3546356,16
3546980,14
3547612,11
3548240,34
3548864,41
3549492,97
3550116,137
3550792,151
3551476,157
3552148,100
3552824,42
3553448,20
3554064,29
3554692,54
3555320,49
3555944,39
3556572,28
3557196,84
3557828,91
3558460,82
3559080,55
3559708,12
3560332,12
3560964,20
3561592,28
3562216,40
3562848,52
3563472,24
3564096,12
3564724,16
3565344,42
3565972,45
3566604,49
3567224,63
3567856,47
3568480,28
3569108,17
3569740,11
3570360,23
3570992,24
3571616,21
3572240,29
3572868,57
3573488,107
3574172,63
3574800,50
3575416,52
3576048,27
3576672,13
3577300,56
3577932,71
3578552,37
3579184,13
3579808,38
3580432,45
3581064,16
3581684,57
3582312,55
3582940,46
3583564,53
3584196,59
3584816,54
3585444,39
3586072,17
3586688,11
3587320,17
3587944,37
3588572,67
3589200,35
3589824,21
3590452,59
3591076,57
3591700,65
3592332,55
3592952,35
3593584,27
3594208,25
3594832,13
3595460,39
3596080,41
3596708,42
3597340,44
3597960,17
3598588,55
3599216,64
3599844,54
3600476,50
3601096,22
3601724,31
3602348,51
3602972,51
3603604,44
3604224,46
3604852,54
3605476,67
3606100,51
3606728,46
3607344,48
3607976,53
3608604,50
3609224,59
3609852,57
3610476,49
3611104,52
3611732,46
3612352,37
3612980,25
3613604,11
3614228,20
3614856,50
3615480,49
3616108,47
3616732,48
3617356,52
3617984,36
3618600,24
3619232,12
3619860,11
3620480,41
3621108,52
3621732,56
3622364,31
3622992,16
3623616,72
3624248,82
3624868,80
3625492,78
3626124,81
3626744,69
3627372,51
3627996,42
3628620,16
3629252,70
3629872,109
3630552,91
3631184,35
3631800,43
3632432,45
3633056,50
3633680,51
3634308,33
3634928,15
3635560,31
3636180,32
3636804,30
3637432,10
3638056,15
3638684,12
3639316,14
3639936,40
3640568,49
3641192,49
3641820,49
3642452,57
3643072,71
3643704,57
3644324,13
3644948,59
3645580,76
3646200,59
3646828,34
3647452,17
3648076,26
3648708,56
3649328,56
3649956,53
3650588,48
3651208,17
3651836,13
3652460,18
3653092,30
3653720,12
3654340,41
3654968,56
3655592,58
3656220,48
3656848,43
3657468,51
3658096,51
3658720,48
3659344,26
3659976,24
3660592,49
3661224,80
3661852,87
3662472,60
3663100,21
3663728,49
3664356,72
3664988,42
3665608,48
3666236,54
3666860,53
3667488,46
3668116,18
3668736,23
3669364,22
3669988,16
3670616,53
3671244,104
3671916,140
3672596,152
3673276,104
3673948,46
3674576,88
3675204,108
3675876,104
3676556,82
3677176,47
3677800,43
3678432,29
3679056,11
3679688,11
3680316,18
3680936,11
3681564,47
3682192,60
3682820,57
3683452,54
3684072,52
3684704,15
3685328,39
3685952,39
3686584,28
3687200,37
3687828,63
3688456,85
3689080,70
3689708,17
3690332,71
3690960,69
3691588,62
3692208,56
3692836,58
3693460,79
3694084,99
3694716,104
3695388,76
3696012,66
3696636,34
3697264,17
3697892,35
3698516,64
3699148,118
3699832,89
3700448,53
3701076,42
3701700,70
3702328,72
3702956,51
3703576,38
3704208,29
3704832,28
3705456,15
3706088,30
3706712,72
3707340,92
3707972,84
3708592,68
3709224,64
3709848,57
3710472,63
3711100,42
3711720,22
3712352,47
3712976,12
3713596,10
3714228,18
3714848,32
3715476,58
3716108,60
3716728,77
3717360,78
3717984,31
3718612,34
3719244,44
3719864,31
3720492,20
3721116,68
3721740,104
3722424,126
3723092,142
3723772,91
3724400,63
3725016,54
3725644,47
3726268,16
3726892,40
3727524,54
3728144,26
3728772,25
3729396,21
3730020,20
3730652,17
3731276,20
3731904,53
3732536,53
3733152,49
3733784,51
3734408,24
3735036,11
3735668,12
3736288,11
3736920,11
3737544,11
3738168,26
3738796,28
3739416,30
3740044,46
3740668,54
3741296,63
3741928,55
3742552,49
3743180,27
3743812,40
3744432,56
3745060,56
3745688,41
3746312,20
3746940,33
3747560,45
3748192,33
3748816,43
3749436,49
3750068,49
3750688,46
3751316,27
3751948,43
3752568,41
3753196,22
3753824,30
3754452,105
3755136,130
3755804,90
3756432,45
3757060,59
3757680,79
3758312,75
3758936,64
3759568,65
3760196,58
3760816,51
3761444,48
3762068,17
3762696,20
3763324,15
3763944,21
3764572,27
3765200,38
3765824,47
3766452,45
3767072,49
3767704,53
3768332,68
3768952,53
3769580,37
3770208,31
3770836,64
3771468,118
3772140,79
3772768,28
3773392,60
3774016,93
3774648,73
3775264,69
3775896,68
3776528,56
3777144,71
3777776,76
3778400,73
3779032,55
3779660,30
3780280,13
3780908,17
3781536,52
3782160,47
3782788,55
3783408,55
3784040,68
3784664,65
3785288,33
3785916,11
3786536,14
3787168,24
3787796,15
3788416,15
3789048,16
3789672,50
3790300,45
3790932,47
3791552,65
3792184,69
3792808,57
3793428,28
3794060,42
3794680,65
3795312,45
3795932,12
3796560,11
3797188,16
3797808,18
3798440,51
3799068,67
3799688,50
3800320,53
3800940,72
3801572,33
3802204,24
3802824,47
3803456,37
3804080,11
3804704,15
3805336,15
3805952,24
3806584,59
3807208,74
3807832,79
3808464,69
3809080,52
3809712,15
3810340,13
3810960,21
3811592,11
3812216,37
3812844,13
3813476,68
3814096,115
3814780,75
3815400,49
3816024,49
3816652,48
3817272,49
3817904,23
3818532,23
3819152,11
3819784,17
3820408,13
3821040,17
3821668,38
3822288,21
3822920,28
3823544,75
3824168,87
3824800,86
3825416,54
3826048,24
3826672,33
3827296,51
3827928,43
3828552,14
3829184,18
3829812,27
3830432,33
3831064,13
3831688,44
3832320,50
3832948,56
3833568,49
3834200,39
3834828,50
3835452,56
3836084,38
3836704,11
3837336,33
3837972,55
3838592,67
3839228,58
3839852,44
3840484,47
3841112,52
3841736,57
3842364,58
3842988,53
3843612,53
3844244,64
3844864,66
3845492,36
3846116,23
3846740,21
3847368,43
3847992,61
3848624,51
3849252,46
3849872,47
3850500,56
3851124,42
3851756,48
3852384,72
3853008,98
3853636,86
3854260,76
3854884,88
3855512,58
3856136,35
3856764,47
3857388,64
3858012,72
3858644,78
3859264,67
3859896,71
3860524,84
3861144,86
3861772,52
3862396,27
3863028,14
3863660,12
3864280,11
3864908,49
3865536,44
3866160,49
3866788,70
3867408,64
3868036,50
3868664,40
3869288,25
3869916,16
3870540,33
3871172,43
3871804,67
3872424,60
3873052,46
3873676,45
3874308,52
3874936,62
3875560,64
3876192,63
3876816,55
3877440,44
3878068,49
3878688,24
3879316,16
3879948,35
3880568,35
3881196,17
3881824,41
3882452,50
3883084,47
3883704,56
3884336,56
3884960,60
3885584,24
3886212,93
3886832,61
3887464,17
3888088,55
3888712,68
3889340,48
3889960,41
3890592,51
3891220,72
3891840,91
3892468,87
3893092,88
3893720,101
3894404,74
3895024,38
3895652,17
3896276,13
3896904,41
3897532,71
3898152,52
3898784,47
3899412,51
3900032,66
3900664,85
3901288,68
3901916,28
3902548,10
3903168,19
3903800,39
3904424,48
3905048,43
3905676,63
3906296,71
3906928,58
3907552,102
3908228,118
3908908,92
3909528,64
3910152,71
3910784,65
3911400,65
3912032,31
3912656,27
3913280,15
3913912,17
3914532,16
3915160,50
3915792,74
3916416,63
3917048,49
3917672,59
3918304,80
3918932,71
3919552,78
3920184,82
3920808,41
3921432,63
3922060,173
3922732,140
3923412,47
3924036,50
3924656,60
3925284,49
3925908,28
3926536,43
3927168,60
3927784,58
3928416,40
3929040,22
3929664,30
3930292,16
3930912,12
3931544,45
3932176,48
3932792,47
3933424,49
3934048,52
3934676,103
3935360,56
3935976,26
3936608,51
3937232,58
3937856,36
3938484,22
3939104,71
3939736,45
3940364,55
3940984,50
3941612,50
3942240,53
3942868,29
3943500,11
3944120,17
3944748,19
3945372,28
3945996,15
3946628,50
3947248,41
3947876,18
3948500,53
3949124,69
3949756,76
3950376,65
3951008,17
3951636,18
3952256,47
3952884,92
3953508,84
3954140,62
3954772,50
3955392,15
3956020,36
3956644,88
3957268,68
3957900,65
3958520,55
3959148,33
3959776,52
3960400,47
3961028,17
3961648,14
3962276,27
3962908,47
3963528,47
3964156,64
3964784,79
3965416,64
3966044,46
3966664,50
3967296,49
3967920,12
3968544,13
3969176,28
3969792,22
3970424,53
3971048,99
3971672,115
3972356,83
3972976,37
3973608,70
3974236,94
3974856,73
3975484,58
3976108,58
3976732,68
3977364,74
3977984,75
3978616,46
3979240,33
3979864,46
3980492,26
3981112,37
3981744,49
3982372,48
3982992,49
3983624,49
3984248,27
3984876,17
3985508,22
3986128,18
3986756,16
3987384,56
3988008,51
3988636,40
3989256,31
3989888,44
3990512,54
3991136,57
3991768,51
3992392,55
3993024,30
3993656,38
3994272,51
3994900,30
3995524,10
3996156,26
3996788,20
3997408,11
3998040,37
3998664,53
3999288,49
3999920,50
4000536,47
4001168,16
4001788,14
4002416,28
4003044,47
4003668,75
4004300,79
4004928,57
4005544,19
4006172,26
4006796,74
4007428,125
4008108,128
4008780,84
4009404,57
4010036,22
4010656,12
4011284,23
4011908,53
4012540,59
4013172,76
4013792,80
4014420,60
4015044,46
4015668,59
4016300,60
4016920,82
4017548,104
4018232,63
4018848,26
4019476,13
4020100,22
4020732,38
4021360,55
4021976,48
4022608,41
4023232,45
4023856,51
4024484,55
4025104,71
4025732,72
4026356,99
4026980,108
4027664,64
4028280,21
4028908,17
4029540,16
4030160,65
4030788,61
4031416,46
4032040,46
4032668,48
4033288,54
4033916,56
4034540,33
4035168,33
4035796,19
4036420,26
4037052,39
4037680,16
4038304,49
4038936,52
4039560,17
4040188,51
4040820,51
4041440,49
4042068,50
4042692,26
4043320,39
4043948,50
4044568,27
4045200,23
4045820,25
4046448,25
4047076,37
4047700,24
4048332,47
4048960,46
4049584,53
4050212,65
4050836,60
4051464,32
4052092,11
4052712,19
4053344,12
4053968,53
4054592,74
4055224,34
4055840,15
4056468,57
4057100,73
4057720,99
4058348,93
4058972,56
4059604,21
4060236,40
4060856,68
4061484,51
4062108,11
4062736,30
4063364,36
4063984,11
4064616,24
4065240,47
4065864,60
4066492,63
4067112,57
4067744,25
4068372,10
4068992,15
4069624,19
4070248,11
4070880,38
4071508,16
4072128,56
4072756,63
4073384,63
4074008,60
4074640,52
4075256,52
4075888,19
4076512,30
4077136,21
4077768,11
4078384,13
4079016,11
4079648,10
4080264,36
4080896,25
4081520,47
4082152,59
4082780,57
4083400,63
4084028,42
4084652,19
4085280,11
4085908,11
4086528,34
4087156,46
4087784,41
4088408,43
4089036,42
4089656,32
4090284,51
4090916,57
4091536,52
4092168,61
4092792,70
4093424,95
4094056,91
4094676,50
4095308,30
4095932,33
4096560,12
4097188,26
4097804,27
4098432,41
4099056,75
4099676,88
4100304,73
4100928,18
4101556,19
4102184,35
4102800,33
4103428,23
4104052,109
4104732,138
4105408,86
4106024,38
4106652,58
4107280,71
4107896,77
4108524,78
4109148,74
4109776,89
4110404,78
4111024,35
4111652,17
4112276,12
4112900,11
4113532,33
4114152,33
4114780,42
4115404,48
4116028,48
4116656,49
4117272,50
4117904,29
4118528,42
4119152,15
4119780,47
4120404,31
4121032,21
4121660,60
4122276,43
4122908,23
4123528,97
4124160,110
4124840,68
4125456,50
4126084,53
4126708,35
4127332,106
4128012,100
4128680,28
4129300,57
4129932,118
4130604,102
4131280,39
4131904,39
4132520,48
4133148,48
4133772,47
4134400,18
4135032,11
4135648,13
4136276,13
4136900,12
4137524,11
4138156,46
4138776,61
4139404,39
4140028,55
4140656,120
4141336,153
4142008,119
4142676,127
4143352,153
4144028,62
4144648,40
4145276,108
4145948,116
4146624,88
4147252,87
4147872,76
4148500,45
4149120,55
4149752,49
4150380,51
4151000,49
4151628,47
4152252,23
4152876,17
4153508,26
4154128,13
4154756,13
4155380,17
4156004,27
4156636,41
4157260,49
4157892,49
4158520,52
4159140,42
4159768,52
4160392,53
4161020,43
4161648,41
4162268,46
4162900,62
4163520,37
4164144,13
4164772,42
4165392,45
4166020,47
4166644,48
4167268,55
4167896,34
4168520,11
4169148,22
4169776,26
4170392,15
4171024,79
4171648,90
4172276,52
4172908,26
4173528,52
4174156,53
4174780,55
4175404,55
4176032,45
4176648,43
4177276,43
4177900,50
4178524,27
4179156,16
4179780,31
4180408,13
4181036,37
4181656,53
4182284,47
4182908,47
4183540,51
4184168,21
4184784,19
4185412,42
4186036,64
4186660,63
4187288,49
4187912,30
4188540,31
4189164,67
4189788,47
4190416,55
4191036,72
4191664,75
4192296,78
4192912,92
4193544,97
4194168,120
4194848,86
4195472,40
4196088,32
4196720,141
4197400,150
4198068,62
4198696,45
4199316,48
4199940,48
4200572,51
4201192,40
4201820,56
4202444,62
4203068,37
4203696,11
4204312,39
4204940,72
4205564,88
4206192,64
4206820,45
4207444,45
4208072,46
4208704,52
4209320,63
4209948,67
4210572,43
4211200,12
4211832,13
4212448,14
4213076,33
4213700,41
4214324,22
4214956,44
4215576,47
4216204,47
4216832,47
4217456,21
4218084,13
4218708,11
4219340,19
4219972,38
4220592,37
4221220,16
4221844,31
4222472,32
4223100,43
4223720,71
4224352,56
4224972,50
4225596,44
4226224,13
4226848,17
4227476,10
4228104,26
4228728,13
4229356,30
4229980,35
4230612,24
4231240,33
4231856,40
4232488,55
4233112,103
4233788,137
4234464,153
4235140,112
4235820,40
4236448,29
4237064,42
4237692,47
4238316,39
4238944,34
4239572,47
4240196,54
4240828,72
4241456,66
4242072,61
4242700,42
4243324,67
4243956,89
4244584,98
4245204,74
4245832,44
4246456,17
4247080,16
4247708,16
4248328,41
4248956,54
4249580,48
4250208,48
4250836,45
4251460,89
4252092,88
4252720,53
4253340,22
4253968,17
4254592,28
4255224,29
4255852,30
4256472,43
4257100,51
4257724,64
4258348,67
4258980,68
4259600,77
4260228,76
4260852,74
4261476,45
4262104,24
4262728,17
4263356,37
4263988,43
4264608,49
4265236,46
4265860,51
4266488,51
4267120,49
4267736,23
4268364,30
4268988,17
4269612,14
4270244,18
4270864,18
4271492,30
4272116,35
4272740,16
4273372,66
4273996,72
4274624,60
4275252,52
4275872,37
4276500,31
4277124,46
4277752,43
4278384,27
4279000,33
4279632,46
4280256,50
4280880,43
4281508,52
4282128,52
4282756,51
4283380,99
4284004,126
4284688,94
4285304,66
4285932,23
4286564,22
4287184,11
4287816,33
4288440,14
4289064,20
4289692,48
4290312,49
4290940,47
4291564,47
4292188,50
4292820,10
4293444,46
4294072,48
4294704,21
4295320,16
4295952,17
4296576,21
4297204,31
4297836,26
4298456,43
4299084,49
4299712,50
4300336,59
4300968,13
4301584,14
4302212,13
4302836,28
4303460,33
4304088,38
4304712,15
4305340,35
4305968,52
4306592,41
4307220,46
4307844,50
4308472,49
4309104,38
4309720,37
4310352,105
4311028,118
4311700,61
4312324,23
4312948,25
4313580,63
4314212,32
4314832,48
4315460,51
4316088,51
4316712,59
4317340,58
4317960,41
4318592,24
4319216,19
4319840,14
4320472,37
4321096,48
4321724,70
4322352,70
4322976,47
4323604,58
4324228,87
4324860,93
4325488,90
4326104,84
4326736,77
4327360,91
4327984,93
4328612,39
4329232,25
4329860,50
4330484,29
4331108,15
4331740,41
4332364,46
4332996,47
4333624,57
4334244,42
4334872,40
4335496,47
4336128,41
4336756,30
4337376,37
4338008,26
4338628,15
4339256,14
4339884,72
4340504,104
4341184,126
4341868,99
4342488,48
4343116,19
4343740,11
4344364,35
4344996,82
4345616,96
4346244,89
4346868,84
4347492,43
4348124,45
4348748,57
4349380,57
4350012,50
4350632,49
4351264,70
4351888,32
4352520,38
4353148,52
4353768,16
4354396,24
4355020,27
4355644,41
4356272,40
4356896,64
4357524,86
4358156,102
4358828,88
4359452,52
4360076,43
4360708,53
4361336,44
4361956,39
4362584,30
4363208,36
4363828,69
4364460,36
4365080,49
4365708,77
4366332,54
4366960,51
4367588,13
4368212,16
4368844,31
4369472,31
4370092,23
4370720,27
4371344,26
4371972,13
4372604,22
4373224,40
4373852,51
4374476,63
4375100,77
4375732,117
4376404,133
4377080,127
4377764,94
4378384,71
4379012,18
4379636,57
4380264,85
4380892,57
4381516,54
4382148,69
4382776,70
4383400,56
4384028,29
4384652,31
4385284,12
4385912,31
4386528,21
4387160,14
4387784,37
4388408,40
4389036,53
4389656,52
4390288,47
4390916,48
4391536,52
4392168,56
4392792,11
4393420,37
4394052,70
4394672,65
4395304,49
4395928,46
4396552,30
4397184,11
4397800,30
4398432,44
4399056,49
4399680,48
4400312,49
4400928,16
4401556,15
4402188,34
4402808,47
4403440,14
4404060,53
4404692,100
4405372,100
4406044,88
4406668,48
4407292,47
4407920,55
4408552,51
4409176,32
4409804,57
4410436,96
4411056,102
4411736,60
4412360,17
4412984,16
4413612,24
4414232,17
4414864,45
4415492,46
4416112,48
4416740,52
4417364,45
4417996,36
4418624,33
4419244,15
4419872,18
4420496,37
4421124,57
4421756,43
4422376,24
4423008,49
4423632,53
4424256,48
4424884,50
4425504,45
4426132,28
4426764,38
4427384,37
4428012,29
4428636,22
4429268,17
4429896,18
4430520,19
4431148,32
4431776,45
4432400,47
4433028,48
4433648,49
4434276,13
4434900,41
4435524,40
4436156,11
4436776,47
4437404,40
4438036,44
4438656,39
4439288,26
4439912,47
4440540,61
4441172,49
4441792,47
4442420,29
4443044,32
4443668,33
4444300,28
4444920,13
4445548,11
4446172,12
4446800,12
4447428,18
4448048,47
4448676,46
4449308,44
4449928,50
4450556,39
4451184,20
4451812,12
4452444,16
4453064,29
4453696,34
4454320,37
4454944,22
4455576,15
4456192,39
4456824,71
4457448,74
4458072,51
4458704,49
4459320,43
4459952,57
4460580,73
4461200,57
4461828,17
4462456,53
4463084,51
4463716,23
4464336,18
4464968,41
4465592,47
4466216,55
4466848,51
4467464,28
4468096,25
4468720,11
4469344,14
4469976,11
4470600,13
4471228,14
4471860,29
4472480,57
4473108,89
4473736,67
4474368,47
4474996,48
4475616,57
4476248,47
4476872,22
4477496,17
4478128,18
4478744,11
4479376,18
4480008,33
4480624,24
4481252,41
4481876,46
4482508,51
4483136,57
4483756,52
4484384,23
4485008,12
4485640,17
4486268,12
4486888,31
4487516,34
4488140,24
4488764,17
4489396,16
4490016,46
4490644,50
4491276,50
4491896,48
4492528,43
4493152,60
4493780,59
4494412,46
4495032,27
4495664,18
4496288,17
4496912,30
4497540,19
4498160,43
4498788,48
4499416,46
4500040,48
4500668,27
4501288,21
4501916,11
4502548,20
4503168,14
4503800,13
4504424,30
4505056,32
4505684,18
4506304,46
4506932,65
4507556,64
4508180,49
4508808,47
4509424,45
4510052,30
4510680,17
4511304,21
4511932,19
4512552,11
4513180,37
4513812,66
4514432,92
4515060,87
4515684,64
4516316,53
4516948,50
4517568,13
4518196,30
4518824,35
4519448,15
4520076,18
4520696,35
4521324,68
4521948,91
4522572,86
4523204,42
4523824,50
4524452,60
4525084,71
4525704,107
4526384,93
4527008,66
4527632,58
4528264,58
4528880,57
4529508,15
4530132,58
4530760,57
4531388,46
4532008,46
4532636,61
4533268,79
4533888,64
4534516,39
4535140,29
4535772,12
4536404,22
4537024,15
4537652,14
4538276,13
4538900,31
4539532,62
4540152,88
4540784,75
4541408,64
4542032,48
4542664,18
4543280,22
4543912,21
4544544,19
4545164,11
4545792,17
4546416,45
4547048,70
4547676,34
4548296,38
4548924,47
4549548,51
4550176,61
4550804,32
4551424,39
4552056,45
4552680,34
4553304,19
4553932,33
4554552,111
4555236,104
4555916,105
4556588,112
4557268,96
4557896,67
4558512,51
4559144,13
4559768,47
4560392,102
4561072,105
4561748,54
4562376,56
4563004,44
4563624,49
4564252,39
4564876,41
4565508,45
4566140,48
4566760,56
4567392,37
4568016,20
4568640,15
4569268,11
4569888,28
4570516,26
4571148,34
4571768,48
4572400,46
4573024,46
4573652,60
4574284,66
4574904,58
4575536,43
4576160,43
4576784,60
4577416,54
4578032,35
4578664,20
4579288,18
4579912,28
4580540,39
4581160,39
4581792,44
4582420,48
4583040,48
4583668,50
4584296,16
4584928,13
4585556,29
4586176,29
4586808,13
4587432,21
4588056,31
4588688,40
4589304,40
4589936,42
4590560,48
4591184,45
4591816,49
4592432,18
4593064,70
4593696,112
4594364,112
4595044,55
4595664,12
4596288,38
4596916,34
4597536,17
4598168,50
4598796,50
4599416,55
4600048,56
4600672,18
4601300,11
4601932,20
4602552,17
4603184,22
4603808,64
4604432,95
4605064,123
4605732,124
4606412,52
4607040,45
4607656,52
4608288,54
4608912,35
4609540,31
4610168,32
4610792,34
4611420,18
4612044,12
4612668,12
4613296,11
4613912,33
4614544,92
4615172,105
4615844,106
4616520,90
4617144,57
4617768,15
4618396,28
4619016,68
4619644,109
4620328,117
4620996,133
4621672,110
4622352,81
4622976,52
4623608,47
4624228,67
4624860,86
4625488,96
4626108,75
4626736,79
4627360,83
4627984,64
4628612,40
4629232,31
4629860,28
4630484,54
4631108,42
4631740,44
4632360,54
4632988,69
4633620,87
4634240,86
4634868,27
4635492,35
4636124,53
4636752,42
4637376,37
4638008,15
4638632,26
4639256,29
4639884,48
4640504,46
4641132,47
4641756,57
4642380,22
4643012,24
4643632,52
4644260,53
4644892,19
4645512,10
4646140,11
4646768,17
4647396,15
4648024,46
4648648,46
4649276,49
4649900,48
4650524,26
4651156,15
4651776,25
4652404,21
4653028,15
4653656,29
4654284,24
4654904,13
4655532,14
4656164,43
4656784,64
4657412,67
4658040,69
4658668,56
4659300,25
4659920,55
4660548,57
4661172,13
4661796,51
4662428,48
4663048,54
4663676,38
4664304,18
4664928,42
4665556,46
4666184,48
4666812,48
4667444,16
4668064,32
4668696,58
4669320,48
4669952,15
4670580,60
4671200,53
4671832,32
4672456,15
4673080,40
4673708,46
4674328,58
4674956,70
4675580,66
4676208,56
4676836,40
4677460,45
4678092,21
4678720,44
4679344,75
4679976,96
4680600,101
4681276,72
4681904,64
4682520,58
4683152,62
4683784,58
4684400,20
4685032,45
4685656,80
4686284,89
4686916,58
4687536,29
4688164,16
4688788,14
4689416,34
4690044,69
4690664,89
4691292,85
4691916,87
4692544,64
4693172,20
4693792,13
4694424,26
4695052,35
4695672,27
4696304,63
4696928,71
4697560,44
4698188,43
4698808,47
4699440,47
4700064,48
4700688,21
4701320,13
4701936,16
4702568,18
4703192,11
4703816,28
4704448,52
4705072,57
4705704,45
4706332,43
4706952,58
4707584,59
4708208,50
4708840,40
4709468,47
4710088,59
4710720,61
4711344,45
4711968,18
4712596,10
4713216,15
4713844,17
4714468,65
4715096,55
4715724,46
4716344,53
4716976,54
4717604,27
4718224,14
4718856,18
4719480,11
4720112,15
4720740,15
4721360,17
4721988,20
4722612,28
4723240,48
4723868,48
4724488,47
4725116,48
4725744,15
4726368,17
4727000,27
4727624,13
4728256,11
4728884,39
4729504,47
4730136,49
4730760,58
4731392,60
4732020,45
4732640,49
4733272,47
4733896,27
4734520,12
4735152,35
4735772,14
4736404,37
4737032,44
4737652,18
4738280,35
4738904,103
4739584,120
4740268,85
4740888,57
4741520,50
4742144,32
4742768,39
4743400,70
4744024,80
4744652,46
4745284,10
4745904,24
4746536,41
4747160,22
4747784,39
4748416,44
4749036,48
4749664,51
4750292,59
4750916,43
4751548,23
4752168,13
4752796,14
4753428,18
4754048,26
4754676,39
4755304,43
4755932,15
4756564,46
4757184,51
4757816,51
4758440,51
4759064,17
4759696,21
4760312,26
4760944,11
4761568,11
4762192,14
4762824,15
4763440,11
4764072,26
4764704,47
4765320,48
4765952,45
4766576,47
4767208,34
4767836,48
4768456,43
4769088,22
4769712,12
4770336,13
4770968,35
4771584,42
4772216,33
4772840,43
4773464,48
4774096,57
4774712,58
4775344,58
4775976,44
4776592,46
4777224,48
4777848,38
4778480,43
4779108,54
4779728,19
4780360,37
4780984,35
4781608,41
4782240,46
4782856,47
4783488,56
4784112,67
4784736,57
4785368,60
4785992,54
4786624,32
4787252,22
4787872,41
4788504,54
4789128,27
4789756,43
4790392,47
4791012,46
4791644,48
4792268,64
4792896,73
4793524,78
4794144,72
4794776,53
4795408,41
4796028,19
4796656,11
4797284,23
4797916,59
4798548,54
4799168,48
4799800,45
4800428,46
4801052,38
4801680,18
4802300,11
4802928,17
4803552,37
4804176,57
4804804,38
4805424,18
4806052,47
4806684,90
4807304,97
4807936,92
4808560,63
4809188,23
4809820,12
4810440,17
4811068,11
4811696,32
4812320,20
4812948,22
4813568,14
4814196,39
4814820,46
4815444,45
4816076,54
4816696,49
4817324,53
4817956,68
4818576,39
4819204,31
4819828,45
4820460,37
4821088,40
4821712,21
4822344,21
4822968,68
4823592,64
4824224,49
4824840,65
4825468,102
4826152,104
4826820,62
4827448,25
4828072,11
4828696,31
4829328,60
4829944,81
4830576,105
4831256,127
4831932,119
4832612,90
4833232,72
4833856,34
4834488,11
4835104,25
4835736,15
4836364,13
4836984,21
4837612,71
4838240,145
4838920,177
4839600,100
4840276,44
4840900,59
4841532,66
4842152,53
4842784,41
4843408,49
4844036,54
4844668,42
4845288,36
4845916,27
4846544,22
4847168,24
4847796,47
4848416,51
4849048,46
4849676,51
4850296,48
4850928,18
4851552,15
4852184,12
4852812,14
4853432,13
4854064,29
4854688,39
4855312,17
4855944,39
4856560,64
4857192,48
4857816,49
4858440,50
4859072,12
4859688,13
4860320,38
4860952,24
4861568,11
4862200,13
4862824,20
4863456,46
4864088,34
4864704,43
4865332,46
4865956,49
4866580,46
4867212,24
4867832,23
4868464,13
4869088,38
4869712,40
4870340,11
4870960,35
4871592,54
4872224,46
4872840,42
4873472,45
4874096,49
4874728,48
4875356,45
4875976,55
4876608,72
4877232,102
4877908,97
4878536,70
4879152,38
4879784,19
4880416,31
4881032,40
4881660,44
4882284,75
4882916,95
4883548,83
4884168,51
4884796,17
4885424,17
4886048,38
4886680,13
4887296,17
4887928,16
4888552,14
4889176,33
4889808,80
4890424,75
4891056,49
4891684,59
4892304,61
4892936,43
4893560,13
4894192,43
4894820,30
4895440,23
4896072,26
4896692,101
4897368,144
4898052,109
4898724,48
4899344,57
4899976,62
4900592,46
4901224,47
4901848,35
4902472,28
4903100,17
4903720,12
4904352,16
4904984,63
4905600,58
4906228,52
4906856,51
4907488,52
4908120,45
4908736,31
4909368,52
4909996,83
4910620,88
4911252,71
4911872,74
4912508,57
4913132,12
4913756,13
4914388,41
4915016,69
4915648,106
4916328,117
4916996,109
4917672,62
4918296,48
4918912,29
4919544,13
4920168,42
4920796,47
4921428,19
4922048,62
4922676,42
4923300,81
4923924,99
4924556,66
4925176,57
4925804,52
4926428,58
4927052,43
4927684,26
4928304,27
4928932,17
4929564,13
4930184,11
4930812,31
4931436,54
4932068,53
4932696,45
4933316,48
4933944,22
4934568,11
4935192,14
4935824,26
4936440,108
4937120,145
4937796,135
4938468,81
4939092,56
4939716,42
4940344,45
4940972,49
4941592,63
4942220,87
4942844,93
4943472,80
4944100,72
4944724,34
4945356,18
4945988,11
4946608,56
4947236,69
4947860,49
4948488,46
4949116,46
4949736,44
4950368,34
4950992,25
4951616,12
4952248,17
4952864,15
4953496,10
4954124,16
4954744,13
4955376,14
4956000,39
4956632,45
4957260,46
4957880,49
4958512,51
4959136,51
4959760,73
4960392,45
4961008,27
4961636,17
4962260,21
4962884,11
4963512,12
4964136,18
4964764,37
4965396,47
4966016,46
4966648,48
4967268,22
4967900,18
4968528,34
4969152,40
4969780,69
4970404,89
4971028,72
4971660,46
4972280,17
4972908,58
4973532,51
4974160,46
4974788,50
4975408,39
4976040,11
4976668,48
4977288,106
4977968,141
4978640,118
4979308,66
4979932,24
4980556,20
4981188,43
4981820,44
4982440,45
4983068,47
4983692,35
4984324,21
4984956,12
4985576,11
4986208,22
4986832,33
4987456,32
4988088,32
4988704,31
4989336,38
4989968,58
4990584,55
4991216,51
4991840,61
4992472,45
4993100,48
4993720,33
4994348,18
4994976,10
4995600,11
4996228,10
4996848,24
4997476,63
4998104,65
4998728,55
4999356,48
4999976,45
5000608,27
5001236,12
5001856,12
5002484,57
5003108,106
5003792,125
5004468,125
5005140,117
5005816,76
5006448,45
5007064,61
5007696,77
5008320,76
5008944,61
5009572,50
5010192,61
5010824,57
5011448,18
5012072,13
5012704,21
5013328,57
5013960,48
5014588,47
5015208,46
5015840,47
5016464,46
5017096,23
5017728,12
5018344,15
5018972,21
5019596,11
5020224,11
5020852,31
5021472,27
5022104,22
5022732,53
5023352,67
5023984,59
5024608,54
5025240,51
5025872,48
5026488,52
5027120,50
5027744,37
5028368,31
5029000,20
5029616,17
5030248,21
5030872,23
5031496,41
5032128,45
5032744,47
5033376,46
5034008,19
5034624,15
5035256,66
5035880,71
5036512,24
5037144,14
5037760,25
5038392,37
5039016,46
5039644,59
5040272,63
5040896,55
5041524,48
5042152,17
5042776,13
5043408,18
5044024,45
5044652,73
5045284,94
5045904,87
5046536,35
5047160,16
5047788,44
5048420,42
5049040,49
5049672,53
5050296,41
5050920,27
5051552,48
5052168,42
5052800,23
5053424,34
5054048,61
5054680,50
5055304,41
5055936,37
5056572,58
5057192,76
5057824,97
5058448,86
5059080,30
5059708,12
5060328,24
5060960,22
5061584,14
5062208,11
5062840,19
5063456,27
5064088,15
5064716,38
5065336,45
5065968,45
5066592,47
5067224,16
5067856,12
5068472,18
5069104,29
5069732,36
5070356,35
5070988,44
5071608,41
5072240,25
5072864,45
5073488,59
5074120,73
5074740,76
5075368,87
5076000,109
5076672,119
5077348,91
5077968,14
5078596,46
5079228,78
5079848,88
5080480,65
5081108,46
5081728,45
5082356,49
5082984,48
5083612,39
5084244,22
5084864,31
5085492,27
5086120,17
5086744,22
5087376,37
5087992,59
5088628,68
5089252,48
5089876,47
5090508,62
5091128,74
5091760,48
5092392,46
5093012,20
5093640,56
5094268,75
5094900,59
5095532,26
5096152,26
5096784,41
5097408,51
5098032,57
5098664,62
5099284,57
5099912,48
5100540,17
5101168,11
5101800,12
5102424,15
5103056,10
5103688,21
5104308,38
5104940,25
5105564,15
5106188,47
5106820,60
5107440,70
5108072,69
5108700,93
5109324,109
5110008,104
5110676,83
5111304,48
5111936,22
5112556,17
5113188,14
5113812,11
5114440,44
5115072,107
5115744,128
5116420,77
5117048,44
5117668,29
5118300,16
5118928,15
5119556,22
5120188,18
5120804,14
5121432,19
5122060,44
5122680,54
5123308,44
5123928,46
5124556,49
5125184,58
5125808,47
5126436,49
5127056,57
5127684,53
5128312,35
5128936,25
5129564,33
5130188,40
5130812,37
5131444,39
5132064,46
5132692,48
5133324,52
5133944,56
5134572,67
5135196,47
5135828,40
5136456,38
5137080,13
5137708,12
5138332,12
5138956,18
5139588,46
5140208,46
5140836,47
5141460,49
5142084,30
5142712,25
5143336,34
5143964,41
5144596,25
5145216,21
5145844,11
5146468,28
5147100,18
5147728,43
5148348,43
5148976,47
5149600,47
5150224,39
5150852,26
5151472,21
5152100,25
5152724,36
5153348,58
5153980,61
5154600,45
5155228,24
5155860,31
5156480,75
5157108,72
5157736,66
5158364,62
5158996,58
5159616,47
5160248,45
5160868,23
5161492,53
5162124,65
5162744,84
5163372,73
5163996,44
5164620,46
5165252,46
5165872,49
5166500,45
5167132,54
5167752,77
5168384,77
5169008,51
5169636,11
5170268,55
5170888,64
5171516,67
5172140,82
5172764,52
5173396,50
5174016,77
5174644,65
5175268,62
5175892,59
5176524,64
5177144,72
5177772,63
5178404,43
5179024,15
5179652,31
5180280,18
5180908,39
5181540,44
5182160,47
5182788,45
5183412,54
5184040,69
5184668,67
5185288,40
5185916,16
5186540,13
5187164,28
5187796,52
5188420,35
5189052,15
5189680,65
5190304,70
5190936,60
5191560,48
5192192,26
5192820,23
5193440,31
5194072,33
5194696,15
5195320,11
5195952,11
5196568,17
5197200,17
5197828,44
5198448,47
5199076,47
5199704,65
5200332,54
5200964,10
5201584,11
5202216,35
5202840,57
5203464,29
5204092,48
5204712,95
5205340,96
5205964,72
5206588,76
5207220,66
5207840,48
5208468,57
5209100,34
5209720,44
5210348,64
5210972,45
5211604,11
5212236,12
5212856,17
5213484,12
5214108,30
5214736,47
5215364,47
5215984,48
5216616,46
5217240,15
5217864,11
5218492,12
5219112,43
5219744,102
5220428,77
5221048,58
5221680,53
5222304,21
5222928,52
5223560,55
5224176,57
5224808,64
5225432,75
5226056,80
5226684,94
5227304,89
5227932,43
5228564,24
5229184,11
5229812,49
5230440,49
5231068,48
5231700,45
5232320,45
5232948,49
5233576,51
5234200,54
5234832,43
5235448,26
5236080,12
5236704,17
5237328,26
5237960,46
5238576,34
5239208,40
5239836,72
5240456,79
5241088,69
5241712,52
5242344,28
5242972,63
5243592,80
5244220,67
5244844,52
5245464,42
5246096,11
5246712,22
5247340,16
5247964,40
5248592,45
5249220,47
5249840,51
5250468,30
5251096,35
5251712,48
5252344,49
5252964,41
5253596,45
5254224,63
5254844,62
5255472,32
5256096,45
5256716,57
5257348,64
5257968,63
5258596,65
5259220,64
5259844,54
5260472,42
5261092,14
5261720,13
5262348,10
5262968,25
5263596,26
5264220,39
5264852,44
5265480,47
5266096,52
5266724,48
5267348,37
5267972,31
5268604,14
5269224,29
5269852,34
5270476,36
5271100,94
5271732,74
5272352,23
5272980,57
5273612,56
5274232,64
5274860,79
5275484,91
5276112,98
5276744,103
5277412,93
5278040,61
5278664,26
5279288,15
5279916,42
5280536,53
5281164,71
5281788,64
5282416,47
5283044,46
5283668,28
5284296,39
5284928,26
5285544,12
5286172,11
5286796,22
5287424,34
5288056,32
5288672,33
5289300,42
5289924,53
5290548,54
5291176,51
5291796,43
5292424,11
5293048,29
5293672,39
5294300,43
5294924,31
5295552,28
5296184,14
5296800,39
5297428,32
5298052,38
5298684,46
5299312,44
5299928,47
5300560,25
5301184,58
5301804,69
5302436,58
5303056,45
5303684,37
5304308,59
5304932,86
5305564,58
5306188,46
5306816,76
5307448,108
5308116,108
5308792,109
5309476,97
5310096,93
5310724,77
5311348,38
5311980,38
5312612,35
5313232,21
5313860,27
5314484,42
5315108,83
5315740,84
5316360,57
5316988,25
5317612,15
5318236,17
5318868,26
5319492,29
5320124,53
5320756,75
5321376,72
5322008,61
5322628,44
5323260,85
5323892,98
5324512,66
5325144,42
5325764,18
5326388,45
5327016,55
5327636,48
5328264,52
5328888,56
5329508,18
5330136,19
5330760,36
5331388,55
5332016,54
5332640,51
5333268,50
5333892,33
5334524,28
5335152,17
5335768,15
5336400,24
5337020,17
5337648,20
5338276,15
5338896,15
5339524,61
5340148,56
5340772,49
5341404,49
5342028,47
5342656,53
5343288,66
5343904,55
5344536,15
5345160,21
5345788,11
5346420,10
5347040,13
5347668,48
5348292,50
5348916,47
5349548,43
5350168,36
5350800,11
5351420,12
5352048,16
5352676,51
5353300,94
5353932,110
5354612,83
5355232,52
5355860,41
5356488,61
5357108,68
5357740,64
5358360,62
5358992,62
5359620,90
5360240,108
5360920,57
5361544,16
5362172,36
5362804,61
5363424,56
5364052,20
5364676,43
5365300,44
5365932,45
5366552,49
5367180,27
5367804,38
5368432,64
5369060,65
5369684,48
5370312,44
5370944,63
5371564,61
5372192,24
5372816,63
5373444,84
5374076,80
5374696,83
5375328,136
5376012,136
5376680,78
5377308,52
5377932,23
5378560,19
5379188,11
5379808,37
5380436,41
5381060,55
5381684,67
5382316,62
5382936,53
5383564,32
5384188,27
5384816,12
5385444,22
5386068,17
5386700,20
5387328,48
5387944,49
5388576,36
5389200,40
5389828,44
5390460,46
5391080,45
5391708,45
5392336,29
5392956,48
5393588,52
5394208,48
5394836,42
5395468,42
5396088,41
5396716,41
5397340,67
5397972,84
5398604,61
5399224,47
5399852,47
5400480,56
5401104,81
5401732,62
5402352,81
5402980,113
5403664,98
5404280,70
5404908,47
5405532,21
5406164,48
5406796,69
5407416,80
5408044,76
5408668,67
5409288,43
5409916,48
5410536,47
5411164,26
5411788,17
5412412,17
5413044,12
5413664,19
5414292,40
5414924,45
5415544,48
5416172,48
5416796,44
5417428,29
5418060,16
5418680,14
5419308,30
5419936,57
5420560,45
5421188,27
5421808,39
5422436,41
5423060,51
5423688,69
5424316,74
5424936,63
5425568,43
5426196,39
5426816,52
5427448,38
5428068,18
5428700,11
5429328,20
5429948,27
5430576,17
5431200,36
5431824,49
5432452,50
5433072,45
5433700,17
5434324,27
5434948,29
5435580,34
5436200,32
5436828,11
5437460,53
5438080,69
5438708,59
5439336,40
5439964,41
5440596,55
5441216,51
5441844,31
5442468,31
5443092,46
5443720,46
5444344,32
5444972,16
5445596,14
5446220,53
5446852,68
5447472,55
5448100,53
5448732,56
5449352,46
5449980,49
5450604,16
5451236,37
5451864,21
5452484,11
5453112,12
5453736,23
5454360,22
5454988,16
5455608,20
5456236,63
5456860,63
5457484,61
5458112,63
5458736,80
5459364,79
5459996,78
5460616,54
5461244,11
5461868,42
5462500,51
5463128,49
5463752,31
5464384,37
5465004,43
5465628,48
5466260,46
5466880,25
5467508,15
5468136,14
5468760,12
5469388,20
5470008,35
5470636,40
5471268,35
5471888,32
5472520,43
5473144,55
5473772,55
5474404,62
5475024,63
5475656,55
5476280,45
5476904,39
5477536,36
5478152,57
5478784,53
5479408,19
5480032,49
5480660,95
5481284,111
5481968,98
5482588,89
5483208,85
5483836,65
5484464,25
5485088,13
5485716,32
5486336,39
5486968,37
5487592,21
5488216,13
5488844,30
5489464,39
5490092,43
5490724,46
5491344,46
5491972,33
5492596,42
5493228,49
5493860,49
5494480,17
5495108,12
5495732,14
5496356,33
5496988,41
5497608,42
5498236,55
5498864,69
5499488,63
5500116,48
5500744,23
5501372,14
5502004,10
5502624,11
5503256,11
5503880,20
5504512,25
5505140,36
5505760,47
5506388,43
5507012,46
5507640,49
5508268,54
5508888,38
5509516,22
5510144,10
5510768,13
5511396,19
5512024,18
5512652,12
5513284,10
5513904,17
5514536,41
5515160,45
5515784,46
5516416,47
5517032,42
5517664,77
5518288,91
5518912,76
5519544,57
5520160,53
5520792,31
5521420,13
5522040,15
5522668,43
5523296,45
5523924,50
5524556,56
5525176,27
5525808,12
5526432,12
5527056,12
5527684,10
5528304,29
5528936,24
5529560,40
5530184,45
5530816,41
5531432,44
5532064,49
5532692,47
5533312,45
5533944,16
5534568,11
5535196,11
5535828,16
5536448,11
5537076,25
5537700,41
5538324,54
5538956,30
5539576,56
5540208,68
5540832,71
5541456,64
5542084,51
5542704,49
5543332,30
5543964,29
5544584,24
5545212,20
5545840,12
5546468,19
5547100,16
5547720,44
5548352,47
5548976,53
5549600,53
5550232,51
5550848,64
5551480,66
5552104,61
5552728,62
5553360,86
5553976,97
5554608,65
5555236,20
5555856,64
5556488,112
5557160,114
5557836,130
5558516,165
5559188,154
5559864,111
5560548,73
5561168,33
5561800,11
5562428,26
5563048,70
5563680,102
5564356,89
5564976,88
5565608,134
5566276,86
5566904,28
5567536,21
5568156,30
5568784,19
5569408,13
5570040,28
5570672,44
5571288,33
5571916,15
5572540,43
5573164,54
5573796,64
5574416,105
5575096,105
5575772,51
5576392,16
5577020,13
5577648,27
5578272,41
5578900,40
5579520,41
5580148,25
5580776,39
5581400,43
5582028,46
5582648,49
5583276,45
5583908,34
5584528,12
5585156,27
5585784,24
5586412,22
5587044,27
5587664,25
5588292,48
5588920,43
5589544,46
5590176,63
5590792,68
5591424,65
5592048,73
5592672,67
5593304,60
5593928,34
5594556,16
5595188,43
5595808,60
5596440,87
5597064,70
5597696,49
5598324,48
5598944,47
5599576,57
5600200,58
5600824,61
5601452,59
5602072,63
5602700,52
5603324,14
5603952,39
5604580,40
5605208,43
5605836,45
5606468,46
5607088,54
5607716,53
5608340,43
5608964,29
5609596,46
5610216,70
5610848,74
5611472,51
5612096,40
5612724,11
5613344,18
5613972,21
5614604,38
5615224,44
5615852,51
5616480,53
5617108,29
5617740,11
5618360,12
5618992,40
5619616,64
5620240,38
5620868,17
5621488,19
5622120,20
5622744,55
5623368,79
5623996,75
5624616,58
5625248,37
5625880,13
5626496,13
5627128,13
5627752,19
5628384,15
5629012,11
5629632,20
5630264,18
5630888,45
5631512,45
5632144,47
5632760,49
5633388,39
5634012,13
5634636,22
5635264,19
5635880,10
5636512,23
5637140,22
5637760,37
5638388,60
5639012,33
5639644,54
5640276,51
5640896,51
5641524,52
5642148,45
5642772,47
5643404,46
5644024,34
5644652,12
5645276,11
5645900,20
5646532,22
5647152,16
5647784,43
5648412,46
5649032,47
5649660,49
5650284,18
5650916,15
5651548,10
5652168,11
5652796,25
5653420,21
5654044,25
5654676,22
5655296,24
5655924,49
5656548,71
5657176,64
5657804,50
5658424,34
5659052,13
5659684,10
5660304,17
5660932,26
5661556,20
5662188,17
5662820,36
5663440,37
5664068,37
5664692,45
5665316,45
5665948,46
5666568,46
5667196,15
5667824,13
5668448,13
5669076,12
5669700,24
5670332,35
5670964,46
5671584,46
5672216,24
5672840,51
5673468,67
5674100,68
5674720,63
5675352,48
5675976,41
5676600,56
5677232,61
5677848,40
5678480,19
5679108,17
5679728,56
5680360,47
5680984,44
5681612,48
5682244,44
5682864,46
5683496,22
5684120,11
5684744,11
5685372,11
5685992,11
5686620,15
5687248,16
5687872,13
5688500,13
5689120,41
5689748,53
5690380,54
5691000,55
5691632,55
5692256,56
5692884,72
5693516,78
5694136,59
5694768,16
5695392,17
5696016,36
5696644,52
5697264,39
5697892,46
5698516,54
5699144,51
5699772,49
5700392,25
5701024,26
5701652,20
5702272,15
5702904,18
5703528,30
5704160,52
5704788,51
5705408,30
5706040,48
5706664,70
5707288,73
5707920,60
5708536,46
5709168,43
5709792,51
5710416,50
5711048,28
5711664,15
5712296,10
5712924,20
5713544,16
5714176,42
5714800,44
5715432,49
5716060,48
5716680,45
5717312,34
5717936,31
5718560,22
5719192,10
5719808,26
5720440,41
5721064,44
5721688,45
5722316,35
5722936,53
5723568,55
5724200,58
5724816,53
5725448,37
5726072,56
5726704,64
5727336,46
5727956,23
5728588,15
5729212,12
5729840,11
5730468,28
5731088,45
5731720,44
5732348,48
5732976,48
5733608,23
5734232,12
5734868,13
5735496,19
5736112,13
5736744,51
5737368,66
5737992,50
5738620,31
5739240,41
5739868,55
5740492,49
5741116,47
5741748,30
5742368,33
5743000,47
5743628,36
5744248,12
5744876,14
5745500,22
5746132,13
5746764,10
5747384,50
5748012,49
5748636,45
5749260,45
5749892,50
5750512,33
5751144,19
5751768,14
5752392,11
5753024,29
5753640,34
5754272,48
5754904,53
5755520,28
5756148,49
5756776,52
5757408,55
5758036,58
5758656,50
5759288,41
5759912,42
5760536,44
5761168,24
5761784,14
5762412,13
5763036,31
5763660,20
5764288,43
5764912,47
5765540,48
5766172,44
5766792,25
5767420,24
5768044,13
5768676,12
5769304,19
5769920,35
5770548,41
5771172,34
5771800,25
5772428,48
5773048,62
5773676,52
5774300,45
5774924,46
5775556,25
5776176,40
5776804,55
5777432,41
5778056,25
5778684,33
5779308,20
5779940,16
5780568,27
5781184,43
5781816,53
5782440,58
5783064,48
5783692,22
5784312,24
5784944,29
5785568,30
5786192,30
5786820,11
5787440,16
5788068,21
5788700,26
5789320,61
5789948,74
5790576,66
5791204,55
5791836,36
5792456,24
5793084,29
5793708,42
5794332,31
5794964,21
5795584,13
5796216,38
5796836,52
5797460,49
5798092,45
5798712,45
5799340,53
5799972,47
5800592,15
5801220,11
5801844,22
5802476,33
5803104,42
5803728,43
5804356,43
5804984,36
5805608,30
5806236,70
5806856,79
5807488,79
5808112,69
5808736,74
5809364,67
5809988,70
5810620,82
5811252,80
5811872,59
5812500,13
5813124,55
5813756,36
5814388,42
5815008,57
5815640,54
5816264,61
5816888,72
5817516,99
5818136,111
5818816,88
5819448,59
5820064,28
5820696,26
5821320,21
5821948,19
5822580,71
5823200,92
5823832,101
5824508,77
5825136,45
5825764,15
5826388,13
5827020,38
5827652,46
5828272,32
5828900,12
5829528,50
5830152,63
5830784,50
5831400,43
5832032,47
5832656,49
5833280,48
5833908,11
5834528,11
5835160,19
5835788,31
5836408,23
5837040,15
5837664,38
5838292,55
5838924,39
5839544,45
5840172,50
5840796,53
5841420,49
5842052,24
5842672,25
5843300,41
5843924,45
5844548,38
5845180,24
5845800,12
5846428,14
5847060,18
5847680,50
5848308,53
5848936,49
5849564,49
5850196,16
5850816,17
5851448,43
5852072,15
5852696,58
5853328,91
5853944,98
5854576,94
5855200,61
5855824,41
5856456,55
5857072,61
5857704,56
5858332,43
5858952,33
5859584,23
5860208,11
5860836,19
5861468,23
5862088,20
5862720,30
5863344,22
5863968,35
5864596,47
5865216,49
5865844,49
5866472,47
5867096,12
5867724,12
5868344,11
5868976,11
5869604,32
5870224,38
5870856,46
5871480,41
5872112,19
5872740,47
5873360,57
5873992,59
5874616,51
5875240,22
5875868,31
5876488,51
5877120,55
5877744,30
5878368,29
5879000,34
5879624,31
5880256,41
5880888,43
5881504,46
5882136,52
5882764,48
5883396,25
5884024,11
5884648,15
5885280,28
5885904,47
5886528,94
5887160,137
5887832,113
5888512,58
5889132,40
5889752,63
5890384,65
5891008,69
5891632,73
5892264,79
5892880,94
5893512,89
5894136,37
5894760,26
5895388,50
5896016,76
5896644,63
5897276,39
5897896,45
5898528,51
5899152,51
5899780,48
5900412,12
5901032,15
5901660,47
5902284,71
5902908,52
5903540,14
5904160,29
5904788,18
5905420,21
5906040,56
5906668,47
5907292,46
5907924,45
5908556,21
5909176,11
5909804,29
5910428,47
5911052,20
5911684,12
5912304,11
5912936,22
5913560,16
5914184,51
5914816,60
5915436,51
5916064,51
5916696,29
5917316,11
5917948,16
5918572,53
5919204,72
5919836,68
5920456,67
5921088,61
5921712,59
5922336,43
5922964,48
5923584,51
5924216,50
5924836,73
5925460,115
5926144,119
5926812,74
5927432,29
5928064,11
5928680,38
5929308,81
5929936,72
5930560,30
5931188,44
5931808,45
5932440,47
5933068,51
5933688,42
5934320,33
5934944,16
5935576,10
5936204,15
5936824,24
5937452,37
5938080,46
5938704,39
5939336,48
5939952,48
5940580,55
5941204,54
5941828,47
5942460,39
5943080,35
5943708,23
5944340,10
5944960,9
5945536,12
5946168,27
5946796,19
5947428,40
5948048,44
5948676,45
5949304,47
5949932,45
5950564,18
5951184,11
5951816,11
5952440,15
5953064,11
5953692,28
5954312,36
5954944,39
5955568,32
5956192,49
5956820,55
5957448,57
5958076,61
5958708,64
5959328,67
5959960,53
5960584,31
5961212,11
5961844,19
5962464,11
5963092,23
5963720,21
5964344,45
5964972,50
5965592,55
5966224,51
5966852,25
5967472,17
5968104,16
5968724,19
5969356,18
5969988,26
5970608,45
5971236,39
5971860,23
5972488,44
5973116,54
5973736,58
5974368,54
5974996,47
5975620,47
5976252,50
5976872,49
5977504,27
5978136,10
5978752,14
5979384,38
5980012,36
5980640,38
5981272,43
5981892,48
5982520,47
5983148,46
5983772,18
5984404,16
5985024,15
5985656,16
5986280,32
5986904,40
5987532,38
5988152,29
5988784,18
5989412,55
5990032,53
5990664,50
5991288,53
5991920,49
5992552,55
5993168,58
5993800,57
5994424,41
5995048,29
5995680,21
5996296,50
5996928,34
5997552,41
5998176,44
5998808,46
5999432,47
6000064,23
6000692,12
6001312,12
6001940,12
6002568,12
6003196,40
6003828,57
6004448,48
6005076,32
6005704,45
6006328,57
6006960,53
6007576,47
6008208,42
6008840,25
6009456,38
6010088,33
6010712,15
6011344,11
6011976,9
6012544,19
6013176,19
6013800,24
6014432,39
6015064,48
6015680,48
6016312,50
6016940,13
6017564,14
6018192,20
6018816,26
6019448,11
6020072,15
6020696,40
6021328,57
6021944,70
6022576,45
6023204,44
6023824,47
6024456,47
6025080,32
6025708,34
6026340,50
6026960,60
6027592,45
6028216,33
6028840,12
6029468,41
6030088,43
6030716,43
6031344,50
6031968,47
6032600,49
6033228,37
6033856,24
6034488,31
6035108,16
6035740,13
6036364,31
6036996,38
6037628,40
6038248,35
6038880,34
6039504,59
6040128,59
6040760,64
6041384,60
6042016,59
6042648,36
6043264,26
6043896,28
6044520,17
6045148,11
6045780,26
6046400,48
6047028,18
6047656,48
6048280,51
6048908,50
6049528,49
6050160,17
6050784,12
6051408,17
6052040,20
6052656,12
6053288,28
6053916,42
6054536,31
6055168,39
6055792,46
6056424,63
6057056,50
6057672,46
6058304,29
6058928,32
6059552,53
6060184,52
6060804,36
6061432,27
6062056,26
6062684,10
6063316,10
6063940,38
6064572,55
6065204,68
6065824,59
6066456,46
6067080,13
6067712,11
6068340,11
6068960,13
6069588,39
6070216,56
6070840,59
6071472,43
6072092,19
6072724,75
6073352,80
6073976,67
6074608,63
6075232,55
6075864,62
6076496,76
6077112,62
6077748,33
6078372,23
6078996,12
6079628,32
6080248,30
6080880,40
6081504,45
6082128,46
6082756,45
6083376,22
6084004,16
6084636,22
6085256,23
6085884,30
6086512,48
6087140,71
6087772,70
6088392,57
6089024,43
6089648,57
6090272,66
6090904,67
6091520,71
6092152,58
6092776,52
6093404,42
6094032,28
6094660,11
6095288,12
6095920,22
6096540,27
6097172,30
6097796,38
6098428,47
6099056,48
6099676,48
6100308,40
6100932,40
6101556,22
6102188,12
6102808,27
6103440,31
6104072,39
6104688,37
6105320,15
6105944,64
6106576,70
6107204,80
6107824,81
6108456,89
6109080,83
6109704,77
6110336,50
6110956,21
6111588,44
6112212,33
6112840,29
6113468,16
6114088,42
6114720,47
6115348,50
6115968,52
6116600,30
6117224,11
6117856,11
6118488,23
6119104,37
6119736,52
6120364,46
6120988,19
6121620,14
6122240,38
6122872,53
6123496,57
6124120,60
6124752,63
6125376,53
6126008,45
6126640,45
6127260,31
6127892,13
6128520,17
6129148,45
6129780,50
6130400,20
6131032,40
6131660,43
6132284,47
6132916,46
6133536,17
6134168,16
6134800,26
6135424,38
6136056,26
6136684,13
6137316,12
6137948,14
6138568,15
6139200,64
6139828,69
6140456,74
6141088,78
6141708,73
6142340,67
6142968,73
6143592,45
6144228,11
6144848,20
6145480,38
6146108,80
6146728,89
6147356,53
6147980,48
6148612,56
6149240,51
6149856,42
6150488,11
6151112,11
6151736,13
6152364,38
6152984,67
6153612,56
6154236,31
6154864,30
6155492,32
6156120,59
6156748,59
6157380,55
6158000,60
6158628,82
6159256,85
6159880,68
6160512,36
6161128,11
6161756,13
6162380,14
6163008,15
6163636,28
6164256,39
6164888,45
6165516,45
6166136,48
6166764,19
6167392,25
6168020,27
6168652,24
6169272,17
6169904,15
6170528,20
6171152,40
6171780,48
6172400,40
6173028,45
6173656,47
6174280,45
6174908,35
6175528,45
6176160,22
6176788,14
6177408,38
6178036,37
6178664,27
6179292,27
6179924,10
6180544,49
6181172,59
6181800,57
6182424,60
6183052,56
6183672,29
6184304,17
6184928,11
6185552,16
6186184,48
6186800,92
6187432,84
6188060,47
6188680,22
6189312,49
6189936,58
6190568,60
6191196,54
6191816,52
6192448,54
6193076,60
6193700,36
6194332,10
6194952,25
6195584,31
6196208,23
6196832,17
6197460,57
6198088,63
6198716,62
6199348,48
6199968,26
6200600,39
6201224,24
6201856,13
6202484,11
6203104,31
6203736,86
6204360,97
6204984,103
6205668,62
6206288,50
6206920,64
6207548,62
6208168,43
6208800,44
6209424,37
6210052,33
6210684,40
6211304,39
6211936,32
6212560,13
6213184,19
6213816,36
6214432,44
6215064,45
6215696,45
6216312,45
6216944,33
6217568,32
6218200,33
6218832,40
6219452,49
6220080,43
6220708,43
6221332,29
6221964,15
6222584,53
6223216,52
6223840,59
6224464,56
6225096,52
6225716,55
6226348,50
6226976,37
6227600,14
6228228,10
6228852,11
6229484,21
6230116,15
6230736,44
6231368,45
6231992,48
6232616,46
6233248,28
6233864,30
6234496,34
6235120,27
6235744,13
6236376,35
6237000,39
6237632,37
6238260,48
6238880,45
6239512,46
6240136,48
6240764,45
6241396,50
6242016,27
6242644,13
6243268,57
6243896,91
6244524,78
6245144,34
6245776,14
6246404,22
6247024,46
6247652,49
6248276,46
6248908,47
6249536,50
6250156,50
6250788,49
6251412,33
6252040,17
6252668,18
6253288,31
6253916,38
6254544,21
6255168,15
6255800,63
6256420,82
6257048,60
6257676,50
6258296,51
6258928,88
6259552,117
6260236,74
6260864,12
