tempo_arduino_micro_s,valor_ADC
500,66
1004,70
1500,60
2000,44
2500,46
3000,55
3508,57
4000,59
4508,65
5000,72
5500,75
6000,82
6500,81
7004,55
7500,33
8000,19
8500,11
9000,28
9500,30
10000,18
10516,41
11036,45
11564,49
12084,50
12612,47
13132,21
13660,22
14180,23
14708,24
15228,26
15756,41
16276,49
16796,65
17316,59
17836,46
18356,26
18876,53
19396,61
19916,63
20436,59
20956,57
21476,45
21996,55
22516,76
23036,76
23564,63
24084,39
24612,25
25132,16
25660,20
26180,28
26708,15
27228,41
27756,47
28276,47
28804,47
29324,47
29852,25
30372,48
30900,52
31420,29
31948,17
32468,29
32996,38
33516,54
34044,62
34564,66
35092,46
35612,50
36140,59
36660,67
37188,62
37708,61
38236,57
38760,57
39284,67
39804,73
40332,60
40852,38
41372,27
41892,15
42412,21
42932,28
43452,18
43972,38
44492,45
45012,47
45532,48
46052,51
46572,31
47092,23
47612,19
48140,19
48660,28
49188,47
49708,47
50236,57
50760,55
51284,57
51804,47
52332,45
52852,59
53380,68
53900,73
54428,68
54948,60
55476,50
55996,49
56524,49
57044,46
57572,46
58096,38
58620,18
59140,17
59668,19
60188,35
60716,41
61240,47
61764,49
62284,49
62812,47
63332,26
63860,22
64384,16
64908,17
65428,26
65948,45
66468,53
66988,71
67508,55
68028,36
68548,37
69068,51
69588,58
70108,59
70628,57
71148,60
71672,58
72192,69
72716,75
73240,71
73764,45
74284,23
74812,11
75332,20
75860,28
76384,27
76908,38
77428,39
77956,49
78480,49
79004,48
79528,37
80052,34
80572,36
81100,32
81620,20
82148,11
82668,16
83196,38
83720,64
84244,64
84764,55
85292,44
85812,45
86340,52
86864,62
87388,64
87908,71
88436,78
88956,81
89484,82
90004,74
90524,42
91044,26
91564,18
92084,23
92604,33
93124,19
93644,45
94164,45
94684,46
95204,52
95724,50
96248,37
96764,38
97292,32
97812,24
98340,18
98860,20
99388,31
99908,51
100436,67
101004,70
101584,38
102156,52
102736,68
103304,64
103880,61
104456,56
105024,63
105600,74
106168,71
106744,60
107312,30
107896,17
108464,11
109040,25
109624,26
110192,36
110768,41
111336,48
111920,50
112492,49
113072,22
113640,27
114216,27
114792,25
115364,21
115944,29
116512,45
117096,56
117668,66
118244,40
118824,47
119392,62
119976,59
120548,60
121128,57
121696,59
122280,66
122848,66
123428,63
124008,36
124576,28
125160,13
125728,31
126312,33
126884,40
127456,42
128040,46
128608,45
129184,50
129752,15
130328,19
130896,26
131480,27
132048,26
132624,41
133200,59
133768,61
134344,57
134912,32
135496,47
136064,54
136648,57
137224,52
137792,56
138376,58
138944,71
139528,64
140096,54
140680,29
141252,29
141824,24
142408,19
142976,24
143560,42
144128,47
144712,50
145280,51
145864,48
146440,19
147008,25
147592,31
148160,30
148744,23
149312,31
149896,48
150464,54
151040,54
151624,40
152196,50
152776,70
153348,67
153928,64
154504,59
155088,44
155664,50
156236,56
156816,53
157384,34
157968,24
158540,11
159120,29
159692,30
160268,43
160848,45
161416,48
161992,46
162560,47
163144,28
163716,26
164296,16
164872,12
165440,17
166016,48
166584,63
167168,56
167736,61
168320,45
168888,43
169456,60
170032,66
170600,59
171184,52
171756,51
172336,63
172904,68
173488,55
174056,34
174636,20
175216,18
175784,41
176368,26
176936,41
177520,48
178088,49
178664,47
179248,48
179816,29
180392,33
180960,24
181544,12
182116,11
182696,10
183264,24
183840,38
184424,66
184992,51
185576,44
186148,57
186728,61
187296,59
187872,62
188456,59
189024,62
189608,59
190176,47
190760,21
191332,23
191912,12
192492,21
193064,16
193648,43
194216,49
194800,51
195368,49
195952,47
196524,26
197096,30
197680,28
198248,24
198832,28
199400,40
199984,58
200556,56
201136,52
201704,38
202280,44
202864,61
203436,59
204016,64
204588,70
205168,60
205744,67
206312,66
206896,47
207464,29
208040,25
208608,11
209184,29
209752,28
210336,41
210904,46
211480,47
212064,50
212632,51
213216,47
213784,35
214368,20
214940,10
215516,14
216096,31
216664,58
217248,62
217820,54
218400,37
218968,51
219552,61
220124,56
220700,54
221280,51
221848,58
222432,72
223004,68
223584,53
224156,38
224728,31
225312,13
225880,21
226464,18
227032,41
227616,48
228184,50
228768,49
229336,51
229916,22
230496,22
231064,29
231640,23
232212,24
232792,29
233364,54
233940,54
234520,49
235088,43
235672,44
236244,58
236824,57
237392,62
237976,56
238548,55
239124,66
239704,66
240276,50
240856,35
241424,26
242008,17
242576,40
243152,16
243736,41
244308,47
244888,48
245456,48
246040,49
246608,33
247192,26
247764,19
248336,18
248920,34
249492,42
250072,56
250644,54
251224,47
251792,43
252372,49
252952,57
253524,62
254104,56
254676,60
255256,64
255836,79
256420,82
256992,50
257560,17
258136,11
258704,23
259288,27
259856,14
260432,39
261000,48
261584,50
262160,59
262728,45
263312,23
263880,18
264464,19
265032,19
265616,27
266184,35
266764,51
267344,46
267912,37
268496,44
269064,59
269648,57
270216,64
270800,64
271376,69
271944,81
272528,92
273096,76
273680,29
274248,23
274832,17
275404,23
275976,29
276560,16
277128,41
277712,47
278284,48
278864,49
279436,28
280016,13
280592,19
281164,34
281744,32
282312,42
282896,40
283464,56
284048,54
284620,41
285196,42
285776,54
286348,59
286928,61
287504,65
288088,57
288656,55
289232,64
289808,66
290376,42
290960,30
291532,20
292112,18
292684,19
293264,25
293836,45
294412,50
294992,47
295564,50
296144,44
296716,51
297296,45
297864,38
298448,31
299024,41
299596,40
300176,48
300748,54
301328,56
301908,46
302488,49
303068,63
303644,64
304224,61
304796,56
305376,68
305956,72
306536,67
307116,37
307692,23
308272,18
308840,17
309424,19
309996,34
310576,49
311148,47
311728,56
312300,51
312876,32
313456,20
314028,11
314608,11
315180,20
315760,56
316340,61
316916,55
317496,51
318068,44
318648,43
319220,54
319800,61
320380,57
320960,55
321528,66
322104,78
322688,78
323256,71
323840,41
324408,31
324992,17
325560,22
326140,31
326720,38
327288,43
327872,49
328440,50
329024,47
329592,28
330168,29
330736,33
331312,27
331896,19
332464,30
333048,41
333616,53
334192,62
334760,45
335336,48
335920,62
336492,64
337072,61
337640,58
338224,57
338792,59
339376,53
339944,53
340520,28
341104,16
341676,11
342256,24
342828,23
343408,41
343976,49
344556,47
345136,48
345708,49
346288,21
346856,16
347440,20
348012,26
348592,26
349164,40
349736,53
350320,54
350892,58
351472,47
352044,42
352624,55
353196,56
353772,60
354352,71
354924,71
355504,78
356076,78
356656,47
357228,16
357808,17
358380,11
358956,23
359536,18
360108,45
360688,44
361256,48
361840,49
362408,51
362984,30
363568,27
364136,27
364720,24
365292,27
365872,48
366444,60
367024,51
367596,53
368172,33
368752,47
369320,56
369904,55
370476,65
371056,68
371628,65
372204,61
372784,57
373356,52
373936,32
374508,14
375088,14
375660,25
376240,17
376812,43
377388,46
377968,49
378540,51
379120,51
379700,20
380280,14
380852,10
381424,14
382008,55
382580,87
383160,87
383732,60
384316,44
384888,25
385472,53
386044,56
386616,59
387200,63
387768,62
388352,56
388924,71
389504,68
390076,49
390652,32
391232,23
391804,13
392384,24
392952,15
393536,41
394108,45
394688,51
395260,50
395836,52
396416,33
396988,31
397568,23
398140,17
398720,20
399292,31
399868,52
400448,55
401016,55
401600,42
402168,55
402752,63
403324,67
403904,62
404476,60
405052,58
405632,71
406204,73
406784,60
407364,35
407944,14
408516,19
409092,21
409672,18
410244,43
410824,46
411392,48
411976,50
412548,49
413128,37
413704,29
414272,23
414856,34
415424,49
416008,61
416576,68
417152,53
417720,44
418296,42
418880,64
419448,66
420032,65
420600,60
421184,56
421752,57
422336,69
422908,66
423480,46
424064,27
424632,15
425216,15
425784,20
426368,16
426936,43
427512,46
428096,51
428668,51
429248,48
429816,21
430400,27
430968,30
431552,29
432124,39
432696,42
433280,53
433848,54
434432,57
435004,44
435584,59
436156,65
436732,68
437312,59
437884,59
438464,57
439036,68
439616,70
440196,46
440776,33
441352,21
441924,26
442504,33
443076,15
443656,47
444228,46
444808,49
445376,51
445956,43
446536,30
447108,26
447688,21
448260,18
448840,30
449408,40
449992,49
450568,52
451136,48
451720,45
452288,54
452872,59
453444,62
454024,61
454596,49
455172,53
455752,61
456324,61
456904,41
457476,29
458056,25
458628,11
459208,22
459784,17
460356,48
460936,44
461508,49
462088,49
462656,40
463240,38
463812,28
464388,24
464968,20
465536,33
466120,42
466692,63
467272,65
467844,49
468424,41
469000,57
469572,65
470152,70
470724,64
471304,53
471876,54
472456,63
473036,65
473612,42
474192,28
474764,13
475344,27
475916,28
476496,26
477076,49
477652,47
478232,49
478804,48
479384,29
479956,33
480540,33
481116,28
481696,23
482264,37
482844,50
483424,68
483996,65
484576,50
485156,43
485736,58
486308,64
486884,63
487464,62
488036,55
488616,66
489188,71
489768,67
490340,42
490920,24
491492,12
492068,22
492648,19
493216,35
493800,46
494368,46
494952,51
495524,47
496100,27
496680,27
497248,30
497832,21
498404,14
498984,32
499556,45
500136,53
500708,49
501284,37
501864,41
502436,53
503016,58
503588,59
504168,62
504748,60
505324,68
505904,74
506476,68
507056,34
507628,21
508208,13
508780,16
509360,18
509940,40
510516,47
511096,47
511672,53
512252,52
512824,35
513400,34
513968,22
514544,24
515128,30
515700,47
516280,64
516848,70
517432,61
518004,40
518584,47
519152,66
519732,67
520312,51
520884,50
521464,59
522036,83
522616,85
523184,70
523764,40
524344,26
524916,12
525496,24
526064,27
526648,44
527216,48
527800,47
528372,47
528944,51
529528,28
530100,24
530680,21
531252,23
531832,28
532404,49
532980,66
533560,54
534132,48
534712,23
535284,50
535864,59
536436,67
537016,55
537588,47
538164,44
538744,48
539316,47
539896,40
540468,43
541048,45
541620,27
542196,14
542776,24
543348,40
543928,44
544500,46
545080,45
545652,50
546232,32
546804,31
547380,24
547960,27
548532,35
549112,49
549684,57
550264,55
550836,56
551412,38
551992,50
552564,62
553144,68
553716,68
554296,69
554868,70
555448,78
556028,66
556604,46
557184,19
557756,11
558336,17
558916,27
559496,18
560076,45
560652,44
561232,50
561804,48
562384,47
562956,13
563536,21
564112,43
564692,58
565272,62
565844,49
566424,51
566992,46
567576,48
568148,40
568728,58
569300,76
569876,72
570456,60
571028,53
571608,58
572188,69
572768,62
573340,36
573916,17
574496,15
575068,14
575648,20
576220,15
576800,42
577368,43
577952,45
578524,47
579100,49
579680,35
580252,26
580832,15
581404,17
581984,33
582556,50
583132,63
583712,48
584284,40
584864,43
585436,54
586016,59
586596,63
587176,62
587748,64
588324,73
588904,79
589476,66
590056,42
590628,25
591208,12
591780,28
592356,33
592936,16
593508,42
594088,44
594660,49
595240,53
595808,53
596392,40
596972,32
597548,29
598128,28
598700,32
599280,28
599860,44
600440,56
601020,52
601596,45
602180,59
602752,61
603328,67
603900,64
604480,65
605060,72
605640,75
606224,64
606796,42
607376,35
607948,19
608532,27
609108,31
609688,18
610268,48
610844,47
611424,47
612000,54
612576,32
613148,21
613728,21
614308,27
614884,35
615464,48
616036,42
616616,43
617188,48
617768,44
618336,45
618920,57
619492,60
620068,54
620648,57
621220,49
621800,65
622372,75
622952,75
623532,39
624108,15
624688,10
625256,34
625840,30
626412,31
626992,50
627564,45
628144,45
628716,45
629292,44
629872,47
630444,25
631024,17
631596,12
632176,23
632756,40
633332,68
633916,69
634488,46
635064,49
635636,64
636216,70
636796,59
637380,67
637964,66
638536,67
639116,62
639688,53
640268,27
640840,19
641416,13
641984,26
642560,32
643144,36
643716,43
644296,48
644864,47
645448,49
646016,30
646600,27
647176,19
647748,14
648328,15
648896,32
649480,39
650052,44
650632,48
651204,29
651780,54
652360,59
652932,60
653512,51
654084,48
654664,39
655236,56
655816,53
656400,41
656968,33
657544,37
658116,26
658696,17
659264,28
659848,40
660416,43
660992,48
661576,47
662148,49
662728,16
663296,11
663880,21
664452,26
665032,22
665608,37
666176,46
666752,50
667320,63
667904,54
668476,41
669056,53
669628,68
670200,67
670784,65
671356,67
671936,79
672508,64
673088,53
673656,33
674240,27
674808,17
675384,26
675968,46
676536,42
677120,45
677688,46
678272,49
678844,46
679416,30
680000,35
680568,29
681152,22
681720,19
682304,33
682876,50
683456,52
684028,54
684604,35
685184,41
685756,53
686336,62
686916,63
687496,56
688068,55
688640,66
689224,74
689796,61
690376,34
690948,23
691528,12
692104,27
692688,24
693264,41
693836,47
694416,46
694984,50
695568,50
696148,20
696728,15
697304,14
697884,15
698464,26
699036,42
699616,61
700188,59
700768,58
701340,38
701916,46
702496,63
703068,68
703648,59
704220,43
704800,28
705368,51
705952,76
706524,73
707100,53
707680,39
708252,14
708832,33
709404,15
709984,42
710556,46
711132,46
711712,49
712284,49
712864,32
713436,29
714016,38
714596,40
715176,45
715756,40
716332,49
716912,42
717484,41
718064,33
718636,54
719216,59
719788,62
720364,55
720944,43
721512,40
722096,59
722664,63
723248,43
723816,16
724400,11
724972,13
725548,14
726128,17
726700,41
727280,47
727860,48
728440,53
729012,49
729588,33
730168,19
730740,13
731320,14
731892,26
732472,35
733052,51
733632,57
734216,54
734788,43
735368,54
735940,76
736524,79
737100,63
737680,59
738256,53
738836,54
739416,46
739988,32
740568,25
741140,22
741720,12
742292,22
742868,15
743448,38
744020,48
744600,47
745172,47
745752,40
746324,27
746904,22
747476,21
748052,25
748632,42
749204,43
749784,52
750356,51
750936,48
751516,42
752092,50
752672,60
753244,63
753824,61
754396,59
754980,61
755556,69
756136,68
756716,42
757292,22
757872,10
758444,25
759024,18
759596,19
760176,43
760756,43
761332,47
761912,48
762488,35
763064,35
763636,27
764216,17
764796,11
765380,19
765960,44
766536,71
767116,78
767688,60
768268,43
768840,50
769424,59
769996,56
770572,61
771152,82
771724,89
772304,77
772876,40
773456,10
774028,12
774608,30
775184,10
775756,20
776336,33
776908,44
777488,45
778068,49
778648,47
779228,34
779804,35
780384,30
780956,25
781536,21
782108,35
782688,41
783260,47
783836,47
784416,44
784988,43
785568,55
786140,63
786720,63
787292,56
787872,53
788444,63
789020,67
789600,61
790172,29
790752,17
791332,13
791912,22
792492,27
793068,41
793648,45
794220,45
794800,48
795372,49
795952,19
796532,19
797112,22
797692,25
798272,28
798848,26
799420,23
800000,32
800576,63
801160,73
801732,43
802308,56
802888,59
803456,59
804040,44
804608,38
805192,59
805764,67
806344,59
806920,29
807492,17
808072,11
808644,38
809224,45
809796,43
810376,43
810948,44
811524,47
812104,47
812676,18
813256,13
813828,12
814408,15
814988,11
815568,44
816152,74
816724,63
817304,56
817876,38
818456,48
819036,64
819620,68
820192,61
820760,51
821344,58
821912,71
822496,66
823064,52
823648,21
824216,11
824792,14
825376,27
825944,25
826528,42
827096,45
827680,45
828248,49
828832,47
829400,26
829980,27
830560,21
831128,15
831712,20
832284,34
832864,46
833432,43
834008,48
834592,41
835160,46
835744,61
836316,62
836896,57
837464,53
838048,53
838620,64
839196,63
839776,50
840348,29
840928,13
841496,19
842080,31
842648,16
843224,43
843808,46
844380,46
844960,50
845528,50
846104,33
846672,27
847256,17
847828,16
848404,24
848984,41
849552,57
850136,56
850704,48
851288,36
851856,60
852436,65
853016,53
853588,54
854168,52
854740,57
855320,65
855892,68
856472,56
857052,31
857628,13
858208,27
858780,31
859360,22
859940,41
860520,46
861096,49
861676,48
862256,51
862828,44
863408,43
863980,20
864560,13
865136,15
865720,28
866288,47
866868,48
867448,46
868020,44
868600,51
869172,56
869752,52
870324,61
870900,75
871480,70
872052,85
872632,85
873204,63
873784,33
874356,16
874936,25
875508,35
876084,26
876664,40
877236,45
877816,48
878388,47
878968,41
879548,40
880124,42
880704,33
881276,32
881856,30
882428,21
883008,35
883580,49
884160,60
884728,44
885308,49
885888,59
886460,65
887040,67
887612,62
888192,54
888772,55
889348,59
889928,40
890500,23
891080,15
891652,12
892232,22
892812,16
893392,39
893968,46
894544,47
895120,48
895696,34
896276,28
896848,23
897432,17
898004,18
898576,30
899160,35
899732,57
900312,54
900892,39
901472,45
902044,56
902620,53
903200,56
903772,58
904352,61
904924,66
905504,69
906076,64
906656,33
907236,16
907812,10
908392,29
908964,26
909544,30
910116,43
910696,44
911268,49
911844,47
912424,31
912996,27
913576,24
914148,21
914728,16
915300,34
915880,39
916452,50
917028,40
917608,26
918180,49
918760,60
919340,55
919920,64
920500,65
921076,53
921656,43
922228,40
922808,49
923380,50
923960,41
924532,34
925112,15
925684,37
926260,37
926840,47
927412,47
927992,48
928564,51
929144,33
929716,36
930292,25
930872,18
931444,15
932024,22
932596,30
933176,40
933756,69
934336,61
934924,43
935492,55
936072,58
936644,53
937224,46
937796,42
938376,55
938948,60
939524,48
940104,19
940676,15
941256,16
941832,12
942408,15
942988,42
943568,44
944152,44
944724,47
945304,50
945876,32
946456,32
947036,22
947620,16
948196,18
948772,32
949352,46
949924,46
950504,50
951076,38
951656,43
952236,61
952812,54
953392,56
953964,54
954544,55
955116,66
955700,65
956276,55
956856,37
957436,26
958016,12
958592,23
959168,20
959748,43
960324,46
960904,46
961476,48
962052,46
962632,27
963204,24
963784,22
964356,24
964936,29
965508,42
966088,57
966664,53
967236,52
967816,39
968388,42
968968,59
969540,68
970120,70
970700,69
971276,60
971856,56
972428,36
973008,19
973588,34
974168,42
974748,14
975324,22
975904,20
976480,41
977056,47
977628,45
978208,48
978780,46
979360,15
979940,18
980516,28
981096,35
981668,48
982248,44
982828,47
983408,46
983984,43
984564,39
985144,50
985716,51
986296,53
986868,54
987448,75
988020,96
988600,96
989172,76
989748,35
990328,12
990900,13
991480,19
992052,33
992632,20
993204,41
993780,43
994360,47
994932,46
995512,49
996084,38
996664,33
997236,17
997816,11
998396,19
998976,41
999552,58
1000124,59
1000748,53
1001372,43
1001996,56
1002624,55
1003240,62
1003872,62
1004496,56
1005116,63
1005748,62
1006368,48
1006996,34
1007628,27
1008248,11
1008876,15
1009500,31
1010128,47
1010756,49
1011376,50
1012004,48
1012628,31
1013252,32
1013884,29
1014504,18
1015132,32
1015756,57
1016380,76
1017012,61
1017632,39
1018260,46
1018892,54
1019512,57
1020140,51
1020764,49
1021396,63
1022028,78
1022648,75
1023280,40
1023904,20
1024528,11
1025156,18
1025772,13
1026400,41
1027020,45
1027644,49
1028272,48
1028888,45
1029516,40
1030136,25
1030760,12
1031388,10
1032008,29
1032636,61
1033264,67
1033888,61
1034516,43
1035136,46
1035768,55
1036396,63
1037016,68
1037644,71
1038264,76
1038888,58
1039516,26
1040136,12
1040764,11
1041384,19
1042004,26
1042632,15
1043256,39
1043884,47
1044512,49
1045128,49
1045756,22
1046380,27
1047008,26
1047636,22
1048256,25
1048884,37
1049504,53
1050128,53
1050756,52
1051376,43
1052004,51
1052628,75
1053248,80
1053876,80
1054496,74
1055124,57
1055752,38
1056372,28
1057000,21
1057620,14
1058248,20
1058876,27
1059496,36
1060124,46
1060748,47
1061376,50
1062004,48
1062624,21
1063252,20
1063876,17
1064500,17
1065128,24
1065744,40
1066372,55
1066996,56
1067616,34
1068244,49
1068868,57
1069496,64
1070124,61
1070744,69
1071372,55
1071996,50
1072624,47
1073252,28
1073872,20
1074500,13
1075124,19
1075748,18
1076376,43
1076992,48
1077620,47
1078244,46
1078868,31
1079496,22
1080116,25
1080744,25
1081372,25
1081992,41
1082620,58
1083244,65
1083872,54
1084500,39
1085120,48
1085748,56
1086372,58
1086996,57
1087624,48
1088244,58
1088868,75
1089492,66
1090116,30
1090744,19
1091360,11
1091988,19
1092616,14
1093240,41
1093868,45
1094492,49
1095120,49
1095748,29
1096368,27
1096996,25
1097616,17
1098244,22
1098872,29
1099496,45
1100124,49
1100748,39
1101372,45
1102004,54
1102624,55
1103252,60
1103884,64
1104504,68
1105132,72
1105756,67
1106388,38
1107016,13
1107636,15
1108264,21
1108888,29
1109508,37
1110140,44
1110760,48
1111388,50
1112012,47
1112636,29
1113268,25
1113888,15
1114516,11
1115148,34
1115768,38
1116396,42
1117020,49
1117652,44
1118280,40
1118904,59
1119532,68
1120156,63
1120780,51
1121408,56
1122032,71
1122660,71
1123284,38
1123904,16
1124536,12
1125152,33
1125780,24
1126412,40
1127028,45
1127660,48
1128280,48
1128912,24
1129540,19
1130160,27
1130788,36
1131412,36
1132040,40
1132668,54
1133288,58
1133916,53
1134540,45
1135164,54
1135796,60
1136416,64
1137044,65
1137676,70
1138296,69
1138924,70
1139548,56
1140176,23
1140808,10
1141424,35
1142052,43
1142676,25
1143300,45
1143932,46
1144552,47
1145180,51
1145804,29
1146428,22
1147060,20
1147680,15
1148308,23
1148936,37
1149556,55
1150184,63
1150808,46
1151436,46
1152068,64
1152684,59
1153312,52
1153936,49
1154564,63
1155192,77
1155812,77
1156440,50
1157064,30
1157688,19
1158316,22
1158936,30
1159564,43
1160188,43
1160816,49
1161444,49
1162068,46
1162696,33
1163324,38
1163944,34
1164572,25
1165196,39
1165828,46
1166456,48
1167072,50
1167704,46
1168328,46
1168948,64
1169576,68
1170200,60
1170828,50
1171452,79
1172080,91
1172708,77
1173332,35
1173964,12
1174592,14
1175208,21
1175840,15
1176464,39
1177092,46
1177724,46
1178344,51
1178972,48
1179596,48
1180220,21
1180848,14
1181464,32
1182092,56
1182716,67
1183344,56
1183976,40
1184600,47
1185228,62
1185860,71
1186480,68
1187108,54
1187732,51
1188360,60
1188988,56
1189608,41
1190236,41
1190860,43
1191484,13
1192112,19
1192736,37
1193364,48
1193996,48
1194616,53
1195244,47
1195868,29
1196500,30
1197132,27
1197752,21
1198384,31
1199008,40
1199632,55
1200260,58
1200880,45
1201508,45
1202132,63
1202756,61
1203384,58
1204008,56
1204636,58
1205264,67
1205884,65
1206512,36
1207136,24
1207764,13
1208396,19
1209016,17
1209644,44
1210268,48
1210892,50
1211520,52
1212136,32
1212768,21
1213392,23
1214016,24
1214644,18
1215264,34
1215896,61
1216524,64
1217144,47
1217772,45
1218396,72
1219028,67
1219656,61
1220280,58
1220908,44
1221532,57
1222156,47
1222788,38
1223408,32
1224036,23
1224660,19
1225284,27
1225916,20
1226536,41
1227164,45
1227796,49
1228416,52
1229048,29
1229668,21
1230296,20
1230924,24
1231544,34
1232172,42
1232796,59
1233420,60
1234048,44
1234664,45
1235292,56
1235916,69
1236540,63
1237168,58
1237784,61
1238416,72
1239036,78
1239664,43
1240292,18
1240916,16
1241544,20
1242176,30
1242792,43
1243424,45
1244048,48
1244676,48
1245308,46
1245928,33
1246556,29
1247180,21
1247804,19
1248436,29
1249056,37
1249684,44
1250312,59
1250928,41
1251560,45
1252184,65
1252812,63
1253440,58
1254064,56
1254692,57
1255316,60
1255940,56
1256572,22
1257192,11
1257820,12
1258444,21
1259068,14
1259700,40
1260320,45
1260948,48
1261580,48
1262200,26
1262828,25
1263452,19
1264084,19
1264712,21
1265328,31
1265960,55
1266584,61
1267208,54
1267836,42
1268456,54
1269088,73
1269712,67
1270336,45
1270964,40
1271584,64
1272216,74
1272844,49
1273464,27
1274092,18
1274716,15
1275348,26
1275980,28
1276600,45
1277228,46
1277856,49
1278480,53
1279108,35
1279728,33
1280360,29
1280980,24
1281600,26
1282228,35
1282848,54
1283476,69
1284104,49
1284720,47
1285348,68
1285972,62
1286600,71
1287228,51
1287848,41
1288476,53
1289096,59
1289728,36
1290356,17
1290976,11
1291604,11
1292224,13
1292848,50
1293476,51
1294096,48
1294724,55
1295344,53
1295968,27
1296600,19
1297220,21
1297852,27
1298480,51
1299096,65
1299724,61
1300348,59
1300980,39
1301608,53
1302224,61
1302852,62
1303476,55
1304100,43
1304728,61
1305352,73
1305980,68
1306604,37
1307228,19
1307856,11
1308472,13
1309104,19
1309732,42
1310352,49
1310984,53
1311604,51
1312232,38
1312860,30
1313476,28
1314104,24
1314728,19
1315348,41
1315980,61
1316600,54
1317228,46
1317848,46
1318472,60
1319100,70
1319720,65
1320348,63
1320976,60
1321592,78
1322220,84
1322844,59
1323472,12
1324100,25
1324720,35
1325348,32
1325972,37
1326596,45
1327228,48
1327848,50
1328476,51
1329100,35
1329724,31
1330352,18
1330968,13
1331600,11
1332220,30
1332844,53
1333472,53
1334096,33
1334724,44
1335352,53
1335968,61
1336600,59
1337220,64
1337852,52
1338480,66
1339096,65
1339724,34
1340348,20
1340972,11
1341600,33
1342216,21
1342844,44
1343468,47
1344092,49
1344720,51
1345336,43
1345964,31
1346592,24
1347208,28
1347836,30
1348460,38
1349088,51
1349716,52
1350336,52
1350964,44
1351588,51
1352212,62
1352840,70
1353456,67
1354088,57
1354708,64
1355332,63
1355960,50
1356584,30
1357212,21
1357840,20
1358464,35
1359092,17
1359716,47
1360344,45
1360972,46
1361588,50
1362220,41
1362844,46
1363464,29
1364092,15
1364712,20
1365340,31
1365964,55
1366584,62
1367216,57
1367832,43
1368460,54
1369084,62
1369712,63
1370340,68
1370964,62
1371592,75
1372220,71
1372840,33
1373468,11
1374088,21
1374720,13
1375348,22
1375968,40
1376596,46
1377220,47
1377844,53
1378472,54
1379096,28
1379724,13
1380348,12
1380976,18
1381604,43
1382228,67
1382860,83
1383488,75
1384104,45
1384732,40
1385356,55
1385984,70
1386612,58
1387232,58
1387860,76
1388484,79
1389108,66
1389736,34
1390356,21
1390984,13
1391608,17
1392232,17
1392860,49
1393484,49
1394112,50
1394740,48
1395360,40
1395988,39
1396612,29
1397240,29
1397868,20
1398488,32
1399116,54
1399740,57
1400364,48
1400992,43
1401608,60
1402236,67
1402860,60
1403484,64
1404116,68
1404740,83
1405368,85
1405996,46
1406616,16
1407244,13
1407868,18
1408500,24
1409128,18
1409744,47
1410372,49
1410996,47
1411620,49
1412248,28
1412864,26
1413496,27
1414120,30
1414740,36
1415372,44
1415992,61
1416620,62
1417252,46
1417872,44
1418500,59
1419124,67
1419752,62
1420384,54
1421000,56
1421632,73
1422256,77
1422876,49
1423508,30
1424128,21
1424756,23
1425380,31
1426004,44
1426632,45
1427248,49
1427880,48
1428508,46
1429128,31
1429756,19
1430380,19
1431012,14
1431644,34
1432264,67
1432896,63
1433520,59
1434144,31
1434772,48
1435392,65
1436020,58
1436644,57
1437264,44
1437896,56
1438512,72
1439140,70
1439772,36
1440392,25
1441020,13
1441644,27
1442272,18
1442900,38
1443520,46
1444148,50
1444768,47
1445392,29
1446020,22
1446640,13
1447268,12
1447892,19
1448512,35
1449140,59
1449760,54
1450388,54
1451016,46
1451632,53
1452264,57
1452888,59
1453516,58
1454144,54
1454768,61
1455396,56
1456020,50
1456644,35
1457272,24
1457896,15
1458524,21
1459148,28
1459772,48
1460404,48
1461024,53
1461652,52
1462280,33
1462904,25
1463532,29
1464156,31
1464788,45
1465416,49
1466036,62
1466664,47
1467288,27
1467912,47
1468540,62
1469160,67
1469788,69
1470412,56
1471036,45
1471668,58
1472288,68
1472916,45
1473548,28
1474168,11
1474796,28
1475420,28
1476048,44
1476676,48
1477296,47
1477924,53
1478548,44
1479172,27
1479804,18
1480424,17
1481052,18
1481676,32
1482296,39
1482928,36
1483544,38
1484172,43
1484796,44
1485424,53
1486052,63
1486676,62
1487304,60
1487936,58
1488552,63
1489184,60
1489804,39
1490436,23
1491064,19
1491684,31
1492312,14
1492936,40
1493560,45
1494188,53
1494808,51
1495436,16
1496060,14
1496688,21
1497316,27
1497940,41
1498568,44
1499196,49
1499816,52
1500444,50
1501068,43
1501700,61
1502328,67
1502952,66
1503584,69
1504208,69
1504832,69
1505460,62
1506080,45
1506708,27
1507340,10
1507960,47
1508588,51
1509212,43
1509844,46
1510472,48
1511096,47
1511724,48
1512348,32
1512972,33
1513604,22
1514224,18
1514852,44
1515480,57
1516104,55
1516732,47
1517352,36
1517984,44
1518612,53
1519232,64
1519864,61
1520488,58
1521116,64
1521748,74
1522368,70
1522996,42
1523624,21
1524244,12
1524876,26
1525496,17
1526124,47
1526748,45
1527372,52
1528004,48
1528624,38
1529252,36
1529884,28
1530504,29
1531132,34
1531760,37
1532388,37
1533020,42
1533640,47
1534268,45
1534896,55
1535520,58
1536152,54
1536768,61
1537396,61
1538016,66
1538640,67
1539268,46
1539888,31
1540516,26
1541144,26
1541760,38
1542392,22
1543016,43
1543644,46
1544272,49
1544896,52
1545524,33
1546148,39
1546772,26
1547400,21
1548024,32
1548652,37
1549276,48
1549900,60
1550532,48
1551152,47
1551784,59
1552412,64
1553032,63
1553660,58
1554284,58
1554916,65
1555544,53
1556164,30
1556792,32
1557416,29
1558040,12
1558668,12
1559288,46
1559916,48
1560540,52
1561164,51
1561796,40
1562416,20
1563044,23
1563672,18
1564292,25
1564920,39
1565544,47
1566172,52
1566804,54
1567424,40
1568052,47
1568676,55
1569300,60
1569928,54
1570544,45
1571172,66
1571800,69
1572424,57
1573052,27
1573672,16
1574300,15
1574932,24
1575552,15
1576180,45
1576804,44
1577436,49
1578064,48
1578688,28
1579316,38
1579940,44
1580568,40
1581196,29
1581816,26
1582444,45
1583068,51
1583696,45
1584324,45
1584944,59
1585572,62
1586204,62
1586824,58
1587456,56
1588076,66
1588708,68
1589336,45
1589960,24
1590588,16
1591212,27
1591836,32
1592468,39
1593088,47
1593716,51
1594344,51
1594968,49
1595596,12
1596216,13
1596848,20
1597476,18
1598096,39
1598724,51
1599348,64
1599980,61
1600612,48
1601228,43
1601860,55
1602480,66
1603104,61
1603732,63
1604352,59
1604980,67
1605604,59
1606224,30
1606852,18
1607472,12
1608100,20
1608728,16
1609344,44
1609976,50
1610600,50
1611228,51
1611856,42
1612472,36
1613104,25
1613728,21
1614348,23
1614980,37
1615600,43
1616228,51
1616852,64
1617476,45
1618104,58
1618720,65
1619352,55
1619980,52
1620600,59
1621228,88
1621852,91
1622480,53
1623112,17
1623728,11
1624356,32
1624980,32
1625604,18
1626232,38
1626856,49
1627484,49
1628108,49
1628732,20
1629364,22
1629984,29
1630612,24
1631244,28
1631864,38
1632496,54
1633116,54
1633748,39
1634376,48
1635000,58
1635632,64
1636256,61
1636880,63
1637508,62
1638128,58
1638760,52
1639380,21
1640000,17
1640628,22
1641244,15
1641872,19
1642500,46
1643116,47
1643748,46
1644368,52
1644996,51
1645624,36
1646240,27
1646868,20
1647488,13
1648116,29
1648744,50
1649364,57
1649992,67
1650616,52
1651236,43
1651864,57
1652480,60
1653108,67
1653732,71
1654356,74
1654984,75
1655600,62
1656228,28
1656856,16
1657472,11
1658104,24
1658724,16
1659356,41
1659984,45
1660600,49
1661228,47
1661852,29
1662472,30
1663104,15
1663720,11
1664348,25
1664972,41
1665592,50
1666220,46
1666840,53
1667468,44
1668088,46
1668708,54
1669340,62
1669960,68
1670588,68
1671216,68
1671832,55
1672460,38
1673084,23
1673712,11
1674340,22
1674960,24
1675588,17
1676212,44
1676832,48
1677460,47
1678080,49
1678708,26
1679332,28
1679952,30
1680584,30
1681200,33
1681828,30
1682456,40
1683072,52
1683700,36
1684324,44
1684952,51
1685580,60
1686200,64
1686828,57
1687452,57
1688072,66
1688700,66
1689320,42
1689948,24
1690568,16
1691192,25
1691820,29
1692440,39
1693068,39
1693688,49
1694312,50
1694940,46
1695564,38
1696192,28
1696820,16
1697436,18
1698068,52
1698688,61
1699316,56
1699944,42
1700568,21
1701196,58
1701816,69
1702440,56
1703068,54
1703688,37
1704316,31
1704940,37
1705560,55
1706192,50
1706808,29
1707436,15
1708068,38
1708688,17
1709316,54
1709940,45
1710568,48
1711200,51
1711816,42
1712444,30
1713068,35
1713692,37
1714324,24
1714944,26
1715572,39
1716196,40
1716820,45
1717448,39
1718068,43
1718696,54
1719324,62
1719944,78
1720576,79
1721196,70
1721828,53
1722456,32
1723072,17
1723700,13
1724324,18
1724948,22
1725576,22
1726192,45
1726824,48
1727448,46
1728068,47
1728696,30
1729320,30
1729948,17
1730576,10
1731192,21
1731820,35
1732444,54
1733072,62
1733704,44
1734320,47
1734952,53
1735576,52
1736200,49
1736828,43
1737448,61
1738076,71
1738700,70
1739324,51
1739956,40
1740576,32
1741204,15
1741832,38
1742456,40
1743084,44
1743708,47
1744336,47
1744964,45
1745580,36
1746212,37
1746836,29
1747460,23
1748092,37
1748712,47
1749340,54
1749964,61
1750588,48
1751216,57
1751836,74
1752464,75
1753092,72
1753712,70
1754340,66
1754964,44
1755592,33
1756224,23
1756840,19
1757468,16
1758092,32
1758724,15
1759352,43
1759972,48
1760604,50
1761224,49
1761848,31
1762476,25
1763096,26
1763724,22
1764348,25
1764976,32
1765604,40
1766228,41
1766856,52
1767484,45
1768104,47
1768732,55
1769356,65
1769984,61
1770612,52
1771232,59
1771860,74
1772484,68
1773108,37
1773736,18
1774352,17
1774984,20
1775608,33
1776232,47
1776860,47
1777484,48
1778112,48
1778744,33
1779360,31
1779992,25
1780612,14
1781244,24
1781872,44
1782496,49
1783124,58
1783748,58
1784372,39
1785000,62
1785624,63
1786252,61
1786876,60
1787504,72
1788136,90
1788760,83
1789388,27
1790020,14
1790640,11
1791268,33
1791896,30
1792520,39
1793148,44
1793768,49
1794396,48
1795020,35
1795644,32
1796272,21
1796888,18
1797520,18
1798140,38
1798768,61
1799396,66
1800020,65
1800648,47
1801280,52
1801896,63
1802524,65
1803148,61
1803776,59
1804408,69
1805024,63
1805652,55
1806276,36
1806900,20
1807528,20
1808144,29
1808772,17
1809396,38
1810016,48
1810648,51
1811268,48
1811900,27
1812528,30
1813144,20
1813776,21
1814396,25
1815028,31
1815656,50
1816280,53
1816908,49
1817532,43
1818156,47
1818788,56
1819408,56
1820036,56
1820660,58
1821284,71
1821912,66
1822536,41
1823168,27
1823796,20
1824416,20
1825044,24
1825668,44
1826296,48
1826924,50
1827544,51
1828172,46
1828796,27
1829420,24
1830048,32
1830672,33
1831300,45
1831924,45
1832548,49
1833180,45
1833804,29
1834432,51
1835060,60
1835680,65
1836308,55
1836932,49
1837564,53
1838192,68
1838816,67
1839444,34
1840068,19
1840692,18
1841324,40
1841944,20
1842572,46
1843196,46
1843824,49
1844452,50
1845076,31
1845704,25
1846332,12
1846952,12
1847580,28
1848204,58
1848832,68
1849464,62
1850080,47
1850708,45
1851332,56
1851956,56
1852584,56
1853208,66
1853836,66
1854460,71
1855088,74
1855716,57
1856340,38
1856972,22
1857600,21
1858216,25
1858844,26
1859468,44
1860096,50
1860724,46
1861344,48
1861972,29
1862596,32
1863220,32
1863848,38
1864472,49
1865100,26
1865724,32
1866352,40
1866980,30
1867604,51
1868232,64
1868864,52
1869480,51
1870108,54
1870732,79
1871360,87
1871988,71
1872608,26
1873236,11
1873860,15
1874484,33
1875116,21
1875736,43
1876364,47
1876988,49
1877616,53
1878244,47
1878868,38
1879500,25
1880132,18
1880752,21
1881380,39
1882008,61
1882628,53
1883260,48
1883880,41
1884508,56
1885132,62
1885756,64
1886388,69
1887008,67
1887636,67
1888268,70
1888888,60
1889516,33
1890140,16
1890768,26
1891396,31
1892016,16
1892644,46
1893268,46
1893896,50
1894524,49
1895144,39
1895772,37
1896396,24
1897020,15
1897648,24
1898272,37
1898900,55
1899528,58
1900152,51
1900780,40
1901408,56
1902036,63
1902668,62
1903288,55
1903920,62
1904544,69
1905168,64
1905796,42
1906416,29
1907044,14
1907668,27
1908292,29
1908924,42
1909544,46
1910176,49
1910804,51
1911424,51
1912056,30
1912680,25
1913308,23
1913940,18
1914560,34
1915192,45
1915816,57
1916440,63
1917072,41
1917688,47
1918320,61
1918944,57
1919568,59
1920200,68
1920816,79
1921444,88
1922072,78
1922688,33
1923320,13
1923940,13
1924572,29
1925200,16
1925816,43
1926448,47
1927068,48
1927692,50
1928320,26
1928936,35
1929564,44
1930188,34
1930812,22
1931444,34
1932064,58
1932692,67
1933324,59
1933944,46
1934572,56
1935196,60
1935828,57
1936460,57
1937080,69
1937708,84
1938332,78
1938956,59
1939588,34
1940208,14
1940836,37
1941460,51
1942084,26
1942716,50
1943336,50
1943968,50
1944596,52
1945216,43
1945848,35
1946468,23
1947100,16
1947728,31
1948344,45
1948976,73
1949600,60
1950220,29
1950852,52
1951472,68
1952100,68
1952724,58
1953348,57
1953976,63
1954600,71
1955228,61
1955860,28
1956480,16
1957108,10
1957732,29
1958364,36
1958996,42
1959616,49
1960244,48
1960868,48
1961492,39
1962124,34
1962744,20
1963372,11
1964000,12
1964620,35
1965252,59
1965872,64
1966504,57
1967132,40
1967752,55
1968380,61
1969004,63
1969632,57
1970264,59
1970880,71
1971508,72
1972132,45
1972756,15
1973384,13
1974004,14
1974632,17
1975256,15
1975880,40
1976508,46
1977128,48
1977756,48
1978384,24
1979008,27
1979636,23
1980260,21
1980892,35
1981520,45
1982136,58
1982768,61
1983392,57
1984016,45
1984644,64
1985264,67
1985892,62
1986516,69
1987140,69
1987772,63
1988392,61
1989020,47
1989652,28
1990272,13
1990900,30
1991524,33
1992156,39
1992784,44
1993408,49
1994036,51
1994664,52
1995288,31
1995916,26
1996536,28
1997168,25
1997788,43
1998412,48
1999040,47
1999664,49
2000292,24
2000924,54
2001544,71
2002172,74
2002796,63
2003424,52
2004056,48
2004672,54
2005300,65
2005924,42
2006548,26
2007180,11
2007800,40
2008428,34
2009052,40
2009676,46
2010304,50
2010920,49
2011548,30
2012180,36
2012800,34
2013428,13
2014052,11
2014680,24
2015312,46
2015932,49
2016560,53
2017184,47
2017808,46
2018436,55
2019056,62
2019684,55
2020308,68
2020932,89
2021564,78
2022184,59
2022816,31
2023444,20
2024064,16
2024692,29
2025316,20
2025944,37
2026576,49
2027192,46
2027824,49
2028448,39
2029072,41
2029700,35
2030320,29
2030948,33
2031576,41
2032200,56
2032828,55
2033448,42
2034076,45
2034708,62
2035328,63
2035956,63
2036580,63
2037212,62
2037844,66
2038464,67
2039092,50
2039716,34
2040344,13
2040972,39
2041592,29
2042224,45
2042848,50
2043472,46
2044104,47
2044720,49
2045352,37
2045980,30
2046600,23
2047232,15
2047856,29
2048488,48
2049116,58
2049732,58
2050360,39
2050984,49
2051604,63
2052232,66
2052856,60
2053484,52
2054104,51
2054728,59
2055356,48
2055976,14
2056604,10
2057232,18
2057848,23
2058476,19
2059100,42
2059728,47
2060356,46
2060976,47
2061604,21
2062224,19
2062852,13
2063480,12
2064104,21
2064732,35
2065352,43
2065976,41
2066604,46
2067224,47
2067852,48
2068472,50
2069096,57
2069724,54
2070348,43
2070976,38
2071608,48
2072224,47
2072852,33
2073476,15
2074104,25
2074736,30
2075352,28
2075980,48
2076604,48
2077228,53
2077856,52
2078480,40
2079108,23
2079732,18
2080356,11
2080984,16
2081604,37
2082232,58
2082864,49
2083480,26
2084108,48
2084732,57
2085360,57
2085988,51
2086608,56
2087236,65
2087860,73
2088480,69
2089108,37
2089728,17
2090356,14
2090976,20
2091600,28
2092228,41
2092848,48
2093476,49
2094104,49
2094720,46
2095348,31
2095972,31
2096604,15
2097232,27
2097848,80
2098480,79
2099104,41
2099728,27
2100356,38
2100976,47
2101604,58
2102228,60
2102848,66
2103480,58
2104096,59
2104724,60
2105352,60
2105976,35
2106604,21
2107228,13
2107856,26
2108488,16
2109104,40
2109732,48
2110356,47
2110984,47
2111612,26
2112232,20
2112860,13
2113484,10
2114104,27
2114736,40
2115352,55
2115980,63
2116604,61
2117232,48
2117860,49
2118484,73
2119112,83
2119744,63
2120360,53
2120988,69
2121612,81
2122240,55
2122872,24
2123488,10
2124116,26
2124740,19
2125368,40
2125996,48
2126616,47
2127244,48
2127868,49
2128496,34
2129124,38
2129748,35
2130380,27
2131008,45
2131624,55
2132256,73
2132876,79
2133504,50
2134136,45
2134752,61
2135380,64
2136004,62
2136628,62
2137256,63
2137876,62
2138504,55
2139128,29
2139752,23
2140380,12
2141004,26
2141632,16
2142264,46
2142880,49
2143508,45
2144132,47
2144764,31
2145392,33
2146008,24
2146636,15
2147260,17
2147884,35
2148512,39
2149132,44
2149760,44
2150384,44
2151008,57
2151636,65
2152260,57
2152888,55
2153516,60
2154136,75
2154764,69
2155388,53
2156020,22
2156648,10
2157264,34
2157896,39
2158520,19
2159144,39
2159772,46
2160392,51
2161020,48
2161644,29
2162268,19
2162896,11
2163512,17
2164144,43
2164772,54
2165392,70
2166020,56
2166644,38
2167272,46
2167904,62
2168524,66
2169152,67
2169776,65
2170400,70
2171028,76
2171648,62
2172276,35
2172900,21
2173524,11
2174152,39
2174772,41
2175400,44
2176032,46
2176648,51
2177276,52
2177900,49
2178528,14
2179156,16
2179776,29
2180404,27
2181028,38
2181652,34
2182280,32
2182904,33
2183532,31
2184156,41
2184780,48
2185408,59
2186028,75
2186656,83
2187284,74
2187904,67
2188532,55
2189160,32
2189788,24
2190416,12
2191040,32
2191668,17
2192292,41
2192916,45
2193548,48
2194168,49
2194796,33
2195420,33
2196044,28
2196676,24
2197296,26
2197924,34
2198556,50
2199176,49
2199804,39
2200432,43
2201060,60
2201692,60
2202312,60
2202940,55
2203564,59
2204188,64
2204816,63
2205432,55
2206064,32
2206688,27
2207312,11
2207940,23
2208560,25
2209188,46
2209820,51
2210440,51
2211068,48
2211692,21
2212324,24
2212952,29
2213576,29
2214204,48
2214828,53
2215452,60
2216084,59
2216704,44
2217332,43
2217956,58
2218580,60
2219212,58
2219832,66
2220460,88
2221092,94
2221712,71
2222344,27
2222968,13
2223596,10
2224228,30
2224848,26
2225476,44
2226100,47
2226724,47
2227356,48
2227976,37
2228604,29
2229228,27
2229852,16
2230484,13
2231108,30
2231736,52
2232368,55
2232988,45
2233616,43
2234240,53
2234868,57
2235500,60
2236120,62
2236752,56
2237376,73
2238000,73
2238632,46
2239248,21
2239880,25
2240504,13
2241128,28
2241756,18
2242380,39
2243008,54
2243640,56
2244256,54
2244884,26
2245508,21
2246140,17
2246768,24
2247388,27
2248016,30
2248640,39
2249260,44
2249892,40
2250512,44
2251140,57
2251768,65
2252392,65
2253024,54
2253644,63
2254276,77
2254904,74
2255520,53
2256148,32
2256772,14
2257400,29
2258028,41
2258648,41
2259276,45
2259900,50
2260524,52
2261152,52
2261768,32
2262396,21
2263020,16
2263648,13
2264276,35
2264900,45
2265528,53
2266160,65
2266776,45
2267408,45
2268032,58
2268660,55
2269292,66
2269912,65
2270540,70
2271168,81
2271792,79
2272420,39
2273040,21
2273668,15
2274292,35
2274916,21
2275548,44
2276172,45
2276800,50
2277428,50
2278048,27
2278676,35
2279300,41
2279932,35
2280560,25
2281184,31
2281812,49
2282436,47
2283060,41
2283692,44
2284312,63
2284940,62
2285564,54
2286192,51
2286820,60
2287444,70
2288076,69
2288704,58
2289328,29
2289956,11
2290580,26
2291208,32
2291836,27
2292456,43
2293088,48
2293712,52
2294336,49
2294964,34
2295584,30
2296212,23
2296844,18
2297464,30
2298092,46
2298716,59
2299348,45
2299976,22
2300596,53
2301224,67
2301848,62
2302476,58
2303104,54
2303724,60
2304356,78
2304976,70
2305600,20
2306228,10
2306848,12
2307476,10
2308104,14
2308728,43
2309356,45
2309980,48
2310608,52
2311240,42
2311856,31
2312484,25
2313108,25
2313736,27
2314364,38
2314984,56
2315612,61
2316236,53
2316860,36
2317488,62
2318112,65
2318740,58
2319372,54
2319992,53
2320624,67
2321244,74
2321876,54
2322504,15
2323128,15
2323756,15
2324380,19
2325004,20
2325636,42
2326256,48
2326884,51
2327508,47
2328132,27
2328764,36
2329384,31
2330016,21
2330644,34
2331264,48
2331892,61
2332516,63
2333148,44
2333776,45
2334400,65
2335028,72
2335652,69
2336280,65
2336908,62
2337528,67
2338156,64
2338780,36
2339404,14
2340032,13
2340656,37
2341284,39
2341916,42
2342536,47
2343164,46
2343788,50
2344420,46
2345048,21
2345668,19
2346296,15
2346920,15
2347544,25
2348172,36
2348792,49
2349424,57
2350048,38
2350672,45
2351304,61
2351920,65
2352552,63
2353180,65
2353800,70
2354432,73
2355056,60
2355688,23
2356316,10
2356936,21
2357564,28
2358188,17
2358812,42
2359444,48
2360064,48
2360692,46
2361316,21
2361940,12
2362572,16
2363192,33
2363824,37
2364452,36
2365072,53
2365704,55
2366328,39
2366956,43
2367588,50
2368208,57
2368836,59
2369460,55
2370084,51
2370712,57
2371336,52
2371964,38
2372588,19
2373216,11
2373844,33
2374468,40
2375100,26
2375728,42
2376352,50
2376980,49
2377604,49
2378232,26
2378864,34
2379484,34
2380112,19
2380736,29
2381364,44
2381992,61
2382612,56
2383240,41
2383864,45
2384488,66
2385120,64
2385744,61
2386372,60
2387004,60
2387624,69
2388252,66
2388876,36
2389508,25
2390140,16
2390760,18
2391392,19
2392016,41
2392640,47
2393268,48
2393888,46
2394516,39
2395148,27
2395768,30
2396400,37
2397024,29
2397652,38
2398284,57
2398904,57
2399536,55
2400160,48
2400780,51
2401412,70
2402032,77
2402660,67
2403284,65
2403908,62
2404540,62
2405160,58
2405788,41
2406420,28
2407036,24
2407668,34
2408292,17
2408920,40
2409552,49
2410168,49
2410800,51
2411424,35
2412048,34
2412676,18
2413296,16
2413924,23
2414548,32
2415176,50
2415804,49
2416424,38
2417052,50
2417684,64
2418304,59
2418932,59
2419556,50
2420188,46
2420816,62
2421436,66
2422064,45
2422688,29
2423312,16
2423940,27
2424560,31
2425188,40
2425812,47
2426436,47
2427068,48
2427688,49
2428316,22
2428948,36
2429568,37
2430200,15
2430824,28
2431452,42
2432084,48
2432704,51
2433332,34
2433956,48
2434580,68
2435208,68
2435832,69
2436464,53
2437088,42
2437712,48
2438340,48
2438960,30
2439588,27
2440220,13
2440840,29
2441468,23
2442092,42
2442724,47
2443352,49
2443976,49
2444608,28
2445232,29
2445856,22
2446484,21
2447104,26
2447736,38
2448360,59
2448984,67
2449612,55
2450232,45
2450864,61
2451492,69
2452112,62
2452744,64
2453368,67
2453996,74
2454628,59
2455248,39
2455880,24
2456504,20
2457128,18
2457760,32
2458376,25
2459004,42
2459628,48
2460248,49
2460880,48
2461496,29
2462124,25
2462752,11
2463376,11
2464004,43
2464628,51
2465256,65
2465884,60
2466504,43
2467132,43
2467756,63
2468380,73
2469008,71
2469632,56
2470260,53
2470884,73
2471508,78
2472140,36
2472760,18
2473388,10
2474020,30
2474640,29
2475268,41
2475892,47
2476524,48
2477152,50
2477776,45
2478404,29
2479028,17
2479652,18
2480284,22
2480904,46
2481532,57
2482156,53
2482780,52
2483412,40
2484032,51
2484664,68
2485292,68
2485912,59
2486540,59
2487164,72
2487796,65
2488424,43
2489040,23
2489672,19
2490296,12
2490920,19
2491548,16
2492168,42
2492796,47
2493424,51
2494048,51
2494676,19
2495304,27
2495932,29
2496564,26
2497184,33
2497812,47
2498436,66
2499068,64
2499696,50
2500320,43
2500948,59
2501572,72
2502196,72
2502828,62
2503448,61
2504076,74
2504700,73
2505328,48
2505956,22
2506580,11
2507212,29
2507840,30
2508464,41
2509096,46
2509720,50
2510344,47
2510972,46
2511592,25
2512224,24
2512844,27
2513468,22
2514100,26
2514720,41
2515348,49
2515980,54
2516600,39
2517228,43
2517852,55
2518484,60
2519116,58
2519736,56
2520368,57
2520988,70
2521612,68
2522244,34
2522864,19
2523492,12
2524120,25
2524744,17
2525372,41
2525992,43
2526624,48
2527252,46
2527872,29
2528504,28
2529128,31
2529760,28
2530388,28
2531008,40
2531640,57
2532264,53
2532888,48
2533516,44
2534136,63
2534768,68
2535392,57
2536016,53
2536644,58
2537264,77
2537896,87
2538524,47
2539144,11
2539776,16
2540400,15
2541028,12
2541660,27
2542280,45
2542908,47
2543536,47
2544160,49
2544788,26
2545408,25
2546036,28
2546664,24
2547288,42
2547916,41
2548536,44
2549164,49
2549796,38
2550416,47
2551044,59
2551672,60
2552304,61
2552932,53
2553552,59
2554184,63
2554808,64
2555432,38
2556064,22
2556684,11
2557312,31
2557940,20
2558564,43
2559196,47
2559824,48
2560456,47
2561084,36
2561700,38
2562328,31
2562952,25
2563580,25
2564208,34
2564824,43
2565452,52
2566076,69
2566696,52
2567328,49
2567944,81
2568572,78
2569196,67
2569820,56
2570448,53
2571064,66
2571692,65
2572324,33
2572944,21
2573572,13
2574196,19
2574824,18
2575452,43
2576072,49
2576700,49
2577324,48
2577944,44
2578576,49
2579192,32
2579824,21
2580448,33
2581068,40
2581700,57
2582320,58
2582948,41
2583580,49
2584200,69
2584828,66
2585452,53
2586084,46
2586712,51
2587328,65
2587956,66
2588580,27
2589204,14
2589832,14
2590452,16
2591080,26
2591704,40
2592328,44
2592956,45
2593576,54
2594204,50
2594836,24
2595456,21
2596084,19
2596708,25
2597340,49
2597968,55
2598588,50
2599216,49
2599840,31
2600464,47
2601092,62
2601712,68
2602340,54
2602964,37
2603588,47
2604216,68
2604832,70
2605460,40
2606092,18
2606712,11
2607340,17
2607964,18
2608596,40
2609228,47
2609848,48
2610476,50
2611104,28
2611728,28
2612356,23
2612976,20
2613604,21
2614228,36
2614852,50
2615484,48
2616104,47
2616732,43
2617364,52
2617984,65
2618612,63
2619236,57
2619868,61
2620496,81
2621120,75
2621752,51
2622372,24
2622996,10
2623624,35
2624244,48
2624868,28
2625492,48
2626112,46
2626744,49
2627360,49
2627988,20
2628616,19
2629232,21
2629860,19
2630484,28
2631112,35
2631740,46
2632360,61
2632988,63
2633608,45
2634236,67
2634868,75
2635488,62
2636116,68
2636740,74
2637364,59
2637992,34
2638616,12
2639244,17
2639868,16
2640496,11
2641124,17
2641748,43
2642376,47
2643004,48
2643624,48
2644252,49
2644872,25
2645500,20
2646132,12
2646752,13
2647380,33
2648004,45
2648624,54
2649252,56
2649872,40
2650500,49
2651124,61
2651748,65
2652376,64
2653000,56
2653628,64
2654256,67
2654880,63
2655508,36
2656132,28
2656760,13
2657388,16
2658008,16
2658636,41
2659260,45
2659884,48
2660512,51
2661128,29
2661760,31
2662384,33
2663008,33
2663636,28
2664260,34
2664888,50
2665516,51
2666136,47
2666764,43
2667388,53
2668016,64
2668644,59
2669264,56
2669892,46
2670516,61
2671140,65
2671768,43
2672384,14
2673016,11
2673636,28
2674260,27
2674888,31
2675504,47
2676136,50
2676764,50
2677384,50
2678012,22
2678636,15
2679264,23
2679896,54
2680512,67
2681140,52
2681764,38
2682388,41
2683016,37
2683632,39
2684264,51
2684888,53
2685508,65
2686140,64
2686760,63
2687388,78
2688020,79
2688636,57
2689268,35
2689888,19
2690516,30
2691148,35
2691768,43
2692396,48
2693020,47
2693644,51
2694272,42
2694888,34
2695520,29
2696144,16
2696764,11
2697396,29
2698016,68
2698644,62
2699272,46
2699896,39
2700524,53
2701148,61
2701776,64
2702408,62
2703024,66
2703656,74
2704280,74
2704900,64
2705528,31
2706152,16
2706780,16
2707404,28
2708028,18
2708656,40
2709272,47
2709900,48
2710524,50
2711152,26
2711780,18
2712404,15
2713036,15
2713664,28
2714288,54
2714916,75
2715540,71
2716164,53
2716796,44
2717416,53
2718044,55
2718668,57
2719292,46
2719924,58
2720544,88
2721172,82
2721800,51
2722424,29
2723052,17
2723676,18
2724304,20
2724936,40
2725552,46
2726180,48
2726804,48
2727428,50
2728056,23
2728680,17
2729308,20
2729932,21
2730552,44
2731184,71
2731800,80
2732432,61
2733060,27
2733680,53
2734308,74
2734932,75
2735564,64
2736192,55
2736812,51
2737440,66
2738064,68
2738692,29
2739320,14
2739944,12
2740572,20
2741196,19
2741820,38
2742448,44
2743072,50
2743700,47
2744332,28
2744952,23
2745580,21
2746204,13
2746836,16
2747464,37
2748080,62
2748712,59
2749336,45
2749960,43
2750588,57
2751208,54
2751836,55
2752464,57
2753088,52
2753716,66
2754336,72
2754968,55
2755596,30
2756216,16
2756844,26
2757468,30
2758100,17
2758728,45
2759348,46
2759976,49
2760600,50
2761224,23
2761852,25
2762472,23
2763100,20
2763728,27
2764352,44
2764980,63
2765600,60
2766228,33
2766856,45
2767472,58
2768100,64
2768724,68
2769352,61
2769980,60
2770600,65
2771228,57
2771852,33
2772480,20
2773112,12
2773728,24
2774360,26
2774984,40
2775608,47
2776236,48
2776856,47
2777484,45
2778108,24
2778736,19
2779364,20
2779988,24
2780620,29
2781252,42
2781872,53
2782504,55
2783128,51
2783752,42
2784384,65
2785000,72
2785632,66
2786252,53
2786876,48
2787504,52
2788128,55
2788756,35
2789388,22
2790008,14
2790636,28
2791260,15
2791892,40
2792520,48
2793136,45
2793768,50
2794392,19
2795016,16
2795644,24
2796264,40
2796892,45
2797516,44
2798140,51
2798772,46
2799392,45
2800020,44
2800652,55
2801272,62
2801900,54
2802524,49
2803156,55
2803788,70
2804408,71
2805036,45
2805660,25
2806284,15
2806916,20
2807536,24
2808164,33
2808788,43
2809412,47
2810044,52
2810664,51
2811292,16
2811924,12
2812544,11
2813172,11
2813800,31
2814428,51
2815060,60
2815680,68
2816312,41
2816932,44
2817556,61
2818184,64
2818808,58
2819436,61
2820060,67
2820684,75
2821312,65
2821928,33
2822560,26
2823188,12
2823808,30
2824436,27
2825060,43
2825688,44
2826320,47
2826936,49
2827564,34
2828188,28
2828812,31
2829440,33
2830056,29
2830684,39
2831308,45
2831932,41
2832564,41
2833184,42
2833812,48
2834444,56
2835064,59
2835692,58
2836316,59
2836948,71
2837580,74
2838200,62
2838828,41
2839452,32
2840076,12
2840708,18
2841328,18
2841956,40
2842580,49
2843204,68
2843832,68
2844456,29
2845084,11
2845716,11
2846336,17
2846968,35
2847592,46
2848220,52
2848848,43
2849472,29
2850100,47
2850724,56
2851348,64
2851976,60
2852600,57
2853228,54
2853852,67
2854480,74
2855108,44
2855728,24
2856356,15
2856988,18
2857608,20
2858236,42
2858860,43
2859492,45
2860124,47
2860744,47
2861376,31
2862000,28
2862624,12
2863252,11
2863872,33
2864504,70
2865128,79
2865752,64
2866384,30
2867004,64
2867632,79
2868264,70
2868880,55
2869508,38
2870132,55
2870760,64
2871392,53
2872008,22
2872636,11
2873260,18
2873884,27
2874512,15
2875136,40
2875764,45
2876388,51
2877012,49
2877644,26
2878264,30
2878892,27
2879524,21
2880144,25
2880772,41
2881396,57
2882024,51
2882652,44
2883268,43
2883900,58
2884524,65
2885144,66
2885772,60
2886392,55
2887020,65
2887644,69
2888268,49
2888896,28
2889520,21
2890148,14
2890776,18
2891400,26
2892028,42
2892652,47
2893280,48
2893912,48
2894528,27
2895156,29
2895780,24
2896404,17
2897032,25
2897656,41
2898284,63
2898908,71
2899532,42
2900160,51
2900776,69
2901408,65
2902036,56
2902656,52
2903284,55
2903908,69
2904540,71
2905168,43
2905792,21
2906420,11
2907044,26
2907668,21
2908300,42
2908920,47
2909548,49
2910172,49
2910796,34
2911428,46
2912048,48
2912676,19
2913308,15
2913928,23
2914556,32
2915180,34
2915812,47
2916444,40
2917064,52
2917696,55
2918320,60
2918944,60
2919572,48
2920192,57
2920820,64
2921444,57
2922068,25
2922696,17
2923320,17
2923948,25
2924580,16
2925200,41
2925828,47
2926452,47
2927084,49
2927712,25
2928336,28
2928964,28
2929588,36
2930212,43
2930844,38
2931464,46
2932092,50
2932716,48
2933340,45
2933972,58
2934596,61
2935228,59
2935856,59
2936476,70
2937104,70
2937732,69
2938360,49
2938992,30
2939612,12
2940240,27
2940864,28
2941488,42
2942116,44
2942736,48
2943368,48
2943992,48
2944616,27
2945248,18
2945872,16
2946500,38
2947132,60
2947752,69
2948384,67
2949008,67
2949636,50
2950268,52
2950888,81
2951516,73
2952140,67
2952764,59
2953396,66
2954016,73
2954644,64
2955276,36
2955896,19
2956524,15
2957148,30
2957780,17
2958408,40
2959032,47
2959660,49
2960288,48
2960908,23
2961540,22
2962160,20
2962788,23
2963412,30
2964036,52
2964668,63
2965288,57
2965916,50
2966548,42
2967168,53
2967796,62
2968424,63
2969052,54
2969684,56
2970300,69
2970932,82
2971556,63
2972180,32
2972808,16
2973424,27
2974052,29
2974676,31
2975304,39
2975932,50
2976552,48
2977180,48
2977812,28
2978432,33
2979060,27
2979684,19
2980316,37
2980944,57
2981568,80
2982196,66
2982824,27
2983444,52
2984076,70
2984696,71
2985324,65
2985948,55
2986572,61
2987204,76
2987824,75
2988452,39
2989084,15
2989704,16
2990332,40
2990960,19
2991588,48
2992220,46
2992840,50
2993468,51
2994092,32
2994716,30
2995348,24
2995968,23
2996596,22
2997220,35
2997844,52
2998476,59
2999096,62
2999724,47
3000356,54
3000976,68
3001604,72
3002228,59
3002860,55
3003492,66
3004112,79
3004744,68
3005368,39
3005992,22
3006624,17
3007240,30
3007872,16
3008496,40
3009120,47
3009748,51
3010376,51
3011004,31
3011636,26
3012256,21
3012884,27
3013508,37
3014140,43
3014772,54
3015392,57
3016024,42
3016648,48
3017272,65
3017900,64
3018520,63
3019152,67
3019780,73
3020400,73
3021032,57
3021656,41
3022284,29
3022916,14
3023536,30
3024168,45
3024788,44
3025416,46
3026044,48
3026664,46
3027292,45
3027920,31
3028544,36
3029172,28
3029792,22
3030424,42
3031052,55
3031672,55
3032304,55
3032928,38
3033560,47
3034188,63
3034808,66
3035440,60
3036064,52
3036688,63
3037320,74
3037936,64
3038568,19
3039192,13
3039816,12
3040448,18
3041072,17
3041700,42
3042332,46
3042952,49
3043580,50
3044208,26
3044836,29
3045468,28
3046088,25
3046720,34
3047340,55
3047968,60
3048596,22
3049216,17
3049844,46
3050472,50
3051096,60
3051728,53
3052344,57
3052976,67
3053604,67
3054224,58
3054856,40
3055480,25
3056108,13
3056740,20
3057360,17
3057988,41
3058616,51
3059240,47
3059868,51
3060488,52
3061116,48
3061744,38
3062368,27
3063000,25
3063624,33
3064256,37
3064888,48
3065504,52
3066136,38
3066760,48
3067392,63
3068024,67
3068640,64
3069272,64
3069896,55
3070524,65
3071156,66
3071780,41
3072412,30
3073040,11
3073656,33
3074284,17
3074908,41
3075536,51
3076164,54
3076784,50
3077412,25
3078036,21
3078664,23
3079292,18
3079912,21
3080540,35
3081164,48
3081788,35
3082420,32
3083040,43
3083668,51
3084296,53
3084920,64
3085548,71
3086172,53
3086804,46
3087432,39
3088052,35
3088680,24
3089300,14
3089924,24
3090556,28
3091176,21
3091808,44
3092432,48
3093056,48
3093684,49
3094304,31
3094936,25
3095564,18
3096184,15
3096812,27
3097436,29
3098068,51
3098700,58
3099320,45
3099948,47
3100576,54
3101200,58
3101828,58
3102448,61
3103080,54
3103704,65
3104328,63
3104956,39
3105576,28
3106208,14
3106836,30
3107456,26
3108088,45
3108712,49
3109340,47
3109972,50
3110592,39
3111224,15
3111848,16
3112472,26
3113104,27
3113720,41
3114348,53
3114972,55
3115596,56
3116228,38
3116848,49
3117476,61
3118108,66
3118728,65
3119356,64
3119984,56
3120616,50
3121244,52
3121864,34
3122496,21
3123120,13
3123744,30
3124372,16
3124992,40
3125620,47
3126244,48
3126868,49
3127500,32
3128120,36
3128748,21
3129380,14
3130000,19
3130628,33
3131252,55
3131884,51
3132516,42
3133136,43
3133768,60
3134392,61
3135016,55
3135648,56
3136264,62
3136896,71
3137520,69
3138144,40
3138772,19
3139396,14
3140028,24
3140656,34
3141276,39
3141904,44
3142532,47
3143160,50
3143792,51
3144412,32
3145040,17
3145664,11
3146288,11
3146916,34
3147536,45
3148168,58
3148792,69
3149416,52
3150048,45
3150672,71
3151304,76
3151936,64
3152552,66
3153184,70
3153808,66
3154440,57
3155068,19
3155688,15
3156316,18
3156944,11
3157568,15
3158200,39
3158816,43
3159448,45
3160080,46
3160696,35
3161328,31
3161952,29
3162580,16
3163212,10
3163832,21
3164464,60
3165088,82
3165712,76
3166344,47
3166960,59
3167592,63
3168216,57
3168840,59
3169472,57
3170092,67
3170720,56
3171352,38
3171972,37
3172604,37
3173228,11
3173860,19
3174492,24
3175112,45
3175744,47
3176368,50
3176992,51
3177620,32
3178240,32
3178868,21
3179496,18
3180120,34
3180752,42
3181368,50
3182000,47
3182632,39
3183252,44
3183880,62
3184508,74
3185140,62
3185768,49
3186392,48
3187024,69
3187648,64
3188272,17
3188904,16
3189520,15
3190152,30
3190780,20
3191408,44
3192040,46
3192664,46
3193296,46
3193928,31
3194544,23
3195176,25
3195804,20
3196428,19
3197060,36
3197680,57
3198312,59
3198936,58
3199564,43
3200196,56
3200812,65
3201440,67
3202072,64
3202688,69
3203316,83
3203940,83
3204568,61
3205196,29
3205816,13
3206444,25
3207068,35
3207688,17
3208316,39
3208936,46
3209564,45
3210188,50
3210812,31
3211440,36
3212064,34
3212692,18
3213324,21
3213944,30
3214572,44
3215196,44
3215828,36
3216456,44
3217080,49
3217708,59
3218332,65
3218956,65
3219588,63
3220208,65
3220836,66
3221460,51
3222084,40
3222712,24
3223336,22
3223964,26
3224596,40
3225216,47
3225848,49
3226468,49
3227096,48
3227728,22
3228344,23
3228976,26
3229596,17
3230224,31
3230852,49
3231472,64
3232104,64
3232724,39
3233348,52
3233980,66
3234600,67
3235228,53
3235860,51
3236480,65
3237108,74
3237732,67
3238364,30
3238992,10
3239616,17
3240244,27
3240868,16
3241492,43
3242124,46
3242744,53
3243376,52
3244000,32
3244624,26
3245252,28
3245872,25
3246500,24
3247132,32
3247752,52
3248384,56
3249008,50
3249636,45
3250264,58
3250888,58
3251516,62
3252144,57
3252768,64
3253396,78
3254016,67
3254644,43
3255268,33
3255896,34
3256524,11
3257144,30
3257772,30
3258404,42
3259024,49
3259656,49
3260280,50
3260908,31
3261540,22
3262160,21
3262792,29
3263416,47
3264040,60
3264668,70
3265288,67
3265916,48
3266540,44
3267168,53
3267796,55
3268424,56
3269052,53
3269684,59
3270304,66
3270936,62
3271560,43
3272192,31
3272820,14
3273440,21
3274072,19
3274696,44
3275320,46
3275952,50
3276572,47
3277204,28
3277832,23
3278448,29
3279076,29
3279696,34
3280324,43
3280952,63
3281568,75
3282200,63
3282820,45
3283448,46
3284076,58
3284696,56
3285324,54
3285944,56
3286568,75
3287196,82
3287816,65
3288444,42
3289064,20
3289688,19
3290316,29
3290936,15
3291564,41
3292192,46
3292808,47
3293436,47
3294060,28
3294688,39
3295316,33
3295936,15
3296564,16
3297188,26
3297812,43
3298440,46
3299056,39
3299684,45
3300308,61
3300932,66
3301560,75
3302176,77
3302808,49
3303436,32
3304056,39
3304684,33
3305308,18
3305936,11
3306564,40
3307184,42
3307812,40
3308436,46
3309060,47
3309692,46
3310312,50
3310940,25
3311564,26
3312188,17
3312816,10
3313440,24
3314068,43
3314696,67
3315320,71
3315948,39
3316572,47
3317200,67
3317832,59
3318448,62
3319076,60
3319700,65
3320324,69
3320956,65
3321576,31
3322204,13
3322828,11
3323452,23
3324084,17
3324704,45
3325332,47
3325964,49
3326584,55
3327212,29
3327836,16
3328468,11
3329096,20
3329720,35
3330348,46
3330968,57
3331592,51
3332220,44
3332840,45
3333468,56
3334092,57
3334712,61
3335340,62
3335960,52
3336588,66
3337212,70
3337840,65
3338468,41
3339092,21
3339720,28
3340348,34
3340968,18
3341596,40
3342220,49
3342848,47
3343476,46
3344096,25
3344724,28
3345348,27
3345968,22
3346600,30
3347216,48
3347844,61
3348468,59
3349092,42
3349720,48
3350344,63
3350972,61
3351604,59
3352224,65
3352852,72
3353476,72
3354108,63
3354736,32
3355360,12
3355988,14
3356612,18
3357236,18
3357868,42
3358488,47
3359116,56
3359740,58
3360368,54
3360996,41
3361616,34
3362248,31
3362876,34
3363496,47
3364124,53
3364748,54
3365376,59
3366004,34
3366624,53
3367252,68
3367876,69
3368500,64
3369128,72
3369744,79
3370372,68
3370996,45
3371620,34
3372248,54
3372872,27
3373500,21
3374132,18
3374752,41
3375380,47
3376004,53
3376632,52
3377260,49
3377880,53
3378508,45
3379132,29
3379760,17
3380388,12
3381008,38
3381636,51
3382260,41
3382880,45
3383512,61
3384136,69
3384764,66
3385392,57
3386016,61
3386644,76
3387268,65
3387896,33
3388524,16
3389144,17
3389772,16
3390396,17
3391020,35
3391652,48
3392272,47
3392900,48
3393524,47
3394148,15
3394776,13
3395400,11
3396028,10
3396656,30
3397280,50
3397908,67
3398532,77
3399164,55
3399792,41
3400408,50
3401040,56
3401660,57
3402284,39
3402912,29
3403528,41
3404160,57
3404784,56
3405408,61
3406036,52
3406660,29
3407288,43
3407916,71
3408536,71
3409164,63
3409788,50
3410420,35
3411048,65
3411664,75
3412296,92
3412920,102
3413596,115
3414276,109
3414948,68
3415568,40
3416196,47
3416816,74
3417444,84
3418068,88
3418692,62
3419324,41
3419944,56
3420576,72
3421204,64
3421824,45
3422452,18
3423076,39
3423708,54
3424340,38
3424960,41
3425588,49
3426212,46
3426836,46
3427468,44
3428088,41
3428716,53
3429344,62
3429968,75
3430596,66
3431216,64
3431844,56
3432476,32
3433096,49
3433724,69
3434348,73
3434980,69
3435608,74
3436232,82
3436860,75
3437484,67
3438108,33
3438740,16
3439360,13
3439988,48
3440616,41
3441240,43
3441868,48
3442488,49
3443116,48
3443748,28
3444368,25
3444996,13
3445620,11
3446248,11
3446880,20
3447496,33
3448124,27
3448748,22
3449372,40
3450004,66
3450624,78
3451252,89
3451876,89
3452500,96
3453132,88
3453752,53
3454384,15
3455012,24
3455632,41
3456264,62
3456884,60
3457516,26
3458144,40
3458760,55
3459392,54
3460016,53
3460636,44
3461268,44
3461888,18
3462516,14
3463140,13
3463764,11
3464392,23
3465008,17
3465640,17
3466268,56
3466888,71
3467516,69
3468140,61
3468772,77
3469404,85
3470024,85
3470652,78
3471280,31
3471904,15
3472532,59
3473152,100
3473832,97
3474464,63
3475080,56
3475712,73
3476336,63
3476964,43
3477596,14
3478216,17
3478848,61
3479472,65
3480096,36
3480724,17
3481344,14
3481976,16
3482596,41
3483220,82
3483848,63
3484472,50
3485100,50
3485732,12
3486352,14
3486980,17
3487604,12
3488236,16
3488864,23
3489480,38
3490112,63
3490736,38
3491360,43
3491988,50
3492608,50
3493236,47
3493860,20
3494484,13
3495112,14
3495736,27
3496364,13
3496996,28
3497616,46
3498244,36
3498868,34
3499500,44
3500128,58
3500752,69
3501384,66
3502008,51
3502632,39
3503260,45
3503880,52
3504512,41
3505136,25
3505760,12
3506388,27
3507012,17
3507644,45
3508276,45
3508896,47
3509524,53
3510152,53
3510780,40
3511412,33
3512032,24
3512660,19
3513288,31
3513912,38
3514540,46
3515160,45
3515792,28
3516420,56
3517040,79
3517672,79
3518296,72
3518928,77
3519560,87
3520176,90
3520808,68
3521428,24
3522056,15
3522684,10
3523304,27
3523932,23
3524556,41
3525176,49
3525808,49
3526424,50
3527052,26
3527676,27
3528304,37
3528932,53
3529556,48
3530188,41
3530820,36
3531440,31
3532068,33
3532696,44
3533320,75
3533948,92
3534568,91
3535196,75
3535824,83
3536448,86
3537076,66
3537696,18
3538324,33
3538956,30
3539576,45
3540204,65
3540828,33
3541460,40
3542088,51
3542712,51
3543344,48
3543968,14
3544592,11
3545220,24
3545840,50
3546468,67
3547092,76
3547716,85
3548348,74
3548968,47
3549596,46
3550228,71
3550848,83
3551476,65
3552104,64
3552732,86
3553364,113
3554036,100
3554712,54
3555344,31
3555960,16
3556588,19
3557216,15
3557844,43
3558476,46
3559096,53
3559724,50
3560352,27
3560976,20
3561604,28
3562224,35
3562856,32
3563480,48
3564104,57
3564732,45
3565352,31
3565984,51
3566612,92
3567232,90
3567864,72
3568488,60
3569116,63
3569748,84
3570368,84
3571000,57
3571624,21
3572248,15
3572876,61
3573496,72
3574128,47
3574752,45
3575376,53
3576008,54
3576624,57
3577256,59
3577888,67
3578504,65
3579136,42
3579760,31
3580392,28
3581020,30
3581640,21
3582272,15
3582896,69
3583520,86
3584152,81
3584768,72
3585396,63
3586020,54
3586644,53
3587272,37
3587888,14
3588520,11
3589148,27
3589768,57
3590396,32
3591020,44
3591652,50
3592284,46
3592904,50
3593532,50
3594160,53
3594784,34
3595412,20
3596032,21
3596660,31
3597288,39
3597912,41
3598540,48
3599160,39
3599792,51
3600420,65
3601040,65
3601668,67
3602292,77
3602924,85
3603552,82
3604168,70
3604800,44
3605420,36
3606044,19
3606676,14
3607296,42
3607924,46
3608548,50
3609172,78
3609804,89
3610424,86
3611052,63
3611680,41
3612296,20
3612928,26
3613552,43
3614180,43
3614812,20
3615432,13
3616060,53
3616684,79
3617308,83
3617936,76
3618552,50
3619180,30
3619808,34
3620432,34
3621060,16
3621680,12
3622308,15
3622940,19
3623560,34
3624188,40
3624812,46
3625444,48
3626072,50
3626688,50
3627320,19
3627944,32
3628568,39
3629196,22
3629816,22
3630444,21
3631068,36
3631692,37
3632324,26
3632944,49
3633572,64
3634204,70
3634824,70
3635456,54
3636076,47
3636708,54
3637336,57
3637956,29
3638584,19
3639208,11
3639832,20
3640460,17
3641080,44
3641708,48
3642332,51
3642956,47
3643588,29
3644208,37
3644836,51
3645468,34
3646088,22
3646716,47
3647340,72
3647972,58
3648604,50
3649224,44
3649852,56
3650476,79
3651100,90
3651732,70
3652352,59
3652980,46
3653604,57
3654228,48
3654860,25
3655480,13
3656108,16
3656740,18
3657360,21
3657988,43
3658612,46
3659244,49
3659872,50
3660496,29
3661128,24
3661748,19
3662372,29
3663004,47
3663624,50
3664256,51
3664880,49
3665500,45
3666132,44
3666756,66
3667388,68
3668016,66
3668640,64
3669268,71
3669892,92
3670524,87
3671156,54
3671776,27
3672408,10
3673032,14
3673656,17
3674284,45
3674904,49
3675536,54
3676164,46
3676784,40
3677416,25
3678040,35
3678672,31
3679300,16
3679920,27
3680552,37
3681176,32
3681804,53
3682432,87
3683052,59
3683680,49
3684304,50
3684932,59
3685560,82
3686180,98
3686812,97
3687440,79
3688056,43
3688684,35
3689308,13
3689936,25
3690564,16
3691184,42
3691812,50
3692436,48
3693060,47
3693692,22
3694312,21
3694940,12
3695564,36
3696188,63
3696820,92
3697440,120
3698120,131
3698796,130
3699468,52
3700092,51
3700716,65
3701340,69
3701972,81
3702596,80
3703228,95
3703856,99
3704476,61
3705104,34
3705728,27
3706356,11
3706988,24
3707608,59
3708236,50
3708860,50
3709484,51
3710116,57
3710736,65
3711368,58
3711992,41
3712616,30
3713244,45
3713868,57
3714500,69
3715128,54
3715752,35
3716384,79
3717008,92
3717636,75
3718268,76
3718888,88
3719516,81
3720140,77
3720764,55
3721396,17
3722016,13
3722644,31
3723276,30
3723896,17
3724528,47
3725152,62
3725780,61
3726412,64
3727032,74
3727664,77
3728288,51
3728912,24
3729540,10
3730160,11
3730788,19
3731412,35
3732040,40
3732668,46
3733288,52
3733916,57
3734548,62
3735168,65
3735800,69
3736424,78
3737052,74
3737684,43
3738304,30
3738932,19
3739556,16
3740180,17
3740812,38
3741432,49
3742064,48
3742688,47
3743312,50
3743944,25
3744564,38
3745192,30
3745824,14
3746440,21
3747068,33
3747696,50
3748324,56
3748956,44
3749576,46
3750208,76
3750832,87
3751456,93
3752088,111
3752756,107
3753436,99
3754064,78
3754680,46
3755312,13
3755936,60
3756560,94
3757192,86
3757812,61
3758440,49
3759064,49
3759692,51
3760320,72
3760944,83
3761572,60
3762204,23
3762824,11
3763456,29
3764080,53
3764708,47
3765340,38
3765960,50
3766592,68
3767216,72
3767840,76
3768472,81
3769088,78
3769716,77
3770340,69
3770964,53
3771596,38
3772216,24
3772844,30
3773476,50
3774096,47
3774724,45
3775348,47
3775980,54
3776612,59
3777232,59
3777864,37
3778488,20
3779112,13
3779740,14
3780360,17
3780988,25
3781612,39
3782240,33
3782868,45
3783492,58
3784124,69
3784756,62
3785376,52
3786008,65
3786632,76
3787264,77
3787892,50
3788512,32
3789144,15
3789768,33
3790392,16
3791020,41
3791640,56
3792272,56
3792896,52
3793520,44
3794148,57
3794776,41
3795404,27
3796036,30
3796656,46
3797284,51
3797912,47
3798536,33
3799168,47
3799784,65
3800416,91
3801040,84
3801664,61
3802292,60
3802912,99
3803544,91
3804172,60
3804792,23
3805424,13
3806048,31
3806680,38
3807312,24
3807928,51
3808560,52
3809184,49
3809812,51
3810440,34
3811060,40
3811692,47
3812316,47
3812940,66
3813572,88
3814192,92
3814824,77
3815452,44
3816072,45
3816700,76
3817328,76
3817956,84
3818588,118
3819260,142
3819940,172
3820620,149
3821292,108
3821972,64
3822600,12
3823216,18
3823848,14
3824472,52
3825104,76
3825736,97
3826352,160
3827036,216
3827708,169
3828388,101
3829068,66
3829688,61
3830316,42
3830948,40
3831568,28
3832200,16
3832824,72
3833448,94
3834080,102
3834756,91
3835384,83
3836016,75
3836636,63
3837268,30
3837892,15
3838520,16
3839152,19
3839772,23
3840404,45
3841032,62
3841656,59
3842284,53
3842908,49
3843536,20
3844164,12
3844784,26
3845412,58
3846036,83
3846664,104
3847344,97
3847960,89
3848588,105
3849272,50
3849888,65
3850516,93
3851140,77
3851772,49
3852400,33
3853024,49
3853652,59
3854276,49
3854900,39
3855532,37
3856152,15
3856780,11
3857404,46
3858032,49
3858660,50
3859284,47
3859916,51
3860544,38
3861168,43
3861796,43
3862420,52
3863048,69
3863676,72
3864296,60
3864928,45
3865552,26
3866176,64
3866804,91
3867424,98
3868056,104
3868736,111
3869404,93
3870032,79
3870656,60
3871280,13
3871908,10
3872528,29
3873160,59
3873784,55
3874408,62
3875036,62
3875664,56
3876292,50
3876924,18
3877544,10
3878176,16
3878800,11
3879428,15
3880060,26
3880680,64
3881308,84
3881932,68
3882560,48
3883188,52
3883808,52
3884440,56
3885072,50
3885688,56
3886320,75
3886944,81
3887576,59
3888208,45
3888824,39
3889452,14
3890080,13
3890704,56
3891336,56
3891952,53
3892580,51
3893204,51
3893828,33
3894460,51
3895080,68
3895708,94
3896340,92
3896960,53
3897588,38
3898212,27
3898844,17
3899476,56
3900096,64
3900728,73
3901352,67
3901976,56
3902608,52
3903224,60
3903856,83
3904480,54
3905104,20
3905732,19
3906352,37
3906984,18
3907612,44
3908232,47
3908860,53
3909488,64
3910116,97
3910748,96
3911368,56
3912000,25
3912620,11
3913248,15
3913876,18
3914496,14
3915128,19
3915752,46
3916376,51
3917008,54
3917624,53
3918256,46
3918884,34
3919504,37
3920136,42
3920760,47
3921388,46
3922020,59
3922640,40
3923268,28
3923892,51
3924520,55
3925148,48
3925768,50
3926400,51
3927024,32
3927648,55
3928280,76
3928904,79
3929536,83
3930168,87
3930784,82
3931416,53
3932044,27
3932676,50
3933304,81
3933920,81
3934552,69
3935176,56
3935800,47
3936432,58
3937048,80
3937676,81
3938300,60
3938928,22
3939556,19
3940180,17
3940812,47
3941440,50
3942064,49
3942696,54
3943316,52
3943944,29
3944572,28
3945192,72
3945820,69
3946444,48
3947068,41
3947700,52
3948320,61
3948948,49
3949580,50
3950200,58
3950828,51
3951456,57
3952084,74
3952716,87
3953336,93
3953964,89
3954588,61
3955212,41
3955844,14
3956464,39
3957096,50
3957720,53
3958344,56
3958976,49
3959592,50
3960224,20
3960852,31
3961472,32
3962104,24
3962728,39
3963356,62
3963988,82
3964608,73
3965240,51
3965864,49
3966488,83
3967116,88
3967736,69
3968368,62
3968992,64
3969616,81
3970244,76
3970864,42
3971492,18
3972124,16
3972744,11
3973376,14
3974000,51
3974628,50
3975256,51
3975880,53
3976508,48
3977132,16
3977756,27
3978388,48
3979008,66
3979640,77
3980264,42
3980888,35
3981516,44
3982136,28
3982764,60
3983396,66
3984016,61
3984644,53
3985268,23
3985900,42
3986532,67
3987152,81
3987784,63
3988408,51
3989032,18
3989664,20
3990280,17
3990912,43
3991536,50
3992160,55
3992792,57
3993416,61
3994048,51
3994676,36
3995296,14
3995924,12
3996552,22
3997180,13
3997812,22
3998432,22
3999064,46
3999688,48
4000312,50
4000940,50
4001560,57
4002188,62
4002812,62
4003440,45
4004068,15
4004692,14
4005320,31
4005952,61
4006568,53
4007200,37
4007820,49
4008452,47
4009080,49
4009704,52
4010332,21
4010956,16
4011580,11
4012212,12
4012832,12
4013460,19
4014092,27
4014712,33
4015340,16
4015964,67
4016596,82
4017224,58
4017848,51
4018476,26
4019100,28
4019724,43
4020356,35
4020976,11
4021604,20
4022228,33
4022852,35
4023480,16
4024104,54
4024732,63
4025364,58
4025984,56
4026612,26
4027236,13
4027868,26
4028496,51
4029116,91
4029744,109
4030420,95
4031040,68
4031672,50
4032288,46
4032920,86
4033548,88
4034168,66
4034796,57
4035420,46
4036052,53
4036680,59
4037300,45
4037928,18
4038552,22
4039176,11
4039808,11
4040424,35
4041052,50
4041676,53
4042300,50
4042932,51
4043552,43
4044184,49
4044812,34
4045432,35
4046060,66
4046684,71
4047316,74
4047944,71
4048564,50
4049192,45
4049816,64
4050440,69
4051072,66
4051692,67
4052320,49
4052944,50
4053568,59
4054200,46
4054816,45
4055448,37
4056076,10
4056696,17
4057324,45
4057952,50
4058580,50
4059212,50
4059832,40
4060464,11
4061088,14
4061712,35
4062344,51
4062960,57
4063592,62
4064216,83
4064840,75
4065468,48
4066088,55
4066716,64
4067348,66
4067968,74
4068600,92
4069224,107
4069904,105
4070588,64
4071208,21
4071836,18
4072468,66
4073088,73
4073720,32
4074344,41
4074972,47
4075604,49
4076224,53
4076856,16
4077476,17
4078104,21
4078732,23
4079352,37
4079984,42
4080608,78
4081236,87
4081864,71
4082488,46
4083116,80
4083748,83
4084368,66
4085000,70
4085624,76
4086252,83
4086884,73
4087504,37
4088136,25
4088760,15
4089384,23
4090016,22
4090632,44
4091264,50
4091888,51
4092512,49
4093144,41
4093768,39
4094400,53
4095032,50
4095652,36
4096284,37
4096904,38
4097532,45
4098160,60
4098776,54
4099404,48
4100024,61
4100648,65
4101276,60
4101896,55
4102524,58
4103144,53
4103768,51
4104396,38
4105016,31
4105644,19
4106272,44
4106888,19
4107516,41
4108140,48
4108768,49
4109396,52
4110016,19
4110644,11
4111268,12
4111892,11
4112520,16
4113136,47
4113764,79
4114388,67
4115012,61
4115640,45
4116264,61
4116892,70
4117520,71
4118136,60
4118768,61
4119392,65
4120020,70
4120648,36
4121264,10
4121896,32
4122516,69
4123140,80
4123772,51
4124392,51
4125020,50
4125644,51
4126268,48
4126896,16
4127512,18
4128140,16
4128764,28
4129392,44
4130020,52
4130644,65
4131272,67
4131900,42
4132520,45
4133148,65
4133772,75
4134400,73
4135028,74
4135648,71
4136276,79
4136900,74
4137524,35
4138156,14
4138776,11
4139404,36
4140028,28
4140656,45
4141284,50
4141908,52
4142540,51
4143168,33
4143784,17
4144416,16
4145040,11
4145668,11
4146300,33
4146920,77
4147548,73
4148172,45
4148796,46
4149424,48
4150044,62
4150672,69
4151300,55
4151920,36
4152548,53
4153172,72
4153804,77
4154432,48
4155048,35
4155680,11
4156304,23
4156932,18
4157564,39
4158184,50
4158812,50
4159436,51
4160064,21
4160688,12
4161308,15
4161936,10
4162568,28
4163184,41
4163812,49
4164436,52
4165064,48
4165692,46
4166312,48
4166940,47
4167564,53
4168192,58
4168824,64
4169440,64
4170068,61
4170692,41
4171316,29
4171944,18
4172568,13
4173196,17
4173820,45
4174448,47
4175076,53
4175700,56
4176328,57
4176960,36
4177576,22
4178204,13
4178828,11
4179456,31
4180088,39
4180704,43
4181332,44
4181956,29
4182580,56
4183208,78
4183824,75
4184456,68
4185080,53
4185700,60
4186332,59
4186952,51
4187584,23
4188212,13
4188832,15
4189460,22
4190084,19
4190712,50
4191344,57
4191960,54
4192592,49
4193216,21
4193840,12
4194468,16
4195088,14
4195716,34
4196340,103
4197016,133
4197700,111
4198372,66
4198992,44
4199624,54
4200240,59
4200868,69
4201496,93
4202116,106
4202796,112
4203468,108
4204140,55
4204764,30
4205388,12
4206020,47
4206648,80
4207264,76
4207896,64
4208520,57
4209148,64
4209780,54
4210400,25
4211028,15
4211652,18
4212276,13
4212908,57
4213528,72
4214160,65
4214780,46
4215408,44
4216036,67
4216660,65
4217292,61
4217920,60
4218540,49
4219168,59
4219792,71
4220424,71
4221052,57
4221672,47
4222300,18
4222924,13
4223548,21
4224180,46
4224796,49
4225428,51
4226056,48
4226672,14
4227304,15
4227928,41
4228556,69
4229184,74
4229808,69
4230436,74
4231060,55
4231684,28
4232316,58
4232936,65
4233564,59
4234188,51
4234816,25
4235444,11
4236064,51
4236692,72
4237324,44
4237944,26
4238572,15
4239196,15
4239828,13
4240460,46
4241080,49
4241708,50
4242332,53
4242956,48
4243584,26
4244208,17
4244836,15
4245460,23
4246084,55
4246712,70
4247336,60
4247968,47
4248596,30
4249216,52
4249848,70
4250468,79
4251100,83
4251728,81
4252348,80
4252976,83
4253600,49
4254224,14
4254852,31
4255472,48
4256104,64
4256724,35
4257348,39
4257980,49
4258600,52
4259228,50
4259860,25
4260480,24
4261108,14
4261732,10
4262360,11
4262988,28
4263608,50
4264236,48
4264860,42
4265484,48
4266112,61
4266728,68
4267360,65
4267984,53
4268608,47
4269236,64
4269856,71
4270484,53
4271116,32
4271736,23
4272364,12
4272988,17
4273620,34
4274248,49
4274868,51
4275496,54
4276120,50
4276744,42
4277372,39
4277992,18
4278620,17
4279244,47
4279868,46
4280500,52
4281120,50
4281748,50
4282376,43
4283000,51
4283628,52
4284252,51
4284884,39
4285512,38
4286132,46
4286760,49
4287384,32
4288008,27
4288636,23
4289256,18
4289884,33
4290508,46
4291132,49
4291764,49
4292384,54
4293012,40
4293644,29
4294264,12
4294892,12
4295520,11
4296148,31
4296780,50
4297400,55
4298032,45
4298656,45
4299280,53
4299908,57
4300528,59
4301160,65
4301780,76
4302404,97
4303036,107
4303708,88
4304332,50
4304964,30
4305584,15
4306212,11
4306836,25
4307460,41
4308092,51
4308712,57
4309340,54
4309968,55
4310592,80
4311220,67
4311840,37
4312468,24
4313100,28
4313720,57
4314348,72
4314972,66
4315604,44
4316232,57
4316852,87
4317480,87
4318104,76
4318728,72
4319356,77
4319976,84
4320608,45
4321232,14
4321856,15
4322488,49
4323104,56
4323732,48
4324364,50
4324984,54
4325612,52
4326236,52
4326868,29
4327496,37
4328120,46
4328748,37
4329372,26
4329996,17
4330628,16
4331248,23
4331876,29
4332500,51
4333128,51
4333756,56
4334376,60
4335008,64
4335636,83
4336256,86
4336884,76
4337508,49
4338140,37
4338772,12
4339392,22
4340020,22
4340644,52
4341268,53
4341900,52
4342520,65
4343148,73
4343772,73
4344396,45
4345028,24
4345648,33
4346276,67
4346908,94
4347528,81
4348156,55
4348784,47
4349412,59
4350044,65
4350664,67
4351296,67
4351920,63
4352544,67
4353176,62
4353792,42
4354420,23
4355044,13
4355668,21
4356296,21
4356920,39
4357548,48
4358180,48
4358800,49
4359428,50
4360052,27
4360684,19
4361312,12
4361932,10
4362560,21
4363184,30
4363808,44
4364436,50
4365056,40
4365684,42
4366308,57
4366932,56
4367564,60
4368184,65
4368812,62
4369444,71
4370064,69
4370692,29
4371316,11
4371948,24
4372580,41
4373200,20
4373828,45
4374452,51
4375076,52
4375708,50
4376328,28
4376956,13
4377584,12
4378208,13
4378836,15
4379464,49
4380092,53
4380724,28
4381344,23
4381976,50
4382600,70
4383232,68
4383860,66
4384480,68
4385108,83
4385732,92
4386356,79
4386988,52
4387608,24
4388236,10
4388860,27
4389488,28
4390116,21
4390744,43
4391372,61
4392004,83
4392624,117
4393308,90
4393928,35
4394552,18
4395184,22
4395800,58
4396432,85
4397064,83
4397680,68
4398312,43
4398936,47
4399568,59
4400196,66
4400816,65
4401444,69
4402068,70
4402696,82
4403324,84
4403944,63
4404572,52
4405196,31
4405820,12
4406448,15
4407068,49
4407696,50
4408324,52
4408944,55
4409572,37
4410196,20
4410828,44
4411460,42
4412080,41
4412708,47
4413336,39
4413960,38
4414592,47
4415208,46
4415836,53
4416464,53
4417088,53
4417716,57
4418336,57
4418968,69
4419596,76
4420216,72
4420844,41
4421468,24
4422100,11
4422732,10
4423352,20
4423984,44
4424608,50
4425232,50
4425860,51
4426480,25
4427108,15
4427732,12
4428356,17
4428988,34
4429608,67
4430236,90
4430868,64
4431488,47
4432116,47
4432740,49
4433372,53
4434004,58
4434624,62
4435252,64
4435876,68
4436500,69
4437132,46
4437752,29
4438384,19
4439008,11
4439632,13
4440264,42
4440880,50
4441508,53
4442140,52
4442760,54
4443392,37
4444016,31
4444644,26
4445276,16
4445896,29
4446524,37
4447152,41
4447776,45
4448408,31
4449024,59
4449656,74
4450276,74
4450904,76
4451532,74
4452152,73
4452784,69
4453412,48
4454032,21
4454664,21
4455288,12
4455916,17
4456548,16
4457168,46
4457796,49
4458420,49
4459048,51
4459676,24
4460296,19
4460928,13
4461552,23
4462176,45
4462808,61
4463432,67
4464064,52
4464692,50
4465312,47
4465940,49
4466568,60
4467196,57
4467828,46
4468448,43
4469080,71
4469704,72
4470328,69
4470960,44
4471576,19
4472208,34
4472840,41
4473456,31
4474088,48
4474712,53
4475344,50
4475976,51
4476592,39
4477224,27
4477852,14
4478476,11
4479108,18
4479728,25
4480360,37
4480984,34
4481608,19
4482236,54
4482856,80
4483484,81
4484116,77
4484736,94
4485364,96
4485988,97
4486620,69
4487248,30
4487868,19
4488496,19
4489120,50
4489744,28
4490372,44
4490992,55
4491620,53
4492248,59
4492872,63
4493500,54
4494120,39
4494748,25
4495380,20
4496000,43
4496628,63
4497252,68
4497884,66
4498516,52
4499136,53
4499768,62
4500392,74
4501016,69
4501648,56
4502264,70
4502896,72
4503520,54
4504144,21
4504776,12
4505392,17
4506024,17
4506656,17
4507272,42
4507900,47
4508524,53
4509156,53
4509784,15
4510400,40
4511032,44
4511656,28
4512280,29
4512908,35
4513528,46
4514156,43
4514780,31
4515404,51
4516036,62
4516656,71
4517284,66
4517916,58
4518536,42
4519164,53
4519788,59
4520420,22
4521048,10
4521672,11
4522300,23
4522924,25
4523548,43
4524180,48
4524800,51
4525428,53
4526052,50
4526680,36
4527308,27
4527928,18
4528560,15
4529188,30
4529808,49
4530436,56
4531064,53
4531692,30
4532324,60
4532944,66
4533572,66
4534200,65
4534824,59
4535452,61
4536072,53
4536704,37
4537328,19
4537952,17
4538580,11
4539204,29
4539836,16
4540468,42
4541088,50
4541720,52
4542344,55
4542976,29
4543604,20
4544224,11
4544852,15
4545476,13
4546100,12
4546732,38
4547352,47
4547980,33
4548608,50
4549232,64
4549860,64
4550488,55
4551116,39
4551748,26
4552368,44
4552996,51
4553624,43
4554248,22
4554876,10
4555496,37
4556128,45
4556752,40
4557376,47
4558008,54
4558628,61
4559256,58
4559888,43
4560508,19
4561136,12
4561760,10
4562388,13
4563020,15
4563640,42
4564268,61
4564896,32
4565520,51
4566148,64
4566768,63
4567400,59
4568024,40
4568644,45
4569276,64
4569896,77
4570524,61
4571156,44
4571776,27
4572408,13
4573032,21
4573660,48
4574292,48
4574912,47
4575544,52
4576168,31
4576792,35
4577424,41
4578040,49
4578668,44
4579296,37
4579920,43
4580548,41
4581168,47
4581800,45
4582428,51
4583048,54
4583676,59
4584304,57
4584932,43
4585564,61
4586184,78
4586816,67
4587440,28
4588064,11
4588692,24
4589312,23
4589940,24
4590568,45
4591192,51
4591820,51
4592440,54
4593068,15
4593700,11
4594320,13
4594948,11
4595576,15
4596204,33
4596836,66
4597456,63
4598088,37
4598712,54
4599336,69
4599968,65
4600584,53
4601216,32
4601840,37
4602464,53
4603096,44
4603720,13
4604348,12
4604980,15
4605600,14
4606228,14
4606856,49
4607488,49
4608120,50
4608736,53
4609364,46
4609984,41
4610608,42
4611236,40
4611856,33
4612484,37
4613108,52
4613732,58
4614360,66
4614988,55
4615616,52
4616244,82
4616864,73
4617492,71
4618116,69
4618748,72
4619376,66
4620000,47
4620628,25
4621252,23
4621876,12
4622508,16
4623128,17
4623756,47
4624388,50
4625008,51
4625636,47
4626260,22
4626892,30
4627520,32
4628144,22
4628772,27
4629396,52
4630024,75
4630652,68
4631272,52
4631904,47
4632528,54
4633152,58
4633780,55
4634400,51
4635028,70
4635660,92
4636280,82
4636908,47
4637532,24
4638164,16
4638796,15
4639416,19
4640044,40
4640668,49
4641292,50
4641920,50
4642536,55
4643168,49
4643792,32
4644416,21
4645044,21
4645664,35
4646292,45
4646924,59
4647544,58
4648172,38
4648796,47
4649428,61
4650060,66
4650680,67
4651308,66
4651932,78
4652560,96
4653188,88
4653808,28
4654436,24
4655064,45
4655688,35
4656316,16
4656936,46
4657564,49
4658196,48
4658816,55
4659448,35
4660068,22
4660700,14
4661328,13
4661952,17
4662580,33
4663204,55
4663828,57
4664460,45
4665080,48
4665708,61
4666336,64
4666960,60
4667588,61
4668208,56
4668836,63
4669468,70
4670088,51
4670716,15
4671344,11
4671972,19
4672604,30
4673224,26
4673852,48
4674476,50
4675100,50
4675732,52
4676352,13
4676980,12
4677604,11
4678228,20
4678860,39
4679480,54
4680112,69
4680740,86
4681360,77
4681988,46
4682612,57
4683244,69
4683872,68
4684496,64
4685128,67
4685748,72
4686376,59
4687004,34
4687624,24
4688252,13
4688876,27
4689500,27
4690132,47
4690756,49
4691388,52
4692020,50
4692640,44
4693268,24
4693896,21
4694524,16
4695156,14
4695776,36
4696408,57
4697032,51
4697656,44
4698284,40
4698904,58
4699536,62
4700164,69
4700784,74
4701416,60
4702040,49
4702672,49
4703304,46
4703920,24
4704552,14
4705180,19
4705804,32
4706436,15
4707056,40
4707688,49
4708312,54
4708936,52
4709568,33
4710188,33
4710820,24
4711452,22
4712072,29
4712700,37
4713324,51
4713956,48
4714588,35
4715208,48
4715836,65
4716464,71
4717088,63
4717720,58
4718336,58
4718968,66
4719592,60
4720216,34
4720848,21
4721464,17
4722092,22
4722724,27
4723344,42
4723972,49
4724600,52
4725228,51
4725860,50
4726480,22
4727108,23
4727736,23
4728360,15
4728988,30
4729608,54
4730236,63
4730864,49
4731488,27
4732120,49
4732744,53
4733376,61
4734008,58
4734624,44
4735256,51
4735880,55
4736512,53
4737144,25
4737760,13
4738388,16
4739016,22
4739640,16
4740268,50
4740888,53
4741520,50
4742144,52
4742768,26
4743396,26
4744024,24
4744652,20
4745284,20
4745904,36
4746536,60
4747160,68
4747784,62
4748416,46
4749032,51
4749664,55
4750292,57
4750916,65
4751548,76
4752168,82
4752796,64
4753428,54
4754048,32
4754676,17
4755304,24
4755932,35
4756564,33
4757184,49
4757816,48
4758440,52
4759064,51
4759692,26
4760312,32
4760944,28
4761568,15
4762192,20
4762824,29
4763444,41
4764072,51
4764704,44
4765320,44
4765952,61
4766576,60
4767208,59
4767836,56
4768456,64
4769088,81
4769712,72
4770336,41
4770968,23
4771584,12
4772216,25
4772840,20
4773464,49
4774096,52
4774712,51
4775344,53
4775972,33
4776592,35
4777224,46
4777848,45
4778476,39
4779108,54
4779728,66
4780360,69
4780984,57
4781608,43
4782240,58
4782856,60
4783488,57
4784112,52
4784736,48
4785368,87
4785992,86
4786624,60
4787256,32
4787872,27
4788504,13
4789128,18
4789760,18
4790388,39
4791008,52
4791640,51
4792268,53
4792892,35
4793524,37
4794144,14
4794776,14
4795408,41
4796028,47
4796656,52
4797284,52
4797916,32
4798548,55
4799168,71
4799800,65
4800428,59
4801052,40
4801680,42
4802304,53
4802932,51
4803556,26
4804180,21
4804812,12
4805432,24
4806060,16
4806692,46
4807312,52
4807944,51
4808568,52
4809196,44
4809828,30
4810448,22
4811076,14
4811704,16
4812328,42
4812960,63
4813576,79
4814204,65
4814828,41
4815452,51
4816084,60
4816704,65
4817336,67
4817964,60
4818584,61
4819212,68
4819836,62
4820468,37
4821096,22
4821720,15
4822352,25
4822976,15
4823600,45
4824228,48
4824848,50
4825476,55
4826104,19
4826728,17
4827356,12
4827984,11
4828612,10
4829244,26
4829864,77
4830496,109
4831172,96
4831792,52
4832424,51
4833048,50
4833680,51
4834300,44
4834928,59
4835556,57
4836184,56
4836812,31
4837444,20
4838064,20
4838696,15
4839320,18
4839944,45
4840572,47
4841192,49
4841820,48
4842444,47
4843068,21
4843700,26
4844320,25
4844948,16
4845580,36
4846200,62
4846828,69
4847456,59
4848084,31
4848716,50
4849336,64
4849968,72
4850592,81
4851216,84
4851844,79
4852464,80
4853096,78
4853720,54
4854344,34
4854976,14
4855596,38
4856228,23
4856856,40
4857476,52
4858108,55
4858732,53
4859364,35
4859992,24
4860616,14
4861248,14
4861872,24
4862496,41
4863128,52
4863748,42
4864380,35
4865000,48
4865624,71
4866256,60
4866872,52
4867504,42
4868132,16
4868752,39
4869384,81
4870008,70
4870636,40
4871268,18
4871888,34
4872520,42
4873144,37
4873768,54
4874400,52
4875016,53
4875648,51
4876272,15
4876896,12
4877524,11
4878148,13
4878780,46
4879412,72
4880032,81
4880660,71
4881284,41
4881916,46
4882544,61
4883168,66
4883800,57
4884424,49
4885048,66
4885676,82
4886296,71
4886928,27
4887552,10
4888176,12
4888808,22
4889432,22
4890060,44
4890692,50
4891312,51
4891944,53
4892568,27
4893192,12
4893824,11
4894440,11
4895072,11
4895696,24
4896320,44
4896948,54
4897568,63
4898200,50
4898828,48
4899448,53
4900080,59
4900704,55
4901336,64
4901964,84
4902584,87
4903216,62
4903840,24
4904464,11
4905096,28
4905712,32
4906344,17
4906968,40
4907592,49
4908224,53
4908840,50
4909472,20
4910104,21
4910724,20
4911352,16
4911980,33
4912612,43
4913244,58
4913864,55
4914496,47
4915124,45
4915752,55
4916380,68
4917000,76
4917628,75
4918252,69
4918876,73
4919508,74
4920132,48
4920760,33
4921388,22
4922008,13
4922636,15
4923260,45
4923888,47
4924520,50
4925140,50
4925768,45
4926392,33
4927016,29
4927644,32
4928264,34
4928892,61
4929516,72
4930140,63
4930768,49
4931392,29
4932020,63
4932652,72
4933272,76
4933900,76
4934528,67
4935156,53
4935788,42
4936408,47
4937036,15
4937660,11
4938284,16
4938912,37
4939536,32
4940164,43
4940788,51
4941416,53
4942044,53
4942668,18
4943300,12
4943928,22
4944552,25
4945180,12
4945808,39
4946436,51
4947068,35
4947688,32
4948316,45
4948944,63
4949568,78
4950196,66
4950816,37
4951448,11
4952076,23
4952696,52
4953328,38
4953952,20
4954580,15
4955212,63
4955832,63
4956464,45
4957088,47
4957712,51
4958344,50
4958960,51
4959592,21
4960216,23
4960840,24
4961468,20
4962088,34
4962716,40
4963348,62
4963968,64
4964596,42
4965224,50
4965852,64
4966484,63
4967104,54
4967732,36
4968356,55
4968980,73
4969608,68
4970232,37
4970860,23
4971484,12
4972112,19
4972740,17
4973360,45
4973988,49
4974620,50
4975240,53
4975872,25
4976496,12
4977124,11
4977756,20
4978376,38
4979008,63
4979632,85
4980256,77
4980884,59
4981504,46
4982136,58
4982760,73
4983384,67
4984016,68
4984632,67
4985264,77
4985892,78
4986512,55
4987144,23
4987768,11
4988400,28
4989028,32
4989648,32
4990280,48
4990904,51
4991528,50
4992160,52
4992776,23
4993404,24
4994028,30
4994652,30
4995284,33
4995908,36
4996540,59
4997168,66
4997792,47
4998420,44
4999044,58
4999676,65
5000304,68
5000928,62
5001556,63
5002184,78
5002808,80
5003436,47
5004056,31
5004688,15
5005316,28
5005936,21
5006568,46
5007192,51
5007824,49
5008452,52
5009072,41
5009704,31
5010328,34
5010952,36
5011584,32
5012200,44
5012832,66
5013456,65
5014080,54
5014712,43
5015328,56
5015960,70
5016592,68
5017216,61
5017848,55
5018472,71
5019104,85
5019732,72
5020352,48
5020980,27
5021608,18
5022228,35
5022860,18
5023480,41
5024112,53
5024736,57
5025360,60
5025988,38
5026608,26
5027236,12
5027868,11
5028488,11
5029116,21
5029744,48
5030376,58
5031008,58
5031628,47
5032256,56
5032880,54
5033504,54
5034136,35
5034756,31
5035384,54
5036012,64
5036636,46
5037268,33
5037892,24
5038524,15
5039156,16
5039776,42
5040408,47
5041032,50
5041664,53
5042292,50
5042912,16
5043544,23
5044168,21
5044792,25
5045420,34
5046040,51
5046672,74
5047300,75
5047920,55
5048552,45
5049176,53
5049808,56
5050436,54
5051056,61
5051688,89
5052312,96
5052936,85
5053568,43
5054188,19
5054820,13
5055444,16
5056072,20
5056700,48
5057320,54
5057952,53
5058580,50
5059200,26
5059828,12
5060456,12
5061088,15
5061716,24
5062336,57
5062968,90
5063592,121
5064268,106
5064948,49
5065568,49
5066200,55
5066832,55
5067452,56
5068084,63
5068708,73
5069336,69
5069968,38
5070584,14
5071216,11
5071840,25
5072464,22
5073096,45
5073712,51
5074344,48
5074976,53
5075596,53
5076228,41
5076852,35
5077484,25
5078116,22
5078736,29
5079368,38
5079996,49
5080620,52
5081252,32
5081872,54
5082504,73
5083128,70
5083752,69
5084384,62
5085008,59
5085640,57
5086268,47
5086888,27
5087520,21
5088144,12
5088772,18
5089404,18
5090024,43
5090656,46
5091280,53
5091904,53
5092536,26
5093152,24
5093784,24
5094416,28
5095036,31
5095668,39
5096292,57
5096924,58
5097556,50
5098176,46
5098808,56
5099432,56
5100056,55
5100688,68
5101312,87
5101944,83
5102572,72
5103196,58
5103828,42
5104456,30
5105088,15
5105720,23
5106340,41
5106972,48
5107596,52
5108228,55
5108860,54
5109480,45
5110112,39
5110740,25
5111364,16
5111996,36
5112620,33
5113252,36
5113884,66
5114504,38
5115140,54
5115764,66
5116396,63
5117028,60
5117652,60
5118284,63
5118908,73
5119536,62
5120168,25
5120788,11
5121416,38
5122040,61
5122664,40
5123292,44
5123912,49
5124540,51
5125168,47
5125792,24
5126420,16
5127040,12
5127672,13
5128300,16
5128920,25
5129548,41
5130172,40
5130796,37
5131428,45
5132048,59
5132676,62
5133300,57
5133924,51
5134552,41
5135176,53
5135808,59
5136436,50
5137056,35
5137684,22
5138308,14
5138936,17
5139568,26
5140184,41
5140816,54
5141440,53
5142060,53
5142692,26
5143312,19
5143940,13
5144568,11
5145188,16
5145820,25
5146444,41
5147072,42
5147704,34
5148320,48
5148952,57
5149576,63
5150204,69
5150836,74
5151456,84
5152084,103
5152760,109
5153428,68
5154052,43
5154676,28
5155308,11
5155940,28
5156560,60
5157188,58
5157812,49
5158440,80
5159068,140
5159740,173
5160420,161
5161096,143
5161772,93
5162396,55
5163028,45
5163648,39
5164276,30
5164900,50
5165532,74
5166160,78
5166784,70
5167412,62
5168036,65
5168660,79
5169292,84
5169912,64
5170544,37
5171168,25
5171792,15
5172420,24
5173040,45
5173668,47
5174300,50
5174920,49
5175548,53
5176176,29
5176804,33
5177432,31
5178056,21
5178684,35
5179312,57
5179936,65
5180564,64
5181184,42
5181816,51
5182440,57
5183064,65
5183692,62
5184312,58
5184940,66
5185572,71
5186192,65
5186820,36
5187444,22
5188076,11
5188704,22
5189328,17
5189956,45
5190584,51
5191208,52
5191836,51
5192456,25
5193084,25
5193708,18
5194336,12
5194964,12
5195588,19
5196220,48
5196852,76
5197472,97
5198104,56
5198728,56
5199356,62
5199988,56
5200608,65
5201240,86
5201864,107
5202540,104
5203216,68
5203840,50
5204468,43
5205100,10
5205720,33
5206352,50
5206976,57
5207600,60
5208228,50
5208848,49
5209476,33
5210104,32
5210728,27
5211356,23
5211980,30
5212612,42
5213244,52
5213864,66
5214496,36
5215120,53
5215748,69
5216380,62
5217000,57
5217628,48
5218252,50
5218880,59
5219508,50
5220128,23
5220756,14
5221388,21
5222008,33
5222640,17
5223260,43
5223892,50
5224520,50
5225144,49
5225772,25
5226396,27
5227020,21
5227652,20
5228272,31
5228900,44
5229524,57
5230152,53
5230780,42
5231400,47
5232032,63
5232660,66
5233280,65
5233908,51
5234536,49
5235164,61
5235796,60
5236416,45
5237048,28
5237672,20
5238296,16
5238928,23
5239544,36
5240176,42
5240800,48
5241424,51
5242056,51
5242676,41
5243304,41
5243936,26
5244552,18
5245180,36
5245804,44
5246436,50
5247064,52
5247680,33
5248312,46
5248932,59
5249556,66
5250184,87
5250808,87
5251436,77
5252060,85
5252680,61
5253312,15
5253928,11
5254556,13
5255184,30
5255808,30
5256436,43
5257060,48
5257688,47
5258316,53
5258936,37
5259564,42
5260188,34
5260812,30
5261440,29
5262056,47
5262684,64
5263308,63
5263932,52
5264564,46
5265184,63
5265812,68
5266440,58
5267064,57
5267692,46
5268316,60
5268948,67
5269576,59
5270192,43
5270824,37
5271448,12
5272072,11
5272700,33
5273320,55
5273952,51
5274572,53
5275196,52
5275828,26
5276448,25
5277076,22
5277708,30
5278328,57
5278960,74
5279584,80
5280212,67
5280840,58
5281464,48
5282092,57
5282716,54
5283340,52
5283968,26
5284584,14
5285212,36
5285836,68
5286460,48
5287088,28
5287704,27
5288332,20
5288956,19
5289584,56
5290212,50
5290836,52
5291468,55
5292096,55
5292720,29
5293348,22
5293972,22
5294600,25
5295228,46
5295848,62
5296476,67
5297100,67
5297724,45
5298356,50
5298976,66
5299604,76
5300236,82
5300856,88
5301484,90
5302108,89
5302740,85
5303368,29
5303984,11
5304616,13
5305240,27
5305864,21
5306492,44
5307112,51
5307744,56
5308368,57
5308992,36
5309620,31
5310240,28
5310868,23
5311500,26
5312120,27
5312748,35
5313372,33
5314004,47
5314632,46
5315252,55
5315880,56
5316504,61
5317128,59
5317756,56
5318376,66
5319008,73
5319632,63
5320256,35
5320884,23
5321504,15
5322136,11
5322764,22
5323384,43
5324016,50
5324640,65
5325268,66
5325900,58
5326520,48
5327148,20
5327772,19
5328396,11
5329024,17
5329640,36
5330272,56
5330892,48
5331516,43
5332148,62
5332768,66
5333396,61
5334028,62
5334648,59
5335276,61
5335900,61
5336532,35
5337160,26
5337784,15
5338412,24
5339036,23
5339660,47
5340292,50
5340912,51
5341540,54
5342164,46
5342788,32
5343420,21
5344040,17
5344668,25
5345296,52
5345920,45
5346548,35
5347172,41
5347800,37
5348432,59
5349048,67
5349680,67
5350304,65
5350928,44
5351556,55
5352176,66
5352804,57
5353428,35
5354052,23
5354684,16
5355304,30
5355936,17
5356564,44
5357184,48
5357812,49
5358440,51
5359068,21
5359700,12
5360320,25
5360948,16
5361572,30
5362196,62
5362828,81
5363448,87
5364076,81
5364700,50
5365324,50
5365956,58
5366576,65
5367204,57
5367836,53
5368456,66
5369084,72
5369708,53
5370340,31
5370968,17
5371592,12
5372220,14
5372844,44
5373468,48
5374100,48
5374720,52
5375348,48
5375976,17
5376600,16
5377232,29
5377848,31
5378476,47
5379104,71
5379728,71
5380356,60
5380980,35
5381612,52
5382240,72
5382856,83
5383488,84
5384112,85
5384736,88
5385364,82
5385984,61
5386612,29
5387236,27
5387860,12
5388492,18
5389112,24
5389740,54
5390372,75
5390992,78
5391624,59
5392248,32
5392876,31
5393508,40
5394128,45
5394756,30
5395384,27
5396004,34
5396636,28
5397256,24
5397884,51
5398512,63
5399136,57
5399764,53
5400388,50
5401020,78
5401648,104
5402324,92
5402948,66
5403572,39
5404196,26
5404828,10
5405448,17
5406076,38
5406704,45
5407328,63
5407956,68
5408584,64
5409212,56
5409840,35
5410464,20
5411092,13
5411716,34
5412348,42
5412976,48
5413600,51
5414228,31
5414856,50
5415476,78
5416108,84
5416728,63
5417356,51
5417984,58
5418608,76
5419240,60
5419860,16
5420492,10
5421120,14
5421744,26
5422376,18
5423000,43
5423624,50
5424256,49
5424872,51
5425500,26
5426128,24
5426752,26
5427384,25
5428000,22
5428628,32
5429256,48
5429880,48
5430508,57
5431132,47
5431764,62
5432392,60
5433016,62
5433644,59
5434268,55
5434892,64
5435524,66
5436144,54
5436776,26
5437400,13
5438024,31
5438656,30
5439272,28
5439904,49
5440536,48
5441152,52
5441780,53
5442404,33
5443032,31
5443664,29
5444280,17
5444912,31
5445536,44
5446160,61
5446788,58
5447408,44
5448036,45
5448660,54
5449284,64
5449912,75
5450532,72
5451160,69
5451788,74
5452408,73
5453036,46
5453660,26
5454288,13
5454920,25
5455536,27
5456164,45
5456788,48
5457412,49
5458044,51
5458664,46
5459292,16
5459916,13
5460540,13
5461168,14
5461792,47
5462420,67
5463052,62
5463672,53
5464304,33
5464928,57
5465556,64
5466188,64
5466808,63
5467436,45
5468064,39
5468688,38
5469316,41
5469936,21
5470564,18
5471192,14
5471816,25
5472448,15
5473064,46
5473692,49
5474324,52
5474944,54
5475576,30
5476200,28
5476828,27
5477460,23
5478080,26
5478712,33
5479336,41
5479960,40
5480588,45
5481208,48
5481836,67
5482460,68
5483084,66
5483716,55
5484336,63
5484964,73
5485596,55
5486216,40
5486844,20
5487472,12
5488100,29
5488732,30
5489352,39
5489980,47
5490604,52
5491228,50
5491860,49
5492480,44
5493108,48
5493732,44
5494360,21
5494988,23
5495608,40
5496240,60
5496868,67
5497488,56
5498120,42
5498744,57
5499372,62
5500004,64
5500624,75
5501256,64
5501880,59
5502504,55
5503136,30
5503756,28
5504388,20
5505008,19
5505632,18
5506264,41
5506888,47
5507516,48
5508148,50
5508768,27
5509400,25
5510024,22
5510652,15
5511284,19
5511904,35
5512536,49
5513160,47
5513784,47
5514412,46
5515032,49
5515664,51
5516292,50
5516912,55
5517540,57
5518168,73
5518800,64
5519428,43
5520048,21
5520676,16
5521300,20
5521928,25
5522556,21
5523176,43
5523808,51
5524432,50
5525056,51
5525688,23
5526304,20
5526936,17
5527568,17
5528184,30
5528816,40
5529440,54
5530072,69
5530700,66
5531320,45
5531948,56
5532572,64
5533196,66
5533828,72
5534448,71
5535076,76
5535704,72
5536328,35
5536956,14
5537576,12
5538204,24
5538836,20
5539456,46
5540084,48
5540708,50
5541340,49
5541972,39
5542592,19
5543220,16
5543844,14
5544468,15
5545100,33
5545720,59
5546348,69
5546976,64
5547600,47
5548228,52
5548848,64
5549476,59
5550108,58
5550728,50
5551356,59
5551984,70
5552616,65
5553248,43
5553864,29
5554496,26
5555120,31
5555744,20
5556376,50
5556996,47
5557624,50
5558252,53
5558876,33
5559508,33
5560132,31
5560764,25
5561392,17
5562016,32
5562648,51
5563272,60
5563900,60
5564532,45
5565152,59
5565784,64
5566408,67
5567032,65
5567664,64
5568284,64
5568912,64
5569544,37
5570164,17
5570796,10
5571420,27
5572048,35
5572676,40
5573296,48
5573924,49
5574552,51
5575176,56
5575804,35
5576424,23
5577052,17
5577676,19
5578304,33
5578932,42
5579552,43
5580184,44
5580812,30
5581432,53
5582060,64
5582684,66
5583316,56
5583948,50
5584568,63
5585196,73
5585824,63
5586448,32
5587076,16
5587696,14
5588324,17
5588952,18
5589576,47
5590208,47
5590824,48
5591456,52
5592088,33
5592708,28
5593336,26
5593960,35
5594588,43
5595220,56
5595840,64
5596472,48
5597096,32
5597720,50
5598352,75
5598972,70
5599600,57
5600228,54
5600852,50
5601480,67
5602100,73
5602728,57
5603356,34
5603976,13
5604604,32
5605228,40
5605860,31
5606492,46
5607112,50
5607740,52
5608368,51
5608988,35
5609620,37
5610240,42
5610868,41
5611492,41
5612120,39
5612748,47
5613368,48
5613996,32
5614628,44
5615248,65
5615880,69
5616504,73
5617132,78
5617764,76
5618384,73
5619016,59
5619640,31
5620264,26
5620892,13
5621512,23
5622144,20
5622768,47
5623392,49
5624024,51
5624648,51
5625276,39
5625908,38
5626528,38
5627160,39
5627784,32
5628416,45
5629044,52
5629664,35
5630296,26
5630920,40
5631544,59
5632176,61
5632792,58
5633420,54
5634044,66
5634672,75
5635300,67
5635924,53
5636552,23
5637184,12
5637800,44
5638428,51
5639052,18
5639684,42
5640312,49
5640928,51
5641560,49
5642184,32
5642808,32
5643436,23
5644056,14
5644684,12
5645308,14
5645936,41
5646564,58
5647188,61
5647820,45
5648452,60
5649072,63
5649700,61
5650328,53
5650952,58
5651580,72
5652200,68
5652832,43
5653452,31
5654076,13
5654708,32
5655328,31
5655956,42
5656588,46
5657208,54
5657836,54
5658460,51
5659092,21
5659720,20
5660340,17
5660968,16
5661592,33
5662216,43
5662844,50
5663464,58
5664092,41
5664716,50
5665340,65
5665972,64
5666592,67
5667220,69
5667852,75
5668472,76
5669104,65
5669728,33
5670356,25
5670988,12
5671608,15
5672240,16
5672864,42
5673488,57
5674116,55
5674736,53
5675368,25
5675992,17
5676616,20
5677248,29
5677864,33
5678496,21
5679124,34
5679744,43
5680376,42
5681000,45
5681628,57
5682260,58
5682880,61
5683512,63
5684136,69
5684756,77
5685388,62
5686008,37
5686636,10
5687260,20
5687888,23
5688516,10
5689136,35
5689768,45
5690396,49
5691016,53
5691648,53
5692272,25
5692900,25
5693532,34
5694152,44
5694784,65
5695408,61
5696032,54
5696660,48
5697280,43
5697908,42
5698532,61
5699156,66
5699788,61
5700408,55
5701036,55
5701668,66
5702288,66
5702920,33
5703544,18
5704176,10
5704804,38
5705424,24
5706056,49
5706680,54
5707304,50
5707936,49
5708552,33
5709184,15
5709812,13
5710436,17
5711064,23
5711692,38
5712324,58
5712952,56
5713572,58
5714204,47
5714828,56
5715460,69
5716092,66
5716712,60
5717344,59
5717968,63
5718592,57
5719224,43
5719840,29
5720472,32
5721104,12
5721724,18
5722352,19
5722976,47
5723608,49
5724236,52
5724856,50
5725488,19
5726112,21
5726736,21
5727368,21
5727984,31
5728620,68
5729244,97
5729868,84
5730500,64
5731120,44
5731752,59
5732384,61
5733004,59
5733636,51
5734260,57
5734896,73
5735524,74
5736144,49
5736772,29
5737396,17
5738020,27
5738652,26
5739272,49
5739900,51
5740528,53
5741152,56
5741780,49
5742404,25
5743032,27
5743664,22
5744284,19
5744912,33
5745536,44
5746168,49
5746796,56
5747416,41
5748044,52
5748668,61
5749292,68
5749924,67
5750544,64
5751176,72
5751800,72
5752424,60
5753052,34
5753680,21
5754308,17
5754940,24
5755560,17
5756188,44
5756816,50
5757444,47
5758076,50
5758696,38
5759328,45
5759952,33
5760580,43
5761208,62
5761824,56
5762456,37
5763084,30
5763704,27
5764332,48
5764956,62
5765588,59
5766216,62
5766836,63
5767464,65
5768088,69
5768712,54
5769340,42
5769960,27
5770588,15
5771212,28
5771836,29
5772468,40
5773088,46
5773716,47
5774348,51
5774968,50
5775600,42
5776220,43
5776852,35
5777480,28
5778096,39
5778728,41
5779352,54
5779976,61
5780604,44
5781224,46
5781852,67
5782476,69
5783100,64
5783732,55
5784352,63
5784980,74
5785612,72
5786232,41
5786860,25
5787484,12
5788112,26
5788744,24
5789364,43
5789992,47
5790616,51
5791240,54
5791868,33
5792488,27
5793116,18
5793740,13
5794364,11
5794996,27
5795616,48
5796248,51
5796876,56
5797496,47
5798124,52
5798752,66
5799380,69
5800012,63
5800632,57
5801260,59
5801884,56
5802508,42
5803140,12
5803760,11
5804388,11
5805016,17
5805640,33
5806268,44
5806888,48
5807516,51
5808148,51
5808768,39
5809396,38
5810024,26
5810652,22
5811284,40
5811904,68
5812536,96
5813160,77
5813784,34
5814412,48
5815032,61
5815664,55
5816288,55
5816912,58
5817540,79
5818160,79
5818788,72
5819420,50
5820040,35
5820672,21
5821296,19
5821924,19
5822556,46
5823176,51
5823808,49
5824432,60
5825056,57
5825684,32
5826304,29
5826936,25
5827560,21
5828184,29
5828812,38
5829432,48
5830064,59
5830692,49
5831312,52
5831944,67
5832568,65
5833200,58
5833828,55
5834448,63
5835080,68
5835704,60
5836328,33
5836960,19
5837576,15
5838204,22
5838828,17
5839456,43
5840084,50
5840708,50
5841336,49
5841968,22
5842584,25
5843216,22
5843840,23
5844468,33
5845100,42
5845720,56
5846352,59
5846976,62
5847600,48
5848228,57
5848848,62
5849476,63
5850104,59
5850728,58
5851356,58
5851984,54
5852616,43
5853244,26
5853864,19
5854496,23
5855120,19
5855752,47
5856384,51
5857000,47
5857632,49
5858256,52
5858880,28
5859508,22
5860128,16
5860756,13
5861388,38
5862008,55
5862640,68
5863264,65
5863892,44
5864524,54
5865144,64
5865776,75
5866400,65
5867024,61
5867652,45
5868272,33
5868904,33
5869528,27
5870152,24
5870780,11
5871400,28
5872032,19
5872660,41
5873280,50
5873912,49
5874536,47
5875168,32
5875800,31
5876420,36
5877052,34
5877676,39
5878300,51
5878932,59
5879552,55
5880184,62
5880808,50
5881432,58
5882064,75
5882684,85
5883312,72
5883944,57
5884564,65
5885196,71
5885824,60
5886452,36
5887084,19
5887704,21
5888336,24
5888960,30
5889584,47
5890216,50
5890832,51
5891464,49
5892088,24
5892712,33
5893344,43
5893968,33
5894600,36
5895228,36
5895848,54
5896480,60
5897104,40
5897736,47
5898364,57
5898984,59
5899612,60
5900236,60
5900860,59
5901492,76
5902112,79
5902740,47
5903372,34
5903992,24
5904624,15
5905248,18
5905876,45
5906508,48
5907128,51
5907760,54
5908384,51
5909008,41
5909636,16
5910256,11
5910888,12
5911512,36
5912136,59
5912768,63
5913384,60
5914016,46
5914644,54
5915264,66
5915896,61
5916520,55
5917152,51
5917780,61
5918400,74
5919032,65
5919656,37
5920280,20
5920908,10
5921528,11
5922156,18
5922780,40
5923404,51
5924036,54
5924656,53
5925284,24
5925916,13
5926536,11
5927164,13
5927792,13
5928420,29
5929052,54
5929672,64
5930300,59
5930928,45
5931552,50
5932180,51
5932800,58
5933428,53
5934056,50
5934680,66
5935312,70
5935932,44
5936560,24
5937192,14
5937816,21
5938448,15
5939072,47
5939704,48
5940332,54
5940952,52
5941580,50
5942204,25
5942828,25
5943460,16
5944080,11
5944708,33
5945332,60
5945960,66
5946588,64
5947212,39
5947844,55
5948472,70
5949092,62
5949724,59
5950348,57
5950976,67
5951608,68
5952228,55
5952856,36
5953480,26
5954104,13
5954732,23
5955352,19
5955980,40
5956608,48
5957232,48
5957864,48
5958488,29
5959116,31
5959748,22
5960368,17
5960996,18
5961620,35
5962248,59
5962876,58
5963496,50
5964128,47
5964752,63
5965376,64
5966008,57
5966624,44
5967256,47
5967888,75
5968504,82
5969136,63
5969760,44
5970388,20
5971020,24
5971640,34
5972272,37
5972896,45
5973520,48
5974152,48
5974768,53
5975400,35
5976028,31
5976652,31
5977280,15
5977904,17
5978536,24
5979164,40
5979784,46
5980416,41
5981040,43
5981672,49
5982304,50
5982920,49
5983552,35
5984176,39
5984800,54
5985428,62
5986048,43
5986676,26
5987304,13
5987928,27
5988556,17
5989176,46
5989808,49
5990436,48
5991056,52
5991684,29
5992308,19
5992940,16
5993572,12
5994192,13
5994824,37
5995448,55
5996072,70
5996704,61
5997324,46
5997952,53
5998580,57
5999204,62
5999836,69
6000460,69
6001092,73
6001724,70
6002344,51
6002976,34
6003600,29
6004228,11
6004860,16
6005480,24
6006112,45
6006736,48
6007360,51
6007992,49
6008608,36
6009240,34
6009872,25
6010488,15
6011120,29
6011744,46
6012376,64
6013008,78
6013624,57
6014256,46
6014880,62
6015504,65
6016136,59
6016752,42
6017384,51
6018008,70
6018632,64
6019264,30
6019880,11
6020508,15
6021140,20
6021760,17
6022388,55
6023016,49
6023644,48
6024276,50
6024896,45
6025524,20
6026152,21
6026776,24
6027408,25
6028024,34
6028656,47
6029280,63
6029904,78
6030536,58
6031156,50
6031788,58
6032416,62
6033040,64
6033672,59
6034296,67
6034928,70
6035556,66
6036176,41
6036808,27
6037432,17
6038056,31
6038688,16
6039308,48
6039936,48
6040564,49
6041188,50
6041820,20
6042444,23
6043076,31
6043704,48
6044328,60
6044956,57
6045584,66
6046212,57
6046844,53
6047464,47
6048096,60
6048720,68
6049344,66
6049972,54
6050592,55
6051224,68
6051852,62
6052472,40
6053104,28
6053728,14
6054360,24
6054992,33
6055612,44
6056240,48
6056868,50
6057492,51
6058124,48
6058744,22
6059376,13
6060000,12
6060624,16
6061256,32
6061876,83
6062508,104
6063188,91
6063808,38
6064440,64
6065064,63
6065688,65
6066320,60
6066936,61
6067568,72
6068192,78
6068816,57
6069444,20
6070064,11
6070696,22
6071328,21
6071944,14
6072576,42
6073204,50
6073832,51
6074464,50
6075084,28
6075716,30
6076340,21
6076968,17
6077596,24
6078216,34
6078848,47
6079476,46
6080100,41
6080732,44
6081356,62
6081984,63
6082616,61
6083232,54
6083864,56
6084488,65
6085116,70
6085748,48
6086368,28
6087000,15
6087624,27
6088248,30
6088876,42
6089496,52
6090128,51
6090756,49
6091376,50
6092008,19
6092632,18
6093264,17
6093892,19
6094512,44
6095144,73
6095768,86
6096392,73
6097024,45
6097640,46
6098272,63
6098896,67
6099520,65
6100152,65
6100768,66
6101400,70
6102032,62
6102652,29
6103284,20
6103908,12
6104540,34
6105172,22
6105792,41
6106424,48
6107048,50
6107672,51
6108304,31
6108924,33
6109552,30
6110176,21
6110800,23
6111432,27
6112052,49
6112684,61
6113312,52
6113936,46
6114568,57
6115192,62
6115824,63
6116456,65
6117076,71
6117708,67
6118332,71
6118960,48
6119592,19
6120212,10
6120840,24
6121468,21
6122092,30
6122724,50
6123348,49
6123980,47
6124612,51
6125232,49
6125864,59
6126488,32
6127112,12
6127744,21
6128364,41
6128996,65
6129620,74
6130244,55
6130876,48
6131496,66
6132128,73
6132760,69
6133384,75
6134020,76
6134644,77
6135276,66
6135908,18
6136532,24
6137160,23
6137788,29
6138412,18
6139044,45
6139664,50
6140296,53
6140924,52
6141552,34
6142188,26
6142812,21
6143444,17
6144080,22
6144696,39
6145324,46
6145948,39
6146568,35
6147200,46
6147816,65
6148444,72
6149068,65
6149692,55
6150324,44
6150944,57
6151572,57
6152204,41
6152824,28
6153452,20
6154076,14
6154708,23
6155340,19
6155960,49
6156592,49
6157216,55
6157840,56
6158468,48
6159088,41
6159720,16
6160344,11
6160964,20
6161596,34
6162216,52
6162844,54
6163476,34
6164096,47
6164724,60
6165348,58
6165980,62
6166612,54
6167232,62
6167860,77
6168488,67
6169112,25
6169740,14
6170360,13
6170988,21
6171612,24
6172236,47
6172868,47
6173488,52
6174116,53
6174748,50
6175368,29
6175996,19
6176624,18
6177252,20
6177884,38
6178504,56
6179136,56
6179760,52
6180384,35
6181016,58
6181632,68
6182264,69
6182888,66
6183512,43
6184144,36
6184760,39
6185392,35
6186024,19
6186640,33
6187272,25
6187896,12
6188524,16
6189156,43
6189776,48
6190408,52
6191032,50
6191656,28
6192288,20
6192904,14
6193536,25
6194160,31
6194784,28
6195416,40
6196040,48
6196668,53
6197300,48
6197920,51
6198552,58
6199176,65
6199808,64
6200436,62
6201056,65
6201688,61
6202312,42
6202936,25
6203564,16
6204184,19
6204816,23
6205440,40
6206064,50
6206696,51
6207320,48
6207952,51
6208584,17
6209200,12
6209832,15
6210456,25
6211080,50
6211712,50
6212328,57
6212960,65
6213584,51
6214208,47
6214840,62
6215460,66
6216092,59
6216720,49
6217344,61
6217976,70
6218600,63
6219232,27
6219860,10
6220480,17
6221112,40
6221736,22
6222360,47
6222992,49
6223612,49
6224240,48
6224868,25
6225492,22
6226124,20
6226744,22
6227372,24
6228004,42
6228624,61
6229256,58
6229880,53
6230508,47
6231140,62
6231760,67
6232392,59
6233016,62
6233640,60
6234268,69
6234888,68
6235516,52
6236144,28
6236768,22
6237400,17
6238024,16
6238656,32
6239288,44
6239904,50
6240536,52
6241160,51
6241792,21
6242420,25
6243040,25
6243672,17
6244296,23
6244920,25
6245552,58
6246168,63
6246800,49
6247428,43
6248048,62
6248676,60
6249300,57
6249932,34
6250560,40
6251180,48
6251808,50
6252432,37
6253064,29
6253692,11
6254312,28
6254944,23
6255568,46
6256192,48
6256820,51
6257440,53
6258068,39
6258700,26
6259320,25
6259948,21
6260576,18
6261204,32
6261836,44
6262456,47
