tempo_arduino_micro_s,valor_ADC
500,67
1004,70
1500,84
2000,89
2500,84
3000,75
3508,59
4000,38
4508,14
5000,47
5500,70
6000,88
6500,109
7004,104
7524,80
8004,53
8500,35
9000,45
9500,41
10000,24
10508,24
11028,88
11556,110
12128,26
12656,81
13180,116
13760,103
14328,88
14852,73
15380,58
15900,46
16428,75
16948,148
17528,113
18096,18
18624,63
19140,76
19668,80
20188,83
20716,29
21236,59
21764,89
22284,44
22812,84
23332,99
23860,126
24436,135
25016,33
25532,68
26052,128
26632,127
27200,133
27776,139
28344,168
28928,139
29496,55
30024,40
30548,54
31076,53
31596,46
32124,47
32644,38
33172,20
33692,18
34212,11
34732,20
35252,39
35772,36
36292,34
36812,25
37332,30
37852,37
38372,72
38896,93
39412,82
39932,57
40464,47
40988,39
41508,34
42036,45
42556,65
43084,54
43604,54
44132,127
44708,96
45236,59
45756,32
46284,15
46804,46
47332,49
47852,48
48380,45
48900,44
49428,24
49948,29
50476,34
51000,15
51524,10
52044,11
52572,36
53092,58
53620,48
54140,42
54668,33
55188,44
55708,50
56228,67
56748,89
57268,104
57844,116
58424,109
58992,87
59524,80
60044,87
60572,77
61096,34
61620,56
62140,107
62720,63
63236,29
63764,42
64284,47
64812,45
65332,47
65860,44
66380,23
66908,43
67428,55
67956,58
68476,64
69004,88
69524,64
70044,57
70564,41
71084,22
71604,32
72128,70
72644,75
73164,74
73684,57
74204,49
74724,36
75244,36
75764,33
76288,41
76812,40
77332,24
77860,11
78380,49
78908,75
79432,71
79956,42
80480,43
81004,46
81524,46
82052,47
82572,43
83100,18
83620,44
84148,57
84668,47
85196,13
85716,58
86244,66
86764,69
87292,55
87812,39
88340,42
88860,64
89388,73
89912,67
90436,74
90956,61
91484,43
92004,25
92532,28
93052,51
93580,58
94104,62
94620,53
95144,17
95664,31
96184,41
96700,38
97220,46
97740,52
98260,60
98780,69
99300,68
99820,47
100344,20
100904,24
101488,31
102056,80
102640,133
103260,174
103888,154
104516,182
105132,152
105760,67
106328,45
106904,108
107532,185
108148,180
108776,147
109392,154
110020,171
110648,121
111264,49
111840,31
112408,83
112992,125
113612,123
114236,75
114812,72
115380,93
115960,77
116528,32
117112,19
117684,29
118256,24
118840,13
119408,23
119992,52
120564,83
121144,74
121716,44
122296,57
122864,63
123444,59
124024,69
124592,86
125176,87
125744,96
126328,109
126948,81
127520,35
128096,22
128664,15
129240,17
129808,16
130384,38
130952,46
131536,46
132112,47
132680,32
133264,27
133832,43
134416,43
134984,35
135560,77
136132,148
136756,183
137384,116
138004,19
138580,82
139152,131
139784,146
140412,147
141032,129
141656,99
142228,72
142804,16
143384,114
144004,201
144632,157
145248,51
145824,25
146392,62
146972,69
147552,69
148120,63
148704,59
149272,46
149856,35
150428,34
151000,34
151584,32
152156,12
152736,50
153308,82
153888,77
154456,43
155040,44
155608,61
156184,76
156768,56
157340,62
157920,138
158544,122
159172,17
159740,65
160320,60
160896,59
161464,66
162048,46
162616,67
163200,93
163768,92
164348,75
164928,61
165496,51
166072,62
166640,166
167276,99
167844,22
168416,30
168992,58
169560,66
170136,46
170704,16
171288,31
171856,44
172440,49
173008,52
173584,74
174168,55
174736,19
175320,47
175888,50
176472,14
177040,25
177616,13
178200,19
178768,29
179352,85
179920,67
180504,48
181072,47
181656,50
182224,59
182800,64
183384,26
183952,27
184536,49
185104,32
185688,12
186256,13
186832,20
187408,39
187976,35
188560,45
189128,72
189712,83
190284,71
190864,67
191436,46
192012,54
192592,44
193160,26
193736,67
194304,26
194888,14
195456,20
196032,44
196600,40
197176,45
197760,50
198328,51
198912,49
199484,18
200064,11
200632,53
201212,81
201792,73
202364,35
202944,15
203516,14
204096,14
204676,16
205256,48
205832,52
206400,58
206984,57
207552,50
208128,37
208696,34
209272,17
209840,19
210416,29
211000,32
211568,11
212152,18
212720,20
213304,36
213872,40
214456,47
215024,48
215604,48
216184,26
216752,51
217336,57
217908,43
218488,13
219056,15
219632,28
220216,23
220784,13
221368,29
221936,78
222520,81
223092,60
223672,61
224244,87
224816,122
225452,135
226068,104
226696,55
227264,33
227840,87
228424,78
228992,53
229576,78
230148,94
230728,53
231296,48
231880,59
232456,75
233024,73
233608,73
234176,48
234760,36
235332,66
235912,43
236492,88
237068,196
237700,196
238320,150
238948,71
239516,48
240092,81
240672,73
241240,50
241824,53
242396,131
243028,179
243652,175
244272,88
244852,85
245420,113
246052,24
246624,37
247200,52
247768,78
248344,49
248928,56
249496,59
250080,50
250648,35
251232,83
251800,59
252380,62
252960,59
253528,49
254112,41
254684,38
255264,41
255844,46
256424,49
257000,47
257568,43
258144,49
258712,92
259296,151
259916,162
260544,102
261172,50
261736,16
262320,15
262888,19
263472,40
264044,47
264624,53
265192,55
265772,54
266352,35
266920,11
267504,42
268076,55
268656,35
269228,16
269800,14
270384,13
270956,21
271536,32
272108,42
272688,66
273256,101
273892,58
274468,20
275040,32
275616,38
276188,34
276768,25
277336,64
277920,48
278492,57
279064,61
279648,43
280220,43
280800,53
281368,61
281952,68
282520,69
283096,40
283680,28
284248,26
284832,32
285400,12
285984,19
286556,46
287136,53
287708,45
288284,40
288864,55
289432,61
290016,64
290584,60
291168,51
291740,66
292316,93
292896,64
293464,13
294048,11
294620,32
295200,37
295768,35
296352,28
296924,43
297500,55
298080,69
298648,92
299232,52
299804,42
300384,29
300956,27
301532,93
302112,173
302736,201
303364,201
303988,176
304616,107
305244,47
305812,112
306444,171
307068,189
307700,167
308324,95
308888,40
309472,10
310044,22
310624,92
311196,126
311824,92
312400,46
312968,16
313552,49
314124,63
314704,61
315276,53
315856,48
316432,11
317004,14
317584,14
318156,23
318736,42
319316,44
319896,39
320476,26
321048,18
321632,48
322200,83
322784,67
323356,62
323936,53
324508,28
325080,20
325664,51
326236,43
326816,18
327384,57
327968,95
328536,82
329120,57
329688,59
330264,90
330840,75
331412,46
331992,73
332564,82
333144,91
333712,147
334340,133
334968,56
335536,30
336120,24
336688,25
337264,17
337832,14
338412,64
338992,93
339560,89
340144,83
340712,71
341296,41
341864,22
342448,23
343016,42
343596,29
344176,27
344744,69
345328,59
345900,13
346480,49
347048,58
347628,51
348208,48
348776,47
349360,29
349932,24
350512,44
351084,120
351716,115
352344,62
352912,18
353496,17
354064,14
354648,13
355216,47
355792,69
356376,77
356948,90
357528,67
358100,17
358680,25
359248,18
359832,70
360404,82
360976,88
361560,61
362132,15
362712,11
363284,55
363864,69
364436,59
365012,57
365592,49
366164,147
366796,222
367416,118
368044,27
368612,15
369188,26
369768,45
370336,51
370920,50
371492,30
372072,64
372644,98
373216,113
373852,74
374420,59
375000,67
375572,111
376204,147
376828,119
377456,93
378032,73
378604,29
379184,41
379756,42
380336,61
380908,152
381536,215
382164,200
382784,130
383412,48
383984,32
384556,36
385136,34
385704,42
386288,23
386856,21
387440,35
388012,64
388584,102
389220,107
389836,67
390412,49
390984,29
391568,23
392140,69
392716,90
393296,64
393868,13
394448,13
395020,14
395600,15
396180,21
396756,62
397336,70
397908,56
398488,49
399060,45
399640,40
400220,31
400800,23
401368,17
401944,15
402528,14
403100,26
403680,30
404260,26
404840,23
405408,96
405988,118
406620,122
407240,118
407868,127
408488,99
409060,99
409640,109
410260,70
410836,29
411408,95
411992,170
412612,178
413236,89
413812,48
414380,46
414960,48
415528,46
416112,17
416680,11
417248,11
417824,11
418392,19
418976,27
419544,16
420128,25
420696,43
421280,79
421848,104
422476,92
423052,48
423624,107
424252,166
424872,122
425496,93
426072,82
426640,24
427224,45
427792,57
428376,23
428948,13
429520,37
430104,86
430672,95
431256,83
431828,72
432408,73
432984,34
433568,25
434140,17
434716,20
435296,56
435864,83
436448,105
437068,97
437648,85
438216,60
438796,57
439376,88
439948,79
440528,56
441104,42
441688,37
442256,35
442832,18
443416,10
443988,10
444568,11
445140,22
445720,31
446292,21
446872,39
447444,44
448020,46
448600,48
449168,48
449752,24
450324,25
450904,12
451472,37
452048,23
452632,11
453204,18
453784,42
454352,59
454936,72
455516,78
456096,62
456672,50
457252,59
457832,29
458404,14
458984,12
459556,28
460136,21
460708,61
461284,166
461916,126
462536,47
463112,57
463684,131
464316,152
464944,145
465560,123
466188,83
466760,63
467336,20
467908,13
468484,50
469064,57
469636,18
470216,101
470840,235
471468,317
472100,176
472720,78
473296,51
473868,48
474448,47
475020,74
475600,104
476236,106
476856,52
477432,28
478004,34
478584,22
479164,14
479740,23
480320,42
480892,44
481472,47
482040,50
482624,36
483192,38
483776,22
484360,11
484932,15
485512,26
486084,12
486664,19
487232,42
487816,33
488388,42
488964,62
489544,103
490168,137
490796,156
491420,209
492044,231
492672,172
493288,77
493864,13
494436,18
495016,40
495588,107
496216,158
496844,144
497460,89
498040,75
498612,69
499188,74
499768,161
500392,165
501020,85
501592,43
502168,34
502748,13
503324,14
503904,12
504476,18
505056,62
505628,69
506208,56
506780,67
507356,48
507936,38
508508,100
509140,185
509760,219
510388,164
511016,97
511588,47
512172,27
512740,84
513320,81
513888,104
514524,108
515152,56
515716,52
516296,42
516864,48
517448,44
518016,30
518600,12
519176,11
519748,32
520328,49
520896,93
521480,105
522104,55
522680,54
523248,51
523824,59
524408,62
524980,34
525560,39
526128,86
526712,109
527336,80
527904,62
528488,24
529060,11
529640,32
530212,94
530792,101
531416,89
531984,55
532568,94
533140,52
533720,31
534292,14
534872,9
535392,17
535968,14
536540,21
537116,46
537696,75
538268,53
538848,49
539420,58
540000,61
540568,54
541148,41
541728,35
542300,50
542880,59
543452,50
544032,37
544600,30
545184,11
545756,25
546332,37
546912,47
547484,47
548064,47
548632,48
549216,41
549788,38
550364,46
550944,36
551520,14
552096,24
552668,49
553248,59
553820,59
554400,25
554968,58
555548,90
556128,62
556700,60
557280,80
557860,100
558492,102
559120,128
559744,133
560372,126
560992,117
561620,78
562196,46
562768,20
563344,68
563916,113
564548,138
565172,73
565740,51
566320,39
566892,84
567472,171
568096,171
568724,110
569352,27
569916,14
570496,15
571068,44
571648,53
572220,93
572800,150
573432,127
574056,62
574632,103
575256,214
575884,237
576508,166
577132,70
577712,24
578280,17
578856,41
579428,38
580008,43
580576,49
581156,46
581736,48
582308,54
582888,50
583468,54
584048,47
584624,30
585204,12
585784,10
586356,29
586936,67
587508,191
588140,179
588764,59
589336,59
589912,111
590536,112
591164,135
591788,136
592412,119
593040,72
593604,20
594184,11
594756,25
595336,29
595908,33
596484,31
597064,41
597636,51
598216,48
598788,47
599368,19
599948,29
600528,35
601112,22
601684,16
602264,25
602836,32
603416,34
603996,63
604580,96
605156,72
605732,45
606312,46
606888,59
607464,69
608036,91
608616,91
609188,76
609764,72
610344,32
610916,15
611496,16
612068,17
612648,12
613228,38
613808,46
614388,51
614964,49
615544,53
616116,52
616696,80
617268,105
617900,58
618472,32
619044,26
619624,93
620196,105
620828,39
621400,20
621976,92
622548,121
623176,148
623804,129
624424,43
625000,103
625624,213
626244,247
626872,223
627492,112
628120,17
628692,17
629268,11
629848,38
630420,44
631000,50
631572,54
632156,54
632732,20
633308,43
633888,20
634460,11
635040,13
635612,67
636192,77
636772,57
637356,19
637932,41
638508,93
639088,111
639716,102
640344,72
640916,54
641488,59
642072,95
642640,93
643224,50
643792,21
644376,39
644948,42
645528,53
646100,54
646676,46
647256,46
647828,48
648408,57
648976,52
649560,14
650132,20
650708,23
651288,28
651860,24
652440,70
653012,136
653644,53
654216,19
654792,44
655376,72
655948,78
656528,87
657096,67
657680,51
658248,74
658832,116
659456,137
660076,133
660704,116
661328,111
661952,86
662524,59
663100,50
663680,38
664248,66
664832,68
665404,75
665984,151
666612,198
667236,157
667864,109
668480,117
669104,150
669736,81
670300,20
670880,43
671448,67
672032,86
672600,70
673184,48
673756,92
674332,127
674964,75
675532,18
676112,61
676680,72
677264,102
677884,118
678512,57
679088,27
679656,27
680232,52
680800,72
681384,65
681952,67
682528,42
683112,12
683684,17
684264,18
684836,11
685416,29
685988,29
686564,43
687144,77
687716,81
688296,46
688868,67
689448,88
690020,64
690600,50
691172,27
691748,23
692328,49
692900,112
693532,85
694104,28
694680,17
695252,11
695828,21
696408,21
696980,40
697560,45
698132,50
698712,55
699284,43
699856,48
700440,56
701012,45
701592,25
702164,11
702744,20
703316,107
703948,195
704580,123
705200,41
705776,92
706348,128
706980,119
707608,88
708180,63
708760,36
709332,27
709912,45
710484,17
711064,54
711636,105
712264,78
712840,24
713412,87
713992,130
714624,160
715252,106
715880,45
716452,21
717032,15
717612,30
718192,12
718764,110
719392,241
720020,236
720636,153
721268,44
721836,51
722412,56
722992,59
723564,76
724144,106
724768,105
725396,110
726024,104
726640,69
727216,16
727788,56
728368,68
728940,22
729520,39
730092,68
730668,46
731248,80
731820,159
732452,141
733076,84
733648,25
734232,11
734804,10
735384,23
735956,42
736540,63
737116,52
737696,22
738272,54
738852,88
739432,114
740056,107
740684,88
741252,70
741832,74
742416,85
742988,60
743568,39
744140,47
744720,13
745292,48
745872,54
746444,26
747020,43
747600,46
748172,66
748752,115
749376,125
750004,89
750576,44
751148,27
751728,17
752304,18
752880,78
753460,115
754092,122
754724,118
755344,132
755972,106
756596,48
757172,104
757804,136
758424,126
759052,90
759624,32
760200,17
760780,20
761356,25
761936,16
762508,23
763088,44
763668,46
764248,50
764828,48
765404,49
765984,21
766560,16
767136,15
767712,19
768292,52
768864,53
769448,37
770016,27
770596,17
771176,15
771748,56
772328,68
772908,71
773488,59
774068,60
774644,50
775224,27
775796,13
776376,22
776948,15
777528,12
778108,35
778688,122
779324,161
779944,80
780520,46
781092,51
781672,49
782244,50
782820,15
783400,16
783972,16
784552,28
785124,61
785704,81
786276,98
786856,85
787436,45
788012,15
788592,65
789164,91
789744,111
790368,136
790996,173
791628,180
792248,135
792876,59
793448,18
794032,16
794612,12
795188,11
795768,15
796344,31
796920,38
797500,49
798080,66
798660,47
799236,27
799816,24
800392,62
800968,67
801536,45
802120,47
802692,98
803272,124
803900,94
804468,53
805048,50
805620,79
806200,91
806772,95
807352,91
807924,67
808500,30
809080,20
809648,31
810232,24
810804,10
811384,13
811956,34
812532,36
813112,31
813684,44
814264,44
814836,48
815416,48
815996,20
816580,12
817160,10
817732,13
818312,43
818888,83
819464,61
820040,43
820624,35
821192,19
821768,52
822352,74
822924,99
823504,105
824124,63
824704,45
825272,53
825852,35
826432,19
827000,10
827584,11
828152,11
828736,17
829308,12
829888,45
830456,42
831036,56
831616,53
832188,58
832768,53
833336,53
833920,19
834488,55
835064,74
835648,26
836216,38
836800,29
837368,14
837952,27
838524,100
839156,141
839784,107
840400,64
840976,36
841544,13
842128,39
842700,62
843276,98
843856,88
844428,32
845008,23
845576,90
846160,103
846780,55
847352,45
847928,61
848500,79
849080,118
849704,115
850332,88
850900,28
851476,157
852108,160
852728,94
853304,64
853876,25
854456,14
855028,53
855604,62
856184,66
856756,85
857336,91
857916,99
858496,100
859128,103
859748,90
860328,26
860896,35
861480,32
862052,16
862632,19
863204,46
863780,47
864360,46
864932,60
865512,50
866084,21
866664,21
867232,47
867808,18
868392,18
868964,46
869544,69
870116,107
870748,119
871372,83
871940,40
872520,51
873092,56
873672,51
874244,34
874824,13
875396,51
875976,30
876560,21
877132,65
877712,58
878284,12
878864,29
879436,34
880016,50
880592,47
881172,47
881752,54
882324,47
882904,41
883476,89
884056,104
884676,78
885248,33
885824,13
886396,40
886976,53
887548,67
888128,69
888708,41
889288,57
889864,59
890436,55
891016,61
891588,85
892168,89
892740,67
893320,35
893900,18
894476,21
895056,11
895632,20
896212,18
896784,45
897368,45
897936,51
898516,52
899096,67
899668,79
900248,29
900820,13
901400,32
901972,20
902552,12
903120,63
903700,107
904332,92
904900,49
905480,81
906052,113
906684,93
907256,54
907828,42
908408,92
908980,105
909612,57
910184,12
910760,11
911332,10
911908,51
912488,31
913060,28
913640,40
914212,51
914792,50
915372,51
915948,81
916528,75
917100,32
917680,31
918252,44
918832,65
919412,75
919992,107
920632,50
921196,53
921780,119
922400,171
923028,174
923656,185
924272,199
924900,164
925516,59
926096,12
926668,83
927244,88
927824,25
928396,28
928976,95
929548,130
930180,149
930804,117
931428,71
932004,57
932576,26
933152,17
933724,17
934304,11
934884,19
935460,35
936040,41
936612,57
937192,35
937772,34
938352,114
938976,148
939600,118
940228,66
940796,54
941380,54
941956,67
942540,78
943120,64
943692,18
944272,45
944844,54
945424,21
945996,11
946576,40
947156,59
947732,93
948312,70
948884,51
949464,14
950036,22
950616,16
951196,25
951772,97
952356,120
952976,113
953608,53
954176,19
954752,99
955332,187
955960,228
956588,193
957208,145
957836,100
958460,50
959036,34
959620,48
960192,53
960768,96
961340,130
961972,236
962600,203
963220,65
963800,45
964372,50
964952,55
965524,54
966100,19
966680,11
967252,18
967832,20
968404,16
968984,11
969556,14
970136,21
970716,32
971292,28
971872,51
972448,79
973024,82
973604,74
974184,60
974756,47
975332,40
975912,26
976488,11
977064,28
977636,11
978216,9
978736,16
979312,40
979892,115
980520,130
981148,98
981716,68
982300,54
982876,45
983456,46
984036,139
984660,175
985292,192
985912,187
986540,92
987112,25
987684,14
988264,56
988836,91
989416,107
990040,121
990668,101
991296,59
991868,13
992448,40
993020,42
993600,25
994168,11
994752,10
995324,10
995900,10
996480,48
997052,57
997632,48
998212,51
998792,51
999372,17
999948,35
1000528,97
1001144,145
1001824,94
1002440,46
1003064,36
1003692,18
1004312,16
1004940,66
1005564,87
1006184,68
1006816,69
1007436,64
1008068,63
1008696,74
1009312,61
1009940,85
1010564,105
1011244,93
1011868,31
1012488,25
1013116,55
1013740,47
1014364,73
1014996,103
1015672,103
1016348,134
1017024,115
1017700,70
1018324,16
1018956,11
1019576,19
1020204,32
1020828,14
1021452,61
1022084,88
1022704,49
1023336,53
1023960,47
1024584,46
1025212,75
1025828,77
1026456,46
1027084,22
1027700,33
1028332,12
1028952,22
1029580,16
1030208,46
1030824,49
1031452,52
1032076,47
1032704,29
1033332,12
1033952,17
1034580,18
1035200,41
1035820,126
1036504,153
1037172,33
1037796,47
1038424,82
1039040,95
1039668,101
1040344,144
1041012,144
1041688,87
1042304,94
1042932,57
1043560,11
1044176,39
1044804,36
1045424,46
1046048,73
1046676,74
1047296,49
1047924,96
1048544,109
1049220,26
1049844,121
1050520,188
1051192,183
1051868,107
1052540,16
1053164,27
1053792,99
1054416,70
1055044,55
1055664,112
1056340,96
1056964,62
1057580,40
1058212,45
1058840,46
1059456,119
1060136,126
1060804,96
1061420,81
1062052,42
1062672,20
1063300,62
1063924,132
1064600,159
1065272,106
1065948,68
1066568,48
1067196,16
1067816,11
1068444,11
1069072,16
1069696,21
1070324,43
1070948,76
1071576,100
1072256,113
1072932,80
1073556,62
1074188,43
1074808,55
1075436,96
1076060,100
1076740,40
1077364,90
1077984,122
1078664,89
1079280,49
1079900,43
1080532,46
1081156,46
1081784,50
1082412,43
1083032,21
1083660,12
1084284,30
1084912,32
1085540,54
1086160,85
1086788,104
1087464,67
1088080,42
1088708,45
1089324,47
1089956,63
1090584,101
1091252,116
1091928,164
1092596,148
1093268,72
1093892,46
1094516,81
1095144,35
1095776,14
1096392,49
1097020,145
1097696,157
1098364,80
1098988,62
1099612,53
1100240,41
1100872,20
1101488,20
1102116,27
1102740,33
1103364,25
1103996,12
1104616,70
1105244,107
1105928,46
1106540,64
1107172,87
1107796,94
1108424,81
1109056,81
1109672,77
1110300,47
1110924,30
1111556,14
1112188,24
1112808,17
1113436,43
1114060,48
1114684,48
1115312,46
1115936,20
1116564,11
1117196,16
1117816,36
1118444,77
1119068,97
1119700,95
1120328,34
1120952,25
1121580,55
1122204,120
1122880,139
1123552,107
1124228,55
1124852,31
1125484,18
1126104,52
1126732,92
1127356,47
1127980,37
1128608,65
1129224,42
1129852,41
1130476,117
1131152,156
1131824,68
1132448,58
1133072,95
1133700,95
1134320,61
1134948,16
1135572,11
1136196,16
1136828,36
1137448,48
1138076,45
1138704,52
1139328,59
1139956,67
1140580,74
1141212,93
1141840,110
1142508,137
1143184,143
1143868,112
1144540,81
1145164,25
1145788,29
1146412,58
1147044,72
1147664,48
1148292,74
1148916,171
1149592,163
1150264,112
1150940,93
1151560,102
1152240,83
1152860,52
1153488,22
1154120,46
1154736,60
1155364,78
1155988,85
1156612,95
1157244,78
1157864,51
1158492,52
1159112,88
1159736,70
1160364,12
1160984,33
1161612,72
1162236,62
1162856,29
1163488,39
1164112,47
1164740,47
1165372,48
1165992,21
1166620,11
1167244,11
1167876,21
1168504,36
1169124,45
1169752,53
1170376,47
1171000,35
1171628,49
1172248,72
1172876,76
1173500,62
1174128,49
1174756,47
1175380,61
1176012,61
1176640,36
1177260,14
1177888,15
1178512,38
1179140,36
1179768,40
1180392,47
1181020,48
1181644,45
1182268,45
1182896,18
1183520,20
1184148,20
1184780,18
1185400,11
1186028,16
1186652,26
1187280,14
1187912,30
1188528,80
1189156,130
1189832,140
1190500,88
1191124,32
1191748,20
1192376,53
1193008,27
1193624,46
1194256,14
1194876,93
1195508,134
1196192,67
1196808,40
1197436,46
1198060,65
1198684,63
1199316,23
1199940,11
1200572,120
1201252,153
1201924,105
1202600,35
1203224,14
1203840,13
1204468,14
1205092,67
1205724,75
1206352,57
1206972,77
1207600,116
1208276,120
1208948,96
1209572,67
1210196,12
1210828,44
1211456,104
1212132,98
1212760,49
1213384,41
1214008,46
1214636,48
1215256,49
1215884,21
1216516,10
1217136,13
1217764,16
1218388,11
1219020,21
1219648,39
1220268,34
1220896,28
1221520,45
1222148,56
1222780,63
1223400,60
1224028,47
1224652,42
1225276,57
1225908,58
1226528,43
1227156,16
1227788,10
1228408,18
1229040,16
1229660,30
1230288,61
1230916,66
1231536,49
1232164,51
1232788,33
1233412,34
1234044,42
1234664,30
1235292,20
1235916,40
1236540,12
1237168,46
1237784,35
1238412,69
1239036,128
1239716,117
1240392,170
1241068,218
1241740,224
1242416,177
1243084,81
1243704,187
1244384,378
1245052,434
1245728,428
1246408,313
1247084,215
1247760,92
1248388,49
1249008,45
1249636,40
1250260,36
1250884,29
1251512,92
1252128,84
1252760,48
1253388,27
1254008,31
1254636,34
1255260,80
1255892,93
1256520,93
1257136,81
1257768,77
1258392,76
1259016,77
1259644,66
1260264,37
1260892,23
1261516,11
1262140,14
1262768,15
1263388,42
1264016,46
1264644,48
1265264,48
1265892,25
1266516,23
1267148,20
1267780,14
1268400,19
1269028,33
1269656,50
1270280,48
1270908,38
1271528,45
1272156,71
1272784,72
1273408,70
1274036,70
1274656,70
1275288,97
1275916,74
1276536,19
1277168,15
1277792,11
1278420,16
1279052,44
1279672,59
1280304,46
1280924,48
1281548,48
1282176,50
1282792,36
1283420,41
1284040,17
1284664,15
1285292,34
1285908,50
1286540,36
1287160,16
1287784,14
1288412,46
1289032,59
1289664,81
1290292,77
1290912,53
1291540,59
1292160,73
1292788,93
1293416,70
1294040,67
1294668,44
1295292,11
1295912,44
1296544,61
1297160,62
1297788,57
1298412,49
1299032,50
1299664,59
1300280,39
1300912,20
1301540,94
1302160,123
1302840,112
1303508,97
1304128,47
1304756,57
1305376,51
1306004,50
1306636,104
1307308,291
1307984,287
1308660,147
1309332,66
1309956,17
1310580,68
1311212,75
1311840,47
1312456,37
1313084,82
1313704,69
1314328,55
1314956,48
1315576,47
1316204,31
1316824,20
1317448,26
1318076,55
1318696,94
1319324,105
1320004,70
1320620,52
1321252,46
1321872,41
1322500,75
1323128,100
1323804,117
1324480,113
1325156,108
1325828,97
1326452,78
1327076,41
1327700,12
1328328,26
1328944,13
1329572,20
1330204,40
1330824,46
1331452,49
1332076,46
1332704,47
1333332,32
1333952,11
1334580,11
1335200,15
1335824,11
1336452,19
1337068,22
1337700,63
1338320,60
1338944,47
1339572,54
1340192,67
1340820,70
1341448,66
1342064,71
1342692,94
1343316,75
1343948,24
1344576,11
1345192,23
1345820,43
1346444,73
1347072,86
1347700,104
1348372,73
1348996,44
1349620,48
1350244,81
1350872,85
1351496,71
1352124,37
1352752,33
1353376,37
1354004,24
1354628,31
1355256,124
1355936,62
1356552,63
1357180,90
1357804,46
1358428,67
1359056,14
1359672,29
1360300,11
1360928,19
1361548,29
1362180,31
1362804,20
1363432,83
1364060,116
1364732,82
1365356,49
1365980,48
1366604,88
1367232,79
1367848,48
1368476,56
1369104,46
1369728,19
1370356,19
1370980,15
1371608,53
1372236,75
1372856,76
1373484,70
1374108,62
1374728,81
1375356,92
1375976,47
1376608,12
1377228,12
1377852,36
1378480,100
1379156,107
1379832,43
1380460,59
1381080,59
1381708,55
1382332,49
1382956,21
1383588,21
1384208,20
1384836,25
1385460,119
1386136,198
1386808,190
1387484,108
1388156,44
1388780,77
1389404,80
1390036,81
1390664,57
1391284,44
1391912,64
1392536,71
1393160,47
1393788,20
1394408,21
1395036,18
1395660,21
1396284,23
1396912,47
1397528,48
1398160,46
1398780,48
1399408,19
1400036,11
1400660,10
1401288,16
1401916,10
1402536,22
1403164,37
1403788,37
1404420,25
1405048,44
1405664,49
1406296,55
1406920,75
1407544,101
1408224,113
1408888,119
1409568,70
1410188,28
1410808,32
1411436,25
1412060,75
1412684,103
1413364,58
1413984,49
1414612,67
1415240,106
1415908,132
1416584,91
1417208,28
1417828,17
1418460,17
1419084,17
1419712,40
1420340,30
1420960,33
1421588,85
1422212,116
1422896,105
1423568,67
1424192,45
1424820,74
1425448,98
1426072,49
1426700,14
1427324,40
1427952,17
1428584,89
1429200,30
1429832,45
1430456,45
1431080,57
1431708,98
1432328,112
1433008,70
1433640,31
1434256,11
1434884,11
1435504,18
1436132,26
1436764,12
1437384,22
1438012,47
1438636,75
1439260,48
1439892,50
1440512,63
1441140,30
1441764,16
1442384,73
1443012,96
1443632,84
1444260,39
1444888,17
1445504,14
1446136,53
1446756,104
1447440,116
1448112,88
1448728,48
1449356,36
1449980,52
1450600,99
1451232,167
1451908,191
1452584,216
1453264,153
1453940,62
1454564,19
1455196,52
1455816,65
1456444,67
1457068,66
1457692,51
1458320,42
1458940,51
1459568,69
1460192,65
1460812,56
1461444,30
1462064,14
1462692,17
1463324,40
1463944,49
1464572,46
1465196,46
1465828,21
1466456,11
1467072,13
1467704,21
1468328,39
1468952,48
1469580,14
1470200,30
1470828,19
1471452,69
1472080,83
1472708,77
1473328,52
1473956,47
1474588,50
1475208,20
1475836,45
1476456,52
1477088,19
1477716,14
1478336,11
1478964,32
1479588,55
1480212,57
1480840,146
1481516,80
1482140,47
1482772,78
1483392,41
1484020,132
1484696,123
1485372,76
1485996,56
1486616,38
1487244,22
1487868,62
1488492,103
1489172,63
1489792,52
1490420,56
1491048,55
1491672,70
1492300,94
1492924,88
1493548,46
1494176,18
1494800,27
1495428,24
1496052,24
1496676,69
1497304,84
1497928,70
1498556,48
1499184,74
1499808,83
1500436,102
1501112,90
1501736,49
1502364,48
1502984,65
1503612,39
1504240,17
1504860,55
1505492,54
1506116,46
1506744,49
1507372,29
1507992,42
1508620,77
1509248,79
1509876,79
1510508,90
1511128,90
1511756,47
1512380,27
1513004,44
1513636,54
1514256,108
1514936,115
1515620,81
1516240,119
1516920,132
1517600,93
1518224,43
1518852,43
1519476,25
1520108,33
1520736,61
1521360,95
1521988,106
1522664,113
1523332,106
1524008,65
1524632,51
1525256,40
1525884,15
1526504,48
1527132,28
1527756,11
1528380,34
1529012,20
1529632,49
1530260,50
1530892,48
1531512,51
1532144,49
1532768,19
1533400,34
1534028,44
1534648,33
1535280,29
1535904,24
1536528,41
1537156,43
1537776,41
1538404,71
1539028,67
1539648,49
1540280,48
1540896,17
1541524,15
1542152,16
1542776,49
1543404,53
1544028,33
1544656,18
1545284,11
1545904,27
1546532,47
1547156,45
1547784,71
1548412,68
1549032,44
1549660,21
1550284,83
1550908,112
1551588,94
1552208,38
1552836,45
1553468,27
1554088,18
1554716,38
1555340,63
1555972,86
1556600,116
1557276,134
1557952,120
1558632,33
1559256,58
1559884,46
1560508,77
1561132,137
1561812,113
1562484,58
1563108,45
1563740,79
1564360,81
1564988,56
1565612,47
1566236,13
1566864,72
1567488,101
1568168,83
1568792,68
1569408,73
1570036,93
1570660,121
1571344,62
1571964,62
1572584,63
1573212,50
1573836,69
1574460,91
1575092,72
1575712,60
1576340,57
1576972,28
1577592,15
1578220,11
1578844,24
1579476,34
1580108,55
1580728,68
1581360,57
1581984,62
1582608,26
1583236,72
1583856,115
1584540,80
1585168,68
1585784,59
1586416,14
1587040,41
1587668,39
1588300,52
1588920,45
1589548,53
1590172,65
1590796,83
1591428,105
1592100,96
1592728,88
1593356,72
1593976,54
1594608,11
1595232,59
1595860,61
1596492,72
1597112,81
1597744,76
1598368,54
1598992,39
1599624,23
1600240,39
1600868,50
1601488,62
1602112,75
1602740,81
1603356,43
1603988,16
1604616,36
1605232,57
1605860,61
1606484,59
1607112,48
1607740,24
1608360,50
1608988,36
1609608,21
1610236,11
1610868,11
1611488,13
1612116,21
1612740,19
1613364,41
1613996,46
1614616,47
1615244,48
1615868,18
1616496,18
1617124,33
1617748,35
1618376,19
1619008,11
1619624,14
1620252,17
1620876,30
1621504,43
1622132,72
1622752,91
1623380,85
1624004,71
1624628,78
1625256,116
1625928,108
1626600,51
1627224,37
1627840,52
1628468,17
1629092,36
1629716,40
1630348,74
1630968,156
1631648,120
1632332,85
1632952,105
1633632,142
1634300,123
1634980,69
1635608,41
1636228,34
1636860,19
1637488,13
1638112,62
1638744,89
1639364,114
1640036,117
1640712,98
1641324,97
1641952,99
1642580,98
1643196,71
1643828,47
1644448,38
1645068,49
1645696,10
1646316,37
1646948,65
1647568,98
1648192,115
1648872,78
1649484,41
1650112,19
1650744,19
1651360,30
1651988,14
1652608,14
1653236,15
1653868,14
1654484,19
1655112,60
1655736,65
1656360,57
1656988,52
1657608,43
1658236,67
1658856,79
1659480,57
1660108,12
1660728,27
1661356,40
1661984,39
1662600,17
1663232,50
1663856,47
1664484,51
1665112,58
1665728,73
1666356,76
1666980,44
1667600,27
1668228,12
1668844,13
1669472,16
1670096,13
1670716,17
1671348,58
1671968,87
1672596,72
1673224,47
1673840,67
1674468,62
1675092,15
1675720,47
1676348,74
1676968,48
1677596,34
1678220,17
1678848,13
1679476,16
1680096,39
1680720,44
1681344,50
1681964,48
1682592,24
1683212,46
1683840,54
1684464,57
1685088,15
1685716,81
1686336,95
1686968,84
1687596,66
1688216,84
1688844,70
1689468,47
1690096,49
1690724,74
1691344,154
1692024,92
1692640,29
1693260,72
1693888,68
1694512,73
1695140,35
1695768,10
1696392,56
1697020,45
1697640,48
1698272,52
1698900,50
1699520,35
1700148,15
1700772,18
1701392,90
1702024,80
1702640,35
1703268,13
1703892,13
1704512,20
1705144,37
1705760,50
1706388,65
1707016,60
1707640,37
1708268,45
1708892,69
1709520,50
1710148,26
1710768,30
1711396,28
1712020,20
1712644,34
1713272,40
1713896,61
1714524,53
1715148,49
1715776,45
1716404,48
1717024,16
1717652,28
1718280,58
1718904,85
1719532,42
1720156,36
1720788,85
1721416,58
1722032,50
1722664,55
1723284,51
1723908,52
1724540,53
1725160,12
1725788,55
1726412,79
1727036,60
1727664,56
1728288,11
1728916,50
1729544,33
1730160,41
1730792,45
1731416,49
1732044,47
1732672,13
1733288,11
1733916,18
1734540,35
1735168,48
1735800,43
1736416,13
1737048,44
1737668,83
1738292,58
1738920,47
1739544,62
1740172,71
1740796,74
1741424,92
1742052,87
1742676,17
1743308,107
1743988,93
1744608,39
1745236,22
1745860,41
1746484,61
1747112,63
1747728,71
1748360,48
1748984,33
1749604,55
1750236,110
1750912,63
1751536,19
1752164,22
1752784,20
1753412,82
1754036,131
1754712,78
1755336,46
1755952,61
1756584,125
1757264,166
1757940,162
1758616,120
1759296,128
1759972,116
1760652,88
1761272,41
1761896,123
1762576,235
1763244,223
1763916,141
1764592,62
1765208,48
1765836,16
1766464,10
1767084,11
1767716,11
1768336,10
1768964,15
1769592,33
1770216,45
1770844,52
1771468,49
1772092,103
1772772,121
1773444,109
1774120,122
1774796,111
1775468,112
1776144,103
1776824,47
1777448,19
1778076,63
1778704,76
1779328,61
1779956,43
1780580,42
1781212,50
1781840,49
1782456,17
1783084,15
1783708,97
1784332,139
1785012,52
1785632,12
1786260,29
1786892,43
1787512,37
1788140,44
1788764,57
1789396,81
1790028,69
1790648,31
1791280,27
1791904,27
1792528,22
1793156,30
1793776,41
1794404,41
1795028,18
1795652,36
1796280,41
1796896,67
1797524,54
1798156,46
1798776,55
1799404,55
1800028,48
1800656,26
1801284,22
1801904,51
1802532,62
1803156,76
1803780,71
1804412,46
1805032,53
1805660,103
1806332,132
1807012,103
1807688,72
1808312,63
1808932,51
1809564,56
1810184,72
1810812,64
1811436,14
1812060,12
1812688,21
1813304,39
1813936,47
1814564,54
1815184,51
1815812,93
1816436,68
1817064,13
1817696,11
1818312,73
1818940,107
1819616,82
1820232,43
1820860,31
1821480,43
1822108,58
1822740,103
1823412,116
1824088,130
1824760,122
1825436,115
1826112,70
1826736,16
1827360,82
1827988,131
1828660,126
1829336,59
1829964,39
1830584,46
1831212,44
1831836,47
1832460,36
1833092,26
1833712,35
1834340,27
1834964,25
1835588,11
1836220,26
1836840,39
1837468,52
1838100,46
1838720,43
1839348,47
1839976,51
1840604,29
1841236,34
1841856,52
1842484,58
1843108,30
1843736,11
1844364,12
1844984,20
1845612,23
1846232,32
1846856,43
1847484,46
1848104,49
1848732,47
1849360,12
1849984,29
1850612,23
1851236,13
1851864,22
1852492,34
1853112,21
1853740,17
1854364,22
1854988,47
1855620,50
1856240,47
1856868,61
1857492,29
1858112,10
1858744,10
1859360,11
1859988,12
1860620,60
1861240,65
1861868,13
1862492,23
1863120,51
1863752,51
1864368,49
1864996,57
1865620,34
1866244,11
1866872,18
1867496,28
1868124,52
1868748,34
1869376,17
1870004,13
1870624,14
1871252,51
1871884,120
1872556,92
1873180,53
1873804,106
1874488,16
1875112,76
1875728,90
1876360,19
1876984,149
1877660,193
1878340,100
1879012,24
1879632,43
1880264,56
1880880,67
1881508,75
1882140,63
1882760,40
1883388,12
1884012,41
1884644,49
1885272,48
1885892,109
1886572,185
1887248,132
1887924,56
1888552,49
1889172,65
1889800,77
1890428,82
1891048,82
1891676,94
1892300,94
1892924,91
1893556,64
1894176,63
1894808,47
1895436,36
1896056,36
1896684,44
1897308,70
1897936,78
1898568,74
1899184,51
1899816,17
1900440,14
1901064,27
1901692,22
1902312,21
1902944,13
1903568,15
1904192,30
1904820,83
1905440,97
1906068,65
1906700,55
1907320,28
1907948,23
1908572,32
1909204,30
1909832,19
1910456,22
1911084,13
1911708,12
1912336,27
1912964,57
1913584,49
1914216,48
1914840,59
1915464,47
1916096,52
1916712,47
1917344,15
1917976,22
1918596,77
1919228,115
1919904,128
1920572,130
1921248,86
1921864,46
1922492,52
1923124,56
1923744,74
1924372,77
1924996,69
1925628,40
1926256,38
1926872,41
1927500,29
1928124,18
1928748,28
1929376,38
1930000,88
1930628,65
1931252,53
1931876,47
1932504,28
1933128,20
1933760,25
1934388,12
1935008,58
1935636,78
1936260,81
1936892,59
1937520,21
1938140,43
1938768,49
1939392,51
1940016,47
1940644,27
1941264,35
1941892,42
1942516,82
1943140,122
1943824,109
1944492,81
1945112,51
1945744,57
1946360,65
1946988,46
1947612,142
1948288,194
1948960,175
1949636,73
1950256,14
1950884,14
1951504,14
1952132,23
1952756,15
1953380,13
1954012,13
1954632,59
1955264,93
1955892,89
1956512,107
1957192,100
1957860,60
1958480,51
1959108,26
1959728,30
1960356,106
1961040,128
1961708,142
1962384,114
1963068,44
1963688,51
1964316,63
1964944,56
1965572,41
1966204,26
1966824,50
1967452,70
1968076,79
1968696,44
1969324,17
1969944,53
1970572,91
1971196,86
1971824,53
1972452,49
1973076,49
1973704,58
1974336,61
1974952,89
1975584,69
1976208,23
1976836,49
1977464,131
1978140,146
1978816,82
1979444,39
1980064,43
1980692,54
1981316,89
1981948,200
1982628,236
1983300,125
1983980,24
1984608,14
1985224,12
1985852,15
1986476,17
1987100,16
1987732,18
1988352,93
1988980,118
1989664,58
1990280,48
1990908,37
1991532,77
1992164,95
1992792,80
1993416,35
1994044,17
1994668,31
1995292,63
1995924,71
1996544,46
1997176,83
1997796,84
1998420,77
1999052,54
1999672,28
2000300,18
2000932,12
2001552,96
2002180,312
2002856,323
2003524,119
2004200,28
2004816,104
2005496,130
2006172,113
2006844,80
2007468,60
2008100,20
2008720,23
2009348,11
2009972,23
2010600,29
2011228,19
2011848,11
2012476,22
2013100,58
2013724,59
2014352,50
2014976,50
2015604,25
2016228,31
2016852,12
2017484,48
2018104,63
2018732,25
2019360,23
2019984,33
2020612,52
2021236,46
2021868,43
2022496,48
2023112,48
2023744,48
2024368,30
2024992,77
2025620,94
2026240,31
2026868,29
2027492,47
2028116,107
2028800,101
2029468,53
2030088,44
2030716,52
2031336,49
2031968,48
2032592,21
2033216,56
2033844,37
2034464,11
2035092,14
2035724,24
2036344,18
2036972,21
2037596,85
2038228,115
2038912,84
2039528,79
2040160,59
2040780,19
2041408,20
2042036,62
2042656,53
2043288,47
2043916,36
2044536,17
2045168,11
2045792,37
2046420,65
2047052,58
2047672,46
2048304,45
2048924,44
2049548,39
2050176,19
2050792,17
2051420,11
2052040,11
2052664,23
2053292,12
2053908,30
2054540,46
2055160,41
2055784,49
2056412,57
2057032,51
2057660,21
2058288,95
2058904,148
2059584,103
2060252,28
2060872,19
2061500,66
2062120,121
2062800,95
2063420,67
2064040,163
2064716,82
2065336,51
2065956,65
2066584,110
2067260,122
2067936,38
2068560,52
2069176,75
2069804,82
2070424,55
2071048,33
2071676,132
2072348,150
2073024,83
2073648,54
2074264,109
2074944,176
2075612,176
2076284,85
2076908,29
2077532,86
2078160,120
2078840,167
2079508,124
2080184,54
2080812,46
2081428,55
2082060,58
2082680,49
2083308,104
2083988,115
2084660,94
2085284,58
2085912,26
2086536,64
2087164,186
2087840,243
2088508,158
2089184,76
2089800,47
2090428,63
2091056,94
2091672,89
2092300,68
2092924,45
2093552,11
2094180,14
2094800,15
2095428,11
2096052,58
2096672,97
2097304,80
2097920,81
2098548,49
2099172,38
2099796,27
2100424,26
2101040,61
2101672,69
2102300,28
2102920,15
2103548,42
2104172,83
2104800,106
2105484,64
2106104,66
2106732,77
2107356,74
2107980,58
2108608,36
2109232,128
2109912,78
2110540,26
2111160,23
2111788,44
2112412,28
2113036,40
2113664,43
2114288,49
2114916,56
2115540,89
2116164,77
2116792,50
2117408,79
2118040,102
2118720,22
2119336,197
2120016,274
2120692,267
2121364,244
2122040,128
2122716,68
2123336,49
2123964,80
2124584,183
2125264,173
2125944,127
2126612,118
2127288,41
2127916,56
2128536,47
2129164,24
2129788,46
2130420,49
2131048,50
2131664,54
2132292,25
2132916,22
2133540,57
2134168,72
2134788,64
2135416,31
2136040,32
2136660,78
2137292,79
2137912,47
2138540,57
2139172,72
2139792,55
2140420,50
2141044,77
2141676,119
2142356,137
2143028,84
2143652,79
2144284,35
2144904,33
2145532,88
2146156,101
2146836,63
2147460,52
2148080,52
2148708,57
2149332,81
2149956,89
2150588,56
2151208,19
2151836,23
2152464,22
2153080,29
2153712,38
2154332,24
2154964,74
2155592,127
2156260,105
2156936,79
2157552,47
2158176,19
2158808,13
2159428,14
2160060,28
2160688,35
2161304,12
2161932,27
2162556,15
2163188,45
2163816,43
2164440,63
2165068,72
2165692,39
2166316,12
2166948,10
2167568,28
2168196,50
2168820,47
2169444,38
2170076,26
2170700,22
2171328,52
2171956,73
2172576,79
2173204,80
2173828,75
2174460,88
2175088,121
2175760,103
2176436,26
2177060,10
2177680,18
2178308,60
2178932,81
2179560,70
2180188,60
2180808,74
2181436,79
2182060,56
2182684,27
2183312,16
2183928,39
2184556,17
2185180,29
2185804,59
2186432,64
2187056,25
2187684,16
2188316,40
2188936,52
2189564,49
2190188,72
2190820,74
2191448,16
2192064,80
2192696,111
2193368,76
2193992,86
2194620,21
2195240,96
2195868,91
2196500,110
2197172,89
2197796,57
2198420,53
2199044,28
2199676,10
2200296,26
2200924,53
2201552,29
2202176,62
2202804,137
2203476,119
2204152,72
2204784,51
2205400,138
2206080,171
2206760,102
2207436,48
2208060,35
2208684,83
2209308,83
2209936,56
2210560,28
2211188,11
2211812,55
2212440,37
2213068,40
2213688,47
2214316,49
2214948,62
2215568,49
2216196,66
2216820,59
2217452,18
2218080,70
2218700,125
2219380,117
2220060,90
2220680,45
2221308,45
2221936,61
2222564,95
2223196,77
2223816,53
2224448,119
2225120,47
2225744,24
2226372,50
2226992,52
2227624,52
2228252,110
2228924,109
2229600,96
2230224,51
2230848,46
2231476,47
2232096,51
2232724,67
2233356,133
2234028,162
2234704,74
2235328,39
2235952,47
2236584,47
2237200,28
2237828,38
2238456,77
2239080,113
2239760,144
2240436,157
2241108,142
2241784,106
2242460,106
2243132,87
2243756,50
2244376,25
2245004,11
2245628,33
2246256,83
2246884,61
2247508,58
2248140,76
2248768,89
2249388,55
2250016,12
2250640,21
2251268,105
2251952,234
2252620,162
2253300,57
2253924,62
2254544,89
2255172,53
2255796,49
2256420,60
2257048,81
2257664,132
2258348,129
2259024,113
2259692,83
2260316,55
2260940,31
2261564,11
2262196,18
2262816,39
2263444,52
2264076,52
2264696,50
2265324,69
2265948,52
2266576,14
2267208,10
2267824,11
2268452,11
2269076,21
2269704,24
2270332,54
2270952,69
2271584,45
2272208,54
2272832,85
2273460,127
2274132,108
2274808,67
2275436,68
2276056,79
2276684,71
2277308,17
2277932,85
2278564,110
2279236,72
2279860,109
2280544,170
2281212,131
2281888,106
2282568,126
2283244,92
2283868,15
2284492,53
2285116,50
2285748,90
2286368,94
2286996,74
2287628,75
2288248,85
2288876,84
2289500,104
2290184,126
2290860,86
2291480,18
2292108,88
2292732,57
2293360,27
2293992,18
2294612,13
2295244,32
2295872,33
2296492,42
2297120,108
2297796,164
2298468,63
2299092,34
2299716,35
2300348,11
2300976,18
2301600,13
2302228,11
2302856,19
2303484,25
2304116,55
2304736,81
2305364,103
2306036,96
2306656,65
2307284,65
2307908,113
2308588,18
2309212,51
2309832,52
2310460,37
2311084,20
2311708,14
2312336,35
2312952,84
2313584,80
2314208,54
2314832,55
2315460,50
2316080,41
2316708,61
2317340,60
2317960,44
2318588,133
2319264,158
2319940,130
2320620,77
2321240,67
2321868,84
2322500,72
2323120,81
2323748,78
2324372,17
2325000,79
2325628,105
2326300,85
2326928,44
2327548,37
2328176,17
2328804,11
2329428,36
2330060,51
2330688,48
2331312,53
2331940,52
2332564,14
2333192,14
2333820,31
2334440,20
2335068,18
2335692,13
2336316,13
2336948,24
2337568,17
2338196,64
2338828,78
2339448,69
2340076,62
2340700,83
2341332,75
2341960,18
2342584,25
2343212,41
2343836,48
2344460,17
2345092,19
2345712,31
2346340,48
2346964,53
2347588,49
2348220,48
2348840,33
2349468,16
2350100,12
2350720,17
2351348,37
2351976,58
2352608,90
2353236,128
2353908,94
2354536,47
2355160,151
2355836,176
2356512,138
2357188,181
2357860,204
2358536,182
2359212,106
2359884,33
2360512,77
2361128,168
2361808,219
2362488,154
2363164,58
2363792,50
2364420,65
2365040,92
2365668,79
2366296,58
2366924,28
2367556,22
2368176,59
2368804,95
2369428,78
2370056,63
2370684,28
2371304,69
2371932,113
2372616,96
2373232,72
2373864,72
2374488,72
2375116,26
2375748,14
2376368,22
2376996,50
2377620,14
2378244,19
2378876,32
2379496,43
2380128,76
2380752,125
2381428,116
2382104,112
2382780,82
2383400,85
2384028,82
2384648,43
2385276,26
2385900,27
2386528,29
2387156,19
2387780,49
2388412,101
2389096,110
2389764,92
2390388,85
2391016,67
2391640,55
2392272,50
2392888,44
2393520,30
2394152,21
2394768,14
2395400,14
2396024,27
2396656,52
2397284,66
2397904,68
2398536,59
2399160,23
2399784,107
2400468,93
2401088,24
2401716,37
2402348,101
2403020,110
2403696,102
2404376,52
2405000,44
2405628,57
2406256,50
2406884,84
2407512,145
2408188,182
2408864,194
2409540,134
2410212,32
2410840,14
2411464,78
2412088,80
2412716,34
2413336,49
2413964,49
2414592,50
2415216,51
2415848,19
2416472,53
2417100,125
2417784,138
2418452,76
2419076,35
2419704,23
2420328,53
2420956,62
2421580,48
2422212,47
2422840,116
2423516,142
2424196,107
2424872,86
2425496,110
2426180,104
2426852,47
2427472,20
2428104,38
2428720,86
2429352,85
2429980,66
2430600,89
2431232,83
2431856,49
2432488,28
2433116,14
2433736,12
2434364,17
2434992,11
2435616,23
2436244,52
2436864,68
2437492,67
2438116,42
2438740,52
2439372,54
2439992,60
2440624,84
2441252,98
2441872,99
2442500,94
2443124,81
2443756,22
2444388,116
2445060,140
2445736,40
2446368,44
2446984,47
2447616,48
2448240,53
2448868,32
2449500,17
2450120,15
2450748,23
2451376,11
2452000,17
2452628,48
2453248,56
2453880,69
2454504,72
2455128,46
2455760,49
2456376,46
2457008,45
2457640,54
2458256,135
2458936,189
2459604,160
2460276,101
2460952,45
2461568,20
2462196,56
2462828,140
2463500,232
2464176,237
2464856,146
2465524,42
2466148,84
2466772,178
2467448,170
2468120,156
2468796,153
2469468,124
2470144,117
2470820,164
2471492,183
2472168,64
2472792,51
2473420,149
2474104,173
2474772,178
2475448,171
2476128,149
2476804,93
2477428,50
2478052,71
2478680,57
2479308,32
2479928,43
2480560,56
2481188,74
2481808,91
2482436,62
2483060,37
2483692,11
2484320,30
2484936,24
2485568,15
2486192,47
2486816,80
2487444,48
2488064,47
2488692,60
2489316,57
2489940,46
2490568,19
2491188,34
2491816,72
2492448,103
2493116,83
2493744,88
2494368,95
2494992,47
2495624,35
2496240,54
2496868,53
2497492,79
2498116,51
2498748,46
2499368,31
2499996,12
2500624,32
2501248,76
2501876,67
2502500,39
2503132,34
2503760,35
2504380,31
2505008,44
2505632,48
2506256,52
2506884,60
2507504,64
2508136,27
2508760,31
2509384,53
2510012,54
2510632,54
2511260,13
2511892,10
2512512,53
2513140,40
2513768,49
2514396,47
2515028,48
2515648,47
2516276,79
2516904,67
2517528,29
2518156,36
2518776,44
2519408,47
2520032,23
2520652,31
2521284,42
2521904,55
2522532,48
2523164,49
2523784,43
2524416,47
2525040,51
2525668,38
2526300,16
2526920,17
2527552,13
2528176,65
2528800,101
2529480,146
2530148,104
2530824,67
2531456,69
2532072,79
2532704,81
2533328,14
2533952,56
2534584,100
2535252,152
2535932,166
2536612,164
2537284,173
2537960,142
2538644,58
2539264,59
2539896,57
2540520,65
2541144,87
2541772,99
2542392,148
2543076,104
2543756,16
2544376,43
2545004,29
2545632,16
2546256,47
2546884,44
2547504,48
2548136,47
2548764,32
2549384,12
2550016,35
2550640,35
2551268,24
2551900,32
2552520,49
2553152,20
2553776,15
2554400,49
2555032,43
2555648,49
2556280,67
2556904,63
2557528,67
2558160,90
2558780,94
2559412,64
2560044,24
2560660,49
2561288,86
2561908,42
2562536,18
2563168,41
2563784,50
2564412,81
2565036,82
2565656,61
2566288,14
2566904,63
2567532,90
2568156,62
2568780,29
2569408,19
2570024,52
2570652,64
2571280,46
2571904,48
2572532,54
2573156,49
2573784,31
2574412,31
2575032,37
2575660,47
2576284,37
2576908,36
2577536,29
2578156,23
2578784,91
2579408,61
2580032,65
2580660,87
2581280,71
2581908,52
2582536,13
2583152,35
2583784,61
2584408,74
2585036,117
2585716,93
2586336,37
2586964,13
2587584,17
2588208,66
2588836,122
2589508,160
2590184,143
2590864,17
2591488,58
2592116,90
2592740,52
2593364,26
2593992,41
2594608,88
2595240,43
2595868,42
2596488,67
2597116,55
2597740,53
2598372,50
2599000,30
2599624,33
2600252,41
2600876,41
2601500,25
2602132,46
2602752,68
2603380,25
2604004,15
2604628,44
2605260,53
2605880,72
2606508,98
2607140,121
2607812,109
2608488,108
2609168,65
2609792,35
2610420,77
2611048,143
2611728,237
2612404,157
2613076,40
2613700,65
2614332,58
2614952,53
2615580,35
2616208,22
2616836,11
2617468,12
2618088,40
2618716,91
2619340,137
2620020,128
2620696,82
2621320,47
2621952,60
2622580,80
2623200,81
2623828,71
2624452,77
2625072,99
2625700,102
2626368,79
2626996,58
2627624,42
2628248,11
2628876,18
2629496,43
2630124,45
2630752,57
2631376,63
2632004,64
2632624,66
2633248,54
2633876,46
2634496,29
2635124,23
2635748,14
2636372,18
2637000,35
2637616,42
2638244,51
2638872,53
2639492,51
2640120,61
2640740,65
2641372,65
2642000,92
2642616,87
2643244,55
2643864,16
2644488,46
2645116,78
2645736,44
2646364,37
2646988,54
2647612,51
2648240,51
2648856,36
2649488,33
2650108,26
2650736,21
2651364,25
2651988,60
2652616,84
2653248,94
2653864,89
2654492,49
2655116,51
2655748,58
2656376,73
2656992,79
2657624,63
2658244,57
2658868,48
2659496,71
2660120,67
2660748,81
2661372,78
2662000,76
2662628,50
2663252,63
2663880,72
2664508,84
2665124,229
2665808,66
2666424,43
2667044,40
2667672,11
2668288,24
2668916,29
2669540,41
2670164,66
2670792,113
2671460,80
2672084,85
2672712,98
2673336,85
2673964,29
2674588,14
2675208,57
2675840,58
2676456,44
2677084,51
2677708,47
2678332,25
2678960,37
2679580,62
2680208,64
2680836,49
2681456,49
2682084,33
2682708,15
2683336,14
2683968,28
2684584,28
2685212,12
2685836,51
2686464,65
2687096,58
2687712,44
2688344,97
2688964,86
2689588,48
2690216,51
2690832,12
2691464,32
2692084,33
2692708,16
2693336,27
2693960,20
2694588,13
2695216,18
2695840,17
2696468,58
2697092,62
2697720,49
2698348,52
2698968,38
2699596,31
2700220,49
2700844,58
2701472,53
2702088,12
2702720,87
2703344,109
2704020,124
2704696,61
2705312,53
2705936,88
2706564,103
2707236,118
2707912,72
2708536,31
2709152,47
2709780,128
2710456,144
2711124,96
2711748,36
2712368,66
2712996,126
2713680,121
2714344,64
2714972,45
2715596,44
2716220,13
2716848,13
2717472,34
2718100,127
2718780,102
2719452,79
2720080,84
2720700,64
2721324,46
2721952,58
2722568,95
2723196,114
2723880,113
2724548,66
2725172,58
2725796,31
2726420,18
2727048,56
2727664,73
2728292,71
2728916,90
2729540,82
2730168,48
2730792,46
2731420,64
2732052,82
2732672,90
2733300,80
2733924,118
2734608,122
2735280,34
2735904,18
2736536,58
2737164,48
2737784,59
2738412,50
2739036,48
2739668,51
2740296,68
2740920,77
2741548,42
2742172,37
2742796,59
2743428,52
2744048,34
2744676,13
2745300,49
2745924,92
2746552,105
2747228,82
2747852,55
2748484,56
2749104,53
2749732,27
2750356,12
2750984,15
2751612,31
2752232,47
2752860,73
2753484,17
2754108,28
2754736,41
2755360,52
2755988,56
2756620,66
2757240,47
2757868,28
2758492,42
2759124,29
2759752,44
2760372,45
2761000,30
2761624,13
2762248,25
2762876,59
2763496,52
2764128,52
2764752,52
2765376,35
2766004,35
2766624,68
2767252,81
2767884,70
2768504,50
2769132,37
2769756,35
2770388,47
2771016,45
2771636,48
2772264,57
2772888,59
2773512,71
2774140,102
2774812,121
2775488,79
2776116,13
2776736,33
2777364,23
2777988,34
2778620,17
2779248,34
2779872,44
2780500,54
2781128,59
2781748,51
2782380,13
2783000,18
2783632,15
2784260,11
2784880,23
2785508,34
2786132,37
2786764,28
2787392,38
2788008,49
2788636,48
2789260,57
2789892,77
2790524,88
2791144,84
2791772,92
2792396,83
2793020,49
2793648,30
2794272,22
2794900,15
2795532,14
2796152,43
2796780,65
2797408,72
2798036,51
2798668,36
2799288,12
2799916,24
2800544,15
2801168,17
2801796,10
2802416,27
2803044,85
2803668,81
2804292,35
2804924,94
2805544,95
2806172,68
2806804,48
2807424,44
2808052,56
2808676,21
2809304,17
2809936,23
2810552,11
2811180,30
2811808,19
2812432,16
2813060,38
2813680,45
2814308,50
2814936,48
2815560,21
2816192,30
2816808,51
2817436,58
2818064,28
2818680,34
2819308,111
2819984,140
2820656,99
2821284,46
2821904,96
2822532,139
2823212,60
2823832,53
2824460,117
2825136,145
2825804,57
2826428,80
2827048,136
2827728,95
2828352,35
2828968,19
2829596,54
2830220,52
2830848,52
2831480,49
2832096,31
2832724,16
2833348,11
2833972,10
2834600,11
2835224,28
2835852,70
2836476,87
2837104,65
2837732,47
2838360,69
2838988,70
2839620,68
2840240,63
2840868,35
2841492,30
2842120,24
2842748,18
2843368,18
2843996,27
2844620,29
2845244,53
2845876,76
2846496,51
2847124,60
2847756,54
2848376,57
2849004,54
2849628,15
2850256,131
2850936,171
2851612,99
2852240,29
2852860,18
2853488,35
2854116,45
2854740,71
2855372,85
2856000,61
2856624,49
2857252,24
2857876,13
2858504,15
2859132,16
2859752,43
2860384,47
2861008,49
2861632,51
2862260,25
2862880,45
2863508,47
2864140,44
2864760,46
2865388,27
2866016,14
2866644,27
2867276,58
2867896,63
2868524,49
2869144,23
2869768,15
2870396,24
2871016,51
2871644,45
2872268,56
2872892,59
2873524,64
2874144,63
2874772,39
2875404,10
2876024,27
2876652,39
2877276,41
2877908,45
2878540,28
2879160,34
2879792,66
2880416,66
2881036,51
2881664,49
2882288,15
2882916,13
2883536,80
2884160,141
2884840,137
2885508,137
2886184,134
2886864,96
2887488,48
2888116,56
2888744,101
2889420,137
2890096,126
2890776,130
2891444,150
2892120,190
2892796,185
2893476,151
2894152,97
2894776,15
2895400,48
2896028,74
2896648,180
2897328,263
2898000,132
2898676,45
2899300,17
2899924,40
2900548,54
2901176,27
2901796,17
2902424,25
2903052,16
2903672,28
2904300,41
2904928,61
2905556,62
2906188,62
2906808,64
2907436,67
2908060,80
2908684,86
2909316,59
2909936,36
2910564,11
2911188,10
2911812,27
2912444,36
2913064,47
2913692,64
2914324,56
2914944,49
2915572,18
2916196,71
2916828,97
2917456,67
2918080,34
2918712,22
2919332,15
2919956,27
2920588,58
2921208,104
2921888,93
2922512,48
2923128,50
2923760,30
2924384,80
2925012,137
2925696,95
2926312,59
2926944,33
2927568,39
2928192,59
2928820,16
2929440,83
2930068,103
2930752,81
2931368,93
2931996,96
2932620,68
2933252,31
2933884,12
2934504,12
2935132,32
2935760,70
2936384,61
2937012,26
2937632,37
2938260,60
2938892,60
2939512,63
2940144,61
2940768,16
2941400,70
2942028,39
2942648,14
2943280,36
2943904,69
2944528,77
2945160,48
2945776,32
2946404,42
2947028,48
2947652,47
2948284,48
2948904,23
2949532,14
2950164,22
2950784,31
2951412,37
2952036,31
2952668,21
2953296,26
2953912,58
2954544,88
2955164,87
2955788,103
2956472,90
2957088,73
2957716,38
2958348,34
2958968,44
2959596,65
2960224,50
2960852,64
2961480,114
2962148,56
2962772,42
2963396,49
2964020,48
2964652,48
2965272,45
2965900,91
2966524,107
2967204,67
2967828,21
2968452,16
2969084,30
2969712,37
2970336,19
2970964,41
2971588,52
2972212,48
2972840,49
2973456,51
2974088,14
2974708,49
2975332,43
2975964,12
2976588,19
2977220,28
2977848,13
2978468,16
2979096,45
2979720,68
2980348,65
2980980,55
2981600,49
2982228,37
2982852,67
2983476,42
2984108,16
2984728,24
2985356,21
2985980,47
2986608,21
2987236,19
2987860,66
2988492,65
2989124,47
2989744,51
2990376,47
2991000,44
2991624,15
2992252,34
2992872,33
2993500,25
2994124,19
2994748,26
2995380,70
2996000,128
2996680,119
2997356,76
2997976,47
2998604,42
2999228,35
2999852,64
3000484,74
3001104,31
3001732,21
3002356,49
3002984,100
3003664,79
3004280,40
3004912,88
3005540,81
3006160,94
3006792,93
3007416,85
3008040,87
3008668,94
3009288,82
3009916,13
3010540,69
3011168,100
3011848,77
3012464,22
3013096,49
3013728,46
3014344,50
3014976,53
3015600,19
3016224,29
3016852,46
3017472,56
3018104,71
3018728,91
3019352,119
3020036,97
3020656,61
3021288,48
3021916,74
3022536,99
3023168,85
3023792,79
3024416,63
3025044,72
3025664,75
3026296,75
3026920,75
3027544,56
3028172,30
3028792,33
3029424,54
3030056,46
3030672,71
3031304,113
3031980,146
3032652,132
3033328,103
3034004,44
3034628,16
3035260,44
3035880,37
3036512,22
3037136,15
3037760,61
3038392,74
3039012,49
3039640,106
3040324,70
3040944,25
3041572,79
3042200,89
3042824,35
3043452,92
3044072,119
3044752,63
3045384,33
3046000,44
3046632,57
3047256,64
3047884,65
3048516,62
3049136,41
3049764,29
3050388,31
3051016,26
3051648,12
3052264,66
3052892,72
3053516,35
3054144,20
3054772,78
3055392,87
3056024,93
3056652,90
3057272,76
3057904,49
3058528,11
3059160,35
3059792,60
3060412,25
3061040,12
3061664,21
3062288,41
3062920,51
3063536,50
3064168,48
3064792,51
3065416,72
3066048,83
3066664,63
3067296,41
3067928,40
3068548,30
3069180,26
3069804,49
3070436,59
3071068,45
3071688,54
3072324,76
3072944,99
3073568,120
3074248,151
3074916,163
3075592,157
3076268,132
3076940,114
3077616,18
3078244,113
3078916,150
3079592,171
3080276,141
3080948,108
3081624,94
3082252,52
3082872,18
3083500,52
3084124,76
3084756,59
3085384,24
3086008,17
3086636,55
3087260,107
3087936,78
3088568,62
3089184,50
3089812,50
3090444,84
3091064,114
3091748,126
3092420,93
3093040,40
3093668,15
3094288,15
3094916,19
3095544,49
3096168,123
3096848,80
3097464,46
3098096,47
3098724,22
3099344,28
3099972,36
3100600,89
3101224,131
3101904,120
3102580,74
3103208,31
3103836,18
3104456,43
3105084,135
3105760,207
3106436,122
3107116,23
3107736,54
3108360,100
3109044,117
3109716,76
3110344,81
3110976,86
3111592,49
3112224,18
3112848,40
3113480,49
3114108,56
3114728,64
3115360,65
3115984,65
3116608,35
3117240,11
3117856,35
3118488,78
3119116,90
3119736,66
3120368,35
3120992,46
3121620,71
3122252,70
3122872,65
3123504,65
3124128,74
3124752,91
3125380,74
3126000,25
3126628,18
3127252,26
3127876,42
3128508,32
3129128,24
3129756,62
3130388,58
3131008,68
3131640,59
3132264,13
3132892,15
3133524,16
3134144,34
3134776,21
3135400,33
3136024,65
3136652,53
3137272,48
3137900,48
3138524,47
3139152,51
3139780,61
3140400,20
3141028,46
3141660,81
3142280,99
3142912,64
3143536,13
3144164,32
3144796,38
3145416,29
3146048,44
3146672,51
3147296,49
3147928,46
3148544,37
3149176,11
3149800,13
3150424,11
3151052,16
3151672,41
3152304,57
3152932,62
3153552,53
3154184,35
3154808,66
3155436,123
3156120,197
3156788,187
3157468,152
3158148,149
3158820,134
3159500,59
3160128,74
3160744,161
3161428,150
3162100,116
3162772,64
3163400,52
3164024,54
3164656,53
3165284,63
3165904,132
3166588,105
3167268,38
3167888,25
3168520,33
3169144,32
3169776,17
3170404,14
3171024,77
3171656,144
3172332,110
3173004,56
3173632,54
3174256,82
3174888,121
3175568,145
3176244,117
3176920,70
3177552,13
3178168,83
3178800,111
3179476,124
3180148,182
3180828,145
3181500,64
3182120,22
3182752,19
3183368,21
3184000,16
3184624,11
3185248,16
3185880,26
3186504,27
3187136,35
3187768,84
3188384,99
3189016,79
3189644,76
3190276,82
3190904,58
3191528,61
3192160,74
3192784,59
3193412,11
3194044,10
3194664,16
3195296,16
3195928,39
3196544,47
3197176,74
3197800,99
3198432,85
3199064,40
3199680,31
3200312,36
3200936,33
3201560,29
3202188,44
3202808,60
3203436,57
3204060,19
3204680,59
3205312,91
3205928,110
3206608,84
3207228,62
3207848,47
3208476,59
3209100,48
3209728,12
3210356,27
3210976,57
3211604,67
3212228,31
3212852,43
3213480,47
3214096,48
3214728,56
3215352,55
3215976,57
3216608,31
3217228,15
3217860,79
3218488,144
3219156,84
3219784,32
3220408,31
3221032,46
3221660,46
3222280,58
3222908,62
3223536,44
3224160,69
3224788,99
3225412,57
3226044,13
3226672,15
3227288,10
3227920,19
3228544,28
3229172,67
3229804,80
3230424,88
3231052,113
3231728,91
3232352,42
3232980,15
3233604,130
3234284,164
3234960,130
3235636,98
3236264,121
3236944,92
3237560,41
3238188,53
3238812,49
3239436,49
3240068,46
3240688,53
3241316,85
3241940,71
3242564,46
3243192,51
3243816,59
3244448,27
3245076,22
3245696,21
3246324,42
3246948,51
3247580,52
3248212,49
3248832,19
3249460,12
3250084,11
3250708,19
3251340,67
3251960,120
3252640,128
3253320,89
3253944,70
3254576,46
3255200,72
3255824,79
3256452,74
3257072,79
3257700,64
3258324,56
3258948,77
3259580,74
3260200,34
3260828,14
3261460,52
3262080,29
3262708,45
3263336,49
3263968,47
3264600,49
3265216,37
3265844,24
3266468,19
3267096,17
3267724,32
3268344,42
3268972,51
3269600,47
3270224,25
3270856,37
3271472,75
3272104,97
3272732,74
3273352,49
3273984,17
3274608,29
3275240,20
3275868,10
3276488,29
3277120,38
3277740,55
3278364,40
3278992,20
3279608,53
3280236,48
3280856,48
3281480,49
3282108,16
3282724,21
3283352,36
3283984,43
3284600,32
3285228,13
3285848,17
3286476,33
3287104,28
3287728,43
3288356,45
3288976,53
3289604,55
3290232,31
3290848,11
3291476,22
3292100,11
3292724,14
3293352,20
3293968,41
3294600,14
3295224,20
3295844,36
3296476,49
3297096,53
3297728,49
3298356,52
3298976,13
3299604,16
3300224,17
3300856,58
3301484,106
3302156,145
3302832,186
3303512,166
3304180,59
3304804,107
3305484,187
3306156,170
3306832,140
3307508,125
3308180,132
3308856,112
3309524,78
3310144,19
3310772,94
3311392,132
3312072,89
3312696,43
3313312,62
3313940,84
3314564,109
3315244,37
3315868,133
3316540,135
3317216,52
3317844,13
3318464,11
3319092,60
3319716,140
3320392,140
3321064,51
3321688,47
3322316,66
3322944,60
3323568,43
3324196,30
3324820,29
3325444,48
3326076,58
3326696,43
3327324,32
3327952,15
3328576,15
3329204,55
3329820,54
3330452,46
3331080,50
3331696,51
3332324,54
3332948,86
3333576,46
3334204,22
3334824,50
3335452,42
3336076,12
3336704,13
3337332,33
3337952,87
3338580,121
3339256,73
3339872,49
3340500,60
3341124,109
3341804,72
3342428,28
3343048,17
3343676,10
3344300,13
3344924,20
3345552,14
3346168,41
3346800,44
3347420,45
3348044,49
3348672,32
3349296,25
3349924,18
3350552,17
3351176,29
3351804,33
3352428,41
3353060,34
3353692,26
3354312,52
3354940,87
3355564,55
3356188,52
3356816,39
3357440,29
3358068,31
3358692,32
3359316,31
3359948,26
3360568,12
3361196,38
3361824,54
3362448,66
3363076,85
3363700,74
3364328,76
3364956,63
3365576,35
3366204,35
3366828,104
3367504,137
3368176,146
3368852,100
3369524,44
3370148,13
3370768,29
3371396,58
3372020,60
3372644,68
3373272,63
3373896,49
3374528,48
3375156,22
3375776,48
3376404,100
3377080,104
3377748,67
3378372,23
3378992,23
3379620,44
3380252,47
3380872,53
3381500,52
3382124,21
3382752,55
3383380,54
3384000,16
3384628,34
3385252,12
3385876,62
3386504,20
3387120,46
3387752,102
3388432,82
3389048,47
3389676,91
3390300,36
3390932,99
3391560,184
3392236,207
3392912,165
3393588,123
3394260,75
3394884,17
3395508,37
3396132,197
3396812,270
3397484,266
3398160,230
3398840,179
3399516,92
3400144,20
3400772,34
3401392,32
3402020,28
3402644,12
3403268,13
3403900,24
3404520,62
3405148,71
3405772,62
3406396,69
3407024,59
3407644,47
3408272,57
3408900,57
3409520,17
3410148,11
3410772,13
3411404,17
3412032,17
3412648,60
3413280,61
3413900,48
3414532,47
3415164,43
3415784,38
3416412,77
3417036,29
3417660,64
3418292,118
3418964,132
3419640,117
3420320,17
3420944,64
3421572,100
3422256,91
3422872,65
3423500,33
3424128,38
3424756,79
3425388,83
3426008,22
3426636,30
3427260,29
3427884,69
3428516,126
3429188,129
3429864,118
3430548,61
3431168,49
3431796,64
3432420,80
3433044,86
3433676,82
3434296,75
3434924,13
3435556,65
3436176,82
3436804,92
3437428,91
3438060,41
3438692,59
3439312,55
3439944,66
3440568,106
3441244,132
3441920,149
3442596,157
3443268,108
3443944,42
3444560,81
3445188,148
3445868,95
3446488,56
3447116,54
3447740,56
3448364,51
3448992,35
3449612,19
3450240,17
3450864,27
3451488,19
3452116,53
3452740,49
3453372,36
3454004,18
3454624,60
3455256,78
3455880,61
3456508,50
3457140,38
3457760,45
3458388,45
3459012,41
3459636,36
3460264,54
3460888,38
3461516,11
3462140,19
3462768,45
3463396,53
3464020,64
3464648,49
3465280,21
3465896,13
3466524,11
3467148,43
3467780,137
3468460,96
3469080,36
3469708,26
3470332,26
3470960,49
3471588,86
3472216,92
3472844,113
3473524,178
3474196,194
3474876,103
3475556,21
3476176,87
3476804,77
3477428,69
3478056,127
3478736,100
3479404,55
3480032,50
3480660,46
3481280,51
3481912,46
3482532,45
3483156,23
3483788,14
3484408,17
3485036,52
3485660,89
3486284,62
3486912,31
3487536,43
3488164,49
3488792,82
3489416,100
3490096,119
3490764,124
3491436,92
3492060,80
3492684,64
3493316,44
3493944,42
3494564,31
3495192,32
3495816,68
3496444,77
3497076,48
3497696,89
3498324,123
3499000,90
3499620,73
3500248,101
3500924,110
3501600,75
3502232,43
3502848,21
3503476,27
3504100,48
3504724,78
3505356,98
3505976,96
3506604,75
3507236,30
3507856,67
3508484,102
3509160,63
3509776,17
3510408,29
3511024,45
3511656,48
3512280,46
3512904,45
3513532,52
3514152,50
3514784,49
3515412,16
3516032,11
3516664,11
3517288,10
3517920,22
3518548,41
3519168,54
3519800,59
3520424,56
3521048,44
3521676,52
3522296,76
3522928,76
3523548,61
3524172,47
3524800,40
3525424,42
3526052,24
3526684,26
3527304,55
3527932,50
3528556,16
3529188,50
3529816,74
3530436,92
3531064,94
3531688,111
3532364,62
3532992,38
3533608,15
3534236,51
3534864,148
3535540,260
3536216,299
3536892,219
3537572,82
3538200,53
3538824,118
3539504,190
3540180,210
3540852,166
3541528,104
3542212,41
3542832,39
3543464,80
3544092,66
3544712,63
3545340,23
3545964,47
3546596,46
3547224,48
3547848,47
3548476,34
3549100,13
3549728,12
3550356,28
3550976,48
3551608,31
3552232,30
3552856,53
3553484,30
3554104,37
3554732,44
3555364,58
3555984,52
3556616,72
3557240,144
3557920,164
3558604,129
3559276,122
3559956,93
3560584,21
3561200,59
3561832,84
3562456,113
3563132,105
3563812,90
3564432,142
3565112,136
3565796,65
3566416,63
3567044,111
3567728,40
3568344,21
3568972,47
3569596,68
3570224,83
3570852,50
3571472,47
3572100,75
3572728,85
3573352,84
3573984,101
3574660,118
3575340,113
3576020,99
3576640,87
3577268,71
3577900,30
3578520,19
3579152,37
3579776,57
3580408,59
3581036,78
3581656,88
3582288,101
3582964,17
3583584,43
3584216,46
3584836,25
3585468,31
3586096,60
3586712,88
3587344,101
3588020,68
3588640,47
3589268,65
3589888,82
3590516,105
3591200,104
3591868,65
3592492,57
3593116,102
3593796,118
3594476,36
3595096,35
3595728,35
3596356,44
3596976,50
3597604,67
3598228,67
3598856,30
3599484,18
3600104,16
3600732,26
3601356,62
3601980,44
3602608,28
3603232,24
3603860,17
3604492,76
3605112,103
3605792,115
3606460,100
3607132,57
3607756,33
3608376,12
3609004,45
3609632,111
3610308,68
3610932,59
3611556,37
3612180,34
3612808,58
3613424,53
3614056,49
3614680,49
3615304,41
3615932,76
3616552,59
3617180,39
3617812,38
3618432,37
3619060,45
3619684,39
3620316,40
3620944,45
3621560,47
3622192,52
3622816,56
3623440,78
3624068,116
3624740,129
3625416,77
3626044,25
3626664,11
3627292,10
3627916,22
3628548,13
3629176,48
3629800,51
3630428,52
3631052,61
3631676,61
3632308,16
3632928,22
3633556,44
3634188,82
3634808,125
3635488,175
3636164,159
3636836,66
3637460,59
3638084,122
3638768,146
3639440,136
3640116,107
3640792,72
3641424,43
3642040,11
3642668,78
3643292,101
3643968,48
3644600,22
3645216,20
3645848,43
3646476,48
3647096,49
3647724,48
3648352,62
3648980,55
3649608,40
3650224,31
3650852,41
3651476,62
3652104,46
3652732,22
3653352,16
3653980,67
3654608,155
3655284,173
3655960,143
3656636,92
3657256,71
3657888,27
3658504,12
3659132,10
3659760,21
3660384,33
3661012,53
3661636,59
3662268,25
3662896,44
3663520,50
3664152,47
3664776,52
3665404,55
3666036,68
3666656,104
3667336,102
3668016,73
3668640,49
3669268,27
3669892,21
3670524,52
3671156,93
3671776,114
3672460,120
3673140,122
3673812,120
3674488,68
3675112,14
3675736,100
3676420,57
3677040,12
3677672,65
3678300,70
3678920,19
3679552,52
3680176,48
3680800,54
3681428,96
3682048,139
3682728,126
3683408,70
3684032,39
3684660,69
3685288,89
3685912,26
3686540,73
3687160,141
3687840,178
3688512,128
3689188,60
3689812,56
3690436,27
3691060,51
3691688,31
3692304,39
3692936,75
3693560,93
3694184,76
3694812,36
3695436,30
3696064,41
3696696,50
3697312,90
3697940,92
3698564,51
3699192,31
3699824,29
3700448,31
3701076,26
3701700,25
3702328,43
3702956,51
3703576,54
3704208,45
3704832,54
3705456,78
3706088,60
3706712,45
3707340,24
3707972,14
3708592,45
3709224,83
3709848,98
3710472,129
3711152,95
3711768,53
3712400,54
3713024,43
3713648,57
3714276,76
3714900,67
3715532,80
3716160,67
3716776,18
3717408,31
3718032,26
3718660,15
3719292,68
3719912,93
3720544,60
3721168,39
3721792,52
3722420,69
3723040,82
3723668,111
3724352,100
3725020,92
3725644,57
3726268,26
3726892,11
3727524,15
3728144,25
3728772,31
3729396,40
3730020,49
3730652,81
3731276,117
3731956,86
3732584,56
3733200,33
3733828,24
3734452,22
3735076,25
3735708,46
3736328,49
3736956,38
3737584,51
3738208,71
3738840,80
3739464,84
3740092,98
3740724,95
3741344,89
3741976,59
3742600,37
3743232,16
3743860,18
3744480,50
3745108,31
3745732,40
3746360,45
3746988,46
3747608,46
3748240,46
3748860,48
3749488,43
3750116,24
3750744,15
3751372,29
3752004,48
3752624,75
3753256,70
3753880,27
3754504,58
3755136,86
3755752,121
3756436,142
3757116,133
3757788,96
3758416,29
3759040,19
3759664,43
3760296,43
3760912,54
3761544,49
3762168,18
3762792,45
3763424,53
3764048,48
3764676,47
3765308,22
3765928,53
3766560,52
3767184,12
3767812,27
3768444,43
3769064,58
3769692,64
3770316,63
3770940,67
3771572,70
3772192,112
3772872,48
3773504,27
3774120,37
3774752,45
3775376,12
3776004,12
3776636,32
3777256,41
3777884,50
3778512,22
3779136,42
3779764,44
3780384,46
3781012,46
3781644,54
3782264,55
3782896,79
3783520,88
3784148,36
3784780,68
3785400,109
3786084,86
3786704,102
3787380,150
3788060,65
3788680,49
3789312,55
3789940,52
3790560,68
3791188,75
3791816,91
3792440,79
3793068,75
3793688,80
3794316,15
3794944,56
3795568,22
3796196,90
3796824,85
3797452,58
3798084,46
3798704,17
3799336,48
3799960,61
3800584,36
3801216,39
3801832,139
3802516,173
3803196,134
3803868,55
3804496,49
3805120,64
3805744,64
3806376,53
3806992,18
3807624,37
3808248,79
3808872,87
3809504,65
3810128,50
3810760,14
3811388,56
3812008,60
3812636,50
3813264,47
3813892,49
3814524,48
3815144,27
3815776,24
3816400,13
3817024,13
3817652,26
3818272,85
3818904,105
3819584,82
3820208,33
3820840,48
3821460,68
3822088,88
3822716,100
3823388,96
3824016,103
3824696,115
3825364,132
3826044,124
3826724,53
3827344,29
3827976,82
3828600,54
3829232,43
3829864,71
3830480,135
3831164,102
3831844,71
3832464,81
3833096,64
3833720,31
3834352,19
3834984,13
3835604,16
3836232,22
3836860,23
3837484,50
3838116,84
3838736,76
3839368,57
3839996,39
3840628,27
3841256,45
3841880,61
3842508,47
3843140,32
3843760,23
3844388,14
3845012,13
3845640,37
3846268,48
3846888,48
3847516,47
3848140,48
3848764,12
3849396,20
3850016,43
3850644,47
3851276,42
3851896,24
3852524,26
3853148,13
3853780,14
3854408,51
3855028,58
3855656,64
3856280,74
3856904,84
3857532,52
3858152,39
3858780,25
3859408,40
3860028,96
3860660,90
3861280,81
3861908,44
3862540,44
3863160,72
3863792,71
3864416,72
3865044,39
3865676,10
3866296,13
3866924,19
3867548,31
3868172,89
3868804,137
3869476,108
3870152,36
3870784,76
3871400,122
3872084,106
3872756,83
3873376,72
3874004,74
3874628,90
3875260,86
3875888,18
3876512,51
3877140,43
3877768,13
3878396,32
3879028,67
3879648,62
3880280,57
3880904,65
3881528,114
3882212,99
3882832,67
3883464,71
3884092,80
3884712,108
3885396,116
3886068,86
3886688,62
3887320,38
3887944,99
3888576,141
3889260,124
3889932,114
3890612,124
3891292,133
3891964,71
3892588,28
3893212,70
3893836,168
3894520,133
3895188,72
3895812,41
3896440,50
3897064,54
3897692,84
3898316,93
3898940,100
3899624,68
3900240,50
3900872,31
3901500,12
3902120,18
3902748,79
3903376,211
3904056,150
3904736,45
3905360,77
3905988,128
3906672,172
3907340,158
3908020,89
3908644,15
3909264,75
3909896,92
3910520,65
3911148,38
3911780,10
3912400,47
3913028,43
3913656,84
3914280,128
3914960,110
3915628,94
3916256,43
3916884,11
3917504,30
3918136,23
3918760,15
3919384,16
3920012,19
3920632,31
3921264,49
3921888,60
3922512,74
3923144,99
3923760,132
3924444,163
3925124,152
3925796,89
3926424,17
3927052,44
3927672,126
3928356,156
3929028,72
3929648,45
3930276,47
3930896,53
3931528,51
3932152,38
3932776,46
3933404,59
3934032,52
3934660,35
3935292,82
3935912,85
3936544,104
3937220,72
3937840,41
3938468,56
3939088,53
3939716,52
3940344,56
3940968,58
3941596,51
3942220,44
3942852,31
3943484,22
3944104,39
3944732,81
3945356,63
3945988,41
3946616,46
3947236,47
3947864,50
3948488,58
3949112,70
3949744,42
3950360,14
3950992,29
3951620,25
3952240,14
3952868,24
3953492,52
3954124,135
3954804,174
3955476,178
3956152,146
3956836,125
3957508,120
3958188,60
3958816,84
3959432,129
3960116,141
3960788,164
3961460,177
3962140,108
3962812,54
3963432,49
3964064,48
3964680,48
3965312,14
3965936,13
3966560,13
3967192,19
3967816,13
3968448,16
3969076,12
3969696,13
3970324,33
3970948,99
3971580,159
3972264,189
3972932,146
3973612,70
3974236,31
3974856,42
3975484,36
3976108,241
3976784,303
3977468,180
3978140,56
3978760,25
3979388,55
3980008,62
3980636,65
3981264,64
3981888,17
3982516,18
3983136,11
3983768,12
3984396,10
3985016,13
3985644,32
3986272,52
3986900,57
3987532,50
3988152,81
3988784,72
3989408,72
3990032,52
3990664,48
3991280,59
3991912,67
3992536,73
3993164,85
3993792,83
3994416,41
3995044,31
3995676,50
3996296,48
3996924,63
3997548,59
3998180,103
3998864,120
3999532,64
4000160,19
4000788,10
4001408,33
4002036,61
4002660,81
4003288,124
4003968,128
4004636,62
4005260,47
4005884,67
4006512,103
4007192,146
4007860,157
4008532,115
4009208,61
4009832,37
4010460,47
4011092,32
4011712,20
4012340,52
4012968,57
4013592,48
4014220,48
4014840,49
4015468,46
4016092,21
4016716,28
4017344,50
4017968,24
4018596,15
4019228,36
4019848,58
4020476,83
4021100,82
4021728,83
4022360,66
4022980,47
4023608,51
4024232,65
4024856,69
4025484,51
4026104,11
4026732,13
4027356,11
4027980,10
4028612,20
4029232,44
4029860,45
4030492,46
4031112,49
4031744,35
4032368,27
4032996,21
4033628,34
4034248,76
4034876,100
4035552,85
4036176,61
4036804,42
4037424,46
4038052,65
4038684,70
4039304,94
4039936,124
4040612,131
4041284,119
4041960,93
4042584,60
4043212,24
4043844,10
4044464,25
4045096,29
4045720,41
4046340,46
4046972,54
4047592,50
4048224,64
4048848,39
4049468,30
4050100,63
4050720,62
4051348,32
4051980,28
4052600,19
4053228,13
4053852,20
4054484,39
4055116,65
4055736,67
4056364,49
4056988,13
4057612,15
4058244,24
4058864,75
4059492,56
4060120,53
4060744,97
4061372,57
4061992,17
4062624,39
4063252,49
4063872,53
4064504,50
4065128,19
4065760,12
4066388,22
4067008,21
4067640,12
4068264,15
4068888,59
4069516,77
4070136,84
4070768,55
4071392,49
4072016,49
4072644,48
4073264,52
4073896,106
4074576,160
4075244,206
4075924,154
4076604,21
4077224,46
4077852,44
4078480,38
4079108,73
4079740,76
4080360,55
4080992,52
4081616,59
4082240,72
4082872,63
4083488,16
4084120,13
4084748,11
4085368,15
4086000,29
4086624,100
4087304,122
4087980,58
4088600,51
4089232,68
4089864,49
4090480,12
4091112,11
4091736,41
4092368,79
4093000,70
4093620,39
4094248,34
4094876,82
4095500,56
4096132,42
4096748,47
4097376,47
4097996,52
4098620,34
4099248,19
4099864,25
4100492,12
4101112,31
4101736,31
4102364,49
4102988,94
4103616,52
4104244,49
4104860,95
4105492,95
4106116,55
4106744,36
4107372,60
4107992,87
4108620,87
4109244,82
4109864,76
4110496,69
4111112,20
4111740,21
4112364,50
4112988,47
4113616,56
4114232,60
4114864,100
4115544,182
4116212,152
4116888,73
4117516,24
4118136,16
4118764,48
4119388,35
4120016,13
4120644,48
4121264,79
4121892,77
4122516,52
4123140,68
4123772,68
4124392,38
4125020,137
4125700,140
4126372,90
4127000,32
4127620,33
4128252,29
4128880,38
4129496,57
4130124,51
4130748,45
4131372,79
4132000,95
4132616,52
4133248,22
4133868,23
4134492,54
4135124,58
4135744,55
4136376,38
4137004,16
4137624,53
4138252,75
4138872,72
4139504,65
4140132,50
4140752,59
4141380,84
4142004,105
4142680,94
4143308,60
4143928,13
4144556,46
4145188,22
4145808,43
4146436,114
4147112,205
4147788,97
4148412,24
4149032,21
4149660,31
4150288,34
4150912,39
4151540,29
4152164,14
4152796,15
4153424,18
4154048,48
4154676,70
4155300,91
4155924,73
4156556,70
4157176,56
4157808,41
4158428,25
4159052,28
4159684,56
4160304,35
4160932,32
4161560,41
4162176,31
4162808,46
4163428,46
4164060,70
4164688,109
4165356,76
4165980,59
4166604,37
4167228,18
4167856,27
4168472,15
4169104,94
4169724,146
4170404,189
4171080,111
4171748,48
4172368,46
4172996,48
4173616,72
4174244,35
4174872,23
4175496,33
4176124,25
4176748,32
4177380,29
4178008,35
4178624,40
4179252,44
4179876,45
4180496,56
4181128,51
4181744,19
4182372,17
4182996,12
4183620,37
4184252,56
4184872,22
4185500,16
4186132,14
4186752,31
4187380,45
4188004,65
4188632,106
4189316,104
4189988,115
4190664,91
4191296,50
4191912,43
4192544,91
4193168,68
4193796,36
4194428,36
4195048,34
4195676,41
4196300,45
4196924,45
4197556,46
4198176,44
4198808,25
4199436,13
4200056,33
4200684,22
4201304,12
4201936,16
4202564,14
4203184,15
4203812,31
4204436,41
4205060,49
4205692,48
4206312,52
4206940,34
4207564,31
4208188,14
4208816,11
4209440,40
4210068,109
4210748,121
4211420,81
4212044,68
4212668,56
4213292,47
4213920,46
4214544,69
4215172,64
4215796,14
4216424,69
4217052,68
4217676,43
4218304,28
4218936,25
4219552,74
4220180,174
4220856,70
4221472,88
4222104,137
4222772,69
4223396,47
4224028,43
4224644,59
4225272,47
4225896,84
4226528,188
4227208,156
4227876,102
4228552,46
4229180,41
4229800,48
4230428,49
4231052,50
4231680,32
4232308,19
4232928,14
4233556,20
4234184,13
4234808,28
4235436,18
4236056,12
4236684,15
4237312,54
4237936,86
4238564,87
4239188,65
4239820,60
4240452,55
4241072,49
4241700,32
4242324,14
4242948,33
4243580,46
4244200,73
4244828,68
4245452,48
4246076,43
4246708,48
4247328,49
4247956,49
4248588,46
4249208,71
4249840,72
4250460,69
4251092,77
4251720,68
4252336,58
4252968,41
4253592,14
4254216,50
4254848,53
4255464,54
4256096,79
4256716,101
4257392,77
4258016,15
4258640,25
4259268,13
4259900,36
4260520,74
4261148,70
4261772,94
4262400,116
4263080,94
4263696,65
4264324,49
4264948,33
4265572,32
4266200,42
4266824,55
4267452,99
4268084,178
4268756,195
4269436,117
4270116,44
4270736,46
4271364,57
4271988,60
4272620,69
4273248,68
4273872,68
4274500,69
4275128,79
4275752,79
4276380,70
4277000,63
4277628,34
4278252,15
4278876,38
4279508,45
4280132,81
4280764,99
4281392,83
4282012,29
4282640,23
4283264,29
4283892,11
4284524,15
4285144,15
4285772,51
4286396,123
4287076,72
4287704,49
4288328,93
4288956,98
4289584,72
4290208,61
4290836,53
4291460,67
4292092,73
4292720,39
4293340,15
4293968,19
4294592,36
4295216,16
4295844,40
4296464,43
4297092,59
4297716,83
4298344,135
4299024,80
4299644,19
4300272,47
4300904,44
4301520,12
4302148,35
4302772,54
4303396,64
4304024,43
4304648,58
4305276,57
4305900,54
4306524,42
4307152,42
4307776,54
4308404,47
4309036,14
4309656,25
4310284,12
4310912,19
4311540,12
4312172,44
4312792,53
4313424,51
4314048,49
4314672,54
4315300,12
4315920,19
4316552,22
4317176,19
4317800,83
4318428,139
4319104,128
4319788,88
4320416,26
4321032,70
4321664,89
4322284,80
4322908,99
4323540,120
4324216,144
4324888,152
4325568,207
4326244,162
4326920,64
4327548,40
4328168,105
4328848,135
4329524,165
4330196,196
4330876,99
4331496,60
4332120,43
4332748,31
4333368,13
4333996,19
4334628,34
4335248,42
4335876,43
4336504,35
4337132,31
4337764,122
4338436,104
4339112,99
4339744,109
4340412,96
4341040,101
4341716,66
4342336,19
4342964,11
4343584,20
4344212,25
4344844,30
4345464,33
4346096,117
4346768,150
4347444,71
4348072,49
4348688,16
4349316,33
4349944,57
4350568,65
4351196,92
4351824,89
4352456,57
4353084,66
4353704,78
4354332,41
4354956,67
4355588,122
4356268,137
4356940,130
4357616,135
4358296,153
4358972,124
4359648,74
4360280,52
4360896,13
4361524,12
4362148,31
4362776,47
4363404,84
4364024,71
4364652,49
4365276,15
4365900,15
4366532,20
4367152,31
4367784,101
4368464,171
4369132,164
4369808,102
4370488,59
4371112,44
4371744,60
4372368,79
4372996,90
4373628,104
4374300,91
4374928,79
4375556,56
4376176,35
4376804,11
4377428,43
4378060,42
4378692,19
4379312,49
4379944,49
4380568,48
4381192,49
4381824,14
4382440,11
4383072,13
4383696,29
4384320,45
4384948,40
4385568,28
4386196,15
4386828,14
4387448,59
4388076,76
4388700,73
4389332,63
4389964,54
4390584,43
4391212,14
4391836,28
4392464,16
4393092,44
4393712,84
4394340,77
4394968,87
4395592,104
4396272,52
4396896,57
4397524,87
4398156,135
4398828,144
4399508,89
4400136,29
4400752,15
4401384,11
4402008,35
4402636,34
4403268,40
4403888,43
4404516,85
4405140,105
4405816,56
4406444,44
4407064,30
4407692,20
4408316,14
4408944,20
4409572,16
4410200,15
4410828,11
4411460,10
4412080,21
4412708,57
4413336,67
4413960,60
4414592,51
4415208,15
4415836,12
4416464,15
4417088,18
4417716,35
4418336,36
4418968,35
4419596,28
4420216,27
4420844,45
4421468,73
4422100,103
4422784,113
4423452,126
4424132,120
4424808,102
4425484,86
4426108,101
4426792,94
4427408,15
4428036,59
4428664,36
4429292,48
4429920,73
4430544,56
4431172,170
4431852,271
4432524,148
4433200,79
4433824,79
4434448,94
4435076,58
4435696,45
4436324,53
4436948,34
4437572,57
4438204,90
4438824,79
4439456,70
4440084,74
4440704,79
4441336,83
4441960,65
4442588,38
4443220,32
4443840,21
4444472,25
4445096,29
4445720,42
4446348,45
4446968,49
4447596,68
4448224,70
4448848,15
4449476,61
4450096,76
4450724,75
4451356,26
4451976,31
4452608,53
4453232,47
4453860,44
4454492,43
4455112,77
4455744,91
4456368,52
4456992,32
4457620,50
4458240,47
4458868,69
4459496,101
4460172,110
4460852,96
4461472,85
4462096,89
4462724,82
4463344,56
4463976,46
4464600,73
4465228,124
4465908,49
4466528,29
4467160,40
4467788,11
4468408,17
4469036,24
4469664,41
4470288,38
4470920,38
4471536,50
4472168,66
4472792,59
4473416,21
4474048,29
4474664,20
4475296,19
4475928,13
4476544,21
4477176,10
4477804,12
4478432,36
4479064,71
4479688,79
4480320,60
4480944,61
4481568,42
4482196,12
4482816,44
4483444,79
4484068,97
4484692,87
4485320,80
4485944,72
4486572,50
4487204,42
4487824,63
4488452,86
4489076,80
4489708,57
4490336,59
4490956,64
4491584,49
4492208,49
4492832,35
4493464,19
4494080,15
4494712,14
4495336,53
4495960,79
4496592,55
4497208,49
4497836,47
4498468,26
4499088,34
4499720,27
4500344,32
4500972,31
4501604,18
4502224,85
4502856,132
4503532,168
4504204,64
4504832,51
4505456,64
4506088,51
4506716,17
4507336,29
4507964,93
4508588,89
4509212,58
4509840,88
4510464,47
4511092,39
4511716,32
4512344,42
4512972,46
4513592,49
4514220,49
4514852,30
4515472,11
4516100,13
4516724,19
4517356,11
4517988,14
4518608,18
4519236,13
4519860,22
4520484,40
4521116,54
4521736,69
4522364,72
4522988,82
4523612,74
4524244,65
4524868,60
4525496,40
4526128,12
4526744,10
4527372,13
4527996,12
4528628,18
4529260,38
4529880,45
4530508,47
4531136,48
4531760,21
4532388,13
4533008,19
4533636,11
4534264,11
4534888,25
4535516,68
4536140,90
4536772,93
4537404,54
4538024,46
4538652,49
4539280,51
4539908,64
4540540,38
4541160,11
4541792,13
4542416,40
4543040,53
4543672,59
4544292,30
4544920,24
4545548,42
4546168,57
4546800,72
4547420,51
4548052,45
4548680,20
4549304,14
4549932,47
4550556,51
4551184,12
4551812,38
4552432,55
4553060,31
4553688,24
4554312,62
4554940,59
4555560,47
4556192,49
4556820,22
4557440,39
4558068,61
4558692,67
4559324,49
4559956,34
4560576,15
4561208,12
4561832,52
4562456,64
4563084,49
4563704,59
4564336,92
4564960,68
4565584,49
4566212,54
4566832,49
4567464,32
4568092,12
4568712,18
4569344,32
4569968,47
4570596,46
4571228,48
4571848,55
4572480,55
4573104,48
4573728,57
4574360,60
4574976,61
4575608,70
4576232,75
4576856,80
4577488,40
4578104,12
4578736,44
4579364,52
4579984,47
4580616,47
4581240,108
4581924,130
4582604,58
4583224,13
4583856,24
4584484,14
4585104,22
4585736,27
4586360,33
4586992,31
4587620,46
4588240,49
4588868,47
4589492,47
4590116,13
4590748,18
4591368,21
4591996,42
4592624,64
4593248,98
4593880,82
4594504,57
4595132,68
4595764,84
4596384,74
4597016,71
4597640,78
4598268,43
4598900,12
4599520,77
4600152,201
4600828,148
4601500,60
4602128,41
4602752,35
4603384,63
4604012,55
4604632,51
4605264,51
4605888,64
4606512,43
4607144,38
4607764,94
4608396,126
4609076,83
4609696,40
4610324,21
4610948,11
4611576,12
4612204,48
4612824,55
4613452,54
4614076,49
4614700,43
4615328,28
4615952,86
4616580,72
4617204,17
4617828,75
4618460,91
4619084,90
4619712,94
4620340,90
4620960,76
4621588,63
4622212,47
4622844,60
4623472,81
4624096,79
4624724,110
4625400,89
4626016,42
4626648,31
4627272,20
4627900,11
4628532,14
4629152,39
4629780,44
4630404,49
4631032,46
4631664,20
4632288,22
4632916,14
4633544,24
4634168,18
4634796,73
4635416,171
4636096,178
4636776,76
4637400,55
4638032,124
4638708,136
4639380,100
4640056,82
4640680,67
4641300,54
4641932,53
4642552,17
4643180,39
4643808,51
4644432,53
4645060,25
4645680,49
4646308,61
4646940,70
4647560,58
4648188,26
4648812,14
4649444,20
4650072,29
4650696,99
4651324,165
4652000,90
4652624,15
4653252,14
4653872,43
4654504,49
4655132,52
4655752,52
4656384,51
4657008,61
4657636,87
4658268,70
4658888,54
4659520,33
4660140,19
4660764,17
4661396,20
4662016,25
4662644,45
4663268,49
4663892,51
4664524,51
4665144,41
4665776,51
4666404,32
4667024,11
4667656,11
4668280,13
4668908,19
4669540,28
4670160,21
4670788,53
4671416,62
4672040,60
4672668,50
4673288,18
4673916,56
4674540,77
4675164,39
4675796,58
4676420,65
4677052,75
4677680,42
4678300,16
4678928,46
4679552,50
4680184,48
4680816,46
4681432,36
4682064,84
4682688,119
4683364,98
4683992,78
4684616,72
4685248,57
4685876,50
4686496,53
4687124,44
4687752,62
4688380,66
4689012,70
4689632,69
4690260,71
4690888,85
4691508,79
4692140,62
4692760,36
4693392,35
4694020,27
4694640,15
4695268,33
4695896,60
4696524,52
4697156,46
4697776,45
4698404,29
4699028,71
4699656,77
4700288,55
4700904,27
4701532,14
4702160,21
4702784,39
4703416,79
4704036,57
4704664,48
4705292,48
4705912,49
4706544,23
4707168,13
4707800,29
4708432,50
4709052,67
4709684,79
4710308,76
4710936,57
4711564,85
4712184,121
4712864,110
4713548,76
4714168,47
4714796,121
4715476,202
4716148,178
4716828,128
4717500,100
4718172,70
4718800,42
4719416,15
4720048,33
4720676,106
4721348,144
4722028,125
4722704,80
4723328,57
4723956,35
4724584,35
4725212,57
4725844,24
4726464,34
4727092,67
4727720,53
4728344,17
4728972,50
4729592,54
4730224,67
4730848,88
4731472,97
4732104,76
4732724,33
4733352,12
4733984,40
4734604,103
4735288,152
4735956,260
4736632,207
4737308,72
4737928,59
4738556,112
4739240,95
4739856,51
4740484,40
4741108,85
4741736,83
4742368,37
4742992,33
4743624,17
4744252,36
4744872,27
4745504,41
4746128,49
4746760,51
4747388,48
4748008,47
4748640,49
4749264,41
4749888,29
4750520,11
4751136,16
4751768,31
4752400,28
4753016,55
4753648,46
4754272,43
4754904,54
4755532,55
4756152,61
4756784,84
4757408,104
4758084,100
4758760,68
4759384,46
4760016,31
4760644,16
4761264,58
4761896,74
4762520,54
4763144,49
4763772,48
4764392,48
4765024,15
4765648,22
4766272,40
4766900,45
4767520,20
4768152,37
4768780,73
4769400,67
4770028,34
4770656,49
4771284,85
4771916,74
4772536,54
4773168,22
4773792,12
4774416,16
4775044,14
4775664,26
4776296,26
4776920,23
4777544,19
4778176,25
4778792,40
4779424,47
4780056,46
4780672,45
4781304,43
4781932,12
4782564,11
4783192,11
4783812,25
4784444,51
4785068,35
4785696,28
4786324,43
4786944,54
4787576,40
4788200,51
4788824,47
4789456,52
4790072,20
4790704,12
4791336,68
4791956,137
4792640,118
4793308,64
4793928,23
4794560,11
4795176,21
4795808,41
4796440,48
4797060,48
4797692,61
4798316,56
4798948,33
4799580,12
4800200,15
4800832,11
4801456,29
4802080,61
4802708,74
4803328,62
4803956,48
4804580,46
4805204,51
4805836,48
4806456,31
4807084,28
4807716,56
4808336,65
4808964,54
4809588,51
4810220,47
4810852,12
4811472,12
4812104,39
4812728,46
4813352,45
4813980,46
4814600,47
4815228,14
4815852,16
4816476,11
4817108,31
4817732,26
4818364,20
4818992,16
4819616,25
4820244,16
4820868,45
4821500,53
4822132,44
4822752,66
4823384,55
4824008,19
4824628,68
4825260,76
4825880,37
4826508,11
4827132,32
4827760,33
4828392,16
4829016,42
4829644,46
4830276,48
4830896,48
4831528,23
4832152,32
4832776,43
4833408,42
4834024,31
4834652,11
4835276,49
4835900,75
4836532,100
4837204,94
4837832,54
4838460,53
4839080,77
4839708,102
4840384,110
4841060,62
4841684,73
4842308,61
4842940,18
4843572,21
4844192,53
4844820,91
4845444,139
4846128,71
4846752,45
4847368,48
4847996,43
4848624,13
4849248,11
4849876,10
4850504,13
4851132,26
4851768,45
4852384,54
4853016,35
4853640,27
4854272,58
4854900,65
4855520,54
4856152,53
4856776,57
4857400,63
4858032,71
4858648,72
4859280,50
4859912,35
4860528,21
4861160,14
4861784,38
4862416,85
4863044,71
4863664,47
4864296,67
4864920,82
4865544,91
4866172,95
4866792,61
4867424,63
4868048,96
4868672,75
4869300,28
4869920,19
4870548,50
4871180,69
4871800,63
4872432,57
4873056,33
4873684,19
4874316,16
4874936,66
4875564,78
4876192,72
4876816,48
4877444,11
4878064,18
4878696,43
4879320,52
4879944,51
4880576,49
4881192,53
4881824,38
4882452,54
4883072,56
4883704,53
4884328,23
4884956,63
4885588,138
4886260,152
4886940,100
4887620,45
4888240,45
4888872,52
4889496,87
4890120,115
4890800,133
4891476,136
4892156,92
4892784,22
4893404,19
4894032,47
4894660,93
4895284,111
4895968,80
4896584,54
4897216,45
4897848,49
4898464,13
4899096,39
4899720,71
4900352,73
4900984,90
4901600,67
4902232,45
4902856,21
4903480,17
4904112,60
4904732,59
4905360,71
4905992,60
4906612,53
4907244,53
4907868,50
4908500,47
4909132,28
4909752,23
4910384,12
4911008,23
4911636,14
4912268,42
4912888,42
4913520,46
4914144,46
4914772,31
4915404,19
4916024,14
4916652,11
4917280,16
4917896,30
4918528,43
4919152,29
4919780,14
4920412,43
4921032,51
4921660,59
4922284,50
4922908,48
4923536,39
4924156,65
4924784,71
4925412,48
4926036,21
4926664,11
4927284,21
4927912,28
4928544,18
4929160,43
4929788,45
4930412,61
4931044,53
4931672,37
4932288,17
4932920,15
4933544,40
4934168,34
4934796,14
4935416,19
4936044,23
4936668,21
4937292,46
4937924,65
4938544,69
4939172,64
4939804,55
4940424,60
4941056,65
4941676,52
4942308,21
4942936,10
4943560,20
4944188,45
4944812,51
4945436,46
4946068,50
4946688,56
4947316,51
4947940,49
4948564,21
4949196,12
4949816,17
4950444,25
4951076,14
4951696,15
4952324,15
4952948,24
4953580,26
4954212,56
4954832,79
4955464,63
4956088,51
4956712,18
4957344,28
4957960,54
4958592,61
4959216,30
4959840,20
4960472,90
4961096,141
4961776,93
4962400,63
4963016,57
4963648,45
4964272,53
4964896,26
4965524,18
4966144,33
4966776,32
4967400,24
4968020,17
4968652,20
4969272,21
4969900,17
4970532,46
4971152,69
4971784,100
4972460,73
4973080,70
4973708,84
4974328,77
4974960,31
4975584,12
4976208,32
4976836,22
4977456,31
4978084,68
4978716,55
4979336,48
4979964,63
4980588,126
4981272,203
4981948,175
4982620,90
4983248,27
4983876,10
4984496,13
4985124,25
4985752,21
4986376,19
4987008,40
4987624,61
4988256,59
4988880,50
4989504,47
4990132,43
4990752,85
4991384,113
4992068,77
4992688,33
4993316,13
4993940,21
4994568,39
4995196,18
4995816,46
4996448,53
4997072,47
4997696,52
4998324,15
4998944,11
4999572,16
5000204,13
5000824,24
5001452,39
5002076,17
5002708,15
5003340,22
5003960,48
5004592,57
5005216,57
5005840,57
5006468,43
5007088,31
5007720,36
5008344,28
5008968,23
5009596,14
5010216,13
5010848,19
5011476,23
5012096,41
5012728,44
5013352,47
5013984,47
5014612,44
5015232,25
5015864,25
5016488,14
5017112,19
5017744,16
5018360,28
5018988,39
5019616,14
5020240,33
5020868,40
5021488,53
5022116,64
5022748,130
5023420,135
5024100,62
5024720,15
5025344,13
5025972,11
5026592,31
5027224,25
5027852,16
5028472,33
5029104,53
5029728,52
5030360,51
5030992,48
5031608,64
5032240,63
5032864,20
5033488,39
5034120,91
5034736,96
5035368,92
5035996,66
5036620,43
5037252,58
5037872,55
5038504,48
5039136,95
5039756,148
5040440,104
5041108,28
5041728,25
5042360,52
5042976,56
5043608,63
5044236,17
5044856,32
5045484,71
5046112,65
5046740,46
5047372,72
5047992,47
5048624,17
5049248,19
5049872,17
5050504,11
5051120,26
5051752,42
5052376,34
5053004,35
5053636,44
5054256,45
5054888,47
5055516,45
5056140,53
5056768,74
5057392,87
5058024,76
5058652,50
5059272,31
5059904,20
5060528,13
5061152,45
5061784,78
5062400,71
5063032,53
5063656,46
5064284,51
5064912,82
5065536,75
5066168,37
5066800,86
5067424,105
5068108,14
5068728,46
5069356,55
5069988,48
5070608,61
5071240,59
5071864,49
5072488,49
5073120,66
5073744,31
5074376,55
5075008,83
5075628,54
5076260,14
5076884,18
5077512,17
5078144,30
5078764,63
5079396,54
5080020,50
5080644,88
5081276,123
5081948,114
5082628,50
5083256,12
5083872,39
5084504,52
5085128,33
5085752,17
5086384,12
5087004,43
5087636,63
5088268,83
5088888,85
5089516,91
5090144,87
5090772,56
5091404,29
5092024,15
5092656,29
5093280,47
5093904,84
5094536,102
5095208,28
5095832,63
5096460,69
5097080,53
5097712,49
5098336,23
5098968,32
5099600,19
5100216,19
5100848,37
5101472,60
5102096,129
5102780,185
5103452,78
5104080,85
5104712,150
5105380,156
5106060,116
5106740,79
5107364,65
5107992,88
5108620,97
5109252,24
5109884,61
5110504,38
5111136,11
5111760,14
5112388,42
5113020,68
5113640,106
5114324,105
5115004,102
5115676,80
5116304,61
5116936,44
5117556,48
5118188,35
5118816,41
5119448,46
5120080,26
5120696,57
5121324,100
5121996,102
5122668,72
5123292,47
5123916,43
5124544,61
5125172,70
5125792,56
5126420,27
5127044,15
5127672,46
5128300,38
5128920,40
5129548,48
5130172,49
5130796,50
5131428,22
5132048,11
5132676,11
5133300,19
5133924,26
5134552,11
5135176,37
5135808,52
5136436,31
5137056,58
5137684,112
5138360,105
5139028,66
5139656,58
5140272,60
5140900,83
5141532,76
5142152,36
5142780,179
5143456,189
5144132,214
5144808,117
5145484,44
5146112,71
5146740,70
5147360,71
5147988,47
5148612,32
5149236,53
5149868,68
5150488,71
5151116,51
5151744,24
5152368,19
5152996,45
5153620,48
5154252,47
5154880,64
5155496,53
5156128,56
5156752,82
5157384,79
5158012,93
5158632,95
5159260,64
5159884,41
5160512,18
5161140,106
5161812,96
5162436,70
5163068,93
5163688,116
5164368,113
5165036,78
5165656,31
5166284,25
5166904,38
5167532,36
5168164,46
5168784,18
5169412,23
5170036,41
5170668,42
5171300,57
5171920,59
5172548,56
5173172,59
5173796,63
5174424,81
5175048,85
5175676,63
5176300,66
5176928,46
5177556,13
5178180,29
5178812,42
5179444,47
5180064,61
5180696,52
5181320,31
5181948,12
5182580,12
5183200,14
5183828,24
5184456,32
5185080,38
5185708,38
5186328,47
5186956,51
5187580,52
5188208,88
5188836,63
5189460,54
5190092,121
5190772,152
5191444,143
5192124,112
5192800,80
5193424,70
5194056,28
5194680,26
5195304,43
5195932,50
5196552,81
5197184,88
5197808,106
5198484,136
5199164,48
5199784,18
5200408,35
5201036,11
5201656,15
5202284,13
5202908,14
5203532,32
5204164,79
5204784,102
5205464,95
5206096,84
5206712,49
5207344,93
5207968,92
5208592,14
5209220,31
5209840,30
5210468,13
5211092,15
5211716,56
5212348,67
5212968,52
5213596,53
5214228,58
5214848,50
5215480,86
5216104,83
5216732,52
5217364,51
5217984,73
5218616,91
5219240,56
5219864,105
5220544,98
5221160,57
5221792,57
5222420,91
5223040,112
5223720,148
5224388,124
5225060,34
5225684,15
5226308,18
5226940,41
5227568,26
5228192,24
5228820,51
5229444,53
5230076,47
5230708,50
5231328,26
5231960,15
5232584,11
5233208,19
5233836,34
5234456,44
5235088,61
5235716,62
5236336,64
5236968,47
5237592,51
5238224,67
5238852,64
5239472,61
5240104,47
5240728,62
5241352,73
5241984,45
5242604,18
5243232,11
5243856,15
5244476,21
5245108,17
5245728,44
5246356,74
5246988,80
5247608,57
5248236,22
5248860,13
5249488,11
5250116,18
5250736,40
5251364,44
5251988,39
5252612,73
5253244,82
5253864,66
5254492,49
5255112,46
5255736,49
5256364,64
5256984,102
5257664,99
5258284,44
5258904,13
5259532,63
5260156,88
5260784,54
5261416,12
5262032,42
5262664,44
5263288,58
5263912,71
5264540,54
5265160,11
5265788,14
5266412,11
5267036,27
5267664,69
5268288,114
5268968,106
5269648,79
5270264,48
5270892,41
5271516,48
5272140,55
5272772,56
5273392,55
5274024,61
5274652,56
5275272,33
5275900,19
5276524,19
5277152,10
5277784,14
5278400,18
5279032,38
5279656,48
5280280,49
5280908,50
5281528,25
5282156,18
5282780,14
5283404,13
5284032,17
5284648,26
5285280,40
5285908,36
5286528,26
5287156,46
5287780,59
5288408,60
5289036,58
5289656,68
5290284,79
5290908,100
5291580,108
5292256,64
5292880,24
5293508,15
5294136,16
5294760,16
5295388,53
5296012,51
5296640,58
5297268,99
5297888,73
5298516,42
5299140,109
5299820,106
5300496,13
5301120,11
5301748,37
5302380,52
5303000,49
5303632,46
5304256,66
5304880,69
5305508,59
5306128,49
5306756,39
5307380,66
5308008,81
5308636,65
5309260,29
5309892,19
5310520,39
5311144,27
5311776,27
5312400,49
5313028,45
5313660,48
5314280,48
5314908,29
5315532,21
5316156,14
5316788,26
5317408,17
5318036,65
5318668,82
5319288,53
5319920,49
5320544,43
5321172,47
5321804,66
5322424,113
5323104,140
5323788,154
5324460,142
5325140,98
5325760,45
5326380,14
5327008,86
5327632,156
5328312,151
5328988,110
5329660,78
5330284,55
5330908,45
5331532,13
5332160,12
5332776,13
5333408,50
5334036,53
5334656,28
5335284,12
5335908,18
5336540,15
5337168,53
5337788,59
5338416,64
5339040,131
5339712,59
5340340,19
5340960,57
5341588,73
5342220,53
5342840,40
5343468,33
5344092,10
5344724,11
5345352,44
5345968,53
5346600,50
5347224,48
5347844,43
5348476,20
5349096,19
5349724,17
5350348,16
5350976,28
5351604,36
5352224,41
5352852,38
5353484,30
5354104,51
5354732,59
5355360,56
5355988,55
5356620,52
5357240,62
5357868,60
5358496,49
5359116,31
5359748,18
5360368,11
5360996,13
5361620,17
5362244,41
5362872,45
5363496,47
5364124,47
5364756,16
5365376,32
5366008,65
5366628,94
5367260,99
5367888,69
5368508,64
5369136,60
5369760,59
5370384,45
5371012,52
5371632,81
5372260,132
5372944,140
5373612,103
5374288,93
5374912,83
5375536,51
5376168,37
5376784,14
5377412,29
5378036,45
5378656,77
5379288,88
5379908,77
5380540,67
5381168,59
5381788,46
5382416,49
5383040,22
5383668,13
5384296,24
5384920,40
5385548,43
5386172,27
5386796,39
5387428,106
5388100,114
5388776,109
5389460,115
5390132,103
5390808,89
5391436,61
5392056,15
5392684,53
5393308,88
5393932,89
5394560,59
5395184,35
5395816,43
5396440,45
5397064,49
5397692,59
5398312,41
5398944,35
5399572,36
5400192,43
5400820,22
5401448,14
5402076,35
5402708,98
5403328,202
5404008,201
5404688,85
5405312,48
5405944,81
5406568,110
5407248,98
5407876,88
5408496,83
5409124,64
5409748,42
5410372,14
5411000,31
5411624,23
5412252,40
5412884,44
5413504,44
5414132,48
5414756,19
5415388,31
5416016,30
5416640,27
5417268,23
5417892,32
5418516,79
5419148,99
5419768,61
5420396,48
5421024,69
5421648,82
5422276,74
5422896,73
5423524,61
5424156,45
5424776,29
5425404,15
5426032,10
5426660,10
5427292,22
5427912,21
5428540,38
5429164,46
5429788,47
5430416,45
5431032,45
5431664,13
5432288,11
5432912,22
5433540,13
5434160,39
5434788,70
5435420,130
5436092,132
5436772,68
5437392,59
5438020,114
5438700,142
5439372,128
5440052,115
5440728,129
5441396,127
5442072,83
5442696,21
5443312,104
5443992,91
5444616,16
5445232,53
5445864,44
5446488,56
5447116,45
5447748,46
5448368,14
5448996,18
5449620,32
5450244,27
5450876,41
5451496,95
5452124,145
5452808,137
5453472,75
5454100,41
5454724,66
5455352,101
5456036,117
5456708,113
5457384,112
5458064,108
5458740,73
5459364,22
5459996,14
5460616,58
5461244,120
5461920,100
5462588,58
5463212,50
5463832,48
5464464,45
5465088,16
5465712,12
5466340,12
5466964,21
5467596,48
5468228,56
5468848,56
5469476,48
5470100,33
5470728,43
5471356,50
5471976,51
5472608,60
5473232,104
5473908,148
5474588,139
5475260,92
5475880,61
5476508,70
5477128,63
5477756,42
5478384,37
5479008,46
5479640,46
5480264,47
5480892,50
5481524,58
5482144,123
5482824,172
5483500,142
5484172,52
5484796,16
5485424,57
5486056,44
5486684,25
5487304,53
5487936,85
5488560,104
5489236,78
5489860,28
5490480,92
5491108,124
5491792,80
5492408,34
5493036,18
5493660,13
5494288,12
5494916,14
5495536,41
5496168,46
5496792,49
5497416,51
5498048,18
5498664,22
5499296,12
5499924,10
5500544,13
5501176,19
5501800,36
5502432,29
5503060,23
5503680,43
5504312,51
5504936,52
5505560,50
5506188,43
5506808,61
5507436,75
5508064,88
5508688,84
5509316,68
5509936,51
5510568,24
5511196,14
5511816,46
5512448,45
5513072,45
5513700,49
5514332,44
5514952,41
5515584,28
5516208,19
5516832,32
5517460,19
5518080,21
5518708,41
5519336,69
5519960,166
5520644,181
5521316,64
5521936,49
5522564,50
5523184,55
5523816,65
5524440,67
5525064,52
5525696,14
5526312,41
5526944,48
5527576,15
5528196,64
5528824,174
5529500,155
5530172,87
5530796,64
5531416,34
5532044,20
5532668,54
5533296,55
5533924,49
5534548,25
5535180,14
5535812,21
5536432,61
5537060,133
5537736,52
5538360,47
5538988,47
5539608,31
5540240,44
5540860,64
5541488,85
5542116,74
5542744,67
5543372,22
5544004,58
5544624,26
5545252,50
5545880,66
5546504,71
5547132,91
5547752,95
5548384,74
5549008,70
5549632,20
5550264,55
5550880,108
5551564,130
5552244,92
5552864,27
5553492,58
5554120,105
5554796,176
5555476,134
5556148,125
5556820,241
5557496,170
5558172,60
5558792,15
5559424,87
5560040,53
5560672,53
5561296,53
5561920,80
5562548,56
5563168,50
5563800,51
5564432,123
5565100,192
5565780,94
5566400,41
5567024,32
5567656,127
5568328,146
5569004,150
5569684,123
5570356,149
5571036,165
5571712,153
5572388,180
5573068,248
5573748,124
5574420,12
5575044,14
5575668,22
5576296,17
5576924,34
5577548,107
5578232,296
5578908,385
5579580,296
5580260,152
5580940,64
5581560,13
5582188,32
5582812,24
5583436,37
5584068,39
5584688,16
5585316,12
5585948,14
5586568,37
5587196,59
5587824,65
5588452,103
5589136,97
5589760,74
5590392,68
5591016,69
5591640,62
5592272,18
5592892,10
5593520,11
5594152,37
5594776,26
5595408,56
5596032,70
5596664,76
5597292,64
5597912,41
5598544,133
5599220,28
5599840,31
5600472,18
5601096,12
5601724,55
5602356,82
5602976,77
5603608,66
5604228,51
5604860,47
5605488,54
5606112,52
5606744,72
5607368,74
5607992,29
5608620,18
5609240,17
5609868,13
5610492,12
5611120,15
5611752,29
5612376,45
5613004,48
5613636,46
5614256,47
5614884,16
5615508,20
5616136,11
5616764,10
5617384,12
5618012,16
5618636,14
5619264,21
5619892,26
5620512,39
5621140,48
5621772,51
5622392,54
5623024,65
5623648,74
5624280,65
5624908,43
5625528,15
5626160,11
5626784,13
5627408,25
5628040,14
5628656,47
5629288,53
5629912,54
5630536,47
5631168,31
5631788,33
5632420,62
5633048,52
5633672,32
5634300,17
5634924,44
5635552,68
5636184,50
5636800,42
5637428,97
5638052,138
5638728,104
5639404,81
5640024,105
5640704,110
5641380,68
5642000,72
5642628,52
5643252,72
5643876,215
5644560,198
5645228,51
5645848,74
5646476,67
5647096,59
5647728,178
5648408,170
5649076,86
5649700,20
5650328,11
5650952,22
5651580,34
5652200,29
5652828,15
5653452,41
5654076,43
5654708,62
5655328,47
5655956,58
5656588,34
5657208,84
5657836,105
5658512,109
5659188,123
5659868,120
5660540,59
5661168,36
5661796,39
5662416,45
5663044,56
5663668,130
5664348,198
5665024,123
5665700,50
5666320,26
5666948,64
5667568,50
5668196,16
5668820,37
5669444,32
5670076,34
5670696,69
5671328,73
5671960,70
5672576,58
5673208,31
5673832,27
5674460,41
5675092,18
5675712,40
5676344,44
5676968,29
5677592,19
5678220,49
5678840,61
5679472,61
5680096,65
5680720,53
5681348,66
5681968,51
5682600,35
5683228,94
5683848,61
5684476,23
5685100,13
5685732,12
5686360,15
5686984,41
5687612,54
5688240,55
5688864,51
5689492,77
5690112,109
5690792,128
5691476,101
5692148,70
5692776,24
5693400,118
5694076,266
5694756,202
5695428,140
5696100,102
5696776,56
5697396,48
5698024,42
5698652,105
5699324,78
5699952,29
5700572,13
5701200,25
5701828,38
5702448,15
5703076,16
5703708,77
5704328,109
5705008,114
5705684,88
5706304,54
5706936,16
5707552,35
5708184,50
5708812,17
5709432,49
5710064,87
5710688,84
5711320,79
5711952,70
5712572,47
5713200,147
5713880,156
5714548,122
5715228,138
5715900,97
5716520,44
5717148,58
5717768,90
5718400,109
5719080,82
5719696,34
5720328,47
5720952,63
5721584,48
5722216,68
5722836,87
5723464,84
5724092,73
5724716,80
5725348,91
5725968,66
5726600,14
5727224,94
5727848,149
5728532,77
5729152,47
5729784,57
5730416,53
5731032,52
5731668,50
5732292,88
5732916,95
5733548,127
5734220,112
5734900,56
5735524,62
5736144,78
5736772,43
5737396,42
5738020,47
5738652,48
5739272,46
5739900,12
5740528,24
5741152,13
5741780,22
5742404,30
5743036,18
5743664,18
5744288,26
5744916,21
5745540,68
5746172,59
5746804,47
5747424,46
5748052,21
5748676,30
5749300,12
5749932,10
5750552,27
5751184,70
5751812,106
5752484,128
5753160,101
5753836,42
5754456,57
5755088,91
5755704,114
5756388,128
5757068,126
5757740,86
5758368,39
5759000,12
5759616,28
5760248,13
5760872,25
5761500,17
5762128,38
5762752,45
5763380,48
5764004,50
5764628,45
5765256,19
5765872,12
5766504,23
5767128,31
5767748,29
5768380,46
5769000,68
5769628,41
5770256,42
5770880,48
5771508,56
5772132,56
5772764,35
5773396,27
5774016,37
5774644,60
5775268,48
5775896,23
5776524,10
5777144,39
5777772,44
5778396,39
5779020,51
5779652,46
5780272,49
5780900,47
5781532,20
5782152,24
5782780,24
5783408,19
5784036,13
5784668,22
5785288,21
5785916,35
5786540,67
5787164,41
5787796,55
5788416,115
5789096,147
5789776,89
5790400,17
5791028,55
5791656,21
5792280,24
5792908,42
5793528,40
5794156,27
5794780,29
5795408,90
5796036,94
5796656,64
5797284,51
5797916,31
5798536,133
5799216,174
5799892,66
5800512,60
5801140,146
5801812,195
5802488,164
5803168,69
5803792,39
5804424,74
5805048,49
5805672,79
5806300,116
5806980,126
5807660,108
5808340,64
5808960,15
5809588,11
5810220,14
5810840,17
5811472,43
5812096,77
5812724,61
5813356,44
5813976,47
5814608,21
5815232,22
5815856,19
5816488,15
5817104,11
5817736,29
5818356,53
5818984,42
5819612,14
5820236,54
5820868,68
5821496,88
5822120,107
5822800,103
5823476,82
5824096,85
5824724,72
5825348,35
5825980,26
5826608,31
5827228,62
5827856,14
5828480,49
5829108,48
5829740,62
5830360,53
5830992,51
5831616,64
5832240,14
5832868,78
5833488,102
5834172,118
5834852,102
5835524,122
5836204,146
5836884,71
5837504,66
5838132,102
5838808,113
5839476,70
5840104,13
5840724,16
5841356,66
5841984,54
5842608,17
5843236,56
5843860,61
5844488,81
5845116,94
5845736,88
5846368,55
5846992,54
5847616,93
5848248,118
5848916,72
5849544,32
5850172,12
5850792,11
5851424,17
5852048,50
5852680,85
5853308,44
5853928,46
5854560,55
5855184,95
5855808,126
5856492,107
5857164,56
5857792,58
5858420,58
5859040,43
5859668,28
5860296,12
5860920,15
5861548,18
5862168,44
5862800,45
5863424,49
5864048,51
5864676,39
5865300,29
5865932,27
5866564,16
5867184,18
5867816,31
5868440,15
5869064,37
5869696,42
5870312,43
5870944,48
5871568,46
5872192,54
5872824,91
5873440,30
5874072,90
5874700,107
5875372,97
5876000,67
5876624,22
5877252,38
5877884,11
5878504,47
5879136,51
5879760,50
5880384,47
5881016,50
5881632,64
5882264,42
5882896,17
5883512,21
5884144,23
5884768,23
5885400,16
5886032,17
5886652,55
5887284,64
5887908,46
5888536,69
5889164,80
5889784,94
5890412,86
5891036,42
5891664,49
5892292,48
5892912,43
5893544,23
5894172,14
5894792,42
5895424,59
5896048,49
5896676,47
5897308,52
5897928,49
5898560,47
5899180,47
5899804,49
5900436,59
5901056,96
5901684,94
5902308,33
5902932,15
5903564,48
5904184,47
5904812,48
5905444,46
5906064,56
5906692,58
5907320,64
5907948,104
5908632,76
5909248,57
5909876,61
5910500,13
5911128,15
5911756,49
5912376,51
5913008,45
5913636,58
5914256,67
5914884,59
5915508,33
5916140,47
5916772,141
5917444,243
5918124,391
5918804,322
5919476,69
5920104,145
5920784,258
5921452,220
5922128,176
5922804,144
5923476,110
5924156,66
5924776,36
5925400,25
5926032,98
5926648,117
5927328,134
5928012,115
5928684,54
5929312,44
5929936,47
5930560,48
5931188,38
5931808,30
5932440,35
5933072,32
5933688,25
5934320,33
5934944,16
5935576,31
5936208,73
5936824,142
5937508,75
5938128,60
5938756,103
5939436,127
5940108,148
5940784,166
5941464,157
5942140,88
5942764,33
5943396,24
5944016,113
5944696,96
5945320,101
5945996,80
5946624,55
5947248,48
5947876,39
5948508,32
5949128,53
5949760,62
5950380,48
5951008,29
5951636,123
5952308,110
5952984,112
5953664,55
5954288,48
5954916,51
5955544,53
5956168,56
5956796,46
5957416,23
5958048,60
5958676,98
5959296,111
5959980,82
5960600,16
5961224,12
5961852,43
5962472,63
5963104,53
5963728,49
5964352,55
5964984,57
5965600,32
5966228,28
5966860,50
5967480,58
5968112,131
5968788,155
5969464,113
5970140,49
5970760,47
5971392,58
5972020,70
5972640,60
5973272,49
5973896,55
5974528,68
5975156,55
5975776,42
5976408,37
5977032,12
5977656,25
5978284,29
5978904,56
5979536,51
5980164,50
5980784,49
5981416,26
5982040,26
5982672,33
5983300,39
5983920,70
5984552,44
5985176,44
5985800,41
5986428,29
5987048,39
5987680,48
5988304,60
5988928,68
5989560,64
5990180,43
5990808,49
5991440,57
5992060,51
5992688,50
5993312,48
5993944,28
5994572,46
5995192,67
5995824,47
5996448,50
5997072,49
5997704,46
5998320,50
5998952,43
5999576,11
6000200,14
6000832,17
6001448,28
6002080,13
6002708,15
6003328,55
6003956,125
6004636,147
6005308,101
6005988,39
6006608,58
6007240,130
6007920,72
6008536,30
6009168,19
6009792,22
6010416,36
6011048,55
6011664,66
6012296,98
6012920,161
6013596,72
6014224,79
6014848,93
6015480,102
6016164,77
6016784,65
6017412,22
6018040,26
6018664,89
6019292,159
6019968,93
6020600,46
6021228,62
6021848,74
6022476,61
6023100,51
6023728,66
6024356,92
6024976,76
6025608,19
6026228,12
6026856,15
6027488,29
6028112,18
6028744,40
6029376,45
6029992,47
6030624,47
6031248,29
6031880,26
6032512,34
6033128,40
6033760,44
6034384,40
6035008,50
6035640,30
6036260,15
6036888,65
6037520,106
6038192,85
6038816,69
6039440,36
6040072,77
6040704,96
6041320,107
6042004,87
6042628,45
6043248,12
6043876,53
6044504,93
6045132,104
6045816,90
6046432,95
6047064,99
6047688,84
6048312,47
6048944,22
6049560,84
6050192,121
6050872,50
6051496,29
6052128,53
6052752,70
6053384,105
6054064,127
6054740,70
6055368,52
6055996,44
6056616,29
6057248,46
6057876,94
6058504,113
6059188,93
6059812,17
6060440,12
6061072,12
6061696,43
6062328,53
6062952,51
6063584,53
6064216,46
6064832,14
6065460,13
6066088,32
6066712,37
6067344,38
6067960,23
6068592,18
6069216,38
6069840,33
6070472,39
6071088,54
6071720,72
6072352,68
6072968,59
6073600,69
6074224,68
6074856,52
6075488,35
6076108,39
6076736,25
6077364,10
6077988,17
6078620,52
6079240,86
6079872,59
6080500,47
6081124,38
6081756,14
6082380,23
6083008,17
6083640,36
6084260,104
6084940,132
6085612,74
6086232,44
6086864,48
6087480,74
6088112,86
6088740,75
6089360,67
6089992,88
6090616,118
6091300,100
6091980,76
6092600,47
6093232,11
6093860,50
6094480,27
6095108,41
6095736,47
6096368,49
6096996,48
6097616,57
6098248,60
6098872,26
6099496,91
6100128,19
6100744,70
6101376,95
6102000,18
6102624,62
6103256,155
6103932,234
6104612,188
6105292,73
6105912,44
6106544,68
6107176,112
6107848,123
6108524,96
6109144,68
6109768,31
6110400,41
6111016,49
6111648,37
6112280,46
6112904,48
6113536,49
6114160,49
6114792,40
6115424,31
6116040,19
6116672,65
6117296,25
6117924,40
6118556,56
6119176,50
6119808,31
6120432,57
6121056,67
6121688,58
6122312,60
6122944,58
6123576,58
6124192,48
6124824,25
6125448,12
6126080,11
6126708,11
6127328,10
6127960,25
6128588,47
6129212,50
6129844,46
6130464,51
6131096,33
6131728,51
6132348,39
6132980,17
6133604,18
6134236,22
6134868,24
6135488,28
6136120,39
6136748,46
6137372,50
6138008,48
6138624,47
6139256,38
6139884,63
6140508,99
6141140,101
6141820,84
6142448,85
6143080,86
6143700,39
6144332,20
6144956,41
6145580,82
6146208,218
6146884,235
6147560,124
6148236,52
6148856,28
6149484,91
6150108,149
6150784,194
6151460,176
6152132,186
6152804,98
6153428,44
6154052,68
6154684,48
6155316,150
6155988,327
6156668,389
6157348,191
6158020,32
6158648,21
6159272,36
6159896,31
6160528,10
6161144,21
6161772,66
6162400,77
6163024,69
6163652,50
6164272,40
6164904,12
6165532,28
6166152,57
6166784,60
6167408,49
6168036,16
6168668,59
6169288,72
6169920,37
6170540,40
6171164,44
6171796,50
6172416,71
6173048,92
6173672,83
6174296,79
6174928,61
6175544,38
6176176,23
6176804,16
6177424,28
6178052,26
6178676,66
6179308,48
6179940,60
6180560,49
6181188,25
6181816,43
6182440,39
6183068,52
6183688,52
6184316,46
6184944,54
6185568,39
6186200,22
6186824,48
6187452,48
6188084,49
6188704,49
6189336,37
6189960,19
6190592,17
6191220,38
6191840,53
6192472,68
6193096,68
6193720,55
6194352,111
6195024,143
6195700,66
6196328,56
6196944,74
6197576,91
6198200,105
6198876,82
6199504,137
6200176,132
6200852,110
6201532,79
6202152,41
6202784,28
6203416,44
6204032,60
6204664,60
6205292,59
6205924,63
6206552,98
6207176,124
6207860,115
6208540,76
6209160,31
6209792,30
6210416,28
6211044,32
6211676,52
6212296,48
6212928,48
6213552,49
6214176,46
6214808,15
6215424,11
6216056,22
6216684,38
6217308,56
6217936,58
6218560,25
6219192,21
6219824,20
6220444,75
6221076,97
6221700,82
6222332,61
6222960,14
6223584,59
6224216,95
6224840,43
6225464,17
6226096,20
6226712,29
6227344,45
6227968,95
6228592,109
6229272,58
6229896,48
6230528,73
6231156,118
6231828,135
6232508,77
6233136,13
6233752,13
6234384,23
6235008,28
6235640,14
6236268,19
6236888,102
6237568,113
6238252,49
6238872,47
6239504,17
6240128,56
6240756,18
6241388,78
6242008,95
6242636,85
6243264,61
6243888,18
6244516,100
6245188,68
6245816,64
6246444,86
6247064,142
6247744,118
6248412,24
6249032,29
6249660,40
6250280,40
6250908,42
6251540,34
6252160,105
6252840,96
6253464,49
6254088,96
6254716,120
6255388,90
6256016,63
6256644,46
6257264,31
6257892,15
6258520,34
