tempo_arduino_micro_s,valor_ADC
500,11
1004,11
1504,16
2000,16
2508,19
3000,18
3508,15
4000,51
4508,65
5000,71
5500,82
6000,52
6500,52
7000,50
7500,52
8000,53
8500,20
9000,11
9500,36
10000,49
10508,67
11028,64
11556,69
12076,65
12604,36
13124,21
13652,38
14172,55
14700,46
15220,49
15748,51
16268,48
16796,45
17316,78
17836,50
18356,36
18876,53
19396,76
19916,60
20436,38
20956,25
21476,19
21996,21
22516,46
23036,54
23564,55
24084,63
24612,77
25132,122
25712,150
26280,151
26864,127
27432,89
27956,34
28476,11
29004,23
29524,32
30052,48
30572,49
31100,49
31620,61
32148,72
32668,94
33188,128
33764,149
34336,91
34868,41
35388,24
35916,13
36436,27
36964,47
37484,23
38012,24
38532,59
39060,125
39636,152
40216,132
40788,144
41368,140
41936,122
42512,64
43036,29
43556,28
44084,14
44604,41
45132,74
45652,91
46180,70
46700,49
47228,42
47748,48
48276,51
48796,49
49324,66
49844,64
50372,40
50892,22
51420,12
51940,11
52468,10
52988,11
53516,36
54036,44
54564,29
55084,62
55612,105
56188,60
56716,60
57236,51
57756,52
58276,35
58796,12
59316,37
59836,49
60360,21
60876,11
61396,10
61920,14
62436,41
62956,18
63476,18
63996,63
64524,54
65044,71
65572,128
66148,86
66676,42
67196,27
67724,24
68244,18
68772,15
69292,27
69820,11
70340,19
70868,18
71388,17
71916,15
72436,58
72964,65
73484,51
74012,51
74532,52
75060,75
75584,146
76160,166
76736,157
77316,126
77896,61
78412,21
78940,22
79460,28
79988,43
80512,29
81036,180
81612,291
82192,224
82764,119
83344,47
83860,17
84380,14
84900,28
85420,49
85940,63
86460,53
86980,47
87500,50
88020,49
88540,54
89060,69
89580,70
90104,49
90620,49
91148,54
91672,29
92196,80
92716,74
93244,15
93764,42
94292,39
94816,50
95340,42
95864,16
96388,20
96908,30
97436,45
97956,59
98484,62
99004,56
99532,49
100052,37
100624,33
101192,30
101776,21
102344,21
102924,13
103504,15
104072,13
104648,43
105216,58
105792,52
106360,82
106944,69
107512,51
108092,61
108672,110
109292,140
109920,88
110488,19
111064,57
111640,60
112212,53
112792,42
113360,38
113944,54
114512,53
115096,49
115668,71
116240,131
116876,82
117440,22
118024,12
118592,11
119176,12
119748,20
120324,28
120904,23
121472,16
122056,38
122624,73
123208,87
123776,111
124404,93
124980,65
125548,30
126128,27
126696,47
127280,43
127848,16
128432,30
129000,31
129568,40
130144,30
130712,46
131296,52
131864,59
132448,57
133016,51
133592,16
134176,30
134744,56
135328,35
135896,19
136480,60
137048,91
137632,80
138200,70
138780,56
139360,45
139928,48
140512,53
141084,53
141664,37
142232,70
142812,132
143444,164
144060,123
144688,76
145256,50
145840,37
146408,24
146984,27
147568,49
148136,51
148720,51
149288,50
149872,49
150444,37
151016,34
151600,16
152172,13
152752,30
153324,21
153904,13
154472,14
155056,77
155628,128
156252,93
156828,52
157400,53
157976,53
158548,26
159128,24
159700,24
160276,107
160908,130
161524,89
162100,22
162672,34
163256,12
163824,83
164404,150
165036,148
165652,107
166280,71
166848,238
167476,269
168104,174
168720,120
169344,59
169916,16
170488,47
171072,62
171640,38
172224,43
172792,80
173376,70
173948,58
174528,142
175156,85
175724,24
176304,16
176872,20
177456,26
178024,38
178608,28
179176,16
179756,30
180336,16
180904,47
181488,47
182056,51
182640,61
183208,67
183784,77
184368,85
184936,53
185512,18
186084,45
186664,43
187232,37
187816,22
188388,37
188964,46
189544,78
190112,87
190696,84
191268,76
191848,77
192420,50
192992,15
193576,58
194148,78
194728,59
195296,44
195880,42
196448,19
197032,77
197604,107
198228,88
198808,80
199376,84
199952,67
200524,51
201104,31
201676,49
202248,80
202832,75
203404,68
203984,102
204608,125
205236,131
205864,81
206424,57
207008,68
207576,66
208160,60
208728,12
209304,35
209872,74
210448,98
211032,69
211604,55
212184,15
212752,34
213336,13
213904,53
214484,74
215064,54
215632,48
216216,54
216784,32
217368,10
217936,10
218520,12
219088,12
219664,19
220248,34
220816,54
221400,56
221972,49
222552,43
223124,56
223700,67
224280,64
224848,63
225432,66
226000,76
226584,77
227152,80
227736,75
228308,45
228880,11
229464,27
230032,41
230616,41
231184,49
231768,48
232336,51
232912,50
233496,27
234068,18
234648,30
235220,25
235800,14
236372,28
236952,57
237520,82
238096,102
238732,63
239300,42
239880,53
240452,68
241032,55
241604,40
242176,35
242760,35
243332,46
243912,74
244484,87
245064,76
245636,54
246216,25
246792,174
247412,233
248044,92
248608,50
249192,52
249764,53
250336,12
250920,23
251488,35
252072,28
252644,35
253224,35
253796,34
254376,52
254948,52
255524,33
256104,66
256676,86
257256,54
257824,52
258408,27
258976,39
259544,27
260128,58
260696,111
261332,88
261896,49
262480,47
263048,30
263624,17
264200,66
264768,70
265352,51
265924,50
266504,59
267072,94
267656,125
268276,79
268848,30
269424,11
269992,21
270576,13
271144,12
271728,13
272300,56
272872,67
273456,55
274024,56
274608,51
275176,43
275760,50
276340,59
276920,36
277488,20
278064,51
278648,75
279220,49
279800,13
280372,20
280952,40
281524,45
282100,50
282680,54
283248,44
283832,31
284404,29
284984,27
285552,14
286136,10
286708,25
287284,47
287864,27
288436,16
289016,44
289584,61
290168,89
290736,91
291316,88
291896,64
292464,42
293048,58
293620,75
294200,36
294772,13
295352,55
295924,106
296552,129
297180,96
297748,72
298328,55
298900,54
299476,71
300056,51
300628,15
301208,10
301780,10
302360,17
302932,41
303512,37
304084,28
304660,31
305240,22
305812,52
306392,72
306972,71
307552,58
308132,59
308708,56
309288,17
309856,36
310440,51
311012,27
311592,22
312172,34
312752,29
313324,51
313900,111
314532,124
315152,102
315780,65
316352,51
316924,70
317504,50
318076,12
318656,16
319228,69
319808,128
320440,146
321060,119
321688,125
322304,57
322880,72
323448,113
324084,119
324712,105
325328,109
325956,81
326528,16
327104,39
327676,14
328252,22
328832,33
329400,12
329984,15
330552,38
331136,108
331756,139
332380,72
332956,54
333528,26
334104,64
334672,56
335256,11
335824,18
336400,14
336984,17
337552,23
338136,77
338704,43
339288,48
339856,69
340432,77
341008,88
341576,80
342160,26
342728,30
343312,46
343880,12
344464,50
345032,75
345612,66
346192,19
346764,11
347344,49
347916,50
348496,48
349072,53
349652,82
350232,91
350804,65
351384,30
351956,30
352536,32
353112,50
353696,86
354264,74
354844,56
355424,27
355996,47
356576,54
357148,53
357728,57
358300,58
358876,74
359456,110
360080,115
360704,85
361276,59
361856,19
362424,55
363000,77
363584,47
364156,45
364736,48
365308,48
365888,51
366460,64
367040,55
367612,37
368188,18
368768,17
369336,27
369920,15
370488,33
371072,45
371644,90
372216,158
372852,152
373472,98
374048,50
374620,69
375200,103
375828,92
376396,96
376976,110
377600,84
378172,79
378748,102
379380,66
379956,37
380528,54
381112,52
381684,47
382264,47
382836,50
383416,46
383996,108
384628,145
385256,142
385872,121
386500,72
387068,40
387648,14
388224,17
388796,19
389376,63
389956,79
390536,87
391104,75
391684,59
392264,46
392836,43
393416,12
393988,34
394568,16
395136,70
395720,73
396304,67
396876,92
397456,112
398080,73
398656,50
399228,83
399808,171
400444,134
401060,83
401636,123
402260,161
402888,110
403520,34
404084,15
404664,34
405236,74
405816,84
406388,75
406968,53
407548,56
408124,50
408704,49
409276,74
409856,87
410432,83
411008,57
411576,30
412152,19
412736,39
413304,13
413888,36
414456,46
415040,48
415608,51
416192,65
416760,62
417328,27
417912,29
418480,46
419064,56
419636,31
420216,35
420784,104
421412,95
421992,33
422560,56
423144,77
423716,62
424296,57
424864,64
425440,79
426024,61
426592,33
427176,11
427748,41
428328,49
428896,22
429480,25
430052,14
430628,58
431208,57
431780,50
432360,49
432928,53
433512,29
434084,28
434656,33
435240,24
435808,18
436392,58
436964,79
437544,66
438116,55
438696,43
439268,43
439844,48
440424,53
440992,54
441576,46
442148,62
442728,86
443300,91
443876,70
444456,57
445028,45
445608,35
446176,13
446760,16
447332,42
447912,56
448492,56
449064,54
449648,56
450216,31
450800,33
451368,62
451952,13
452520,78
453096,130
453732,77
454300,45
454880,72
455452,69
456032,43
456600,67
457180,58
457760,71
458332,131
458964,96
459532,25
460112,51
460684,66
461264,23
461848,11
462416,26
463000,32
463572,37
464152,41
464724,46
465304,49
465876,48
466452,61
467032,54
467604,70
468184,97
468756,93
469336,21
469908,110
470536,173
471164,180
471784,148
472412,56
472984,63
473556,86
474136,78
474708,50
475288,28
475860,88
476440,174
477072,167
477700,105
478328,67
478896,49
479472,32
480044,29
480624,47
481196,65
481772,174
482404,192
483024,124
483652,59
484220,19
484800,14
485368,13
485948,30
486528,15
487096,17
487680,13
488248,14
488832,27
489404,70
489980,80
490560,71
491132,82
491712,77
492284,51
492864,70
493432,96
494016,92
494588,64
495164,30
495744,17
496316,16
496896,23
497464,43
498048,53
498620,54
499196,54
499776,70
500348,71
500928,85
501500,98
502080,79
502660,70
503240,93
503816,76
504388,44
504968,38
505540,34
506120,67
506700,95
507280,81
507860,54
508436,31
509016,46
509588,66
510168,59
510748,31
511328,11
511908,21
512484,19
513064,13
513632,33
514216,80
514784,121
515420,122
516040,90
516612,42
517192,54
517760,152
518396,185
519016,191
519644,196
520272,162
520888,89
521464,36
522036,20
522616,108
523236,155
523860,168
524488,145
525104,118
525732,77
526304,58
526876,43
527456,11
528024,13
528608,11
529180,16
529760,20
530328,16
530908,40
531488,46
532060,54
532640,51
533208,48
533792,33
534364,21
534944,12
535516,18
536092,13
536672,16
537244,40
537824,35
538392,22
538976,47
539544,76
540124,75
540704,67
541276,58
541856,53
542428,42
543008,21
543580,33
544160,74
544736,79
545316,56
545896,32
546468,18
547048,36
547620,56
548200,49
548772,67
549348,78
549928,49
550500,23
551080,26
551652,54
552232,76
552812,15
553392,72
553964,76
554540,16
555120,47
555692,94
556272,92
556844,57
557424,51
557996,60
558572,96
559152,90
559724,63
560304,23
560876,24
561456,14
562028,14
562608,9
563128,24
563700,33
564280,45
564848,62
565432,72
566004,99
566584,97
567156,78
567736,72
568316,36
568892,91
569472,260
570096,259
570724,196
571348,152
571972,116
572600,44
573164,50
573744,54
574324,57
574904,60
575484,81
576060,112
576692,125
577308,71
577884,40
578460,51
579036,11
579616,54
580188,83
580768,133
581392,122
582020,56
582592,88
583164,181
583796,162
584416,91
584992,47
585560,33
586144,51
586724,41
587300,32
587880,31
588452,15
589032,50
589612,66
590192,76
590764,78
591340,86
591920,98
592496,97
593072,83
593644,59
594224,40
594796,32
595376,24
595956,13
596532,29
597112,24
597684,46
598264,51
598844,53
599424,54
600004,40
600580,21
601160,11
601732,24
602312,23
602884,19
603464,21
604036,49
604616,51
605200,17
605772,68
606352,88
606924,65
607504,53
608084,64
608664,68
609236,43
609812,12
610392,69
610964,125
611596,137
612220,74
612800,12
613372,11
613948,57
614532,56
615100,50
615680,64
616248,96
616832,85
617404,38
617980,15
618560,19
619132,26
619712,31
620284,49
620864,65
621436,48
622016,16
622600,74
623172,87
623752,92
624328,80
624904,87
625476,81
626056,83
626628,59
627204,43
627784,142
628408,65
628984,12
629556,11
630136,15
630716,51
631292,65
631872,57
632448,52
633024,51
633596,53
634180,60
634756,22
635340,11
635920,26
636492,19
637072,21
637644,37
638224,62
638804,59
639384,64
639964,83
640540,60
641120,59
641688,116
642324,162
642944,192
643572,177
644204,146
644824,124
645448,51
646020,80
646600,214
647228,222
647848,111
648476,50
649044,56
649624,52
650192,30
650772,35
651352,13
651924,11
652504,26
653084,100
653716,188
654344,158
654968,80
655544,39
656112,54
656696,69
657264,84
657848,67
658416,50
658992,28
659576,39
660144,62
660728,80
661296,114
661932,128
662560,88
663124,62
663704,68
664276,69
664856,60
665428,60
666008,53
666576,44
667144,78
667728,86
668296,72
668880,52
669448,43
670032,67
670604,107
671236,96
671812,77
672384,50
672968,50
673536,51
674120,49
674692,56
675272,55
675848,62
676416,43
677000,29
677568,12
678152,15
678724,22
679304,12
679876,14
680452,37
681032,61
681600,50
682184,52
682756,50
683336,24
683908,11
684488,17
685064,43
685632,59
686216,72
686788,63
687368,45
687936,38
688520,31
689100,49
689676,70
690256,114
690880,115
691508,83
692076,85
692656,90
693228,98
693804,111
694436,100
695056,100
695684,73
696256,32
696828,30
697408,133
698032,187
698660,157
699280,134
699908,112
700536,80
701108,50
701688,33
702268,19
702848,49
703420,127
704048,149
704676,38
705244,36
705824,94
706396,129
707028,161
707656,152
708280,137
708908,126
709528,88
710100,63
710680,59
711252,72
711832,22
712404,99
712984,105
713608,31
714184,52
714760,53
715336,50
715912,62
716488,83
717064,94
717644,84
718224,64
718796,41
719372,36
719952,42
720524,46
721104,13
721676,54
722256,117
722876,171
723500,155
724128,99
724700,78
725280,57
725852,32
726432,113
727060,88
727628,72
728208,76
728780,69
729360,74
729940,52
730520,37
731092,78
731668,86
732248,65
732820,51
733400,30
733972,23
734552,11
735132,11
735708,21
736288,35
736860,44
737440,54
738008,48
738592,32
739164,49
739744,62
740324,70
740900,71
741480,78
742052,76
742632,88
743212,77
743792,59
744364,29
744940,14
745520,45
746092,55
746672,32
747244,40
747824,46
748396,48
748976,49
749552,52
750132,55
750712,80
751284,79
751864,70
752444,76
753024,49
753604,34
754180,123
754812,238
755432,253
756060,159
756684,82
757256,51
757832,60
758404,99
758984,113
759608,99
760184,87
760756,78
761332,60
761912,17
762484,43
763064,76
763636,38
764216,42
764796,54
765380,71
765964,67
766536,49
767112,17
767688,13
768268,38
768840,38
769424,41
769996,59
770572,73
771152,64
771724,28
772304,54
772876,85
773456,51
774028,62
774608,61
775192,19
775764,28
776344,84
776916,128
777548,142
778172,129
778796,86
779372,24
779944,11
780520,49
781100,59
781680,51
782252,56
782828,107
783460,186
784080,169
784708,90
785276,38
785856,18
786440,38
787012,37
787592,24
788168,16
788744,25
789316,90
789896,127
790532,136
791152,112
791780,126
792400,51
792976,57
793556,38
794132,10
794712,16
795284,57
795864,146
796496,133
797124,33
797704,47
798276,47
798856,51
799428,51
800008,25
800584,11
801160,13
801732,20
802308,25
802888,68
803460,105
804092,106
804708,75
805288,23
805860,62
806436,83
807016,85
807588,74
808168,82
808748,71
809328,51
809908,62
810484,76
811064,72
811636,64
812216,55
812788,31
813372,15
813948,47
814528,55
815112,78
815688,105
816316,96
816884,56
817464,29
818036,19
818616,11
819196,14
819776,63
820352,122
820972,178
821600,256
822220,261
822844,149
823472,58
824036,53
824616,62
825184,117
825820,146
826448,184
827064,204
827692,178
828312,89
828884,14
829464,31
830032,84
830616,93
831188,84
831768,65
832340,55
832920,64
833488,136
834116,144
834744,51
835312,19
835896,35
836464,24
837048,15
837620,13
838192,20
838776,22
839348,48
839928,54
840500,56
841080,55
841648,48
842224,55
842808,54
843376,70
843960,76
844532,71
845112,59
845684,42
846264,25
846832,16
847408,47
847992,50
848564,52
849144,52
849716,58
850296,40
850864,18
851444,12
852024,17
852592,13
853176,30
853748,74
854328,108
854960,93
855528,56
856112,56
856684,79
857264,76
857836,65
858416,33
858988,26
859568,37
860140,20
860716,26
861296,27
861868,10
862448,18
863016,19
863600,15
864172,41
864744,53
865328,58
865896,52
866480,60
867052,70
867632,38
868212,12
868792,41
869364,45
869940,21
870520,13
871092,12
871672,16
872244,51
872824,89
873396,94
873972,84
874552,70
875124,74
875704,65
876276,58
876856,54
877428,51
878008,44
878588,14
879164,62
879744,105
880368,98
880948,69
881520,58
882104,51
882676,53
883252,38
883832,19
884404,14
884984,11
885552,13
886136,25
886716,48
887292,34
887872,31
888444,32
889024,80
889596,99
890176,90
890756,84
891336,52
891920,82
892492,82
893072,16
893644,74
894224,68
894796,15
895376,114
896012,231
896628,223
897256,128
897880,56
898456,57
899028,91
899604,77
900184,59
900756,62
901336,64
901916,38
902496,21
903064,18
903644,39
904224,30
904796,43
905376,52
905948,40
906528,49
907100,51
907680,50
908260,47
908836,69
909416,83
909988,91
910568,72
911148,36
911728,11
912308,40
912884,56
913464,43
914036,45
914616,53
915188,51
915772,48
916348,51
916928,19
917512,11
918084,18
918664,33
919236,28
919816,12
920396,18
920976,21
921556,26
922132,28
922712,46
923284,53
923864,57
924436,50
925016,52
925588,78
926164,79
926744,76
927316,70
927896,35
928472,20
929048,49
929620,46
930200,17
930772,50
931348,47
931928,51
932500,51
933080,56
933652,32
934232,22
934812,21
935388,64
935968,73
936540,40
937120,17
937692,13
938272,13
938844,39
939424,87
940004,100
940632,88
941208,54
941780,27
942360,67
942940,22
943520,22
944092,30
944668,31
945248,18
945820,43
946400,59
946980,23
947560,42
948140,49
948716,57
949296,73
949868,100
950500,134
951120,107
951748,30
952328,58
952896,75
953480,25
954052,46
954632,42
955212,27
955792,54
956372,79
956948,93
957528,81
958104,62
958680,35
959260,40
959844,57
960420,47
960992,11
961576,10
962148,10
962728,27
963300,27
963880,40
964452,49
965032,63
965604,67
966180,54
966760,20
967332,33
967912,54
968492,53
969072,33
969644,14
970220,15
970800,13
971372,25
971952,27
972528,53
973104,103
973736,107
974356,103
974988,54
975556,53
976136,132
976768,106
977396,27
977972,47
978544,22
979120,13
979696,48
980272,75
980844,151
981476,224
982108,208
982728,140
983356,51
983928,27
984504,60
985076,101
985704,120
986332,103
986952,85
987528,29
988100,28
988676,82
989256,78
989828,58
990408,55
990980,51
991560,63
992140,120
992772,161
993400,140
994016,123
994644,45
995216,19
995792,56
996368,46
996940,25
997520,45
998092,44
998672,50
999252,66
999832,70
1000412,54
1001032,43
1001660,30
1002280,27
1002908,58
1003536,72
1004152,56
1004780,41
1005404,31
1006032,48
1006664,54
1007280,55
1007908,72
1008532,123
1009208,155
1009888,134
1010556,62
1011184,23
1011812,23
1012432,11
1013060,17
1013684,32
1014308,50
1014940,46
1015560,59
1016188,61
1016812,43
1017436,26
1018068,34
1018692,57
1019320,69
1019948,67
1020568,83
1021196,69
1021820,43
1022452,52
1023080,71
1023704,69
1024336,63
1024956,57
1025576,64
1026204,98
1026820,112
1027500,95
1028124,66
1028740,41
1029368,28
1029992,61
1030620,85
1031248,107
1031916,70
1032540,50
1033164,48
1033784,17
1034416,13
1035032,17
1035660,41
1036280,14
1036904,35
1037532,40
1038156,32
1038784,22
1039412,51
1040032,58
1040656,49
1041280,66
1041908,94
1042536,105
1043212,92
1043836,73
1044460,30
1045080,16
1045712,15
1046328,95
1046956,99
1047584,46
1048200,53
1048832,69
1049452,76
1050084,76
1050712,73
1051328,59
1051956,41
1052580,33
1053204,150
1053884,229
1054556,154
1055232,97
1055860,46
1056480,49
1057108,56
1057728,58
1058352,55
1058980,55
1059600,70
1060228,100
1060908,69
1061528,72
1062156,81
1062780,80
1063408,85
1064036,111
1064708,72
1065332,73
1065956,90
1066580,53
1067208,71
1067824,113
1068504,153
1069176,123
1069852,115
1070528,94
1071152,84
1071768,85
1072396,53
1073020,55
1073648,140
1074328,204
1075004,170
1075680,94
1076308,58
1076928,57
1077556,35
1078180,36
1078800,65
1079432,15
1080048,23
1080676,53
1081300,56
1081920,49
1082548,51
1083168,52
1083796,14
1084428,15
1085048,11
1085676,29
1086300,72
1086928,75
1087556,99
1088176,129
1088856,150
1089524,76
1090144,54
1090772,50
1091396,52
1092024,36
1092652,56
1093272,72
1093900,75
1094524,69
1095152,57
1095784,27
1096400,23
1097028,43
1097652,65
1098272,64
1098904,51
1099520,57
1100148,50
1100772,28
1101396,20
1102028,48
1102648,27
1103276,13
1103908,34
1104528,49
1105156,77
1105780,69
1106412,52
1107040,53
1107656,53
1108284,49
1108908,83
1109532,88
1110160,86
1110784,27
1111412,44
1112036,60
1112660,49
1113292,28
1113912,47
1114540,58
1115172,48
1115792,53
1116424,53
1117044,16
1117676,25
1118304,27
1118924,24
1119552,28
1120176,35
1120800,56
1121428,70
1122048,54
1122676,45
1123300,56
1123924,55
1124552,63
1125168,40
1125800,43
1126428,78
1127044,87
1127672,54
1128296,52
1128924,18
1129552,28
1130176,27
1130804,45
1131428,54
1132052,52
1132680,51
1133304,27
1133932,26
1134556,25
1135180,13
1135812,26
1136432,19
1137060,37
1137692,46
1138312,17
1138940,51
1139564,64
1140192,79
1140824,78
1141440,54
1142068,51
1142692,91
1143316,127
1144000,110
1144668,76
1145292,19
1145924,66
1146544,99
1147172,57
1147796,62
1148424,179
1149104,194
1149772,96
1150396,54
1151028,64
1151648,101
1152332,75
1152952,70
1153572,76
1154200,42
1154824,50
1155452,53
1156076,53
1156700,147
1157380,124
1158052,54
1158672,17
1159300,48
1159920,115
1160600,135
1161276,110
1161948,76
1162572,39
1163196,31
1163820,40
1164448,51
1165072,47
1165700,52
1166324,51
1166948,67
1167576,77
1168200,92
1168828,95
1169456,84
1170080,52
1170708,56
1171332,54
1171960,35
1172588,50
1173208,57
1173836,66
1174460,65
1175084,74
1175712,78
1176336,68
1176964,61
1177588,28
1178212,16
1178844,13
1179468,18
1180096,13
1180724,52
1181344,54
1181972,48
1182596,50
1183228,65
1183856,101
1184532,94
1185156,35
1185780,39
1186404,77
1187036,57
1187660,14
1188288,35
1188916,46
1189536,55
1190164,82
1190788,92
1191420,93
1192048,97
1192664,101
1193344,79
1193968,57
1194592,56
1195220,17
1195844,102
1196528,158
1197204,95
1197824,56
1198452,71
1199076,107
1199752,54
1200384,16
1201004,30
1201636,27
1202264,12
1202880,72
1203512,163
1204188,209
1204860,180
1205536,94
1206152,44
1206784,71
1207412,92
1208032,67
1208660,16
1209284,56
1209908,85
1210536,52
1211156,47
1211784,62
1212408,30
1213032,36
1213660,19
1214284,71
1214916,90
1215544,76
1216168,65
1216796,26
1217420,61
1218052,82
1218680,57
1219296,19
1219928,27
1220552,105
1221228,152
1221904,111
1222580,49
1223200,48
1223828,52
1224448,53
1225076,18
1225700,28
1226324,73
1226956,78
1227576,54
1228208,55
1228836,49
1229452,11
1230080,31
1230704,45
1231332,59
1231964,83
1232584,91
1233212,79
1233836,81
1234460,84
1235088,36
1235708,40
1236336,103
1237016,158
1237684,165
1238360,118
1239032,55
1239648,49
1240276,90
1240900,107
1241580,100
1242256,109
1242932,132
1243608,131
1244288,108
1244964,66
1245588,30
1246220,102
1246892,55
1247516,41
1248140,51
1248772,63
1249400,126
1250068,126
1250744,94
1251368,34
1251984,14
1252612,11
1253236,28
1253868,48
1254496,37
1255120,28
1255748,45
1256372,54
1256996,70
1257624,69
1258240,98
1258872,118
1259552,108
1260220,98
1260844,91
1261468,68
1262092,75
1262720,25
1263336,67
1263968,137
1264652,117
1265324,103
1266000,116
1266676,141
1267348,109
1268024,28
1268648,28
1269272,36
1269900,27
1270520,15
1271148,13
1271772,18
1272396,48
1273028,78
1273648,85
1274276,62
1274908,50
1275528,39
1276156,29
1276784,36
1277412,41
1278044,34
1278664,34
1279296,13
1279920,11
1280544,43
1281172,46
1281788,50
1282416,51
1283040,49
1283660,15
1284292,24
1284912,13
1285540,30
1286168,18
1286784,27
1287412,76
1288036,69
1288664,33
1289292,50
1289912,55
1290540,50
1291164,52
1291788,29
1292416,40
1293032,52
1293660,35
1294284,11
1294904,11
1295536,14
1296152,44
1296780,49
1297404,49
1298024,47
1298652,48
1299276,53
1299908,48
1300536,39
1301152,72
1301780,138
1302456,171
1303124,114
1303800,40
1304424,64
1305052,161
1305736,145
1306404,124
1307080,115
1307756,104
1308428,50
1309052,16
1309676,77
1310300,95
1310932,55
1311552,30
1312184,29
1312808,22
1313428,58
1314056,80
1314680,59
1315308,82
1315936,83
1316552,42
1317180,13
1317804,26
1318424,33
1319052,49
1319672,28
1320300,34
1320924,70
1321544,79
1322176,70
1322792,67
1323420,86
1324048,57
1324664,72
1325296,138
1325968,114
1326644,46
1327268,32
1327888,11
1328516,10
1329140,31
1329760,14
1330392,41
1331016,43
1331644,58
1332272,53
1332888,49
1333516,22
1334140,29
1334768,41
1335396,38
1336016,41
1336644,26
1337264,39
1337888,29
1338516,16
1339136,52
1339764,65
1340388,73
1341012,63
1341640,44
1342256,43
1342884,46
1343512,42
1344136,28
1344764,31
1345384,27
1346012,15
1346644,12
1347260,53
1347892,55
1348512,53
1349136,53
1349764,50
1350384,22
1351012,12
1351636,12
1352260,17
1352888,39
1353504,66
1354136,128
1354816,155
1355484,78
1356108,43
1356732,59
1357356,86
1357984,103
1358660,97
1359284,62
1359916,16
1360536,33
1361164,40
1361788,35
1362416,13
1363044,58
1363664,53
1364292,49
1364912,48
1365536,52
1366164,65
1366784,57
1367412,12
1368036,19
1368656,91
1369288,120
1369956,36
1370580,61
1371208,122
1371884,157
1372560,101
1373240,54
1373856,57
1374484,61
1375108,49
1375736,50
1376368,56
1376984,53
1377612,18
1378236,12
1378856,10
1379488,12
1380104,17
1380732,48
1381356,46
1381980,51
1382612,51
1383232,35
1383860,48
1384488,65
1385104,56
1385736,17
1386356,17
1386988,27
1387616,70
1388232,142
1388916,100
1389592,58
1390208,81
1390836,71
1391460,53
1392092,13
1392720,69
1393336,35
1393964,19
1394588,25
1395212,35
1395840,24
1396456,32
1397084,55
1397708,52
1398332,55
1398960,70
1399584,65
1400212,21
1400844,22
1401464,22
1402092,11
1402716,31
1403348,57
1403976,59
1404592,27
1405224,36
1405848,77
1406472,88
1407100,124
1407772,195
1408452,150
1409128,71
1409744,13
1410372,28
1410996,37
1411620,29
1412248,13
1412864,15
1413492,20
1414116,46
1414740,49
1415368,59
1415984,92
1416612,121
1417296,128
1417964,83
1418588,31
1419212,11
1419836,21
1420464,16
1421088,77
1421716,95
1422348,47
1422968,101
1423648,117
1424324,88
1424944,29
1425572,21
1426192,32
1426820,44
1427444,22
1428068,46
1428696,36
1429320,61
1429952,72
1430580,77
1431200,85
1431828,57
1432452,54
1433084,62
1433716,20
1434336,15
1434964,15
1435584,28
1436208,15
1436836,70
1437456,180
1438136,149
1438812,37
1439432,107
1440112,159
1440788,134
1441460,100
1442136,102
1442804,110
1443476,36
1444100,74
1444724,104
1445404,80
1446028,58
1446648,22
1447276,50
1447900,57
1448520,48
1449152,49
1449768,49
1450396,24
1451024,15
1451648,11
1452276,15
1452900,11
1453528,16
1454160,28
1454776,51
1455404,46
1456028,46
1456652,50
1457280,53
1457896,57
1458524,63
1459148,38
1459772,49
1460404,83
1461024,73
1461652,67
1462280,50
1462904,25
1463532,20
1464156,43
1464788,52
1465416,65
1466036,135
1466716,156
1467388,95
1468016,46
1468644,24
1469268,13
1469900,14
1470528,28
1471148,56
1471776,34
1472404,67
1473028,95
1473660,90
1474280,100
1474960,141
1475636,124
1476308,82
1476932,52
1477556,12
1478180,49
1478808,78
1479432,134
1480112,115
1480784,46
1481408,59
1482036,54
1482660,49
1483284,49
1483912,70
1484532,36
1485160,28
1485780,38
1486404,12
1487032,21
1487652,13
1488280,14
1488908,50
1489528,67
1490156,62
1490780,51
1491408,51
1492036,36
1492656,75
1493284,64
1493908,37
1494536,40
1495164,91
1495784,77
1496412,34
1497036,24
1497660,86
1498288,103
1498956,59
1499580,49
1500212,61
1500832,153
1501512,109
1502180,17
1502800,60
1503428,80
1504048,70
1504676,54
1505308,22
1505928,55
1506556,66
1507180,193
1507864,96
1508484,68
1509104,106
1509784,62
1510412,30
1511032,13
1511660,20
1512288,58
1512916,32
1513548,32
1514168,59
1514800,61
1515424,53
1516048,54
1516676,28
1517296,17
1517924,45
1518548,81
1519172,53
1519804,24
1520424,34
1521052,85
1521684,76
1522304,51
1522932,85
1523556,68
1524188,65
1524816,55
1525440,56
1526068,60
1526692,69
1527316,69
1527948,46
1528568,37
1529196,12
1529820,21
1530444,27
1531076,49
1531696,50
1532328,53
1532956,54
1533576,37
1534208,64
1534832,43
1535464,13
1536096,12
1536708,40
1537336,127
1538012,129
1538684,60
1539308,46
1539932,54
1540560,56
1541188,53
1541808,33
1542436,92
1543060,138
1543736,147
1544416,109
1545092,49
1545716,17
1546348,76
1546968,88
1547596,55
1548220,51
1548844,49
1549472,55
1550088,42
1550716,19
1551344,40
1551968,103
1552652,44
1553272,29
1553900,75
1554532,128
1555204,131
1555880,59
1556504,53
1557120,73
1557748,64
1558372,47
1559004,82
1559632,88
1560252,93
1560880,106
1561556,66
1562176,20
1562804,14
1563424,52
1564052,71
1564684,52
1565304,49
1565932,52
1566556,33
1567188,22
1567816,11
1568440,13
1569068,11
1569692,29
1570316,35
1570944,31
1571568,34
1572196,41
1572820,72
1573444,89
1574076,82
1574696,73
1575324,84
1575956,96
1576576,88
1577204,70
1577828,59
1578460,75
1579088,45
1579712,34
1580340,16
1580964,81
1581588,123
1582272,134
1582940,103
1583620,65
1584248,19
1584864,25
1585492,15
1586116,64
1586744,92
1587372,80
1587992,45
1588620,21
1589244,56
1589872,85
1590500,83
1591124,77
1591756,99
1592388,102
1593060,103
1593736,69
1594360,31
1594984,11
1595612,41
1596240,41
1596868,17
1597500,42
1598120,50
1598748,54
1599372,55
1600004,39
1600632,19
1601248,11
1601876,29
1602500,55
1603124,60
1603752,28
1604368,29
1604996,62
1605620,51
1606240,48
1606872,52
1607496,49
1608124,49
1608752,11
1609368,15
1610000,25
1610620,27
1611252,37
1611880,36
1612500,34
1613128,33
1613752,78
1614376,107
1615056,123
1615724,116
1616400,98
1617028,54
1617648,67
1618276,204
1618956,207
1619628,214
1620304,159
1620972,60
1621592,17
1622220,100
1622892,184
1623568,120
1624248,55
1624872,71
1625500,53
1626132,48
1626752,37
1627380,90
1628004,185
1628688,96
1629308,71
1629928,148
1630608,135
1631288,119
1631964,116
1632644,91
1633264,33
1633888,96
1634516,78
1635140,72
1635772,33
1636404,46
1637024,62
1637656,41
1638280,36
1638908,43
1639536,66
1640152,73
1640780,61
1641400,55
1642024,41
1642652,26
1643268,11
1643896,16
1644520,11
1645140,13
1645768,14
1646388,15
1647020,39
1647648,54
1648264,49
1648892,51
1649512,59
1650140,46
1650772,16
1651392,13
1652020,23
1652640,43
1653260,48
1653892,35
1654512,16
1655140,15
1655760,50
1656384,52
1657012,56
1657632,65
1658260,82
1658888,100
1659556,108
1660232,104
1660900,50
1661520,16
1662148,79
1662768,131
1663448,91
1664072,52
1664684,47
1665312,53
1665932,65
1666560,94
1667188,81
1667808,69
1668436,44
1669056,29
1669680,53
1670308,178
1670980,163
1671656,134
1672332,116
1673000,90
1673628,64
1674256,55
1674872,34
1675500,31
1676124,63
1676752,88
1677384,68
1678000,32
1678628,33
1679252,63
1679876,85
1680508,107
1681176,69
1681804,47
1682428,53
1683048,51
1683676,19
1684300,11
1684928,11
1685556,26
1686176,50
1686804,57
1687424,67
1688056,55
1688684,18
1689304,80
1689932,110
1690604,55
1691220,53
1691852,27
1692472,69
1693100,81
1693728,56
1694344,17
1694972,17
1695596,14
1696224,17
1696852,15
1697468,43
1698100,54
1698720,52
1699344,49
1699972,28
1700592,15
1701220,11
1701840,23
1702464,13
1703092,17
1703712,21
1704340,15
1704968,16
1705584,50
1706212,81
1706836,77
1707468,51
1708096,108
1708764,96
1709388,45
1710012,39
1710636,66
1711268,52
1711888,14
1712516,65
1713140,48
1713764,34
1714396,56
1715020,58
1715648,54
1716276,50
1716896,25
1717524,30
1718148,28
1718776,14
1719408,60
1720024,69
1720656,77
1721276,65
1721900,39
1722528,48
1723152,49
1723780,62
1724404,56
1725028,26
1725656,31
1726280,80
1726908,140
1727588,146
1728260,139
1728936,85
1729556,30
1730176,28
1730804,62
1731428,59
1732056,55
1732684,83
1733304,93
1733932,51
1734556,34
1735180,85
1735808,109
1736484,82
1737108,27
1737740,18
1738360,16
1738988,77
1739612,107
1740296,51
1740916,110
1741588,132
1742264,75
1742888,76
1743504,83
1744132,42
1744756,22
1745384,21
1746012,35
1746632,17
1747260,53
1747884,53
1748504,51
1749136,62
1749752,73
1750384,41
1751008,14
1751632,11
1752260,14
1752880,11
1753508,49
1754140,101
1754812,54
1755436,29
1756060,59
1756684,85
1757316,100
1757988,92
1758616,30
1759244,30
1759864,51
1760496,29
1761116,20
1761748,13
1762376,27
1762992,51
1763620,43
1764244,42
1764868,52
1765496,50
1766120,48
1766748,19
1767372,31
1767992,28
1768624,11
1769240,11
1769868,18
1770492,43
1771120,59
1771748,52
1772372,46
1773000,61
1773632,77
1774248,89
1774876,111
1775552,115
1776220,98
1776844,84
1777464,45
1778092,27
1778720,32
1779344,30
1779972,152
1780648,163
1781324,66
1781948,53
1782568,51
1783196,39
1783828,52
1784448,65
1785076,48
1785700,23
1786328,13
1786960,16
1787576,20
1788208,25
1788832,76
1789456,125
1790136,136
1790804,117
1791480,57
1792112,15
1792728,15
1793356,12
1793976,26
1794600,52
1795228,20
1795848,29
1796476,102
1797156,167
1797828,183
1798504,87
1799128,50
1799752,47
1800380,52
1801000,152
1801680,213
1802352,151
1803028,123
1803704,164
1804380,131
1805052,44
1805676,48
1806300,49
1806924,58
1807552,67
1808168,78
1808796,91
1809424,74
1810044,78
1810672,68
1811296,55
1811924,39
1812552,22
1813168,10
1813800,33
1814420,64
1815044,82
1815672,65
1816296,53
1816924,13
1817548,25
1818172,67
1818804,70
1819424,46
1820052,33
1820684,16
1821304,14
1821932,17
1822556,41
1823188,101
1823868,215
1824540,108
1825216,24
1825840,82
1826456,97
1827084,95
1827708,37
1828340,10
1828968,28
1829584,55
1830212,41
1830836,42
1831460,49
1832092,56
1832712,49
1833340,20
1833964,30
1834588,69
1835220,96
1835844,67
1836472,24
1837100,56
1837720,26
1838348,19
1838976,46
1839604,57
1840236,54
1840856,68
1841484,45
1842108,30
1842732,43
1843364,52
1843980,53
1844612,40
1845232,36
1845856,53
1846484,77
1847104,71
1847736,70
1848364,58
1848984,68
1849612,59
1850232,26
1850864,100
1851544,176
1852212,219
1852888,158
1853568,114
1854244,82
1854868,22
1855500,83
1856120,120
1856800,97
1857416,65
1858044,53
1858672,45
1859296,36
1859924,57
1860548,74
1861172,47
1861800,11
1862416,25
1863044,24
1863668,15
1864292,49
1864920,51
1865544,102
1866224,99
1866852,59
1867472,20
1868100,12
1868724,11
1869348,14
1869980,12
1870600,24
1871228,53
1871852,79
1872476,52
1873108,51
1873732,51
1874364,71
1874992,102
1875664,122
1876336,130
1877016,99
1877640,51
1878268,56
1878896,55
1879524,32
1880156,44
1880776,68
1881408,63
1882032,58
1882656,57
1883284,34
1883904,167
1884584,166
1885264,65
1885880,35
1886508,42
1887132,69
1887756,100
1888440,90
1889056,52
1889684,73
1890312,91
1890936,111
1891616,135
1892292,112
1892964,96
1893588,86
1894216,37
1894844,21
1895476,29
1896096,29
1896724,29
1897348,50
1897976,59
1898608,79
1899224,96
1899856,91
1900480,48
1901104,13
1901732,42
1902352,65
1902984,68
1903608,49
1904232,35
1904860,19
1905484,59
1906116,122
1906796,136
1907468,162
1908144,145
1908824,137
1909500,144
1910180,140
1910860,57
1911480,45
1912112,165
1912788,239
1913460,196
1914140,78
1914760,51
1915392,66
1916020,50
1916640,47
1917272,54
1917896,56
1918520,52
1919152,12
1919772,12
1920404,19
1921032,17
1921648,15
1922276,57
1922900,60
1923528,49
1924156,51
1924776,51
1925404,72
1926028,88
1926660,44
1927288,27
1927904,26
1928532,24
1929156,32
1929780,11
1930408,27
1931032,43
1931660,57
1932284,74
1932912,59
1933540,15
1934164,16
1934796,11
1935424,19
1936040,36
1936672,39
1937292,13
1937924,21
1938552,43
1939172,51
1939800,82
1940424,65
1941048,48
1941680,19
1942296,38
1942928,106
1943608,133
1944284,70
1944912,68
1945536,47
1946160,120
1946840,189
1947508,66
1948132,51
1948764,50
1949384,72
1950012,88
1950636,39
1951264,11
1951892,14
1952512,13
1953140,26
1953764,80
1954388,107
1955072,56
1955688,69
1956316,107
1957000,85
1957616,68
1958244,60
1958872,55
1959496,32
1960124,80
1960744,65
1961372,25
1962004,12
1962624,26
1963252,48
1963876,109
1964560,97
1965184,57
1965804,50
1966432,47
1967056,31
1967676,21
1968308,10
1968928,11
1969556,27
1970184,60
1970808,54
1971436,40
1972060,23
1972688,84
1973316,116
1973988,104
1974664,48
1975288,22
1975912,51
1976540,47
1977164,33
1977792,26
1978424,27
1979040,81
1979668,92
1980292,65
1980924,60
1981552,53
1982172,46
1982800,57
1983424,80
1984048,83
1984676,68
1985296,70
1985924,79
1986548,14
1987172,74
1987800,156
1988476,222
1989152,145
1989832,54
1990456,72
1991084,143
1991768,190
1992436,184
1993112,172
1993792,67
1994416,48
1995044,68
1995668,61
1996296,96
1996924,90
1997544,73
1998172,88
1998796,70
1999420,49
2000048,17
2000668,12
2001300,10
2001928,10
2002544,11
2003172,16
2003796,32
2004428,65
2005056,75
2005680,49
2006308,51
2006932,57
2007560,73
2008188,90
2008808,83
2009436,70
2010060,107
2010736,131
2011412,162
2012084,164
2012756,72
2013384,25
2014000,47
2014628,97
2015260,158
2015932,214
2016612,299
2017288,191
2017964,20
2018588,79
2019212,72
2019840,52
2020472,25
2021088,18
2021716,17
2022344,51
2022968,56
2023596,62
2024216,71
2024844,93
2025468,109
2026148,90
2026776,73
2027400,40
2028028,39
2028660,31
2029280,13
2029908,80
2030532,105
2031208,74
2031840,66
2032464,55
2033092,46
2033724,52
2034344,82
2034976,51
2035600,13
2036228,44
2036860,86
2037480,106
2038160,100
2038840,100
2039516,61
2040144,49
2040768,53
2041392,64
2042024,83
2042640,116
2043320,144
2044000,121
2044676,92
2045304,93
2045928,76
2046552,54
2047184,43
2047804,49
2048436,51
2049060,74
2049676,165
2050356,255
2051028,208
2051700,104
2052376,31
2052992,12
2053620,13
2054248,17
2054864,27
2055492,45
2056116,59
2056736,67
2057364,60
2057984,53
2058612,40
2059232,82
2059856,87
2060484,66
2061104,29
2061732,12
2062360,27
2062976,40
2063604,18
2064228,49
2064856,49
2065484,51
2066104,54
2066732,49
2067356,27
2067976,15
2068608,13
2069224,47
2069852,117
2070524,122
2071204,106
2071880,115
2072548,60
2073168,59
2073796,157
2074468,254
2075144,220
2075820,67
2076440,11
2077068,20
2077692,22
2078320,28
2078948,13
2079572,85
2080204,125
2080884,98
2081500,74
2082132,59
2082752,49
2083376,21
2084004,32
2084620,77
2085252,89
2085872,89
2086496,102
2087176,107
2087844,125
2088516,100
2089192,43
2089808,85
2090436,57
2091064,61
2091680,29
2092308,116
2092984,250
2093652,180
2094328,23
2094944,80
2095572,90
2096200,73
2096824,22
2097452,43
2098076,66
2098700,93
2099328,68
2099944,51
2100572,54
2101196,37
2101820,14
2102448,11
2103064,17
2103692,40
2104316,67
2104944,63
2105572,47
2106196,61
2106828,84
2107456,70
2108076,64
2108704,51
2109328,78
2109956,87
2110588,58
2111208,37
2111836,11
2112464,40
2113084,47
2113712,25
2114336,51
2114964,49
2115592,51
2116216,49
2116844,26
2117468,28
2118096,25
2118724,26
2119344,18
2119972,16
2120596,64
2121220,97
2121852,144
2122524,84
2123148,54
2123772,54
2124400,56
2125028,62
2125652,93
2126284,141
2126964,149
2127636,96
2128260,41
2128884,15
2129508,12
2130136,20
2130760,41
2131388,51
2132016,55
2132640,52
2133268,24
2133892,12
2134520,15
2135148,30
2135768,24
2136396,31
2137020,47
2137644,45
2138272,42
2138888,50
2139520,49
2140140,52
2140768,63
2141396,53
2142020,43
2142648,123
2143332,194
2144004,172
2144680,137
2145356,46
2145976,39
2146604,47
2147228,71
2147852,258
2148532,326
2149204,124
2149880,37
2150508,56
2151128,53
2151756,40
2152380,21
2153000,51
2153632,130
2154300,148
2154976,100
2155656,51
2156280,100
2156960,129
2157632,117
2158308,85
2158932,44
2159556,39
2160184,65
2160812,92
2161432,100
2162112,112
2162788,115
2163460,135
2164136,89
2164760,50
2165376,122
2166056,205
2166732,244
2167404,225
2168080,144
2168756,40
2169376,15
2170004,29
2170624,38
2171252,51
2171876,71
2172500,81
2173132,49
2173752,61
2174380,56
2175012,34
2175632,57
2176264,67
2176884,66
2177512,41
2178144,29
2178760,19
2179388,31
2180012,35
2180636,47
2181264,52
2181880,56
2182512,69
2183132,52
2183756,25
2184388,19
2185008,14
2185636,13
2186264,20
2186888,45
2187516,64
2188140,83
2188768,82
2189400,46
2190020,61
2190648,89
2191272,99
2191896,89
2192524,44
2193144,14
2193772,29
2194396,68
2195020,45
2195652,22
2196272,29
2196900,17
2197532,58
2198152,60
2198784,54
2199408,54
2200036,65
2200668,124
2201340,113
2202020,34
2202644,16
2203264,31
2203892,25
2204516,82
2205144,78
2205776,116
2206444,123
2207120,106
2207800,115
2208476,90
2209100,38
2209724,22
2210348,11
2210980,43
2211600,72
2212228,91
2212852,107
2213528,91
2214152,70
2214776,53
2215404,48
2216036,53
2216656,21
2217284,22
2217908,37
2218532,39
2219160,30
2219784,21
2220412,23
2221036,39
2221660,31
2222292,44
2222916,76
2223544,71
2224176,54
2224792,80
2225424,108
2226100,128
2226772,122
2227452,79
2228072,79
2228700,71
2229332,40
2229952,97
2230580,44
2231204,53
2231828,51
2232460,50
2233080,53
2233708,81
2234332,113
2235008,163
2235688,148
2236364,58
2236984,30
2237616,64
2238232,54
2238864,58
2239492,79
2240112,85
2240744,77
2241364,99
2241996,57
2242624,61
2243240,93
2243872,45
2244492,32
2245124,17
2245752,31
2246372,11
2247000,62
2247624,80
2248252,58
2248880,51
2249496,52
2250128,13
2250756,10
2251376,12
2252004,11
2252632,30
2253260,52
2253892,57
2254512,49
2255140,44
2255764,47
2256388,58
2257020,66
2257640,61
2258268,37
2258892,46
2259516,77
2260144,84
2260764,66
2261392,47
2262020,14
2262640,67
2263268,46
2263892,46
2264524,64
2265152,107
2265820,83
2266444,55
2267068,46
2267692,27
2268320,18
2268944,62
2269572,61
2270196,89
2270820,137
2271504,119
2272172,76
2272792,51
2273420,72
2274040,94
2274668,57
2275292,49
2275916,99
2276548,117
2277220,107
2277896,72
2278528,22
2279144,155
2279824,190
2280504,101
2281180,52
2281804,58
2282428,84
2283052,102
2283736,106
2284404,74
2285028,55
2285660,16
2286280,33
2286908,41
2287532,40
2288156,43
2288788,102
2289460,154
2290140,108
2290820,66
2291440,60
2292068,36
2292692,57
2293320,80
2293948,54
2294568,29
2295196,32
2295828,19
2296448,11
2297076,29
2297700,49
2298328,58
2298960,63
2299576,65
2300208,75
2300832,67
2301456,53
2302084,58
2302704,48
2303336,15
2303960,21
2304584,30
2305212,33
2305832,71
2306460,121
2307140,80
2307760,53
2308388,15
2309012,31
2309640,25
2310268,10
2310888,49
2311516,55
2312140,13
2312764,11
2313396,22
2314016,49
2314644,51
2315276,53
2315896,50
2316524,50
2317148,27
2317780,25
2318408,51
2319024,98
2319656,82
2320280,79
2320904,143
2321584,79
2322200,55
2322828,53
2323452,49
2324080,53
2324708,49
2325332,35
2325964,66
2326592,97
2327212,141
2327892,135
2328564,101
2329236,86
2329864,79
2330484,95
2331116,69
2331744,51
2332368,54
2332996,54
2333620,57
2334244,155
2334928,228
2335596,248
2336276,196
2336952,148
2337628,98
2338252,81
2338884,58
2339504,65
2340132,91
2340756,97
2341384,113
2342064,112
2342740,118
2343416,80
2344044,38
2344664,13
2345292,58
2345916,95
2346540,64
2347172,46
2347792,50
2348424,61
2349048,73
2349672,68
2350300,45
2350924,42
2351556,32
2352188,18
2352808,42
2353436,51
2354064,69
2354692,76
2355324,38
2355944,46
2356572,56
2357196,54
2357820,56
2358452,62
2359072,75
2359700,43
2360332,18
2360952,35
2361580,32
2362208,17
2362836,41
2363468,18
2364088,59
2364716,58
2365344,52
2365968,52
2366596,80
2367216,104
2367900,84
2368528,55
2369144,22
2369772,14
2370396,14
2371028,20
2371660,18
2372280,49
2372908,54
2373536,53
2374160,51
2374792,44
2375408,43
2376040,91
2376660,135
2377336,133
2378012,98
2378632,49
2379260,48
2379892,119
2380564,74
2381192,52
2381816,50
2382436,55
2383068,53
2383692,27
2384320,11
2384952,28
2385568,26
2386200,43
2386824,89
2387452,87
2388084,64
2388704,48
2389332,161
2390008,188
2390684,164
2391364,146
2392036,114
2392708,78
2393336,27
2393960,163
2394640,204
2395324,127
2395996,96
2396624,40
2397252,48
2397872,57
2398504,56
2399128,51
2399752,47
2400384,11
2401000,13
2401628,19
2402252,24
2402876,31
2403504,41
2404128,42
2404756,28
2405388,29
2406008,54
2406636,61
2407260,59
2407892,62
2408520,74
2409140,113
2409820,76
2410440,19
2411064,23
2411692,33
2412312,86
2412940,120
2413624,71
2414240,54
2414868,51
2415492,52
2416124,69
2416756,89
2417376,103
2418056,68
2418672,47
2419296,41
2419928,62
2420552,71
2421180,54
2421812,43
2422432,49
2423060,83
2423684,92
2424316,87
2424944,99
2425568,150
2426252,105
2426928,33
2427552,23
2428180,59
2428804,52
2429436,11
2430068,16
2430688,44
2431320,44
2431944,57
2432568,119
2433252,120
2433924,20
2434548,47
2435180,58
2435800,64
2436432,35
2437056,22
2437680,21
2438308,51
2438928,50
2439556,47
2440180,55
2440804,65
2441436,60
2442060,49
2442692,36
2443320,30
2443944,26
2444576,18
2445200,31
2445828,17
2446460,10
2447080,41
2447712,50
2448336,49
2448960,53
2449588,54
2450208,35
2450840,19
2451468,11
2452088,23
2452716,23
2453344,25
2453972,27
2454604,77
2455224,65
2455856,53
2456480,83
2457104,101
2457788,117
2458456,106
2459136,35
2459760,12
2460376,57
2461004,129
2461680,66
2462296,25
2462924,23
2463544,59
2464172,59
2464800,52
2465424,51
2466052,53
2466676,18
2467304,35
2467932,30
2468552,16
2469180,18
2469804,33
2470428,62
2471056,70
2471672,97
2472304,95
2472928,50
2473548,73
2474180,78
2474800,60
2475428,17
2476060,16
2476680,22
2477308,13
2477932,30
2478564,14
2479192,16
2479816,53
2480448,89
2481068,88
2481692,75
2482324,62
2482944,64
2483572,21
2484196,10
2484820,21
2485448,49
2486064,104
2486748,102
2487424,69
2488048,51
2488676,25
2489300,61
2489924,59
2490552,57
2491176,57
2491808,75
2492436,88
2493056,91
2493688,52
2494308,69
2494940,152
2495624,173
2496292,127
2496968,33
2497592,79
2498212,111
2498892,118
2499564,90
2500184,15
2500812,110
2501484,122
2502160,38
2502788,18
2503408,15
2504036,16
2504660,15
2505284,52
2505916,134
2506588,159
2507268,96
2507896,60
2508512,56
2509144,101
2509816,122
2510492,83
2511116,21
2511744,29
2512372,48
2513004,12
2513624,34
2514252,54
2514876,116
2515552,120
2516232,77
2516856,56
2517484,69
2518116,91
2518736,64
2519368,27
2519992,14
2520616,23
2521244,28
2521864,21
2522492,50
2523116,52
2523744,67
2524372,56
2524996,105
2525680,134
2526356,137
2527028,94
2527656,22
2528288,31
2528904,41
2529532,19
2530160,62
2530788,96
2531420,78
2532040,54
2532668,53
2533296,21
2533920,16
2534548,29
2535168,19
2535800,29
2536424,28
2537048,20
2537676,18
2538296,17
2538928,47
2539556,50
2540176,50
2540804,53
2541428,46
2542060,16
2542692,68
2543312,85
2543944,74
2544568,15
2545192,28
2545824,38
2546440,27
2547068,44
2547696,61
2548320,58
2548952,49
2549576,71
2550208,96
2550836,82
2551456,65
2552088,45
2552712,40
2553340,25
2553972,25
2554592,40
2555224,46
2555848,52
2556472,75
2557104,81
2557724,56
2558356,57
2558988,73
2559608,147
2560296,198
2560960,150
2561632,94
2562260,19
2562880,51
2563508,25
2564140,42
2564760,51
2565388,63
2566012,73
2566640,88
2567268,74
2567888,59
2568516,37
2569140,49
2569760,61
2570388,80
2571008,56
2571636,29
2572260,47
2572884,59
2573512,81
2574128,97
2574756,85
2575384,99
2576008,86
2576636,55
2577260,28
2577888,35
2578516,42
2579136,43
2579764,20
2580388,40
2581012,61
2581644,54
2582264,50
2582892,58
2583516,88
2584140,147
2584820,51
2585440,21
2586068,16
2586696,47
2587320,109
2588000,93
2588616,40
2589240,55
2589868,69
2590488,116
2591168,167
2591844,173
2592516,192
2593192,221
2593872,206
2594548,100
2595224,12
2595852,103
2596524,163
2597200,193
2597868,188
2598540,194
2599216,108
2599892,67
2600512,53
2601140,46
2601760,55
2602388,80
2603016,123
2603692,156
2604368,111
2605044,50
2605664,54
2606292,58
2606916,55
2607548,79
2608176,121
2608852,126
2609528,125
2610208,124
2610884,102
2611560,96
2612184,91
2612808,103
2613488,122
2614156,74
2614784,56
2615412,112
2616084,162
2616760,80
2617384,14
2618004,48
2618632,58
2619256,13
2619884,45
2620516,70
2621136,61
2621768,39
2622388,51
2623012,68
2623640,72
2624260,62
2624884,41
2625508,48
2626128,70
2626760,65
2627376,45
2628004,37
2628632,14
2629248,64
2629876,113
2630552,71
2631172,54
2631804,62
2632424,65
2633052,60
2633672,34
2634296,18
2634924,26
2635544,33
2636172,11
2636796,18
2637424,33
2638052,73
2638676,60
2639304,47
2639936,61
2640552,64
2641184,53
2641804,16
2642436,22
2643064,77
2643680,80
2644308,43
2644932,42
2645552,19
2646180,17
2646800,37
2647428,59
2648052,59
2648672,53
2649300,50
2649924,21
2650552,19
2651180,16
2651800,25
2652428,12
2653052,49
2653680,96
2654312,93
2654928,80
2655560,48
2656184,56
2656804,64
2657436,58
2658056,52
2658684,55
2659308,80
2659932,50
2660560,21
2661176,34
2661808,13
2662436,12
2663052,15
2663680,39
2664304,48
2664932,49
2665560,52
2666176,67
2666808,76
2667428,51
2668052,18
2668680,10
2669296,48
2669928,93
2670548,121
2671224,142
2671900,130
2672572,70
2673192,49
2673820,63
2674440,65
2675068,62
2675692,67
2676316,69
2676944,51
2677560,12
2678192,19
2678820,27
2679440,57
2680068,36
2680692,45
2681320,55
2681948,55
2682568,50
2683196,27
2683820,31
2684444,72
2685072,90
2685696,71
2686324,49
2686948,16
2687572,75
2688204,98
2688820,47
2689448,107
2690128,160
2690796,147
2691472,102
2692148,31
2692768,13
2693396,47
2694020,52
2694648,27
2695276,116
2695948,184
2696624,106
2697304,47
2697928,49
2698556,79
2699180,113
2699856,36
2700480,24
2701096,40
2701724,43
2702356,30
2702976,15
2703604,17
2704228,36
2704856,70
2705488,66
2706104,50
2706732,62
2707356,95
2707980,105
2708660,68
2709280,29
2709908,21
2710536,28
2711160,15
2711788,15
2712412,50
2713044,55
2713672,29
2714296,46
2714924,48
2715548,52
2716168,49
2716800,12
2717416,11
2718044,11
2718668,18
2719292,23
2719924,23
2720544,19
2721172,21
2721800,66
2722424,47
2723052,65
2723676,91
2724304,61
2724932,30
2725552,32
2726180,45
2726804,32
2727428,11
2728056,10
2728680,22
2729308,64
2729932,49
2730552,46
2731180,50
2731800,53
2732428,49
2733052,43
2733680,21
2734308,32
2734932,37
2735564,35
2736192,60
2736816,85
2737444,89
2738068,110
2738748,112
2739424,81
2740048,63
2740676,51
2741304,75
2741928,146
2742608,177
2743276,169
2743948,116
2744628,40
2745248,15
2745872,15
2746500,12
2747120,47
2747748,51
2748372,53
2748996,61
2749628,54
2750248,17
2750876,19
2751508,59
2752128,69
2752756,55
2753380,45
2754008,29
2754636,14
2755256,27
2755884,71
2756508,76
2757132,85
2757760,86
2758380,47
2759008,11
2759636,20
2760260,11
2760888,10
2761504,15
2762136,18
2762764,27
2763384,19
2764012,44
2764636,50
2765268,52
2765896,50
2766520,40
2767148,51
2767772,20
2768396,27
2769024,47
2769648,53
2770276,71
2770900,81
2771524,75
2772156,48
2772776,63
2773404,74
2774036,72
2774656,59
2775284,72
2775908,98
2776540,62
2777172,33
2777792,17
2778420,70
2779044,91
2779668,49
2780300,38
2780920,85
2781548,92
2782172,83
2782800,65
2783428,28
2784048,11
2784676,15
2785308,14
2785928,50
2786556,142
2787232,125
2787900,34
2788524,17
2789144,42
2789772,52
2790396,55
2791024,61
2791652,24
2792276,20
2792908,11
2793536,15
2794160,21
2794788,81
2795412,105
2796092,104
2796768,163
2797444,178
2798120,112
2798800,58
2799424,173
2800104,306
2800784,275
2801460,127
2802136,33
2802764,19
2803384,35
2804012,45
2804636,25
2805260,29
2805888,68
2806512,57
2807140,129
2807820,185
2808492,213
2809168,187
2809844,120
2810516,54
2811144,19
2811768,32
2812396,133
2813080,126
2813748,42
2814376,58
2815004,53
2815624,51
2816256,53
2816876,29
2817504,39
2818136,40
2818752,44
2819380,16
2820004,24
2820624,52
2821256,87
2821872,76
2822504,41
2823124,65
2823748,62
2824380,55
2825000,27
2825628,75
2826260,102
2826932,42
2827556,29
2828180,48
2828804,14
2829432,46
2830056,27
2830684,45
2831308,66
2831932,111
2832616,71
2833232,24
2833860,25
2834492,92
2835112,110
2835796,74
2836416,66
2837040,81
2837668,56
2838288,19
2838916,81
2839540,126
2840220,106
2840896,72
2841520,37
2842144,11
2842772,13
2843392,35
2844020,23
2844644,21
2845268,16
2845900,16
2846520,48
2847148,59
2847780,46
2848400,49
2849028,53
2849652,50
2850280,26
2850912,15
2851528,36
2852160,45
2852784,37
2853408,41
2854036,42
2854656,35
2855284,20
2855908,62
2856532,68
2857164,64
2857784,64
2858412,48
2859044,36
2859664,31
2860296,31
2860920,11
2861548,11
2862180,10
2862800,13
2863428,18
2864056,46
2864680,49
2865308,52
2865928,55
2866560,39
2867184,41
2867808,18
2868436,19
2869060,28
2869688,42
2870316,50
2870936,74
2871564,80
2872188,55
2872820,54
2873448,64
2874064,91
2874696,107
2875372,89
2875992,125
2876672,133
2877348,78
2877968,46
2878596,36
2879216,20
2879844,23
2880468,43
2881092,108
2881772,181
2882444,121
2883120,90
2883744,61
2884360,41
2884988,17
2885612,11
2886236,11
2886864,14
2887480,13
2888108,24
2888736,60
2889360,95
2889988,92
2890612,127
2891292,158
2891968,158
2892644,116
2893320,14
2893948,90
2894568,38
2895196,11
2895820,35
2896444,93
2897072,105
2897748,82
2898372,52
2899004,63
2899624,64
2900252,21
2900876,92
2901504,121
2902188,69
2902808,55
2903436,43
2904060,60
2904688,113
2905368,115
2906044,50
2906664,83
2907292,100
2907964,101
2908644,96
2909268,82
2909888,73
2910516,37
2911140,20
2911764,27
2912396,14
2913016,11
2913644,30
2914268,52
2914892,51
2915524,68
2916144,57
2916772,32
2917404,11
2918024,35
2918656,51
2919276,57
2919908,46
2920536,23
2921160,14
2921788,21
2922412,48
2923036,63
2923668,50
2924288,57
2924916,23
2925540,24
2926164,37
2926796,36
2927416,14
2928044,25
2928676,39
2929296,109
2929976,65
2930592,44
2931216,51
2931848,60
2932464,63
2933096,36
2933720,13
2934344,29
2934972,65
2935592,65
2936224,71
2936852,73
2937472,77
2938104,60
2938728,42
2939356,105
2940040,169
2940708,184
2941388,172
2942068,106
2942740,78
2943368,65
2943992,26
2944616,30
2945248,72
2945872,87
2946500,35
2947132,50
2947752,52
2948384,69
2949008,134
2949688,83
2950316,16
2950936,22
2951564,13
2952188,28
2952816,38
2953444,72
2954068,117
2954752,100
2955424,53
2956048,50
2956676,61
2957304,64
2957924,77
2958556,86
2959180,37
2959812,17
2960440,24
2961064,25
2961692,18
2962316,15
2962944,28
2963576,79
2964192,130
2964876,132
2965552,104
2966228,61
2966856,39
2967480,43
2968104,34
2968732,78
2969352,95
2969984,61
2970604,76
2971228,104
2971908,91
2972528,48
2973156,91
2973788,108
2974460,89
2975084,90
2975708,94
2976332,113
2977016,128
2977684,89
2978304,20
2978936,75
2979552,19
2980184,27
2980808,44
2981428,52
2982060,52
2982680,62
2983308,119
2983992,146
2984660,115
2985336,89
2985960,73
2986584,35
2987212,14
2987832,15
2988464,31
2989092,42
2989712,56
2990344,57
2990968,70
2991596,67
2992228,52
2992848,42
2993476,38
2994100,43
2994724,47
2995356,36
2995976,15
2996604,13
2997228,51
2997852,56
2998484,57
2999108,53
2999736,36
3000368,11
3000984,11
3001616,34
3002240,17
3002868,85
3003500,98
3004120,65
3004752,44
3005376,49
3006000,64
3006632,79
3007248,53
3007880,86
3008504,136
3009180,146
3009860,147
3010532,113
3011204,14
3011828,20
3012456,33
3013084,53
3013716,42
3014336,50
3014968,58
3015592,71
3016216,74
3016848,18
3017464,43
3018096,41
3018720,26
3019344,12
3019976,21
3020596,33
3021228,45
3021856,31
3022476,47
3023104,56
3023728,53
3024360,59
3024988,18
3025608,23
3026236,35
3026864,55
3027488,39
3028116,16
3028736,14
3029368,18
3029992,41
3030616,77
3031248,66
3031864,55
3032496,61
3033124,46
3033744,19
3034372,16
3035000,15
3035628,77
3036260,50
3036880,27
3037508,25
3038136,58
3038760,95
3039392,105
3040060,111
3040736,76
3041368,44
3041984,24
3042612,54
3043236,61
3043860,48
3044492,33
3045112,27
3045744,11
3046368,14
3046992,41
3047620,51
3048240,56
3048868,53
3049500,48
3050120,13
3050752,13
3051376,24
3052008,45
3052636,36
3053256,17
3053888,21
3054512,33
3055136,57
3055768,47
3056384,56
3057016,59
3057640,56
3058264,34
3058896,39
3059512,34
3060144,145
3060828,219
3061500,222
3062180,124
3062860,15
3063480,71
3064112,124
3064788,126
3065460,77
3066088,64
3066712,20
3067344,37
3067976,64
3068596,65
3069224,62
3069852,31
3070476,26
3071108,67
3071732,93
3072364,73
3072984,59
3073608,55
3074236,56
3074856,59
3075484,62
3076116,66
3076736,54
3077364,47
3077988,64
3078620,73
3079248,40
3079864,15
3080496,46
3081120,48
3081744,55
3082372,80
3082992,99
3083620,68
3084244,24
3084868,80
3085496,83
3086120,25
3086748,48
3087380,51
3088000,37
3088628,25
3089252,55
3089884,71
3090512,155
3091184,155
3091860,74
3092488,13
3093104,36
3093732,75
3094360,107
3095040,109
3095716,49
3096336,29
3096964,43
3097588,54
3098216,52
3098844,52
3099468,53
3100100,41
3100732,38
3101352,23
3101984,38
3102608,45
3103240,46
3103868,59
3104488,58
3105116,25
3105744,62
3106368,91
3106996,116
3107668,122
3108348,103
3109028,81
3109648,70
3110280,63
3110904,27
3111528,11
3112160,99
3112784,206
3113468,119
3114144,47
3114768,51
3115400,50
3116024,65
3116648,83
3117276,69
3117900,58
3118532,65
3119164,44
3119784,13
3120416,75
3121040,111
3121720,109
3122396,60
3123016,58
3123648,61
3124276,66
3124896,27
3125524,59
3126148,154
3126832,142
3127508,50
3128128,13
3128756,12
3129388,13
3130008,18
3130636,47
3131260,47
3131892,51
3132524,49
3133144,31
3133776,21
3134400,52
3135024,27
3135652,26
3136272,64
3136900,62
3137524,76
3138148,77
3138780,53
3139404,60
3140036,103
3140716,113
3141388,118
3142068,122
3142748,137
3143420,108
3144100,65
3144724,14
3145344,89
3145976,169
3146652,121
3147324,80
3147952,56
3148568,52
3149200,51
3149832,52
3150448,70
3151080,50
3151704,16
3152336,13
3152964,13
3153584,34
3154216,55
3154840,59
3155464,53
3156096,52
3156712,77
3157344,77
3157968,70
3158592,60
3159224,73
3159840,73
3160472,42
3161104,24
3161720,39
3162352,16
3162976,50
3163608,50
3164236,48
3164856,49
3165484,50
3166112,63
3166736,60
3167364,58
3167984,56
3168616,94
3169240,88
3169864,53
3170496,22
3171112,81
3171744,117
3172428,75
3173048,54
3173680,81
3174304,124
3174980,53
3175608,26
3176224,69
3176852,79
3177484,55
3178104,37
3178736,17
3179360,72
3179992,97
3180624,67
3181240,50
3181872,56
3182496,54
3183120,29
3183752,16
3184372,24
3185000,37
3185624,50
3186252,45
3186880,15
3187504,38
3188136,51
3188764,70
3189384,73
3190016,74
3190640,61
3191272,73
3191904,86
3192524,99
3193152,65
3193780,45
3194404,57
3195036,100
3195708,82
3196336,26
3196964,60
3197584,128
3198268,74
3198888,54
3199516,58
3200148,72
3200768,77
3201396,58
3202016,18
3202640,40
3203268,88
3203888,115
3204568,100
3205240,38
3205856,67
3206484,91
3207104,88
3207728,81
3208356,99
3208976,113
3209656,129
3210328,73
3210952,25
3211580,13
3212204,29
3212828,76
3213456,90
3214072,43
3214704,53
3215328,58
3215952,69
3216580,29
3217200,33
3217828,74
3218460,79
3219080,79
3219708,51
3220332,35
3220964,13
3221592,24
3222212,80
3222840,126
3223516,113
3224188,94
3224812,91
3225436,51
3226068,22
3226696,56
3227320,35
3227948,11
3228572,20
3229196,60
3229828,40
3230448,43
3231076,49
3231700,52
3232328,49
3232956,50
3233576,12
3234204,11
3234836,13
3235456,24
3236084,13
3236708,32
3237340,93
3237968,124
3238640,111
3239312,58
3239928,52
3240556,58
3241184,63
3241808,18
3242436,38
3243068,88
3243688,116
3244368,130
3245044,143
3245716,83
3246344,33
3246968,35
3247596,48
3248228,54
3248848,50
3249476,48
3250100,29
3250724,28
3251356,16
3251976,16
3252604,30
3253232,38
3253856,64
3254484,69
3255108,49
3255740,42
3256368,52
3256992,55
3257620,49
3258244,62
3258876,98
3259504,133
3260180,154
3260860,115
3261540,105
3262212,50
3262840,19
3263464,33
3264088,83
3264716,104
3265388,101
3266064,83
3266692,71
3267312,78
3267944,49
3268568,26
3269192,35
3269820,46
3270440,41
3271068,13
3271700,22
3272320,61
3272948,68
3273576,64
3274208,62
3274836,68
3275456,71
3276088,61
3276712,49
3277336,38
3277968,44
3278584,36
3279212,12
3279832,23
3280456,47
3281084,51
3281700,54
3282332,61
3282960,57
3283576,31
3284204,43
3284824,74
3285452,100
3286132,117
3286804,94
3287428,31
3288052,16
3288672,39
3289300,75
3289924,82
3290552,83
3291180,70
3291800,40
3292428,35
3293052,52
3293680,52
3294308,34
3294928,25
3295556,16
3296180,11
3296804,34
3297432,52
3298048,49
3298676,56
3299300,54
3299920,21
3300548,30
3301168,56
3301796,81
3302424,45
3303040,19
3303668,15
3304292,13
3304920,27
3305548,89
3306168,93
3306796,52
3307420,61
3308044,67
3308672,32
3309296,13
3309924,21
3310548,37
3311172,83
3311800,84
3312424,45
3313052,11
3313684,42
3314304,51
3314932,51
3315556,51
3316188,48
3316816,43
3317432,88
3318064,81
3318688,82
3319308,63
3319940,16
3320560,13
3321188,17
3321812,18
3322436,53
3323064,69
3323688,66
3324316,66
3324948,88
3325568,104
3326248,120
3326916,121
3327588,66
3328216,53
3328836,25
3329464,11
3330092,27
3330712,50
3331340,52
3331964,53
3332592,49
3333220,19
3333840,14
3334468,18
3335088,17
3335712,23
3336340,67
3336960,98
3337588,121
3338268,96
3338888,56
3339516,53
3340140,56
3340768,56
3341396,48
3342016,51
3342644,77
3343268,83
3343892,53
3344520,31
3345144,25
3345772,16
3346396,23
3347020,43
3347648,50
3348272,52
3348900,53
3349528,55
3350152,53
3350780,47
3351404,32
3352036,38
3352664,64
3353284,33
3353912,37
3354536,51
3355160,38
3355788,45
3356408,53
3357036,50
3357660,58
3358284,95
3358916,131
3359588,60
3360212,33
3360840,36
3361460,44
3362088,48
3362712,15
3363336,63
3363964,104
3364636,104
3365312,88
3365936,74
3366552,31
3367180,20
3367804,41
3368436,14
3369064,108
3369732,122
3370408,121
3371084,68
3371704,51
3372332,47
3372956,50
3373580,54
3374212,53
3374832,24
3375460,37
3376084,81
3376708,69
3377336,39
3377960,45
3378588,53
3379220,12
3379836,16
3380468,70
3381092,71
3381720,57
3382348,57
3382968,52
3383596,19
3384220,43
3384844,49
3385472,41
3386088,36
3386720,38
3387344,13
3387964,13
3388596,24
3389216,48
3389844,64
3390476,64
3391096,52
3391724,31
3392352,14
3392980,39
3393608,38
3394224,12
3394852,16
3395476,25
3396100,76
3396732,34
3397352,41
3397980,49
3398604,53
3399228,49
3399860,50
3400480,72
3401108,27
3401736,22
3402356,59
3402984,82
3403608,79
3404236,63
3404868,19
3405484,79
3406116,106
3406788,79
3407408,68
3408036,128
3408708,208
3409384,228
3410060,180
3410732,46
3411356,21
3411988,24
3412608,44
3413236,109
3413912,192
3414588,168
3415264,93
3415888,55
3416516,19
3417148,18
3417768,17
3418396,17
3419020,11
3419652,34
3420280,63
3420904,75
3421532,47
3422156,54
3422780,89
3423412,107
3424084,71
3424708,40
3425340,32
3425960,86
3426588,95
3427212,15
3427844,55
3428472,58
3429092,56
3429720,17
3430344,85
3430972,78
3431600,60
3432224,65
3432852,51
3433484,72
3434104,112
3434784,102
3435460,52
3436080,79
3436708,122
3437380,152
3438060,110
3438740,50
3439360,92
3439988,99
3440616,89
3441240,69
3441868,71
3442488,96
3443116,115
3443800,102
3444468,98
3445092,96
3445716,53
3446340,41
3446972,56
3447592,57
3448224,51
3448852,54
3449472,58
3450100,45
3450724,35
3451356,19
3451984,22
3452608,40
3453236,40
3453864,41
3454488,36
3455116,23
3455736,47
3456368,52
3456988,92
3457612,103
3458292,39
3458912,41
3459540,20
3460172,18
3460792,38
3461420,71
3462044,70
3462668,62
3463300,92
3463920,128
3464600,86
3465224,56
3465840,52
3466472,23
3467096,21
3467724,53
3468356,62
3468976,58
3469604,80
3470228,89
3470856,86
3471484,72
3472104,51
3472732,53
3473356,59
3473980,67
3474612,80
3475232,81
3475860,88
3476492,104
3477164,80
3477788,14
3478412,82
3479044,120
3479724,79
3480344,42
3480972,51
3481600,56
3482220,59
3482852,55
3483476,34
3484104,55
3484732,66
3485352,66
3485980,41
3486604,23
3487236,43
3487864,47
3488488,53
3489116,43
3489740,49
3490364,51
3490992,56
3491616,15
3492244,12
3492876,12
3493496,26
3494124,25
3494748,26
3495380,16
3496008,17
3496624,19
3497256,42
3497880,51
3498504,50
3499132,51
3499752,29
3500384,45
3501008,35
3501632,15
3502260,12
3502880,21
3503508,44
3504140,44
3504760,47
3505388,45
3506012,58
3506644,71
3507276,58
3507896,61
3508524,65
3509148,79
3509772,78
3510404,46
3511024,17
3511656,16
3512280,76
3512904,64
3513536,23
3514152,52
3514784,52
3515416,54
3516032,56
3516664,35
3517288,29
3517920,23
3518548,11
3519168,16
3519800,32
3520424,45
3521048,39
3521676,30
3522296,47
3522924,65
3523548,72
3524172,70
3524800,60
3525424,47
3526052,50
3526684,53
3527304,33
3527932,22
3528556,19
3529188,20
3529816,22
3530440,46
3531068,51
3531692,53
3532316,53
3532948,50
3533568,29
3534196,17
3534820,11
3535444,16
3536072,17
3536696,29
3537324,18
3537952,21
3538576,24
3539204,47
3539828,55
3540460,55
3541088,57
3541708,54
3542336,48
3542964,23
3543588,15
3544216,10
3544836,11
3545464,11
3546088,25
3546712,19
3547340,39
3547960,49
3548592,50
3549220,52
3549840,23
3550468,15
3551096,18
3551724,23
3552356,19
3552976,20
3553604,25
3554228,26
3554852,27
3555484,46
3556104,59
3556732,60
3557360,52
3557984,42
3558616,13
3559240,28
3559868,37
3560500,24
3561120,12
3561748,13
3562372,17
3563004,16
3563636,42
3564256,61
3564884,65
3565508,67
3566132,70
3566764,26
3567384,14
3568012,37
3568636,58
3569264,74
3569896,81
3570520,89
3571148,69
3571780,35
3572400,49
3573028,70
3573656,71
3574280,59
3574912,18
3575528,17
3576160,12
3576784,26
3577408,25
3578040,27
3578656,13
3579288,22
3579920,19
3580540,47
3581172,51
3581796,50
3582428,53
3583056,30
3583680,25
3584312,24
3584936,13
3585556,11
3586188,18
3586808,30
3587436,32
3588060,32
3588684,46
3589312,100
3589988,92
3590612,69
3591244,58
3591864,21
3592492,24
3593116,19
3593744,16
3594372,12
3594992,11
3595620,25
3596244,13
3596872,39
3597500,49
3598120,53
3598748,51
3599380,54
3600000,37
3600628,32
3601252,32
3601884,29
3602512,39
3603128,41
3603760,53
3604384,51
3605008,40
3605636,52
3606256,63
3606884,63
3607508,60
3608132,78
3608760,87
3609376,86
3610008,55
3610636,11
3611256,10
3611884,16
3612508,12
3613136,13
3613768,49
3614384,52
3615016,53
3615640,51
3616264,45
3616892,15
3617512,12
3618140,13
3618764,24
3619388,51
3620016,74
3620640,79
3621268,68
3621896,40
3622520,49
3623148,66
3623772,67
3624404,63
3625032,53
3625648,45
3626276,35
3626900,42
3627528,33
3628156,17
3628776,27
3629408,33
3630032,18
3630656,49
3631284,54
3631904,59
3632536,58
3633164,34
3633784,26
3634412,26
3635040,21
3635668,13
3636300,22
3636920,45
3637548,49
3638172,45
3638796,48
3639428,62
3640048,69
3640676,67
3641300,56
3641924,48
3642556,60
3643176,57
3643808,40
3644436,20
3645056,12
3645684,33
3646308,30
3646940,37
3647572,48
3648192,52
3648820,54
3649444,52
3650068,20
3650696,23
3651312,20
3651944,17
3652568,41
3653192,60
3653820,54
3654440,31
3655068,21
3655700,48
3656320,55
3656948,59
3657572,63
3658204,71
3658836,76
3659456,89
3660088,72
3660712,31
3661336,33
3661964,23
3662584,19
3663212,28
3663836,47
3664464,50
3665092,52
3665712,53
3666344,35
3666972,32
3667592,44
3668220,24
3668844,11
3669476,26
3670108,41
3670728,25
3671360,21
3671984,40
3672608,50
3673240,54
3673856,53
3674488,55
3675112,27
3675736,32
3676368,37
3676984,43
3677616,30
3678244,15
3678864,24
3679496,23
3680120,17
3680748,46
3681380,48
3682000,51
3682628,53
3683252,15
3683876,19
3684508,24
3685128,31
3685756,45
3686384,67
3687008,71
3687640,71
3688260,84
3688888,61
3689520,52
3690136,56
3690764,64
3691388,72
3692020,79
3692648,85
3693264,81
3693896,54
3694520,41
3695144,41
3695772,11
3696392,20
3697020,43
3697644,52
3698268,52
3698896,50
3699520,54
3700148,16
3700780,10
3701400,15
3702028,27
3702652,55
3703284,61
3703912,58
3704536,47
3705164,21
3705792,47
3706416,51
3707044,58
3707664,65
3708292,74
3708916,74
3709544,67
3710172,53
3710796,29
3711428,21
3712060,12
3712680,24
3713308,19
3713932,43
3714560,54
3715188,60
3715808,58
3716436,27
3717064,12
3717688,15
3718316,10
3718936,14
3719564,23
3720192,67
3720816,85
3721444,57
3722068,47
3722700,59
3723328,63
3723952,59
3724584,51
3725208,27
3725832,42
3726460,51
3727080,30
3727712,15
3728336,9
3728904,18
3729540,12
3730160,29
3730788,47
3731412,51
3732040,54
3732668,54
3733288,54
3733916,39
3734548,20
3735168,22
3735800,28
3736424,37
3737056,53
3737684,49
3738304,36
3738932,51
3739556,79
3740180,83
3740812,78
3741432,72
3742064,66
3742688,61
3743312,39
3743944,20
3744564,13
3745192,11
3745824,40
3746440,47
3747068,46
3747696,49
3748324,54
3748956,62
3749576,55
3750208,17
3750832,13
3751456,17
3752088,21
3752704,15
3753336,16
3753960,13
3754584,15
3755216,23
3755832,57
3756464,51
3757096,53
3757712,59
3758344,37
3758968,24
3759600,13
3760228,10
3760848,17
3761476,31
3762104,33
3762728,22
3763360,42
3763976,68
3764608,73
3765232,57
3765856,51
3766488,35
3767112,43
3767740,47
3768372,48
3768992,47
3769620,83
3770244,77
3770876,34
3771508,15
3772128,66
3772760,92
3773384,98
3774008,78
3774640,38
3775256,42
3775888,65
3776520,32
3777136,11
3777764,17
3778388,40
3779020,64
3779652,52
3780272,37
3780904,47
3781528,53
3782152,52
3782784,51
3783400,27
3784032,33
3784656,53
3785280,29
3785908,52
3786528,65
3787160,55
3787788,45
3788408,29
3789040,53
3789664,69
3790292,63
3790924,56
3791544,44
3792172,51
3792796,63
3793424,51
3794052,12
3794672,21
3795300,11
3795924,12
3796552,17
3797180,59
3797800,57
3798432,48
3799060,49
3799680,30
3800312,27
3800936,35
3801568,40
3802196,62
3802816,91
3803448,73
3804072,53
3804696,52
3805328,42
3805944,64
3806576,62
3807200,66
3807824,75
3808456,77
3809076,75
3809704,50
3810336,13
3810952,11
3811584,13
3812208,20
3812836,20
3813468,26
3814088,46
3814720,50
3815344,50
3815968,50
3816600,45
3817216,32
3817848,16
3818472,15
3819096,35
3819728,50
3820344,55
3820976,42
3821604,38
3822224,52
3822856,74
3823480,77
3824112,52
3824740,27
3825360,13
3825992,42
3826616,61
3827240,22
3827868,10
3828488,14
3829120,30
3829744,32
3830368,41
3831000,50
3831624,51
3832256,47
3832888,46
3833508,18
3834140,13
3834764,27
3835396,29
3836028,27
3836648,24
3837280,20
3837904,14
3838532,35
3839164,83
3839788,92
3840420,80
3841048,61
3841664,39
3842296,31
3842916,36
3843548,31
3844176,16
3844792,23
3845424,12
3846048,16
3846672,16
3847300,43
3847920,51
3848548,50
3849172,71
3849800,101
3850480,138
3851148,160
3851824,116
3852504,88
3853128,69
3853756,52
3854388,40
3855008,25
3855636,48
3856264,69
3856892,76
3857520,84
3858144,89
3858772,102
3859448,110
3860124,83
3860748,26
3861372,13
3862004,29
3862632,24
3863256,22
3863884,44
3864512,47
3865136,52
3865764,50
3866384,27
3867012,12
3867636,13
3868260,16
3868892,23
3869516,53
3870148,48
3870776,30
3871400,17
3872028,46
3872652,54
3873284,65
3873912,63
3874532,61
3875160,60
3875784,60
3876408,55
3877036,20
3877656,27
3878288,21
3878916,15
3879536,25
3880168,21
3880792,43
3881420,65
3882052,64
3882672,56
3883304,43
3883928,26
3884552,30
3885184,24
3885800,19
3886432,13
3887056,22
3887680,27
3888312,19
3888928,44
3889556,59
3890188,66
3890808,70
3891440,60
3892064,59
3892692,80
3893320,83
3893944,55
3894572,44
3895196,18
3895824,49
3896452,98
3897072,77
3897704,53
3898324,48
3898948,49
3899580,44
3900200,27
3900828,13
3901460,10
3902080,15
3902708,11
3903336,21
3903968,34
3904600,38
3905216,38
3905844,41
3906468,47
3907092,54
3907724,67
3908344,72
3908976,40
3909600,24
3910224,46
3910856,58
3911472,66
3912104,49
3912732,13
3913352,32
3913984,42
3914608,55
3915240,55
3915868,54
3916488,21
3917120,20
3917744,23
3918368,15
3919000,29
3919616,55
3920248,83
3920872,83
3921496,107
3922180,65
3922800,48
3923428,53
3924060,56
3924680,29
3925308,44
3925936,71
3926560,74
3927192,44
3927808,41
3928440,51
3929064,13
3929688,38
3930316,44
3930936,45
3931568,49
3932196,46
3932816,47
3933444,19
3934068,37
3934700,34
3935328,54
3935952,49
3936584,33
3937208,13
3937832,35
3938460,39
3939080,39
3939708,47
3940336,54
3940960,62
3941588,47
3942212,48
3942844,43
3943472,16
3944096,11
3944724,20
3945348,20
3945980,11
3946608,26
3947228,59
3947856,58
3948480,54
3949104,51
3949732,22
3950352,13
3950984,21
3951608,24
3952232,15
3952860,21
3953484,35
3954116,29
3954744,24
3955368,43
3955996,49
3956620,59
3957252,57
3957884,58
3958504,39
3959132,24
3959760,19
3960384,21
3961012,10
3961632,12
3962260,17
3962892,26
3963512,36
3964144,44
3964768,49
3965400,49
3966028,45
3966648,15
3967280,11
3967904,17
3968528,29
3969160,67
3969776,64
3970404,45
3971028,30
3971652,22
3972284,43
3972904,71
3973536,76
3974164,62
3974784,65
3975412,71
3976036,101
3976720,94
3977344,49
3977960,25
3978588,14
3979212,18
3979836,17
3980468,45
3981088,47
3981716,51
3982348,51
3982968,49
3983600,60
3984224,33
3984852,16
3985484,20
3986104,60
3986732,63
3987360,81
3987984,65
3988616,42
3989232,56
3989864,48
3990488,50
3991112,51
3991744,15
3992360,44
3992992,69
3993624,64
3994240,43
3994868,15
3995492,27
3996124,30
3996756,16
3997376,45
3998008,49
3998632,47
3999256,47
3999888,42
4000504,66
4001136,51
4001760,21
4002380,11
4003012,43
4003632,78
4004260,73
4004892,80
4005512,55
4006140,67
4006764,57
4007396,47
4008024,29
4008640,44
4009272,81
4009896,87
4010520,64
4011148,50
4011768,50
4012396,23
4013024,12
4013648,47
4014276,46
4014896,45
4015524,50
4016156,61
4016776,61
4017404,63
4018028,52
4018660,41
4019288,55
4019904,32
4020532,34
4021156,47
4021780,36
4022408,42
4023032,52
4023660,48
4024284,49
4024908,47
4025540,76
4026160,83
4026788,89
4027420,84
4028040,75
4028668,37
4029296,33
4029924,47
4030556,51
4031176,47
4031808,46
4032432,47
4033056,29
4033684,31
4034304,23
4034932,12
4035556,28
4036180,49
4036812,84
4037432,113
4038112,95
4038744,65
4039360,50
4039988,47
4040616,52
4041240,71
4041868,73
4042488,75
4043116,80
4043744,69
4044368,27
4044996,11
4045616,25
4046244,25
4046876,30
4047496,41
4048124,48
4048748,52
4049380,61
4050008,28
4050632,11
4051260,17
4051884,21
4052508,28
4053140,40
4053760,45
4054392,36
4055016,31
4055640,41
4056272,53
4056888,61
4057520,57
4058152,36
4058768,33
4059400,57
4060024,83
4060652,58
4061284,18
4061904,14
4062536,35
4063160,16
4063784,46
4064416,54
4065032,57
4065664,49
4066288,40
4066912,65
4067540,47
4068164,39
4068796,25
4069428,30
4070048,35
4070680,22
4071304,15
4071932,43
4072564,63
4073184,74
4073816,74
4074440,65
4075064,43
4075696,34
4076312,44
4076944,47
4077572,20
4078192,11
4078824,24
4079448,63
4080080,34
4080708,37
4081328,47
4081956,47
4082584,45
4083208,15
4083836,16
4084456,21
4085088,52
4085712,56
4086336,36
4086968,33
4087584,78
4088216,81
4088848,45
4089464,68
4090096,73
4090720,66
4091352,55
4091984,45
4092600,53
4093232,63
4093860,35
4094484,17
4095116,12
4095736,12
4096372,23
4096992,47
4097612,46
4098240,47
4098856,49
4099484,48
4100112,40
4100728,60
4101356,67
4101980,66
4102608,55
4103236,39
4103856,51
4104484,52
4105104,31
4105732,49
4106360,58
4106976,60
4107608,64
4108228,54
4108852,58
4109480,85
4110096,97
4110724,68
4111348,38
4111972,12
4112600,28
4113224,17
4113852,43
4114480,46
4115104,48
4115732,55
4116356,53
4116988,21
4117616,11
4118232,23
4118860,47
4119484,84
4120108,69
4120736,42
4121360,30
4121988,41
4122612,58
4123236,62
4123864,74
4124488,70
4125116,61
4125744,62
4126364,83
4126992,85
4127616,44
4128244,11
4128872,18
4129488,12
4130116,23
4130740,48
4131364,48
4131992,49
4132612,48
4133240,21
4133864,47
4134488,73
4135116,90
4135736,97
4136364,98
4136996,100
4137668,71
4138292,62
4138916,42
4139540,50
4140168,65
4140784,80
4141412,74
4142036,79
4142664,90
4143292,86
4143912,60
4144544,29
4145172,12
4145792,23
4146420,17
4147044,43
4147676,46
4148304,49
4148924,46
4149552,44
4150176,43
4150800,49
4151428,44
4152048,35
4152676,33
4153300,39
4153924,39
4154552,34
4155176,35
4155808,55
4156436,73
4157056,84
4157684,65
4158308,62
4158940,97
4159568,117
4160244,68
4160868,24
4161488,47
4162112,13
4162740,35
4163360,28
4163988,40
4164616,47
4165232,51
4165860,48
4166484,16
4167112,19
4167740,70
4168360,109
4169040,78
4169656,53
4170276,44
4170908,42
4171528,39
4172156,48
4172780,48
4173404,47
4174036,47
4174660,40
4175288,47
4175916,48
4176536,40
4177164,23
4177788,35
4178420,49
4179048,16
4179664,12
4180292,49
4180916,50
4181540,47
4182168,49
4182784,45
4183416,29
4184040,48
4184660,56
4185292,30
4185912,11
4186540,20
4187172,14
4187792,13
4188420,16
4189044,49
4189672,55
4190304,61
4190920,61
4191552,32
4192176,13
4192800,37
4193428,30
4194048,15
4194676,10
4195300,11
4195924,16
4196556,25
4197176,48
4197804,44
4198436,50
4199052,49
4199684,24
4200304,11
4200936,11
4201564,16
4202184,14
4202812,30
4203436,78
4204060,82
4204688,64
4205308,42
4205936,51
4206560,52
4207184,56
4207812,49
4208432,41
4209060,72
4209692,64
4210312,41
4210940,23
4211564,23
4212196,16
4212824,15
4213440,23
4214068,42
4214692,46
4215316,48
4215948,48
4216568,37
4217196,35
4217824,31
4218448,25
4219076,28
4219696,23
4220324,30
4220956,40
4221576,65
4222204,52
4222832,52
4223460,64
4224092,74
4224712,69
4225340,54
4225960,60
4226584,59
4227212,29
4227832,12
4228460,13
4229084,35
4229708,23
4230336,44
4230960,47
4231588,46
4232220,46
4232840,47
4233468,15
4234092,11
4234724,10
4235352,14
4235972,30
4236604,34
4237228,27
4237852,40
4238480,36
4239100,48
4239728,61
4240352,62
4240976,66
4241604,66
4242224,66
4242852,51
4243484,40
4244104,18
4244732,22
4245356,12
4245988,24
4246616,19
4247240,42
4247868,57
4248492,51
4249116,48
4249748,18
4250368,16
4250996,25
4251620,43
4252244,37
4252872,14
4253496,16
4254124,19
4254756,14
4255376,47
4256004,45
4256628,53
4257260,52
4257888,55
4258512,79
4259144,64
4259768,14
4260392,29
4261020,36
4261640,30
4262268,12
4262892,22
4263516,30
4264144,51
4264760,50
4265392,48
4266020,48
4266640,17
4267268,43
4267892,13
4268520,30
4269152,38
4269768,44
4270400,67
4271024,75
4271648,50
4272276,42
4272896,58
4273524,61
4274148,52
4274772,43
4275404,44
4276024,67
4276652,73
4277284,38
4277904,19
4278532,11
4279156,15
4279788,15
4280420,43
4281040,47
4281668,46
4282292,46
4282916,31
4283544,12
4284160,13
4284792,21
4285416,16
4286040,12
4286668,27
4287288,52
4287916,65
4288548,50
4289168,51
4289796,69
4290420,71
4291052,60
4291680,46
4292304,64
4292932,67
4293556,60
4294184,21
4294812,19
4295432,65
4296064,87
4296684,52
4297308,38
4297940,46
4298564,46
4299196,49
4299828,26
4300448,23
4301080,67
4301700,75
4302332,54
4302960,37
4303580,53
4304208,54
4304832,47
4305452,46
4306084,54
4306704,65
4307332,72
4307956,59
4308580,46
4309208,47
4309832,63
4310464,58
4311092,38
4311712,35
4312340,26
4312964,40
4313596,68
4314228,64
4314848,51
4315476,49
4316104,49
4316728,12
4317356,15
4317976,16
4318608,44
4319236,78
4319856,57
4320488,49
4321108,55
4321740,19
4322368,72
4322992,90
4323620,51
4324244,58
4324868,52
4325500,42
4326120,13
4326748,19
4327372,21
4327996,39
4328628,18
4329248,13
4329876,33
4330508,50
4331128,51
4331760,92
4332384,64
4333012,28
4333644,16
4334264,11
4334892,21
4335516,31
4336144,39
4336772,43
4337392,37
4338024,34
4338648,44
4339272,59
4339900,67
4340520,61
4341148,53
4341780,34
4342400,57
4343028,84
4343652,91
4344284,71
4344912,63
4345536,20
4346168,17
4346792,24
4347416,40
4348044,48
4348664,48
4349296,47
4349920,22
4350544,15
4351172,15
4351792,26
4352424,42
4353056,53
4353672,56
4354300,51
4354924,36
4355552,50
4356184,59
4356800,67
4357428,59
4358052,31
4358676,33
4359308,54
4359928,81
4360556,54
4361180,15
4361804,12
4362436,21
4363056,22
4363684,41
4364316,46
4364936,47
4365564,52
4366188,59
4366820,58
4367448,36
4368064,20
4368696,17
4369320,24
4369944,33
4370572,37
4371192,45
4371824,32
4372448,54
4373072,77
4373704,72
4374320,57
4374952,36
4375580,46
4376200,52
4376828,35
4377456,15
4378084,12
4378716,12
4379336,21
4379964,16
4380592,42
4381216,48
4381844,47
4382464,48
4383096,16
4383720,13
4384344,12
4384972,12
4385592,23
4386220,29
4386852,26
4387472,21
4388100,42
4388728,47
4389356,51
4389988,49
4390608,55
4391236,49
4391860,49
4392488,45
4393116,27
4393736,18
4394364,14
4394992,16
4395616,15
4396244,17
4396872,38
4397500,46
4398132,46
4398752,49
4399384,47
4400008,16
4400636,11
4401268,12
4401888,11
4402520,15
4403144,33
4403768,57
4404396,67
4405016,73
4405644,47
4406268,46
4406896,47
4407524,49
4408148,35
4408780,42
4409408,61
4410032,70
4410664,20
4411284,17
4411912,11
4412540,14
4413160,38
4413792,59
4414416,53
4415040,49
4415668,48
4416288,26
4416916,15
4417548,26
4418168,17
4418796,14
4419424,28
4420052,45
4420684,60
4421304,53
4421936,43
4422560,48
4423184,53
4423812,53
4424432,55
4425060,49
4425684,53
4426308,39
4426936,24
4427560,19
4428188,19
4428820,10
4429440,11
4430068,21
4430692,40
4431324,48
4431952,50
4432576,51
4433204,15
4433828,14
4434452,25
4435084,46
4435704,97
4436332,127
4437016,117
4437684,89
4438312,47
4438936,43
4439560,49
4440192,55
4440808,56
4441436,33
4442064,36
4442688,54
4443316,65
4443936,54
4444568,42
4445196,16
4445816,23
4446444,19
4447068,43
4447700,45
4448332,46
4448952,57
4449580,39
4450208,15
4450832,29
4451460,15
4452080,15
4452708,12
4453336,15
4453960,13
4454592,25
4455208,37
4455836,55
4456468,57
4457088,49
4457716,46
4458340,13
4458972,17
4459604,18
4460224,15
4460856,12
4461480,21
4462104,14
4462732,10
4463352,31
4463984,52
4464608,46
4465236,48
4465864,53
4466484,25
4467112,35
4467744,34
4468368,13
4469000,12
4469624,12
4470252,28
4470884,40
4471504,34
4472136,47
4472760,58
4473384,59
4474016,62
4474632,66
4475264,74
4475892,72
4476516,61
4477148,19
4477772,15
4478404,23
4479036,30
4479656,16
4480288,45
4480912,53
4481540,47
4482172,48
4482792,52
4483420,47
4484044,16
4484668,28
4485300,58
4485920,81
4486548,74
4487180,37
4487800,17
4488428,29
4489052,56
4489684,58
4490312,50
4490928,48
4491560,13
4492184,19
4492808,10
4493436,13
4494056,50
4494688,89
4495312,132
4495988,122
4496668,27
4497288,43
4497916,52
4498548,46
4499168,48
4499800,18
4500424,36
4501048,46
4501676,41
4502296,43
4502928,45
4503560,66
4504176,63
4504808,33
4505432,51
4506064,68
4506692,61
4507312,61
4507940,44
4508564,43
4509188,48
4509820,59
4510440,52
4511068,38
4511692,46
4512316,31
4512948,36
4513568,42
4514196,45
4514828,46
4515448,62
4516076,55
4516700,28
4517332,26
4517960,24
4518584,48
4519212,61
4519836,37
4520460,33
4521092,44
4521712,46
4522340,38
4522964,49
4523588,49
4524220,56
4524840,47
4525468,47
4526100,73
4526720,85
4527348,48
4527972,35
4528604,19
4529236,12
4529856,19
4530484,43
4531108,47
4531736,46
4532364,47
4532984,28
4533612,18
4534236,14
4534864,11
4535492,24
4536112,33
4536744,58
4537372,60
4537992,47
4538624,43
4539248,46
4539876,47
4540508,50
4541128,55
4541760,55
4542384,61
4543008,49
4543640,30
4544260,13
4544888,21
4545512,13
4546136,11
4546768,25
4547384,55
4548012,48
4548644,48
4549264,49
4549892,17
4550520,17
4551148,25
4551780,28
4552400,26
4553028,15
4553652,24
4554280,36
4554908,35
4555528,41
4556160,47
4556784,47
4557408,49
4558036,59
4558664,83
4559292,104
4559976,88
4560592,60
4561224,52
4561848,27
4562472,11
4563100,13
4563720,39
4564348,56
4564976,67
4565600,58
4566228,31
4566852,11
4567484,12
4568116,18
4568736,18
4569368,53
4569992,73
4570620,46
4571252,32
4571872,39
4572504,48
4573128,49
4573752,47
4574384,52
4575004,54
4575632,68
4576264,67
4576888,51
4577516,22
4578144,13
4578772,22
4579404,18
4580024,21
4580652,47
4581280,45
4581904,50
4582536,48
4583152,19
4583784,12
4584408,17
4585032,19
4585664,11
4586280,30
4586912,25
4587540,13
4588160,13
4588788,40
4589412,49
4590044,56
4590676,64
4591296,33
4591928,24
4592552,22
4593176,11
4593808,10
4594424,29
4595052,14
4595680,11
4596304,11
4596932,46
4597552,47
4598184,47
4598812,50
4599432,47
4600064,17
4600688,29
4601316,51
4601948,60
4602568,56
4603196,35
4603824,29
4604448,47
4605080,41
4605696,49
4606328,64
4606952,70
4607576,61
4608208,36
4608824,31
4609452,45
4610080,49
4610696,35
4611328,30
4611948,13
4612580,11
4613208,14
4613824,43
4614456,45
4615080,49
4615700,45
4616332,27
4616952,23
4617580,18
4618204,19
4618832,32
4619460,54
4620080,68
4620708,44
4621340,31
4621960,44
4622588,62
4623212,57
4623844,57
4624476,68
4625096,69
4625724,81
4626348,76
4626972,51
4627604,34
4628224,27
4628852,17
4629476,14
4630100,30
4630732,42
4631352,55
4631984,69
4632612,64
4633232,76
4633864,61
4634488,31
4635116,13
4635748,12
4636368,22
4636996,14
4637620,20
4638244,18
4638876,52
4639496,57
4640128,54
4640748,48
4641372,18
4642000,21
4642624,16
4643252,23
4643884,32
4644504,16
4645132,30
4645756,10
4646388,21
4647020,40
4647640,51
4648268,46
4648892,46
4649516,34
4650148,15
4650768,30
4651400,29
4652024,13
4652648,29
4653276,45
4653900,38
4654532,19
4655164,36
4655784,68
4656416,94
4657040,101
4657720,90
4658344,71
4658964,75
4659596,61
4660220,20
4660840,11
4661472,44
4662096,101
4662776,97
4663408,44
4664024,44
4664652,47
4665276,53
4665904,51
4666532,16
4667152,22
4667784,28
4668408,32
4669032,34
4669664,29
4670288,41
4670916,45
4671548,40
4672168,43
4672796,58
4673420,63
4674052,61
4674680,46
4675296,52
4675928,70
4676552,79
4677176,63
4677804,62
4678424,51
4679052,11
4679676,12
4680304,59
4680932,62
4681556,46
4682188,55
4682820,60
4683440,50
4684072,46
4684696,39
4685320,45
4685948,90
4686568,104
4687248,71
4687880,44
4688496,38
4689124,51
4689752,67
4690380,75
4691012,71
4691632,78
4692264,91
4692884,96
4693512,93
4694140,47
4694760,23
4695392,11
4696016,13
4696640,45
4697268,56
4697888,46
4698520,48
4699148,48
4699768,28
4700400,19
4701024,33
4701656,60
4702284,59
4702904,37
4703536,43
4704160,47
4704784,70
4705416,48
4706040,49
4706672,49
4707296,51
4707920,27
4708552,16
4709168,22
4709800,40
4710432,32
4711048,31
4711680,24
4712304,12
4712932,14
4713564,45
4714184,50
4714816,47
4715440,51
4716064,49
4716692,21
4717312,15
4717944,15
4718568,11
4719192,19
4719824,15
4720444,12
4721072,20
4721704,27
4722320,45
4722952,51
4723576,54
4724208,64
4724836,64
4725456,60
4726088,41
4726708,31
4727336,21
4727968,39
4728584,58
4729216,64
4729840,62
4730464,56
4731096,47
4731720,51
4732352,51
4732980,44
4733600,84
4734228,97
4734856,107
4735540,78
4736168,46
4736784,57
4737412,53
4738040,40
4738660,43
4739292,49
4739916,48
4740548,51
4741180,46
4741800,46
4742428,61
4743052,78
4743684,59
4744316,37
4744936,15
4745568,45
4746192,45
4746816,37
4747448,52
4748064,71
4748696,63
4749328,49
4749944,11
4750576,25
4751204,20
4751836,11
4752464,37
4753088,59
4753716,79
4754344,88
4754968,78
4755600,52
4756216,49
4756848,51
4757472,58
4758096,80
4758724,76
4759344,51
4759976,37
4760608,11
4761224,18
4761856,12
4762480,11
4763108,15
4763740,44
4764360,53
4764988,53
4765612,53
4766236,25
4766868,45
4767488,43
4768120,29
4768740,32
4769368,47
4769996,62
4770616,47
4771248,43
4771876,42
4772496,59
4773124,75
4773752,70
4774380,65
4775012,48
4775632,49
4776264,55
4776888,51
4777512,29
4778144,11
4778760,40
4779392,57
4780020,29
4780644,40
4781276,44
4781900,46
4782532,47
4783164,12
4783784,10
4784416,12
4785040,19
4785672,13
4786300,11
4786920,18
4787552,30
4788176,46
4788800,45
4789428,53
4790048,89
4790680,100
4791364,68
4791984,13
4792616,20
4793244,11
4793868,31
4794500,54
4795120,31
4795752,25
4796376,31
4797004,50
4797636,54
4798256,51
4798888,48
4799520,31
4800140,38
4800768,56
4801392,40
4802020,17
4802652,24
4803272,33
4803900,44
4804524,43
4805148,39
4805776,60
4806400,69
4807028,75
4807652,75
4808280,71
4808908,48
4809528,20
4810160,17
4810788,11
4811408,10
4812040,25
4812664,24
4813296,20
4813924,46
4814544,56
4815172,52
4815800,49
4816424,15
4817052,15
4817672,36
4818300,30
4818924,29
4819548,42
4820180,53
4820804,45
4821432,41
4822064,46
4822684,57
4823312,54
4823936,52
4824568,38
4825196,44
4825816,66
4826444,73
4827068,45
4827692,32
4828324,24
4828944,14
4829572,13
4830200,42
4830824,46
4831456,47
4832080,51
4832708,49
4833340,38
4833960,32
4834588,18
4835212,11
4835844,24
4836472,40
4837092,25
4837724,23
4838348,26
4838972,45
4839604,52
4840224,54
4840852,51
4841484,31
4842104,23
4842732,34
4843360,35
4843988,11
4844620,14
4845240,19
4845868,11
4846496,16
4847120,39
4847748,46
4848368,45
4848996,48
4849620,29
4850248,39
4850876,52
4851496,35
4852128,11
4852760,10
4853376,20
4854008,23
4854632,23
4855264,48
4855892,73
4856512,80
4857144,60
4857768,41
4858392,15
4859024,28
4859640,36
4860272,52
4860896,54
4861520,32
4862152,42
4862768,91
4863400,64
4864032,46
4864656,48
4865284,48
4865908,49
4866536,22
4867168,11
4867788,29
4868416,22
4869040,15
4869664,21
4870292,40
4870912,60
4871544,87
4872168,65
4872792,49
4873424,53
4874040,55
4874672,55
4875304,69
4875920,83
4876552,68
4877176,36
4877804,29
4878436,30
4879056,11
4879688,13
4880312,45
4880936,51
4881564,46
4882184,47
4882812,39
4883440,44
4884064,43
4884692,43
4885316,48
4885948,72
4886580,82
4887200,65
4887828,61
4888456,40
4889084,72
4889716,74
4890336,69
4890968,57
4891592,49
4892216,83
4892844,92
4893464,72
4894096,37
4894724,30
4895344,14
4895976,18
4896600,16
4897228,39
4897860,48
4898480,49
4899112,49
4899736,28
4900360,27
4900992,26
4901608,28
4902240,31
4902864,32
4903492,47
4904120,36
4904744,25
4905376,51
4906008,61
4906624,58
4907256,52
4907880,28
4908512,12
4909144,40
4909760,44
4910392,16
4911020,10
4911644,10
4912276,36
4912896,22
4913528,39
4914152,46
4914780,48
4915412,48
4916036,52
4916664,50
4917292,46
4917912,33
4918540,25
4919164,27
4919796,28
4920424,31
4921048,22
4921676,18
4922300,64
4922924,81
4923552,95
4924172,106
4924852,100
4925528,92
4926152,87
4926780,48
4927404,21
4928028,38
4928660,52
4929280,30
4929908,31
4930532,46
4931156,53
4931784,72
4932408,59
4933036,41
4933668,38
4934288,27
4934920,12
4935544,11
4936172,21
4936804,30
4937424,27
4938052,28
4938676,43
4939300,52
4939932,56
4940552,72
4941184,81
4941808,68
4942432,69
4943060,73
4943684,58
4944316,26
4944944,13
4945564,51
4946196,75
4946820,60
4947448,52
4948076,45
4948696,48
4949324,53
4949952,13
4950576,28
4951204,15
4951824,16
4952456,37
4953080,65
4953704,97
4954332,107
4955012,98
4955640,47
4956268,45
4956888,59
4957516,83
4958140,103
4958816,108
4959496,120
4960172,100
4960844,58
4961468,26
4962088,23
4962716,45
4963348,24
4963968,43
4964596,50
4965224,69
4965852,54
4966484,16
4967104,15
4967732,11
4968356,35
4968980,48
4969608,31
4970224,37
4970856,42
4971480,26
4972104,48
4972732,63
4973352,71
4973984,63
4974612,52
4975232,50
4975864,44
4976488,19
4977116,10
4977748,9
4978316,11
4978952,25
4979576,39
4980204,43
4980836,44
4981456,47
4982084,47
4982708,41
4983336,15
4983964,10
4984584,14
4985212,25
4985840,45
4986464,47
4987092,43
4987720,25
4988348,21
4988980,51
4989600,55
4990232,61
4990856,60
4991488,65
4992120,71
4992736,68
4993364,70
4993988,61
4994612,46
4995244,14
4995864,29
4996492,16
4997120,38
4997744,47
4998372,48
4999000,48
4999628,20
5000260,26
5000880,17
5001508,11
5002136,11
5002760,19
5003388,50
5004008,84
5004636,90
5005264,51
5005888,53
5006520,62
5007136,57
5007768,53
5008396,54
5009016,68
5009644,71
5010268,42
5010900,15
5011532,10
5012152,21
5012784,38
5013408,39
5014032,42
5014664,46
5015280,53
5015912,66
5016536,71
5017164,47
5017796,14
5018416,21
5019044,15
5019676,14
5020296,47
5020924,59
5021552,40
5022180,46
5022812,78
5023432,81
5024064,67
5024688,54
5025312,51
5025940,32
5026560,20
5027188,11
5027816,13
5028440,11
5029068,30
5029688,22
5030320,41
5030952,45
5031572,45
5032200,46
5032828,29
5033456,12
5034088,13
5034708,12
5035340,11
5035964,11
5036592,37
5037224,60
5037840,52
5038472,43
5039096,58
5039724,66
5040356,68
5040980,65
5041608,64
5042240,64
5042856,50
5043488,56
5044112,46
5044744,29
5045372,11
5045992,11
5046624,21
5047248,45
5047872,69
5048504,117
5049172,105
5049852,76
5050480,27
5051096,13
5051728,17
5052352,13
5052976,30
5053608,32
5054224,20
5054856,15
5055480,58
5056104,79
5056736,75
5057360,59
5057992,42
5058620,30
5059240,47
5059868,67
5060496,54
5061124,12
5061756,17
5062376,36
5063008,16
5063636,46
5064260,49
5064892,52
5065512,53
5066144,37
5066776,16
5067396,11
5068028,25
5068652,43
5069284,45
5069912,44
5070536,54
5071168,62
5071792,42
5072420,60
5073052,78
5073672,82
5074304,79
5074928,73
5075556,67
5076184,50
5076812,35
5077444,11
5078072,14
5078696,23
5079332,14
5079956,20
5080584,41
5081216,44
5081832,46
5082464,46
5083088,16
5083712,20
5084344,27
5084960,34
5085592,46
5086224,27
5086844,30
5087472,34
5088100,23
5088728,48
5089360,53
5089980,49
5090608,52
5091236,41
5091860,21
5092488,20
5093112,24
5093744,13
5094368,22
5094996,34
5095628,14
5096248,18
5096880,42
5097512,51
5098132,47
5098764,47
5099388,46
5100020,15
5100652,10
5101272,10
5101904,10
5102532,22
5103156,32
5103788,27
5104408,23
5105040,28
5105672,47
5106292,57
5106924,68
5107548,59
5108180,33
5108812,42
5109432,56
5110064,49
5110688,30
5111316,15
5111948,33
5112572,64
5113204,31
5113828,42
5114456,55
5115088,68
5115708,55
5116340,41
5116972,33
5117596,16
5118228,10
5118852,26
5119488,29
5120120,25
5120736,18
5121364,19
5121984,63
5122608,67
5123236,67
5123856,77
5124484,88
5125104,63
5125728,47
5126360,52
5126984,36
5127612,12
5128240,10
5128864,21
5129492,38
5130116,41
5130744,47
5131376,55
5131992,51
5132620,47
5133244,13
5133868,27
5134500,11
5135120,21
5135748,12
5136372,29
5136996,45
5137624,58
5138248,29
5138880,48
5139508,70
5140128,66
5140756,50
5141380,18
5142012,25
5142640,46
5143264,57
5143892,16
5144516,11
5145140,21
5145772,46
5146392,31
5147020,44
5147644,56
5148272,50
5148900,45
5149524,24
5150156,18
5150784,13
5151408,11
5152036,10
5152660,26
5153284,47
5153916,35
5154536,30
5155168,41
5155792,58
5156416,54
5157044,53
5157664,51
5158296,40
5158924,61
5159544,81
5160176,81
5160800,57
5161428,48
5162060,15
5162680,12
5163308,23
5163932,39
5164556,53
5165188,53
5165808,46
5166436,15
5167060,13
5167684,13
5168316,10
5168936,13
5169564,13
5170196,28
5170816,51
5171448,35
5172068,44
5172700,58
5173328,49
5173952,73
5174584,52
5175204,16
5175828,38
5176460,58
5177080,44
5177708,30
5178332,23
5178956,12
5179588,18
5180208,47
5180836,59
5181468,49
5182088,49
5182716,44
5183344,31
5183972,25
5184604,19
5185224,31
5185852,63
5186476,68
5187100,55
5187732,32
5188352,31
5188984,80
5189604,66
5190228,75
5190860,78
5191480,61
5192112,35
5192740,11
5193360,13
5193988,14
5194616,16
5195244,20
5195876,39
5196496,30
5197128,42
5197748,44
5198376,48
5199004,47
5199624,21
5200256,21
5200876,14
5201504,13
5202132,25
5202756,46
5203388,63
5204016,54
5204632,39
5205264,45
5205888,59
5206516,71
5207148,66
5207768,55
5208396,74
5209024,96
5209648,67
5210276,26
5210896,14
5211524,13
5212148,15
5212776,25
5213404,37
5214032,43
5214664,44
5215292,45
5215912,47
5216544,38
5217168,34
5217800,19
5218428,17
5219048,21
5219680,16
5220304,33
5220928,70
5221560,74
5222176,38
5222808,49
5223436,51
5224056,49
5224684,56
5225308,79
5225940,74
5226568,69
5227188,34
5227816,13
5228440,14
5229064,34
5229696,29
5230316,45
5230944,64
5231572,75
5232196,59
5232828,34
5233448,18
5234076,11
5234708,19
5235328,31
5235956,20
5236584,20
5237212,29
5237844,30
5238464,43
5239092,65
5239720,79
5240344,75
5240976,71
5241592,79
5242224,68
5242848,61
5243472,43
5244100,24
5244720,19
5245348,16
5245980,23
5246600,16
5247228,43
5247852,43
5248484,46
5249112,46
5249728,17
5250356,33
5250980,55
5251604,63
5252232,46
5252848,22
5253476,23
5254100,18
5254724,16
5255352,45
5255968,46
5256600,50
5257228,74
5257848,81
5258476,29
5259100,21
5259728,14
5260360,10
5260976,17
5261608,31
5262228,16
5262852,47
5263484,44
5264104,47
5264732,47
5265356,48
5265980,45
5266608,54
5267224,55
5267852,26
5268476,12
5269104,13
5269732,18
5270356,23
5270988,32
5271620,24
5272240,47
5272868,55
5273496,58
5274120,48
5274748,20
5275368,13
5275996,32
5276620,37
5277244,10
5277876,10
5278496,15
5279124,26
5279756,16
5280376,42
5281004,49
5281628,48
5282256,47
5282884,19
5283504,15
5284132,19
5284756,17
5285380,17
5286012,24
5286632,34
5287260,31
5287884,35
5288504,42
5289136,52
5289752,55
5290380,57
5291004,48
5291632,45
5292260,47
5292884,37
5293512,21
5294144,24
5294760,41
5295388,41
5296012,50
5296640,80
5297268,75
5297888,54
5298516,46
5299140,48
5299768,30
5300396,18
5301016,11
5301644,15
5302268,25
5302896,12
5303524,46
5304148,133
5304832,143
5305508,67
5306128,47
5306756,49
5307380,49
5308004,29
5308636,36
5309260,57
5309892,67
5310520,58
5311144,41
5311776,15
5312400,13
5313028,19
5313660,49
5314280,51
5314908,47
5315532,48
5316156,24
5316788,14
5317408,13
5318036,13
5318668,12
5319288,30
5319916,51
5320544,49
5321172,45
5321804,44
5322424,48
5323052,55
5323680,61
5324304,79
5324936,84
5325552,91
5326180,87
5326800,53
5327424,17
5328052,10
5328668,35
5329300,32
5329928,18
5330544,41
5331172,47
5331796,49
5332428,56
5333056,55
5333680,54
5334308,39
5334932,32
5335560,49
5336188,58
5336808,62
5337436,45
5338060,21
5338684,53
5339312,81
5339936,83
5340564,74
5341196,72
5341816,65
5342444,73
5343068,73
5343700,31
5344332,11
5344952,12
5345580,32
5346204,17
5346828,57
5347460,56
5348080,48
5348708,49
5349332,46
5349956,62
5350588,70
5351208,41
5351836,18
5352468,34
5353088,52
5353716,49
5354340,40
5354972,29
5355600,53
5356224,57
5356852,54
5357476,57
5358100,64
5358732,80
5359352,75
5359984,72
5360608,51
5361232,48
5361860,13
5362480,35
5363108,16
5363740,44
5364360,47
5364988,57
5365612,55
5366244,46
5366872,57
5367496,43
5368124,27
5368748,31
5369372,32
5370004,38
5370624,38
5371252,33
5371876,47
5372500,80
5373132,74
5373752,53
5374384,41
5375012,46
5375632,67
5376264,60
5376888,34
5377516,20
5378144,20
5378760,20
5379388,32
5380012,33
5380636,48
5381264,60
5381884,52
5382512,47
5383136,25
5383760,17
5384388,16
5385008,27
5385636,47
5386268,47
5386888,43
5387516,30
5388140,15
5388772,69
5389400,65
5390024,58
5390652,49
5391276,53
5391900,48
5392532,42
5393152,20
5393780,27
5394404,15
5395028,19
5395660,16
5396280,29
5396908,65
5397540,74
5398160,55
5398788,49
5399416,31
5400044,35
5400676,56
5401296,62
5401928,47
5402548,49
5403172,62
5403804,45
5404424,31
5405052,42
5405676,58
5406304,65
5406932,64
5407556,68
5408188,82
5408816,89
5409432,89
5410064,67
5410688,39
5411316,21
5411944,27
5412568,45
5413196,34
5413820,52
5414444,93
5415076,107
5415748,78
5416376,36
5417004,14
5417624,35
5418252,24
5418876,10
5419508,11
5420140,38
5420760,45
5421392,34
5422016,49
5422640,58
5423268,49
5423888,52
5424520,43
5425144,49
5425768,72
5426400,76
5427024,35
5427652,11
5428284,10
5428904,16
5429532,27
5430156,41
5430788,50
5431416,47
5432040,52
5432668,41
5433292,35
5433916,34
5434548,23
5435168,12
5435800,40
5436428,77
5437048,69
5437680,68
5438304,42
5438932,48
5439564,58
5440184,63
5440812,60
5441436,62
5442060,78
5442688,79
5443304,61
5443932,28
5444556,25
5445180,17
5445808,42
5446432,32
5447060,37
5447692,47
5448312,51
5448940,47
5449564,17
5450192,17
5450824,13
5451440,12
5452072,11
5452696,16
5453320,40
5453948,53
5454568,38
5455196,49
5455820,52
5456444,67
5457076,85
5457696,97
5458324,99
5458956,80
5459576,52
5460204,31
5460828,17
5461460,11
5462088,36
5462708,77
5463336,86
5463960,80
5464584,91
5465212,73
5465832,50
5466460,14
5467084,25
5467708,16
5468340,22
5468960,39
5469588,39
5470220,42
5470840,34
5471468,20
5472092,75
5472724,81
5473352,67
5473976,65
5474604,70
5475228,72
5475852,69
5476484,62
5477104,27
5477736,24
5478360,44
5478984,23
5479616,15
5480232,47
5480864,48
5481492,50
5482112,54
5482740,52
5483368,48
5483996,45
5484628,30
5485248,15
5485876,14
5486504,22
5487128,42
5487756,41
5488376,49
5489008,111
5489688,102
5490356,60
5490984,55
5491608,62
5492232,74
5492860,64
5493480,15
5494108,26
5494732,17
5495356,44
5495988,78
5496608,54
5497240,38
5497868,45
5498488,47
5499116,48
5499744,17
5500372,26
5501004,34
5501624,30
5502256,32
5502880,29
5503504,46
5504136,50
5504752,28
5505380,45
5506004,48
5506628,54
5507260,56
5507880,37
5508508,30
5509140,49
5509760,52
5510388,39
5511016,49
5511644,49
5512276,16
5512896,14
5513524,41
5514152,48
5514776,45
5515408,49
5516024,36
5516656,30
5517280,12
5517904,25
5518536,19
5519152,25
5519784,69
5520416,76
5521036,53
5521664,40
5522288,46
5522916,57
5523548,58
5524168,56
5524796,48
5525424,50
5526048,48
5526680,41
5527296,24
5527928,27
5528552,15
5529176,12
5529808,16
5530424,36
5531052,46
5531684,44
5532304,47
5532932,18
5533556,28
5534188,28
5534820,23
5535440,26
5536068,43
5536692,65
5537316,66
5537948,56
5538568,44
5539196,52
5539824,62
5540448,96
5541076,122
5541752,125
5542436,129
5543112,92
5543736,21
5544368,27
5544996,55
5545616,89
5546244,72
5546868,51
5547500,54
5548132,50
5548752,51
5549384,32
5550008,39
5550632,60
5551264,42
5551880,22
5552512,13
5553136,54
5553760,53
5554392,42
5555016,40
5555648,54
5556276,66
5556896,65
5557524,53
5558152,34
5558784,43
5559412,54
5560032,49
5560664,37
5561288,25
5561912,25
5562544,41
5563160,16
5563792,42
5564424,45
5565040,48
5565672,49
5566296,34
5566928,27
5567560,12
5568176,20
5568808,15
5569432,27
5570056,75
5570688,108
5571356,106
5572032,47
5572660,48
5573280,53
5573908,49
5574536,30
5575164,43
5575796,62
5576416,77
5577044,62
5577668,50
5578292,21
5578924,12
5579544,13
5580176,45
5580804,47
5581424,46
5582052,45
5582676,33
5583308,28
5583940,22
5584560,11
5585188,11
5585816,55
5586440,81
5587068,85
5587688,67
5588316,43
5588944,53
5589568,55
5590200,51
5590816,51
5591448,42
5592076,62
5592696,67
5593328,48
5593952,22
5594580,13
5595212,29
5595832,60
5596464,21
5597088,42
5597712,49
5598344,45
5598964,45
5599592,22
5600220,31
5600844,30
5601472,31
5602092,41
5602720,47
5603348,58
5603968,50
5604596,32
5605224,50
5605852,88
5606484,96
5607104,99
5607732,72
5608356,81
5608980,70
5609612,79
5610232,42
5610864,15
5611488,21
5612112,31
5612740,31
5613360,37
5613988,47
5614620,47
5615240,46
5615868,46
5616496,22
5617124,15
5617756,22
5618376,26
5619008,48
5619632,55
5620256,79
5620888,66
5621504,32
5622136,57
5622760,72
5623384,81
5624012,58
5624632,25
5625264,13
5625892,24
5626512,33
5627144,11
5627768,22
5628400,31
5629028,38
5629648,27
5630280,41
5630904,45
5631528,46
5632160,49
5632776,29
5633404,13
5634028,18
5634652,11
5635280,11
5635896,16
5636524,36
5637156,44
5637776,49
5638404,44
5639028,55
5639660,60
5640288,73
5640912,71
5641540,65
5642164,66
5642788,80
5643420,75
5644040,28
5644668,11
5645292,41
5645916,45
5646548,23
5647172,43
5647804,47
5648432,48
5649056,45
5649684,20
5650308,14
5650940,11
5651572,10
5652192,11
5652820,20
5653444,54
5654068,67
5654700,39
5655320,41
5655948,52
5656576,52
5657200,69
5657828,97
5658452,115
5659136,86
5659760,26
5660376,27
5661004,47
5661628,43
5662252,61
5662884,46
5663504,43
5664132,48
5664756,50
5665380,47
5666012,31
5666636,26
5667264,16
5667892,13
5668512,23
5669140,28
5669764,42
5670396,52
5671028,48
5671648,40
5672280,67
5672904,80
5673528,87
5674156,83
5674776,76
5675408,67
5676036,60
5676656,28
5677288,24
5677912,25
5678544,33
5679172,72
5679792,69
5680424,40
5681048,47
5681672,48
5682300,49
5682920,15
5683552,19
5684176,27
5684796,26
5685428,22
5686048,26
5686676,51
5687308,52
5687928,34
5688560,46
5689184,61
5689812,60
5690444,54
5691064,45
5691696,46
5692320,58
5692944,59
5693576,55
5694192,45
5694824,25
5695448,19
5696072,57
5696700,54
5697320,44
5697948,45
5698580,46
5699200,50
5699828,25
5700452,22
5701084,29
5701716,20
5702336,28
5702968,33
5703592,39
5704216,48
5704848,30
5705468,45
5706096,58
5706720,62
5707344,58
5707976,55
5708596,69
5709224,68
5709856,59
5710476,38
5711104,24
5711732,12
5712364,15
5712992,17
5713616,49
5714248,50
5714872,46
5715496,47
5716128,24
5716744,18
5717376,16
5718000,11
5718624,11
5719256,27
5719880,70
5720512,80
5721144,96
5721760,66
5722392,45
5723016,50
5723648,55
5724280,53
5724896,49
5725528,40
5726152,58
5726776,78
5727408,76
5728028,65
5728660,14
5729288,31
5729908,31
5730540,42
5731164,48
5731796,47
5732428,47
5733048,20
5733680,17
5734304,14
5734932,26
5735560,38
5736184,37
5736812,45
5737436,55
5738060,35
5738692,43
5739312,69
5739944,72
5740572,68
5741192,73
5741824,49
5742448,39
5743076,34
5743708,11
5744328,16
5744956,16
5745580,17
5746204,17
5746836,42
5747456,47
5748084,57
5748708,58
5749332,53
5749964,52
5750584,24
5751212,17
5751844,16
5752464,25
5753096,51
5753720,57
5754348,55
5754980,46
5755600,43
5756228,50
5756856,49
5757480,47
5758108,29
5758728,51
5759360,75
5759984,74
5760612,65
5761240,61
5761864,31
5762492,18
5763120,42
5763740,56
5764368,52
5764992,47
5765620,49
5766248,32
5766872,31
5767500,15
5768124,13
5768748,25
5769376,41
5770000,66
5770628,71
5771252,70
5771876,43
5772508,64
5773132,67
5773760,63
5774392,34
5775012,21
5775640,35
5776264,50
5776896,50
5777524,30
5778144,14
5778772,35
5779396,38
5780020,40
5780652,43
5781272,47
5781900,48
5782524,46
5783152,11
5783784,13
5784408,19
5785036,38
5785668,64
5786288,85
5786916,89
5787540,71
5788168,20
5788796,88
5789416,101
5790096,96
5790724,77
5791344,74
5791976,76
5792600,77
5793228,57
5793860,16
5794480,10
5795108,11
5795736,16
5796360,19
5796988,41
5797608,47
5798236,57
5798864,54
5799488,32
5800116,28
5800736,19
5801364,13
5801996,14
5802616,27
5803244,37
5803872,39
5804500,44
5805132,40
5805752,49
5806384,55
5807008,60
5807632,52
5808264,42
5808880,43
5809508,49
5810136,38
5810760,21
5811392,13
5812008,15
5812636,14
5813268,56
5813888,47
5814516,46
5815144,46
5815772,46
5816404,29
5817024,43
5817652,44
5818276,33
5818900,69
5819532,78
5820152,85
5820784,77
5821408,70
5822032,43
5822664,50
5823280,64
5823912,83
5824544,117
5825212,119
5825892,110
5826572,72
5827192,31
5827824,17
5828448,13
5829076,17
5829708,15
5830328,43
5830960,46
5831584,47
5832208,48
5832836,16
5833456,24
5834088,23
5834712,11
5835336,11
5835968,21
5836588,38
5837220,41
5837848,58
5838468,48
5839096,46
5839720,52
5840352,57
5840980,51
5841600,55
5842228,64
5842852,67
5843476,49
5844108,48
5844728,43
5845356,13
5845984,16
5846608,37
5847240,45
5847856,45
5848488,47
5849116,51
5849736,50
5850364,47
5850988,45
5851620,51
5852252,68
5852872,85
5853500,85
5854128,75
5854752,66
5855384,41
5856000,58
5856632,60
5857256,60
5857880,63
5858508,67
5859128,79
5859760,73
5860388,41
5861008,38
5861640,29
5862264,11
5862896,17
5863524,43
5864144,43
5864772,48
5865400,52
5866024,44
5866656,39
5867272,33
5867904,30
5868528,27
5869152,32
5869784,37
5870408,39
5871036,40
5871668,41
5872288,50
5872920,64
5873544,65
5874176,58
5874808,56
5875424,59
5876056,84
5876680,74
5877304,50
5877936,12
5878552,24
5879184,23
5879816,22
5880436,43
5881068,44
5881692,45
5882324,56
5882952,60
5883576,41
5884208,28
5884832,19
5885456,33
5886088,46
5886704,68
5887336,67
5887964,61
5888592,43
5889220,43
5889840,50
5890468,60
5891100,76
5891720,98
5892352,95
5892976,87
5893608,59
5894236,38
5894856,27
5895488,11
5896112,13
5896736,45
5897368,51
5897984,43
5898616,53
5899240,66
5899864,71
5900492,50
5901112,53
5901744,40
5902372,46
5902992,56
5903624,37
5904248,23
5904876,30
5905508,69
5906128,87
5906756,83
5907384,73
5908008,65
5908636,58
5909256,43
5909884,17
5910508,21
5911136,14
5911764,21
5912392,24
5913020,15
5913652,39
5914272,48
5914900,49
5915528,49
5916156,21
5916788,14
5917408,15
5918040,18
5918664,27
5919288,69
5919920,74
5920536,45
5921168,40
5921796,42
5922416,49
5923044,59
5923668,67
5924300,49
5924932,28
5925552,25
5926184,39
5926808,23
5927432,12
5928060,10
5928680,25
5929308,28
5929936,37
5930560,41
5931188,44
5931808,47
5932440,48
5933072,18
5933688,18
5934320,24
5934944,28
5935576,51
5936208,63
5936824,63
5937452,57
5938080,28
5938704,56
5939336,89
5939952,94
5940580,95
5941204,97
5941828,86
5942460,84
5943080,65
5943708,21
5944340,10
5944960,14
5945588,25
5946212,18
5946844,42
5947476,44
5948096,49
5948724,52
5949352,55
5949976,59
5950608,48
5951224,30
5951856,19
5952480,32
5953104,47
5953732,44
5954352,35
5954984,47
5955612,78
5956232,88
5956864,64
5957488,53
5958116,54
5958748,64
5959368,52
5960000,18
5960620,32
5961244,52
5961876,66
5962496,57
5963124,19
5963752,44
5964376,47
5965008,50
5965624,54
5966252,22
5966884,32
5967504,45
5968136,30
5968760,25
5969388,21
5970020,18
5970640,26
5971268,16
5971892,61
5972520,72
5973148,80
5973768,79
5974400,78
5975024,57
5975648,35
5976280,25
5976904,23
5977536,23
5978168,10
5978784,39
5979416,49
5980044,43
5980676,46
5981304,50
5981928,54
5982560,45
5983184,29
5983808,15
5984440,38
5985056,50
5985688,18
5986316,20
5986936,33
5987568,37
5988192,52
5988824,42
5989452,44
5990072,49
5990704,68
5991328,73
5991952,15
5992584,61
5993200,102
5993884,98
5994512,92
5995128,58
5995760,29
5996384,44
5997016,45
5997644,47
5998264,47
5998896,48
5999520,35
6000144,47
6000776,38
6001392,36
6002024,36
6002648,40
6003272,56
6003900,62
6004520,40
6005148,49
6005780,55
6006400,57
6007028,53
6007656,50
6008284,64
6008916,84
6009536,73
6010168,49
6010792,23
6011416,14
6012048,35
6012668,31
6013300,40
6013924,47
6014548,45
6015180,44
6015800,48
6016436,27
6017064,13
6017684,12
6018312,11
6018936,17
6019568,32
6020196,30
6020816,37
6021448,23
6022068,47
6022696,59
6023324,51
6023944,48
6024576,24
6025200,24
6025824,26
6026452,28
6027080,21
6027708,10
6028340,32
6028960,36
6029588,15
6030216,42
6030844,48
6031476,46
6032096,50
6032724,24
6033352,17
6033976,21
6034608,41
6035224,41
6035856,49
6036488,70
6037104,48
6037736,25
6038360,47
6038992,54
6039624,68
6040248,72
6040880,75
6041508,67
6042132,73
6042764,80
6043384,63
6044016,15
6044640,52
6045264,107
6045944,80
6046568,38
6047200,43
6047828,47
6048448,47
6049080,45
6049704,39
6050328,59
6050960,53
6051576,44
6052208,37
6052832,18
6053456,17
6054088,17
6054704,17
6055336,62
6055968,62
6056588,55
6057216,60
6057844,87
6058472,92
6059104,102
6059780,83
6060408,37
6061032,12
6061660,14
6062288,19
6062916,16
6063544,42
6064176,45
6064796,45
6065424,46
6066052,23
6066680,11
6067312,10
6067936,16
6068568,13
6069192,23
6069816,67
6070448,77
6071064,74
6071696,48
6072324,46
6072944,48
6073576,48
6074200,67
6074832,39
6075464,35
6076080,53
6076712,41
6077336,17
6077964,12
6078596,14
6079216,23
6079848,32
6080476,46
6081100,47
6081732,46
6082352,45
6082984,41
6083612,37
6084232,21
6084860,13
6085484,38
6086116,57
6086748,68
6087368,57
6088000,19
6088620,67
6089248,96
6089876,87
6090496,71
6091128,86
6091752,101
6092428,110
6093108,94
6093728,59
6094352,27
6094984,31
6095600,100
6096284,103
6096964,76
6097584,64
6098216,56
6098840,47
6099464,28
6100096,24
6100712,36
6101344,28
6101968,13
6102592,17
6103224,29
6103840,19
6104472,15
6105104,65
6105720,94
6106352,98
6106976,82
6107608,68
6108236,54
6108856,64
6109488,76
6110112,46
6110736,15
6111368,15
6111988,28
6112620,37
6113244,52
6113872,65
6114500,61
6115120,49
6115752,47
6116384,39
6117004,40
6117636,40
6118260,29
6118896,26
6119524,17
6120144,16
6120776,27
6121400,34
6122024,44
6122656,58
6123276,62
6123908,67
6124532,78
6125160,93
6125792,103
6126468,92
6127096,52
6127728,25
6128348,15
6128976,10
6129604,14
6130228,37
6130860,55
6131480,75
6132112,88
6132744,74
6133372,80
6134000,63
6134628,31
6135260,24
6135892,32
6136516,47
6137144,42
6137772,29
6138396,50
6139032,65
6139652,61
6140284,61
6140908,48
6141536,27
6142168,36
6142792,54
6143428,51
6144060,28
6144676,18
6145308,12
6145928,11
6146560,41
6147188,43
6147808,46
6148436,50
6149060,49
6149684,51
6150316,44
6150936,30
6151564,12
6152192,14
6152816,19
6153444,28
6154068,67
6154700,35
6155332,50
6155952,58
6156584,61
6157208,67
6157832,77
6158460,67
6159080,68
6159712,72
6160336,20
6160960,17
6161588,30
6162208,55
6162836,48
6163468,46
6164088,57
6164716,53
6165340,49
6165972,27
6166604,10
6167224,23
6167852,37
6168476,23
6169100,12
6169732,43
6170352,69
6170980,52
6171608,41
6172232,81
6172860,100
6173532,76
6174160,45
6174788,10
6175408,39
6176040,67
6176660,31
6177288,18
6177916,24
6178536,21
6179168,13
6179792,35
6180416,41
6181044,46
6181664,46
6182296,49
6182924,16
6183544,13
6184176,12
6184800,26
6185428,42
6186060,34
6186680,41
6187312,46
6187936,44
6188560,41
6189192,76
6189808,104
6190488,96
6191120,82
6191736,59
6192368,21
6192992,24
6193624,40
6194256,23
6194872,18
6195504,21
6196128,19
6196752,40
6197384,45
6198000,64
6198632,77
6199256,70
6199880,72
6200512,73
6201128,64
6201760,38
6202388,24
6203008,17
6203640,13
6204264,14
6204896,46
6205524,64
6206144,72
6206776,78
6207400,77
6208024,81
6208652,77
6209272,62
6209904,43
6210528,35
6211152,44
6211784,16
6212400,19
6213032,19
6213664,45
6214284,47
6214912,49
6215540,53
6216172,53
6216800,52
6217424,46
6218056,31
6218680,46
6219304,61
6219936,82
6220556,72
6221188,35
6221812,61
6222436,98
6223068,85
6223692,61
6224324,30
6224956,14
6225576,54
6226208,62
6226832,30
6227460,16
6228092,10
6228712,23
6229344,24
6229968,42
6230592,50
6231224,53
6231840,49
6232472,44
6233100,11
6233720,17
6234348,35
6234976,29
6235604,11
6236236,33
6236856,45
6237484,22
6238112,25
6238736,54
6239368,81
6239984,74
6240620,53
6241244,33
6241868,36
6242500,20
6243120,19
6243752,59
6244384,50
6245000,47
6245632,34
6246256,20
6246888,50
6247516,50
6248136,48
6248764,48
6249388,26
6250016,29
6250644,14
6251264,11
6251892,15
6252520,27
6253144,33
6253772,42
6254392,41
6255024,44
6255656,53
6256272,59
6256904,62
6257528,42
6258160,42
6258788,58
6259408,63
6260036,34
