tempo_arduino_micro_s,valor_ADC
500,21
1004,28
1504,30
2000,14
2504,17
3000,30
3508,14
4000,33
4508,71
5000,79
5500,47
6000,58
6500,82
7000,94
7500,92
8000,97
8500,99
9000,111
9500,66
10000,39
10512,16
11028,11
11556,32
12076,68
12604,69
13124,45
13648,41
14172,45
14700,51
15220,70
15748,69
16268,55
16796,57
17316,33
17836,16
18356,46
18876,26
19396,11
19916,32
20436,32
20956,13
21476,22
21996,60
22516,61
23036,50
23564,51
24084,53
24612,31
25132,10
25660,15
26180,19
26708,25
27228,69
27756,57
28276,28
28804,31
29324,32
29852,15
30372,45
30900,50
31420,49
31948,58
32472,59
32996,25
33516,28
34044,38
34564,41
35092,27
35612,11
36140,10
36660,41
37188,63
37708,59
38236,44
38760,52
39284,59
39804,53
40332,49
40852,80
41372,111
41944,80
42468,46
42988,55
43508,57
44028,39
44556,17
45084,13
45604,10
46132,11
46652,39
47180,67
47704,63
48228,53
48748,49
49276,53
49796,28
50324,29
50844,60
51372,75
51892,28
52420,56
52940,99
53468,100
54044,86
54572,76
55092,80
55620,54
56140,58
56668,67
57188,60
57716,53
58236,31
58764,14
59284,71
59804,112
60380,63
60904,18
61420,22
61944,52
62460,58
62988,33
63516,35
64040,54
64560,55
65084,50
65612,52
66132,55
66660,32
67180,23
67708,18
68228,37
68756,40
69276,18
69804,12
70324,42
70852,53
71372,47
71900,39
72420,48
72948,55
73468,56
73996,53
74520,62
75044,80
75564,92
76092,97
76616,74
77140,19
77660,41
78188,68
78708,49
79236,13
79760,11
80284,42
80804,45
81324,53
81844,58
82364,73
82884,79
83404,74
83924,74
84444,73
84964,49
85484,16
86004,11
86524,22
87052,12
87572,12
88100,15
88620,45
89148,55
89668,59
90196,57
90716,51
91244,39
91764,18
92292,27
92812,60
93340,102
93916,92
94444,86
94964,115
95544,109
96116,100
96696,96
97212,72
97736,47
98252,68
98772,112
99352,138
99924,109
100504,74
101068,73
101648,50
102216,19
102800,12
103368,25
103936,17
104512,23
105080,43
105656,43
106224,50
106800,49
107368,51
107952,51
108520,64
109096,82
109680,93
110248,78
110832,37
111400,14
111984,51
112556,93
113128,66
113712,50
114280,55
114864,70
115436,64
116016,68
116584,46
117168,68
117736,71
118316,67
118896,57
119464,34
120048,131
120668,235
121296,296
121924,217
122540,59
123116,67
123688,100
124324,80
124892,54
125464,72
126048,112
126668,125
127300,88
127868,46
128448,13
129016,77
129584,111
130220,49
130784,47
131368,50
131936,56
132512,60
133080,31
133656,14
134240,14
134808,16
135392,40
135960,79
136544,69
137112,94
137692,114
138324,70
138888,44
139472,47
140044,64
140624,69
141196,78
141776,108
142404,175
143020,193
143652,149
144272,87
144848,24
145424,35
145992,58
146576,45
147144,46
147728,48
148296,57
148880,55
149448,50
150024,17
150608,30
151180,39
151760,35
152332,16
152912,16
153484,34
154064,14
154648,32
155216,44
155800,47
156372,58
156952,60
157524,48
158104,23
158676,17
159252,46
159832,57
160404,32
160984,36
161552,56
162136,73
162704,74
163284,42
163864,41
164432,49
165008,50
165576,49
166152,47
166720,12
167304,12
167872,12
168440,21
169024,35
169592,60
170168,89
170736,88
171320,31
171888,44
172472,68
173044,74
173616,55
174200,51
174768,35
175352,67
175924,114
176556,58
177124,11
177696,11
178280,18
178848,43
179432,76
180000,85
180584,52
181152,49
181728,52
182312,78
182884,118
183516,116
184136,89
184712,64
185280,30
185856,45
186440,30
187008,18
187592,12
188160,18
188744,47
189316,44
189896,53
190472,50
191044,55
191624,100
192248,141
192872,91
193444,50
194016,30
194600,31
195168,17
195752,22
196324,27
196904,37
197472,47
198056,52
198628,58
199200,52
199784,17
200352,18
200936,23
201508,30
202088,20
202656,32
203236,52
203816,63
204388,48
204968,61
205536,48
206112,50
206680,52
207264,51
207832,54
208408,44
208992,54
209560,40
210136,23
210704,41
211288,63
211856,69
212432,63
213008,37
213576,45
214160,58
214728,54
215312,52
215884,51
216464,20
217032,19
217612,11
218192,15
218760,14
219344,11
219912,24
220496,25
221064,14
221648,13
222224,50
222796,74
223376,103
224000,79
224572,49
225144,30
225728,35
226296,33
226872,48
227456,29
228024,31
228608,15
229176,87
229760,153
230384,130
231004,81
231580,50
232152,60
232728,71
233300,35
233880,11
234448,15
235024,15
235608,11
236176,21
236760,13
237332,12
237912,20
238484,24
239056,48
239640,62
240212,59
240792,61
241360,78
241944,76
242516,26
243096,12
243668,11
244244,10
244824,13
245392,11
245976,15
246544,19
247128,53
247696,47
248272,50
248856,49
249424,56
250008,95
250576,108
251212,68
251780,32
252360,23
252936,18
253508,32
254088,24
254656,18
255240,41
255812,54
256392,62
256968,78
257536,101
258164,82
258728,36
259312,78
259880,112
260516,43
261084,50
261656,91
262240,98
262808,69
263392,19
263960,46
264544,47
265112,48
265692,51
266272,37
266840,35
267424,21
267992,11
268576,25
269144,11
269728,16
270296,21
270872,50
271456,31
272024,74
272608,80
273176,70
273760,52
274332,51
274908,14
275488,19
276056,11
276640,11
277208,13
277792,17
278360,11
278944,35
279516,33
280092,15
280672,44
281244,54
281824,53
282392,51
282976,28
283544,11
284124,19
284704,27
285276,11
285856,24
286428,35
287008,16
287576,17
288160,15
288728,63
289296,107
289932,118
290548,101
291176,81
291748,72
292324,67
292904,35
293476,14
294056,51
294628,31
295208,22
295776,57
296360,52
296932,40
297508,47
298088,49
298656,58
299240,62
299812,31
300392,16
300964,26
301536,32
302120,43
302692,52
303272,52
303844,49
304424,75
305004,90
305584,51
306156,47
306732,58
307312,66
307884,80
308464,104
309088,105
309716,18
310292,81
310864,83
311440,40
312012,23
312592,15
313164,14
313744,47
314316,50
314892,50
315472,50
316044,47
316624,13
317196,18
317776,12
318356,14
318932,12
319512,11
320088,22
320664,18
321232,17
321808,21
322376,55
322960,58
323528,53
324104,48
324688,58
325260,114
325892,172
326516,178
327144,109
327772,40
328336,124
328972,113
329592,24
330168,49
330736,47
331312,56
331896,75
332468,67
333048,41
333616,24
334192,25
334760,29
335336,31
335920,62
336492,67
337072,56
337640,59
338224,117
338844,60
339416,59
339992,89
340564,91
341144,67
341712,42
342296,28
342868,27
343448,28
344016,27
344592,40
345176,30
345748,32
346328,20
346896,37
347480,44
348052,46
348628,51
349208,67
349776,52
350360,44
350932,34
351512,25
352084,24
352664,17
353232,16
353812,25
354392,27
354964,15
355544,51
356116,51
356696,57
357268,56
357844,45
358424,12
358992,16
359568,11
360140,22
360720,17
361288,11
361872,30
362444,43
363016,33
363600,38
364168,48
364752,49
365324,49
365904,51
366476,36
367056,47
367632,57
368204,30
368784,20
369352,55
369936,53
370504,56
371088,56
371660,27
372232,43
372816,51
373384,59
373968,68
374540,66
375120,44
375692,49
376272,52
376848,31
377420,14
378000,10
378568,16
379152,39
379724,32
380304,41
380876,47
381452,50
382032,50
382604,51
383184,15
383756,20
384340,14
384912,18
385488,26
386072,34
386644,21
387224,23
387792,14
388376,25
388948,42
389528,48
390096,51
390676,55
391256,50
391828,31
392408,40
392976,28
393560,12
394132,10
394708,17
395288,27
395860,24
396440,15
397012,45
397592,49
398164,49
398744,49
399316,54
399892,55
400472,45
401044,31
401624,30
402192,48
402776,57
403348,31
403924,20
404504,35
405072,29
405656,48
406228,79
406808,71
407388,56
407968,45
408540,60
409116,76
409696,57
410268,40
410848,15
411416,15
412000,11
412568,16
413136,23
413720,52
414288,45
414872,59
415440,80
416024,87
416592,61
417168,17
417736,68
418312,67
418896,19
419464,42
420048,77
420616,107
421252,92
421820,50
422392,56
422976,82
423544,91
424128,60
424696,22
425280,24
425848,17
426432,26
427000,38
427580,48
428160,31
428728,11
429312,13
429884,15
430464,46
431032,56
431612,50
432192,48
432760,50
433344,14
433912,16
434496,12
435068,20
435648,47
436216,51
436796,32
437376,12
437948,14
438528,49
439100,92
439680,81
440252,60
440828,64
441408,63
441980,18
442560,29
443128,70
443712,27
444284,26
444864,57
445436,81
446012,100
446644,54
447212,41
447792,49
448364,51
448944,53
449516,53
450092,19
450672,11
451240,16
451824,12
452396,14
452976,32
453548,78
454124,49
454704,33
455276,47
455856,50
456428,59
457008,71
457580,59
458160,22
458740,19
459316,45
459896,81
460468,104
461100,102
461724,57
462292,40
462872,59
463444,21
464024,46
464592,61
465176,57
465748,66
466328,32
466900,12
467476,11
468056,11
468628,11
469208,24
469780,34
470360,40
470932,36
471508,26
472088,48
472656,56
473240,56
473812,62
474392,59
474964,47
475544,41
476116,35
476692,28
477272,22
477844,29
478424,35
478996,11
479576,18
480156,30
480732,57
481312,59
481880,70
482464,72
483036,30
483616,22
484196,39
484776,51
485348,74
485924,103
486556,95
487124,82
487704,91
488276,78
488856,45
489428,59
490004,61
490584,61
491156,49
491736,40
492312,65
492896,62
493464,47
494040,22
494624,16
495196,19
495776,10
496348,18
496928,41
497496,43
498080,49
498648,56
499228,50
499808,21
500380,11
500960,24
501528,49
502112,35
502684,51
503260,113
503892,72
504460,35
505040,17
505612,59
506192,82
506764,83
507344,79
507928,80
508500,66
509080,51
509652,44
510232,44
510804,38
511384,36
511964,136
512592,177
513220,84
513784,42
514368,47
514936,48
515520,59
516088,51
516664,12
517248,11
517816,13
518400,20
518968,31
519544,21
520116,24
520688,19
521272,15
521844,41
522424,66
522992,72
523576,55
524144,52
524728,41
525300,27
525872,29
526456,11
527024,15
527608,21
528176,37
528760,44
529328,64
529908,26
530488,46
531056,50
531640,52
532212,60
532792,55
533364,29
533944,57
534516,50
535092,27
535672,12
536244,22
536824,35
537396,14
537976,22
538552,46
539132,74
539712,80
540284,62
540864,48
541432,40
542016,58
542596,64
543176,51
543760,21
544332,53
544912,26
545484,32
546064,80
546632,74
547216,44
547784,54
548364,54
548944,55
549516,66
550096,106
550728,99
551304,59
551876,31
552452,28
553032,41
553604,53
554184,32
554756,14
555336,51
555916,69
556496,73
557080,79
557652,73
558232,46
558804,41
559384,56
559956,64
560540,50
561116,40
561692,10
562272,25
562844,11
563424,32
564000,47
564584,47
565152,55
565732,54
566312,30
566884,21
567464,44
568036,29
568616,17
569188,51
569768,81
570344,96
570924,52
571504,19
572076,46
572656,56
573236,62
573816,53
574396,48
574972,13
575552,22
576124,47
576704,75
577276,96
577856,77
578428,19
579008,17
579580,11
580156,47
580736,104
581360,103
581988,64
582560,55
583132,24
583712,70
584284,100
584916,104
585536,87
586112,86
586684,92
587260,105
587892,116
588512,81
589088,42
589660,56
590240,61
590812,59
591388,82
591968,103
592592,93
593168,99
593748,72
594328,22
594908,24
595484,20
596064,14
596636,33
597216,50
597796,46
598376,56
598956,55
599532,42
600112,17
600684,11
601264,37
601836,58
602416,64
602988,46
603568,37
604140,39
604716,43
605296,44
605868,47
606448,51
607028,47
607608,58
608188,76
608764,75
609344,59
609916,31
610496,25
611068,47
611648,76
612228,63
612808,18
613392,63
613964,63
614548,52
615116,60
615696,55
616268,30
616848,24
617420,41
617996,69
618576,51
619148,53
619728,61
620308,43
620888,35
621456,70
622036,57
622616,60
623188,77
623772,78
624344,74
624920,76
625500,86
626080,110
626716,95
627284,48
627864,26
628436,23
629016,14
629596,28
630176,34
630756,44
631332,46
631912,47
632488,50
633064,29
633636,28
634216,48
634796,55
635372,55
635952,63
636528,56
637104,47
637680,35
638256,32
638836,43
639416,69
639996,81
640576,72
641152,54
641720,20
642304,33
642876,61
643456,81
644024,64
644600,45
645184,21
645752,32
646336,38
646908,40
647488,45
648060,51
648640,59
649208,54
649788,27
650368,21
650940,31
651520,21
652092,15
652672,28
653244,20
653820,15
654400,18
654972,15
655552,64
656124,76
656704,85
657272,96
657856,110
658484,114
659100,77
659680,88
660248,89
660832,81
661400,40
661976,26
662560,55
663128,58
663712,69
664284,150
664916,200
665540,104
666164,48
666736,22
667308,64
667888,77
668460,86
669040,66
669608,26
670184,15
670768,12
671336,16
671920,48
672492,67
673072,63
673644,57
674224,79
674796,105
675424,93
676000,71
676568,60
677152,38
677724,27
678304,27
678876,12
679448,19
680032,16
680600,41
681184,46
681752,47
682336,49
682904,61
683484,81
684064,56
684636,38
685216,14
685788,12
686368,21
686940,36
687520,35
688092,27
688664,75
689248,59
689820,56
690400,69
690972,78
691552,55
692132,19
692708,30
693288,37
693860,14
694440,20
695008,20
695592,34
696172,55
696752,25
697324,41
697900,50
698480,66
699052,106
699684,85
700256,36
700832,17
701404,44
701980,30
702560,17
703132,20
703712,13
704292,43
704872,85
705444,133
706072,121
706700,58
707268,50
707848,42
708420,35
709000,60
709572,52
710148,26
710728,12
711300,16
711880,28
712452,22
713032,13
713604,57
714184,53
714760,46
715336,50
715912,50
716488,16
717064,26
717640,26
718224,35
718796,34
719372,40
719952,55
720524,49
721104,15
721676,26
722256,65
722828,83
723408,106
724036,113
724656,107
725284,82
725852,81
726432,71
727004,45
727580,14
728160,36
728732,40
729312,29
729884,15
730464,40
731036,48
731612,47
732192,51
732764,48
733344,16
733916,29
734496,54
735076,35
735656,46
736236,74
736812,78
737392,79
737964,107
738596,74
739168,46
739744,54
740324,60
740900,58
741480,16
742052,27
742632,14
743212,31
743792,17
744364,13
744940,27
745520,11
746092,15
746672,17
747244,39
747824,49
748396,56
748976,56
749556,44
750132,26
750712,36
751284,64
751864,72
752444,67
753024,43
753604,44
754180,15
754760,37
755336,84
755912,118
756536,97
757116,80
757692,89
758268,108
758900,143
759520,122
760148,94
760720,79
761296,39
761880,11
762452,53
763032,34
763604,45
764184,53
764756,48
765336,49
765916,51
766492,41
767072,79
767648,90
768228,114
768852,125
769480,105
770108,47
770676,14
771256,22
771828,41
772408,53
772988,66
773568,96
774140,106
774768,95
775344,89
775916,77
776496,68
777076,54
777656,46
778236,46
778812,23
779392,26
779964,42
780544,42
781124,49
781704,67
782276,95
782852,110
783484,80
784052,39
784632,13
785204,23
785784,15
786356,47
786932,77
787512,62
788084,25
788664,47
789236,52
789816,50
790396,50
790980,54
791560,27
792136,21
792712,21
793288,39
793864,11
794444,22
795024,11
795596,10
796172,11
796752,28
797324,58
797904,72
798484,64
799064,59
799644,40
800220,18
800800,15
801368,34
801952,19
802524,30
803104,22
803676,29
804256,56
804828,94
805404,68
805984,50
806556,49
807136,53
807708,47
808288,16
808860,21
809436,41
810016,79
810588,77
811168,39
811740,65
812320,72
812900,29
813480,26
814052,47
814628,46
815208,47
815780,47
816360,21
816940,11
817520,16
818100,26
818676,28
819256,23
819828,19
820408,19
820976,16
821560,13
822128,51
822712,57
823284,50
823856,54
824440,51
825008,26
825592,33
826164,34
826744,25
827312,14
827892,18
828472,32
829044,59
829624,39
830192,34
830776,48
831348,48
831928,49
832500,51
833072,22
833656,16
834224,23
834808,61
835376,54
835960,20
836528,47
837104,104
837740,92
838308,41
838888,48
839456,59
840040,59
840608,72
841184,67
841768,86
842336,83
842920,73
843488,68
844072,44
844644,27
845224,16
845792,46
846368,35
846952,42
847524,49
848104,60
848672,65
849256,53
849828,38
850404,78
850984,123
851608,109
852236,77
852804,49
853384,49
853956,40
854532,27
855112,19
855684,42
856264,48
856836,47
857416,48
857988,26
858568,36
859144,43
859716,20
860296,30
860868,75
861448,114
862068,101
862700,54
863276,53
863848,65
864424,52
864996,51
865576,48
866148,51
866728,33
867300,21
867876,25
868456,33
869028,36
869608,32
870188,20
870768,15
871344,19
871924,43
872504,43
873076,49
873656,51
874228,50
874808,17
875388,14
875968,42
876540,42
877116,14
877696,13
878268,13
878848,16
879420,14
880000,16
880568,46
881148,46
881728,51
882300,51
882880,57
883452,63
884032,57
884604,36
885184,13
885756,37
886332,78
886912,68
887484,44
888064,37
888636,47
889216,80
889788,89
890364,87
890944,82
891516,74
892096,58
892668,70
893248,83
893828,63
894408,33
894992,15
895564,29
896148,41
896716,52
897296,49
897864,48
898448,56
899020,57
899596,43
900176,73
900748,37
901328,17
901904,21
902488,33
903056,72
903636,82
904216,78
904788,63
905368,42
905940,43
906520,48
907092,56
907672,55
908244,62
908820,81
909400,89
909972,88
910552,56
911124,33
911704,25
912284,15
912860,30
913440,20
914012,56
914592,52
915164,49
915744,51
916324,39
916904,26
917484,19
918060,11
918640,16
919212,33
919792,52
920372,74
920952,90
921532,103
922160,92
922736,67
923308,49
923888,67
924460,69
925040,47
925612,74
926188,40
926768,29
927340,43
927920,48
928492,38
929072,11
929644,10
930224,37
930796,45
931372,47
931952,48
932524,55
933104,31
933676,13
934256,14
934836,43
935412,76
935992,68
936568,37
937144,12
937716,61
938296,68
938876,48
939460,46
940040,53
940616,48
941192,40
941768,41
942344,53
942924,41
943504,43
944084,25
944660,11
945240,26
945812,29
946392,26
946972,44
947552,46
948132,53
948708,57
949288,61
949860,61
950440,66
951012,18
951596,14
952172,35
952752,31
953332,28
953908,64
954488,71
955064,41
955640,43
956220,45
956800,52
957380,52
957956,39
958540,46
959112,60
959692,64
960264,60
960840,42
961408,29
961992,15
962568,31
963140,18
963720,41
964292,47
964872,49
965444,49
966024,49
966596,25
967172,17
967752,13
968324,15
968904,43
969476,63
970056,20
970636,38
971216,36
971800,29
972372,43
972952,46
973524,47
974104,47
974676,22
975256,22
975836,32
976412,43
976992,42
977564,31
978144,11
978724,23
979304,34
979876,30
980452,44
981032,56
981608,50
982184,49
982756,48
983336,18
983916,12
984496,30
985072,40
985652,42
986232,14
986804,49
987384,29
987956,15
988536,44
989116,62
989692,62
990272,60
990844,51
991424,17
991996,49
992580,35
993156,15
993736,11
994320,24
994892,21
995472,18
996044,50
996624,52
997196,45
997776,66
998356,68
998932,58
999512,47
1000084,21
1000708,39
1001332,30
1001960,30
1002588,22
1003208,15
1003836,17
1004460,47
1005080,67
1005712,43
1006328,55
1006956,58
1007580,47
1008204,15
1008832,26
1009456,55
1010084,65
1010712,55
1011332,35
1011960,38
1012584,48
1013212,26
1013840,40
1014464,48
1015092,86
1015716,104
1016392,70
1017016,23
1017632,17
1018260,43
1018892,48
1019512,48
1020140,24
1020764,17
1021396,17
1022028,44
1022648,51
1023276,50
1023904,51
1024528,49
1025156,56
1025772,53
1026400,43
1027024,13
1027644,51
1028272,19
1028888,14
1029516,16
1030136,27
1030760,48
1031388,53
1032012,55
1032640,54
1033268,32
1033888,25
1034516,23
1035136,37
1035768,56
1036396,40
1037016,55
1037644,56
1038264,35
1038888,46
1039516,52
1040136,77
1040764,115
1041444,135
1042112,75
1042740,67
1043364,67
1043984,21
1044612,21
1045228,13
1045856,26
1046480,25
1047100,41
1047728,50
1048352,51
1048980,51
1049608,31
1050220,48
1050852,40
1051472,11
1052104,11
1052732,36
1053352,63
1053980,46
1054604,41
1055232,41
1055860,100
1056532,116
1057208,69
1057828,70
1058448,95
1059076,64
1059700,46
1060328,35
1060956,30
1061576,13
1062204,52
1062828,71
1063452,59
1064080,49
1064696,49
1065324,53
1065948,59
1066568,66
1067196,98
1067816,89
1068444,53
1069072,30
1069696,15
1070324,13
1070944,13
1071576,16
1072204,50
1072824,73
1073452,91
1074072,75
1074696,66
1075328,80
1075944,102
1076624,130
1077296,96
1077912,73
1078540,52
1079160,17
1079792,15
1080420,40
1081036,53
1081668,105
1082340,91
1082960,92
1083588,146
1084260,170
1084936,114
1085612,23
1086232,37
1086860,42
1087484,17
1088108,22
1088732,45
1089356,57
1089984,64
1090612,55
1091232,52
1091860,84
1092480,103
1093160,68
1093788,31
1094408,19
1095036,20
1095660,29
1096284,35
1096912,39
1097528,49
1098156,54
1098788,54
1099408,51
1100036,13
1100660,12
1101292,30
1101920,48
1102536,60
1103164,52
1103788,18
1104412,46
1105044,20
1105664,47
1106292,49
1106916,49
1107540,49
1108168,14
1108784,15
1109412,13
1110044,16
1110664,10
1111292,23
1111916,23
1112548,11
1113176,26
1113796,60
1114424,49
1115048,46
1115672,52
1116300,30
1116920,47
1117548,63
1118172,56
1118796,56
1119428,47
1120048,45
1120676,35
1121304,53
1121920,46
1122548,45
1123172,49
1123804,50
1124436,52
1125056,45
1125684,64
1126308,67
1126936,75
1127564,85
1128184,76
1128812,53
1129432,44
1130056,21
1130688,46
1131304,49
1131932,74
1132564,76
1133184,29
1133812,17
1134436,37
1135064,49
1135696,29
1136312,15
1136940,62
1137564,74
1138188,70
1138820,46
1139440,57
1140068,61
1140692,61
1141316,53
1141944,51
1142568,66
1143196,71
1143828,57
1144448,43
1145076,33
1145700,10
1146332,26
1146960,50
1147576,58
1148208,52
1148828,49
1149452,51
1150080,39
1150704,11
1151332,19
1151956,49
1152584,73
1153212,76
1153832,56
1154460,81
1155088,108
1155764,45
1156388,51
1157012,73
1157640,67
1158268,52
1158888,49
1159516,73
1160140,64
1160764,11
1161392,26
1162008,26
1162640,47
1163260,56
1163888,58
1164516,62
1165140,53
1165768,50
1166400,22
1167016,11
1167644,14
1168268,37
1168896,47
1169524,34
1170144,15
1170772,17
1171396,19
1172020,70
1172648,81
1173272,58
1173900,51
1174524,53
1175152,59
1175780,55
1176404,82
1177036,103
1177716,91
1178336,92
1178964,45
1179588,22
1180208,53
1180840,58
1181456,56
1182084,93
1182708,159
1183384,193
1184060,160
1184732,62
1185352,15
1185980,24
1186600,44
1187228,41
1187860,21
1188480,29
1189108,76
1189732,81
1190360,71
1190992,52
1191608,50
1192240,121
1192912,170
1193588,114
1194268,16
1194888,26
1195516,61
1196148,82
1196768,73
1197400,64
1198024,57
1198648,47
1199276,47
1199896,14
1200528,11
1201148,26
1201776,40
1202404,11
1203028,57
1203660,63
1204288,31
1204904,14
1205536,55
1206160,69
1206788,72
1207420,72
1208040,84
1208668,61
1209292,65
1209916,68
1210544,25
1211164,15
1211792,13
1212420,59
1213040,53
1213668,43
1214292,46
1214924,51
1215556,72
1216176,120
1216856,77
1217472,21
1218096,53
1218724,46
1219344,49
1219972,18
1220596,33
1221220,28
1221848,40
1222472,58
1223104,50
1223732,51
1224352,60
1224980,29
1225604,32
1226236,48
1226864,22
1227484,13
1228116,10
1228740,25
1229364,18
1229992,29
1230612,61
1231240,49
1231864,52
1232484,48
1233116,24
1233736,15
1234368,14
1234996,12
1235616,18
1236244,15
1236868,66
1237496,94
1238124,63
1238744,52
1239372,70
1239996,83
1240620,69
1241252,52
1241872,17
1242500,33
1243124,45
1243748,105
1244428,116
1245100,49
1245720,15
1246348,11
1246968,52
1247596,52
1248220,49
1248844,56
1249472,73
1250096,67
1250724,20
1251352,63
1251976,112
1252656,96
1253280,71
1253904,27
1254532,39
1255152,64
1255780,46
1256404,53
1257028,50
1257656,57
1258272,25
1258904,28
1259532,44
1260152,41
1260780,34
1261404,38
1262036,23
1262664,22
1263288,16
1263916,43
1264544,60
1265168,60
1265796,52
1266416,23
1267044,17
1267672,18
1268292,28
1268924,16
1269544,12
1270176,18
1270804,26
1271424,18
1272052,57
1272676,97
1273308,74
1273936,49
1274560,44
1275188,12
1275812,35
1276440,27
1277068,10
1277688,15
1278316,16
1278944,41
1279568,54
1280200,39
1280816,52
1281440,49
1282068,58
1282684,50
1283316,13
1283936,15
1284564,11
1285192,12
1285808,19
1286436,25
1287056,18
1287684,13
1288312,30
1288932,73
1289560,57
1290184,57
1290808,71
1291436,82
1292056,71
1292684,81
1293308,76
1293936,16
1294564,62
1295184,89
1295816,93
1296444,62
1297064,45
1297692,46
1298312,48
1298944,56
1299572,36
1300192,17
1300820,45
1301444,39
1302068,14
1302696,44
1303312,109
1303992,94
1304624,66
1305240,46
1305868,84
1306492,79
1307120,62
1307752,64
1308368,87
1309000,91
1309624,63
1310244,30
1310876,12
1311492,47
1312124,119
1312804,139
1313472,77
1314100,48
1314724,49
1315344,76
1315972,83
1316592,63
1317220,63
1317840,61
1318464,60
1319092,54
1319712,24
1320340,72
1320968,180
1321636,176
1322312,115
1322980,48
1323600,73
1324228,78
1324848,86
1325476,86
1326104,69
1326720,37
1327348,17
1327972,33
1328600,32
1329232,48
1329848,31
1330476,41
1331100,49
1331724,57
1332352,79
1332968,57
1333596,15
1334220,17
1334844,17
1335472,20
1336088,38
1336720,67
1337340,56
1337968,23
1338596,58
1339216,95
1339848,77
1340476,54
1341096,47
1341724,21
1342348,12
1342976,14
1343604,31
1344224,44
1344852,31
1345472,45
1346092,71
1346724,19
1347340,49
1347972,51
1348592,54
1349216,58
1349844,16
1350468,24
1351096,51
1351724,58
1352344,99
1352972,97
1353592,83
1354220,53
1354852,18
1355472,53
1356100,69
1356724,84
1357348,92
1357976,102
1358644,77
1359268,51
1359900,64
1360520,43
1361148,25
1361772,11
1362400,25
1363028,34
1363648,46
1364276,47
1364900,49
1365520,50
1366152,41
1366768,13
1367396,12
1368020,15
1368644,48
1369272,33
1369888,16
1370516,66
1371148,97
1371768,64
1372396,49
1373020,75
1373648,106
1374328,83
1374952,55
1375580,12
1376204,54
1376828,76
1377456,29
1378072,22
1378700,63
1379324,109
1380004,81
1380628,44
1381252,52
1381880,62
1382512,50
1383128,15
1383756,10
1384380,28
1385004,64
1385632,68
1386248,44
1386876,15
1387500,12
1388124,14
1388752,48
1389376,53
1390004,51
1390636,48
1391256,30
1391884,13
1392508,43
1393140,42
1393768,30
1394392,24
1395020,12
1395644,44
1396268,56
1396896,46
1397512,49
1398140,68
1398764,59
1399388,53
1400016,17
1400640,12
1401268,12
1401896,11
1402516,10
1403144,17
1403768,32
1404396,49
1405028,64
1405648,83
1406276,72
1406900,60
1407524,49
1408156,38
1408776,73
1409404,36
1410024,25
1410648,19
1411276,22
1411896,20
1412524,35
1413152,56
1413776,68
1414404,49
1415024,48
1415656,61
1416284,40
1416904,23
1417532,11
1418156,20
1418780,24
1419408,17
1420032,14
1420660,30
1421284,85
1421908,91
1422540,50
1423160,49
1423788,45
1424420,46
1425040,45
1425668,65
1426292,63
1426920,29
1427548,16
1428168,29
1428796,35
1429420,21
1430044,60
1430676,62
1431296,47
1431924,48
1432552,50
1433176,44
1433804,33
1434424,22
1435052,13
1435680,12
1436296,17
1436924,29
1437548,12
1438176,17
1438804,49
1439424,48
1440052,46
1440672,53
1441296,57
1441924,46
1442540,33
1443172,19
1443796,43
1444420,71
1445048,31
1445664,13
1446292,28
1446920,51
1447544,45
1448172,50
1448796,49
1449424,47
1450052,19
1450672,36
1451300,44
1451924,43
1452548,27
1453180,22
1453800,16
1454428,14
1455052,16
1455676,49
1456304,46
1456920,46
1457552,57
1458180,17
1458800,13
1459428,22
1460052,12
1460680,10
1461308,30
1461928,38
1462556,45
1463180,17
1463808,36
1464440,45
1465056,45
1465684,45
1466308,45
1466932,25
1467560,13
1468176,47
1468808,55
1469432,19
1470056,13
1470684,27
1471308,18
1471940,43
1472572,74
1473192,127
1473872,121
1474548,78
1475168,53
1475796,70
1476420,72
1477048,36
1477680,11
1478296,11
1478924,65
1479548,88
1480176,43
1480808,44
1481424,43
1482052,48
1482676,47
1483300,34
1483928,40
1484552,40
1485180,40
1485804,59
1486428,69
1487056,59
1487672,47
1488300,32
1488932,56
1489552,92
1490180,87
1490804,85
1491432,85
1492064,73
1492680,87
1493308,57
1493932,19
1494556,10
1495184,25
1495808,49
1496436,79
1497060,93
1497684,100
1498364,85
1498984,75
1499612,51
1500244,20
1500864,30
1501492,41
1502116,17
1502740,20
1503368,23
1503992,15
1504624,13
1505248,50
1505872,79
1506500,74
1507120,83
1507748,99
1508380,133
1509052,128
1509728,30
1510352,79
1510976,123
1511660,113
1512332,112
1513008,83
1513636,44
1514256,47
1514884,49
1515508,48
1516136,58
1516764,47
1517388,14
1518020,21
1518648,12
1519272,30
1519904,15
1520528,56
1521156,87
1521788,74
1522408,69
1523036,59
1523664,73
1524284,46
1524916,29
1525536,13
1526164,17
1526796,10
1527416,21
1528044,12
1528668,20
1529300,40
1529928,69
1530552,71
1531184,58
1531808,48
1532432,47
1533064,42
1533680,52
1534312,21
1534936,22
1535560,13
1536192,43
1536808,77
1537436,65
1538064,52
1538680,43
1539308,42
1539932,49
1540560,48
1541188,31
1541808,38
1542436,29
1543056,13
1543684,20
1544316,22
1544936,21
1545564,20
1546188,22
1546812,34
1547444,42
1548064,58
1548692,47
1549324,46
1549944,23
1550572,19
1551196,16
1551828,23
1552460,26
1553080,15
1553708,14
1554332,16
1554956,15
1555588,88
1556208,107
1556888,93
1557516,87
1558136,105
1558816,96
1559440,83
1560068,37
1560700,31
1561320,100
1562000,197
1562680,219
1563348,139
1564024,59
1564648,47
1565272,48
1565900,46
1566520,17
1567148,48
1567780,94
1568400,109
1569080,39
1569696,13
1570320,21
1570948,29
1571568,59
1572196,43
1572820,65
1573444,88
1574076,88
1574696,116
1575376,127
1576056,95
1576680,51
1577308,25
1577932,16
1578556,27
1579188,120
1579860,122
1580536,88
1581164,84
1581784,94
1582412,71
1583036,35
1583660,15
1584292,20
1584912,33
1585540,40
1586168,51
1586792,18
1587420,83
1588044,119
1588728,131
1589400,129
1590076,125
1590756,97
1591384,38
1592000,40
1592628,52
1593252,34
1593880,29
1594508,12
1595128,29
1595760,58
1596384,40
1597008,40
1597640,42
1598256,56
1598884,56
1599516,36
1600136,13
1600764,24
1601384,19
1602016,33
1602644,115
1603312,110
1603992,76
1604616,52
1605232,43
1605860,53
1606484,58
1607112,63
1607740,62
1608360,55
1608988,60
1609608,40
1610236,30
1610868,14
1611488,39
1612116,63
1612740,33
1613364,39
1613996,68
1614616,59
1615244,51
1615868,52
1616496,17
1617124,15
1617748,13
1618376,10
1619008,10
1619624,11
1620252,29
1620876,57
1621504,100
1622184,75
1622808,49
1623436,53
1624060,77
1624688,100
1625368,92
1625984,79
1626616,43
1627244,15
1627864,91
1628492,64
1629116,43
1629740,57
1630372,68
1630992,45
1631620,56
1632248,54
1632868,31
1633500,11
1634124,33
1634752,18
1635384,27
1636000,13
1636632,81
1637256,63
1637884,41
1638516,40
1639132,45
1639760,49
1640384,68
1641004,60
1641632,74
1642248,77
1642876,80
1643496,72
1644120,41
1644748,12
1645368,19
1645996,19
1646624,20
1647240,43
1647868,46
1648488,46
1649116,49
1649748,19
1650364,37
1650996,12
1651620,24
1652240,13
1652868,14
1653484,13
1654116,19
1654736,15
1655356,41
1655988,44
1656608,49
1657236,70
1657864,88
1658488,70
1659116,24
1659740,15
1660368,24
1660996,26
1661616,25
1662244,43
1662864,50
1663492,45
1664124,46
1664740,52
1665368,51
1665988,56
1666612,75
1667240,63
1667856,52
1668484,52
1669104,58
1669728,27
1670356,26
1670980,15
1671608,17
1672236,40
1672856,45
1673484,47
1674108,45
1674736,36
1675364,16
1675984,11
1676612,38
1677236,14
1677860,45
1678488,53
1679104,87
1679732,116
1680416,62
1681028,51
1681656,49
1682280,46
1682908,35
1683536,15
1684152,16
1684780,17
1685404,18
1686024,11
1686656,13
1687272,13
1687900,18
1688524,41
1689148,48
1689776,54
1690392,51
1691020,59
1691644,50
1692264,71
1692892,96
1693516,104
1694196,64
1694820,40
1695440,11
1696068,13
1696688,15
1697308,37
1697940,45
1698560,45
1699188,50
1699812,72
1700432,73
1701064,104
1701732,111
1702408,46
1703036,13
1703656,20
1704284,18
1704908,19
1705532,58
1706160,52
1706776,49
1707404,46
1708028,17
1708656,19
1709284,47
1709908,37
1710536,19
1711168,30
1711784,47
1712412,57
1713036,31
1713668,43
1714296,43
1714912,54
1715544,81
1716164,96
1716788,103
1717472,84
1718088,57
1718716,47
1719348,22
1719968,25
1720600,22
1721220,16
1721852,39
1722480,57
1723096,49
1723724,47
1724348,49
1724972,20
1725600,15
1726216,24
1726848,44
1727468,59
1728092,58
1728720,40
1729344,13
1729972,39
1730600,49
1731216,45
1731844,50
1732468,54
1733096,57
1733724,57
1734344,33
1734972,12
1735596,23
1736220,23
1736852,16
1737472,17
1738100,47
1738724,70
1739348,61
1739980,56
1740600,45
1741228,29
1741860,36
1742480,35
1743108,49
1743732,15
1744360,60
1744988,66
1745608,70
1746236,84
1746860,44
1747480,42
1748112,45
1748728,47
1749356,47
1749980,63
1750604,15
1751232,26
1751856,11
1752484,14
1753116,20
1753736,34
1754364,29
1754988,19
1755616,90
1756248,89
1756864,63
1757492,57
1758116,17
1758740,17
1759372,24
1759992,37
1760624,21
1761248,37
1761872,25
1762500,20
1763120,15
1763748,40
1764376,43
1765000,45
1765628,47
1766252,25
1766880,11
1767508,10
1768128,13
1768756,16
1769380,33
1770004,26
1770632,15
1771248,19
1771876,39
1772500,50
1773124,67
1773752,70
1774372,52
1775000,43
1775628,36
1776248,32
1776876,34
1777500,37
1778128,28
1778760,18
1779376,11
1780008,23
1780628,44
1781252,51
1781884,48
1782504,56
1783132,22
1783756,43
1784380,57
1785012,18
1785632,13
1786260,11
1786892,12
1787512,15
1788140,33
1788764,60
1789396,69
1790028,56
1790648,47
1791276,28
1791904,21
1792528,16
1793156,15
1793776,11
1794404,22
1795028,21
1795652,13
1796280,80
1796896,141
1797576,123
1798252,57
1798872,51
1799500,39
1800124,38
1800748,33
1801376,14
1802000,21
1802628,27
1803252,63
1803876,95
1804504,94
1805128,61
1805756,43
1806384,44
1807000,48
1807632,47
1808252,12
1808884,15
1809512,25
1810128,28
1810756,34
1811380,41
1812004,21
1812632,11
1813248,32
1813876,50
1814500,45
1815124,47
1815752,46
1816372,35
1817000,27
1817628,23
1818244,27
1818876,22
1819500,23
1820128,62
1820756,88
1821376,60
1822004,45
1822628,61
1823252,58
1823884,51
1824504,59
1825132,85
1825756,82
1826380,64
1827008,40
1827628,13
1828256,62
1828884,60
1829504,37
1830132,37
1830756,45
1831388,46
1832016,61
1832632,58
1833264,21
1833888,11
1834512,42
1835140,92
1835760,53
1836388,18
1837012,17
1837636,15
1838268,30
1838888,99
1839516,62
1840148,46
1840768,54
1841396,26
1842020,46
1842652,56
1843280,26
1843900,17
1844528,42
1845152,29
1845776,11
1846404,12
1847020,42
1847652,43
1848276,45
1848900,58
1849528,50
1850144,31
1850772,37
1851404,39
1852024,20
1852652,15
1853276,13
1853908,15
1854536,34
1855156,39
1855784,52
1856408,79
1857032,93
1857660,84
1858280,71
1858908,67
1859532,56
1860152,21
1860784,26
1861400,36
1862032,60
1862660,86
1863280,91
1863908,60
1864532,45
1865160,55
1865792,65
1866408,21
1867036,10
1867660,21
1868288,12
1868920,51
1869536,88
1870164,101
1870840,67
1871456,19
1872084,51
1872708,71
1873336,69
1873968,74
1874584,79
1875216,107
1875888,91
1876512,45
1877140,16
1877760,23
1878388,34
1879016,23
1879640,12
1880268,41
1880888,56
1881516,79
1882148,82
1882768,77
1883396,78
1884024,59
1884652,27
1885284,12
1885904,12
1886532,21
1887156,15
1887780,13
1888412,28
1889032,48
1889660,60
1890284,56
1890908,54
1891536,30
1892160,44
1892788,72
1893420,105
1894092,64
1894720,43
1895340,32
1895964,12
1896596,42
1897216,56
1897844,45
1898468,49
1899092,47
1899724,28
1900344,30
1900972,24
1901604,20
1902224,27
1902852,37
1903476,35
1904108,25
1904740,14
1905360,65
1905988,68
1906612,49
1907236,46
1907868,35
1908488,20
1909116,14
1909740,10
1910368,31
1910996,13
1911624,33
1912252,14
1912884,14
1913504,40
1914136,49
1914760,48
1915392,47
1916020,48
1916640,13
1917272,23
1917896,13
1918520,17
1919152,19
1919772,18
1920404,29
1921032,13
1921648,27
1922276,39
1922900,46
1923528,62
1924156,112
1924828,97
1925452,28
1926076,38
1926700,85
1927328,55
1927944,21
1928576,19
1929200,25
1929820,16
1930452,49
1931072,45
1931704,47
1932332,46
1932952,25
1933580,11
1934204,16
1934836,27
1935464,50
1936080,37
1936712,40
1937332,37
1937956,16
1938588,60
1939208,107
1939888,103
1940564,88
1941184,54
1941812,42
1942436,49
1943060,37
1943692,26
1944312,35
1944944,20
1945568,45
1946192,40
1946820,51
1947440,61
1948068,49
1948696,46
1949320,59
1949948,48
1950572,23
1951204,11
1951832,15
1952452,13
1953080,19
1953704,26
1954328,19
1954956,26
1955576,69
1956208,63
1956828,59
1957452,51
1958084,22
1958704,45
1959332,46
1959964,51
1960584,22
1961212,14
1961836,49
1962468,70
1963096,43
1963720,40
1964348,44
1964972,53
1965596,74
1966228,50
1966848,15
1967476,11
1968100,21
1968720,22
1969352,28
1969968,19
1970596,14
1971228,14
1971844,43
1972476,61
1973100,55
1973728,53
1974356,52
1974976,56
1975604,45
1976228,43
1976852,31
1977484,10
1978104,17
1978732,11
1979356,33
1979980,39
1980612,50
1981232,50
1981860,45
1982492,48
1983112,81
1983744,125
1984420,119
1985092,83
1985716,66
1986336,65
1986964,61
1987596,32
1988216,15
1988844,55
1989468,55
1990096,73
1990724,115
1991396,127
1992072,92
1992696,72
1993320,77
1993948,47
1994572,24
1995204,20
1995832,56
1996452,43
1997080,41
1997704,57
1998332,65
1998964,78
1999584,91
2000212,30
2000836,31
2001460,85
2002088,93
2002704,43
2003332,14
2003956,15
2004580,34
2005208,44
2005832,54
2006460,65
2007092,56
2007712,45
2008340,35
2008964,14
2009592,22
2010220,31
2010840,41
2011468,46
2012092,11
2012716,21
2013348,24
2013968,42
2014596,45
2015220,47
2015844,45
2016476,16
2017100,20
2017728,36
2018360,45
2018976,37
2019604,27
2020228,13
2020860,29
2021488,61
2022104,82
2022736,79
2023360,69
2023980,61
2024612,52
2025232,53
2025860,24
2026484,34
2027108,18
2027740,46
2028364,64
2028996,65
2029624,46
2030240,43
2030868,63
2031492,82
2032124,60
2032756,45
2033376,15
2034004,17
2034628,36
2035256,33
2035884,16
2036504,42
2037132,41
2037756,50
2038384,45
2039016,53
2039640,62
2040272,56
2040900,68
2041520,51
2042152,69
2042776,78
2043400,58
2044032,42
2044648,33
2045280,24
2045904,19
2046528,14
2047160,39
2047776,47
2048408,55
2049036,51
2049652,29
2050280,12
2050900,29
2051528,62
2052156,54
2052776,15
2053404,14
2054024,12
2054652,22
2055284,44
2055900,46
2056532,56
2057152,67
2057776,77
2058404,62
2059020,43
2059652,21
2060272,19
2060896,17
2061524,10
2062144,19
2062772,18
2063400,36
2064016,50
2064644,47
2065268,48
2065896,53
2066524,43
2067144,31
2067772,18
2068396,23
2069020,29
2069648,31
2070264,32
2070892,26
2071516,15
2072140,42
2072768,48
2073388,55
2074016,75
2074644,90
2075264,84
2075892,84
2076516,82
2077144,93
2077772,114
2078444,63
2079068,54
2079692,122
2080368,128
2081040,130
2081708,84
2082324,57
2082956,32
2083576,32
2084204,51
2084824,38
2085448,13
2086076,28
2086696,34
2087324,42
2087952,23
2088572,49
2089200,56
2089820,58
2090452,95
2091080,90
2091696,56
2092324,13
2092948,48
2093572,77
2094204,50
2094824,85
2095452,85
2096076,67
2096696,54
2097324,44
2097944,46
2098572,46
2099196,51
2099824,64
2100452,50
2101076,33
2101704,27
2102332,98
2102952,120
2103632,73
2104248,16
2104872,14
2105500,54
2106120,71
2106748,47
2107372,48
2107996,58
2108624,120
2109300,104
2109976,32
2110604,18
2111224,15
2111852,15
2112476,37
2113100,15
2113728,61
2114352,74
2114980,53
2115608,44
2116232,33
2116860,12
2117484,24
2118112,13
2118740,19
2119360,25
2119988,26
2120612,47
2121236,61
2121864,46
2122488,53
2123116,65
2123740,79
2124364,81
2124996,67
2125616,53
2126244,52
2126872,53
2127492,47
2128120,31
2128744,25
2129372,34
2130004,22
2130620,41
2131252,46
2131872,48
2132496,46
2133124,63
2133744,71
2134372,66
2134996,61
2135620,56
2136252,64
2136872,108
2137552,108
2138228,83
2138848,41
2139476,80
2140100,87
2140724,89
2141352,72
2141976,62
2142604,37
2143228,20
2143856,27
2144484,33
2145108,31
2145740,31
2146368,19
2146984,42
2147616,46
2148240,46
2148868,47
2149500,26
2150120,13
2150748,11
2151372,14
2151996,14
2152624,10
2153248,18
2153876,13
2154504,20
2155128,42
2155756,64
2156380,69
2157012,81
2157640,97
2158256,103
2158940,74
2159560,38
2160184,18
2160812,11
2161428,29
2162060,74
2162684,109
2163364,100
2164040,61
2164656,49
2165280,49
2165908,56
2166528,40
2167156,26
2167780,27
2168404,27
2169032,11
2169656,29
2170284,44
2170916,40
2171536,20
2172164,47
2172788,64
2173416,76
2174048,58
2174668,40
2175296,31
2175920,56
2176544,104
2177224,106
2177892,96
2178516,72
2179148,36
2179768,32
2180396,43
2181020,91
2181644,117
2182324,144
2182996,187
2183672,243
2184352,215
2185028,127
2185704,22
2186332,36
2186952,33
2187580,50
2188204,68
2188828,105
2189508,122
2190180,84
2190804,63
2191436,58
2192056,57
2192684,55
2193308,36
2193932,15
2194560,26
2195176,62
2195808,83
2196432,59
2197056,42
2197684,46
2198304,48
2198936,48
2199564,34
2200184,23
2200812,34
2201436,51
2202068,39
2202696,12
2203320,29
2203948,35
2204572,24
2205196,43
2205828,47
2206448,58
2207076,53
2207700,59
2208324,40
2208956,42
2209576,59
2210204,45
2210836,11
2211456,11
2212084,17
2212708,15
2213340,34
2213968,43
2214584,46
2215216,51
2215840,125
2216512,146
2217192,89
2217816,44
2218444,27
2219076,34
2219696,26
2220324,14
2220948,23
2221572,31
2222204,83
2222824,108
2223504,112
2224188,97
2224808,82
2225436,62
2226060,40
2226692,14
2227320,92
2227944,95
2228572,55
2229196,68
2229820,44
2230452,38
2231072,45
2231704,52
2232332,54
2232952,18
2233580,13
2234208,12
2234836,12
2235468,10
2236088,11
2236716,17
2237344,38
2237968,63
2238600,45
2239216,44
2239848,56
2240472,54
2241096,35
2241724,11
2242344,38
2242972,75
2243604,74
2244224,49
2244852,21
2245476,26
2246104,37
2246736,31
2247352,46
2247984,45
2248608,48
2249232,44
2249860,13
2250480,41
2251108,50
2251736,26
2252360,11
2252988,29
2253604,44
2254236,31
2254864,15
2255480,62
2256108,85
2256732,94
2257360,92
2257988,53
2258608,11
2259236,12
2259860,10
2260484,15
2261112,24
2261736,24
2262368,15
2262992,20
2263616,45
2264244,42
2264864,44
2265492,46
2266124,31
2266744,17
2267372,13
2267996,12
2268628,16
2269256,26
2269880,37
2270508,35
2271132,27
2271760,37
2272388,66
2273008,67
2273636,51
2274260,47
2274884,31
2275516,32
2276136,12
2276764,24
2277396,13
2278016,14
2278648,11
2279268,16
2279900,19
2280528,56
2281152,70
2281780,49
2282404,49
2283028,58
2283660,68
2284280,54
2284908,21
2285532,27
2286156,25
2286788,30
2287408,23
2288036,15
2288668,52
2289288,61
2289916,54
2290540,58
2291172,47
2291804,43
2292424,102
2293108,166
2293788,135
2294460,96
2295084,21
2295708,110
2296384,129
2297056,86
2297680,49
2298308,94
2298940,154
2299612,142
2300288,78
2300912,49
2301536,36
2302164,15
2302792,20
2303420,39
2304052,32
2304668,13
2305296,48
2305920,55
2306548,64
2307180,60
2307800,55
2308428,37
2309052,31
2309676,48
2310304,58
2310928,53
2311556,45
2312180,12
2312804,12
2313432,40
2314060,47
2314688,46
2315316,48
2315936,48
2316564,12
2317188,15
2317820,11
2318448,31
2319068,70
2319696,72
2320320,61
2320940,50
2321572,26
2322192,40
2322820,48
2323444,46
2324068,46
2324700,34
2325320,38
2325952,45
2326580,40
2327200,21
2327828,13
2328452,11
2329084,21
2329712,17
2330336,44
2330964,43
2331588,45
2332212,46
2332840,24
2333464,13
2334092,14
2334716,19
2335344,11
2335972,22
2336600,27
2337228,30
2337860,42
2338480,42
2339108,53
2339732,72
2340360,84
2340988,94
2341608,96
2342236,115
2342920,119
2343588,94
2344216,77
2344840,39
2345468,47
2346100,38
2346720,65
2347348,97
2347976,160
2348652,204
2349332,102
2350004,47
2350624,15
2351256,18
2351872,33
2352504,21
2353128,22
2353752,26
2354384,28
2355000,41
2355632,43
2356264,50
2356880,49
2357508,55
2358132,29
2358764,13
2359392,22
2360016,36
2360644,17
2361268,20
2361892,38
2362524,32
2363144,39
2363776,52
2364400,51
2365024,52
2365652,51
2366276,27
2366908,22
2367536,15
2368160,27
2368788,44
2369412,62
2370044,72
2370672,48
2371288,29
2371920,45
2372544,59
2373168,72
2373796,51
2374416,39
2375044,37
2375668,65
2376296,58
2376924,55
2377548,45
2378180,37
2378808,10
2379432,11
2380064,42
2380688,57
2381316,51
2381948,44
2382568,49
2383196,19
2383824,11
2384448,15
2385076,24
2385696,57
2386324,84
2386956,80
2387576,49
2388204,17
2388828,53
2389460,53
2390088,53
2390712,59
2391344,73
2391968,71
2392592,66
2393224,33
2393844,27
2394472,48
2395096,68
2395720,58
2396352,46
2396968,49
2397600,48
2398228,49
2398848,53
2399480,29
2400104,87
2400732,147
2401412,156
2402084,128
2402760,83
2403384,56
2404000,25
2404632,28
2405256,45
2405884,60
2406516,64
2407136,59
2407764,43
2408388,15
2409012,28
2409640,15
2410256,45
2410884,81
2411508,74
2412136,62
2412764,34
2413388,51
2414020,114
2414704,129
2415372,68
2416000,48
2416620,42
2417244,61
2417876,29
2418500,13
2419132,11
2419760,19
2420384,15
2421012,43
2421636,40
2422268,53
2422900,83
2423520,63
2424148,56
2424776,21
2425400,13
2426028,37
2426648,21
2427276,12
2427900,11
2428528,11
2429156,29
2429784,28
2430412,39
2431044,48
2431664,48
2432296,48
2432920,19
2433540,11
2434172,10
2434792,9
2435372,15
2436000,25
2436624,36
2437252,20
2437872,15
2438500,47
2439124,69
2439748,67
2440380,52
2441000,49
2441628,11
2442260,14
2442880,15
2443508,17
2444132,17
2444764,15
2445396,25
2446016,15
2446648,45
2447272,65
2447896,57
2448528,53
2449144,53
2449772,13
2450400,36
2451024,31
2451652,11
2452272,24
2452904,36
2453532,41
2454152,51
2454784,74
2455408,50
2456040,48
2456668,49
2457288,50
2457920,29
2458540,43
2459164,42
2459792,44
2460416,35
2461044,16
2461668,17
2462292,47
2462920,47
2463536,44
2464168,45
2464796,50
2465416,48
2466044,41
2466668,11
2467296,17
2467924,30
2468544,45
2469172,42
2469796,17
2470420,69
2471048,103
2471716,48
2472340,49
2472972,70
2473592,61
2474220,66
2474844,105
2475528,113
2476204,63
2476824,29
2477452,45
2478076,48
2478704,18
2479332,32
2479960,28
2480588,37
2481220,50
2481840,46
2482468,52
2483092,46
2483720,45
2484348,41
2484968,46
2485596,48
2486220,23
2486844,17
2487472,30
2488096,25
2488724,41
2489356,48
2489976,50
2490604,53
2491228,43
2491860,38
2492488,42
2493108,40
2493736,29
2494360,36
2494988,11
2495616,20
2496236,25
2496864,50
2497488,58
2498112,58
2498740,46
2499360,47
2499988,27
2500616,22
2501240,42
2501868,71
2502492,67
2503124,41
2503752,45
2504372,101
2505052,75
2505672,58
2506296,115
2506976,82
2507600,64
2508228,18
2508860,22
2509480,16
2510108,14
2510732,57
2511364,59
2511992,89
2512612,112
2513292,108
2513968,79
2514592,67
2515220,48
2515844,51
2516476,101
2517160,151
2517828,142
2518508,74
2519136,35
2519752,30
2520384,36
2521008,103
2521684,139
2522360,94
2522976,87
2523604,52
2524236,56
2524856,74
2525484,79
2526108,80
2526736,59
2527364,11
2527984,26
2528616,31
2529240,11
2529864,45
2530492,76
2531112,68
2531744,56
2532376,51
2532992,80
2533624,51
2534248,27
2534880,57
2535508,24
2536128,12
2536756,27
2537384,13
2538008,16
2538640,46
2539256,45
2539888,68
2540512,67
2541136,35
2541764,24
2542384,13
2543016,46
2543644,13
2544264,40
2544892,46
2545516,40
2546148,29
2546780,42
2547400,46
2548028,48
2548652,48
2549276,49
2549908,44
2550528,38
2551160,33
2551784,12
2552408,16
2553036,14
2553656,16
2554288,21
2554920,34
2555536,46
2556168,49
2556792,63
2557424,77
2558056,84
2558676,58
2559308,27
2559932,22
2560560,19
2561188,18
2561808,26
2562436,27
2563056,13
2563680,49
2564308,56
2564932,50
2565560,51
2566188,35
2566808,36
2567436,33
2568060,63
2568688,61
2569316,52
2569936,87
2570564,56
2571188,37
2571812,47
2572440,63
2573056,77
2573688,75
2574308,63
2574932,50
2575564,42
2576184,40
2576812,19
2577440,15
2578056,10
2578688,32
2579312,37
2579940,24
2580572,44
2581192,48
2581820,49
2582444,61
2583064,30
2583696,39
2584312,79
2584940,113
2585624,99
2586236,30
2586868,68
2587492,165
2588172,157
2588848,67
2589464,60
2590092,50
2590716,47
2591344,26
2591972,58
2592600,68
2593228,51
2593856,46
2594480,23
2595108,19
2595732,36
2596360,23
2596988,40
2597608,47
2598236,51
2598860,48
2599484,21
2600116,12
2600736,28
2601364,12
2601996,35
2602616,20
2603244,42
2603868,34
2604500,18
2605128,59
2605744,117
2606428,140
2607100,90
2607720,36
2608348,57
2608972,47
2609604,13
2610232,15
2610852,62
2611480,55
2612104,38
2612736,45
2613364,33
2613984,45
2614612,47
2615236,47
2615860,47
2616492,10
2617112,33
2617740,54
2618364,36
2618992,48
2619620,47
2620244,48
2620876,61
2621504,28
2622128,62
2622756,72
2623380,62
2624004,60
2624632,75
2625248,94
2625876,103
2626552,70
2627168,34
2627796,33
2628420,16
2629048,19
2629676,16
2630296,40
2630924,44
2631548,53
2632176,47
2632804,39
2633424,24
2634052,14
2634676,33
2635300,29
2635928,27
2636544,29
2637172,29
2637796,61
2638420,62
2639048,59
2639664,88
2640296,73
2640924,60
2641544,52
2642172,42
2642792,35
2643424,32
2644052,19
2644672,35
2645300,11
2645920,29
2646544,17
2647172,52
2647792,56
2648420,52
2649044,49
2649664,48
2650292,45
2650912,37
2651540,37
2652168,32
2652792,39
2653420,49
2654044,18
2654672,13
2655304,45
2655920,90
2656552,94
2657176,78
2657800,25
2658428,16
2659048,32
2659676,82
2660300,41
2660924,21
2661552,27
2662176,13
2662804,27
2663432,54
2664056,45
2664684,65
2665304,53
2665932,50
2666560,33
2667176,16
2667804,14
2668428,79
2669056,93
2669684,81
2670304,83
2670932,64
2671556,29
2672180,48
2672808,51
2673424,59
2674052,65
2674676,68
2675300,80
2675928,37
2676552,41
2677180,35
2677808,17
2678432,11
2679060,11
2679684,16
2680312,49
2680940,47
2681560,55
2682188,63
2682812,37
2683436,64
2684068,34
2684688,29
2685316,43
2685940,15
2686564,25
2687192,20
2687816,22
2688448,43
2689076,58
2689696,50
2690324,47
2690944,47
2691576,40
2692204,80
2692824,96
2693452,114
2694128,123
2694796,70
2695420,17
2696044,21
2696672,38
2697300,51
2697920,47
2698548,48
2699172,78
2699796,191
2700476,168
2701148,116
2701824,63
2702452,23
2703072,39
2703700,29
2704324,31
2704948,74
2705576,50
2706196,49
2706824,49
2707448,53
2708068,28
2708700,13
2709324,47
2709952,71
2710580,59
2711200,64
2711828,81
2712452,80
2713084,64
2713712,47
2714336,45
2714964,47
2715588,50
2716212,38
2716840,67
2717456,56
2718088,19
2718708,10
2719336,17
2719964,62
2720588,76
2721220,60
2721848,45
2722464,55
2723092,59
2723716,54
2724348,70
2724976,54
2725592,39
2726220,52
2726844,57
2727468,67
2728096,44
2728720,41
2729348,59
2729972,56
2730596,47
2731224,49
2731848,51
2732476,69
2733108,40
2733728,11
2734356,20
2734980,17
2735612,11
2736240,50
2736864,24
2737492,28
2738116,37
2738740,42
2739368,47
2739992,51
2740620,48
2741244,34
2741872,42
2742500,80
2743124,114
2743808,53
2744432,28
2745048,21
2745676,11
2746300,21
2746924,52
2747552,54
2748168,48
2748800,54
2749424,81
2750048,145
2750728,167
2751396,109
2752068,55
2752692,30
2753312,35
2753940,31
2754568,18
2755192,49
2755820,72
2756444,66
2757076,62
2757704,69
2758328,71
2758960,74
2759584,52
2760208,39
2760836,34
2761456,38
2762084,17
2762708,27
2763332,38
2763964,46
2764584,54
2765216,47
2765844,54
2766464,41
2767092,14
2767716,11
2768344,22
2768972,36
2769592,20
2770220,21
2770844,44
2771468,97
2772100,146
2772772,125
2773448,62
2774076,63
2774696,84
2775324,27
2775948,30
2776580,39
2777212,10
2777832,20
2778460,20
2779084,49
2779708,53
2780340,41
2780960,49
2781588,51
2782220,50
2782840,22
2783468,17
2784096,15
2784724,16
2785352,20
2785976,39
2786604,53
2787228,27
2787852,14
2788480,53
2789096,61
2789724,49
2790348,47
2790976,43
2791604,61
2792224,88
2792852,53
2793484,22
2794104,14
2794732,11
2795356,16
2795988,12
2796620,50
2797240,67
2797868,57
2798492,56
2799116,59
2799748,24
2800368,35
2800996,58
2801620,13
2802244,103
2802924,156
2803596,122
2804272,88
2804900,49
2805520,52
2806148,58
2806772,55
2807396,54
2808028,34
2808648,67
2809280,83
2809908,64
2810528,36
2811156,35
2811784,12
2812412,16
2813044,14
2813664,43
2814292,50
2814920,46
2815544,48
2816172,21
2816788,51
2817420,52
2818044,30
2818664,19
2819292,51
2819916,58
2820548,21
2821176,16
2821792,44
2822420,57
2823044,74
2823672,64
2824304,57
2824920,16
2825552,9
2826124,11
2826756,11
2827388,14
2828008,19
2828636,19
2829260,21
2829884,27
2830512,41
2831136,49
2831764,53
2832396,50
2833016,22
2833644,13
2834268,13
2834896,14
2835528,13
2836144,11
2836772,13
2837396,13
2838024,16
2838652,57
2839272,115
2839952,131
2840636,104
2841308,87
2841932,81
2842556,68
2843180,20
2843812,50
2844432,115
2845112,170
2845796,205
2846468,137
2847148,54
2847776,46
2848392,48
2849020,56
2849644,64
2850272,77
2850904,58
2851520,25
2852152,20
2852776,71
2853400,125
2854080,113
2854756,44
2855380,53
2856012,82
2856632,71
2857264,71
2857888,68
2858512,66
2859140,80
2859760,83
2860388,56
2861016,19
2861640,15
2862268,26
2862888,13
2863516,44
2864148,59
2864768,56
2865396,54
2866024,59
2866652,44
2867284,32
2867900,43
2868532,35
2869152,41
2869776,18
2870404,20
2871024,39
2871652,59
2872276,90
2872900,95
2873528,61
2874152,50
2874780,28
2875412,46
2876032,52
2876660,56
2877284,22
2877916,14
2878544,23
2879168,33
2879800,18
2880424,41
2881044,49
2881672,50
2882296,51
2882924,45
2883544,34
2884168,12
2884796,30
2885416,32
2886044,11
2886676,32
2887296,34
2887924,22
2888548,48
2889176,67
2889804,69
2890424,50
2891052,39
2891676,33
2892300,24
2892928,26
2893544,44
2894172,33
2894796,12
2895420,12
2896048,27
2896664,44
2897292,43
2897916,59
2898544,62
2899172,50
2899796,34
2900428,50
2901056,21
2901680,17
2902308,11
2902936,27
2903560,36
2904188,32
2904808,17
2905436,81
2906060,104
2906736,80
2907364,75
2907992,83
2908620,14
2909252,66
2909872,52
2910500,45
2911124,42
2911752,76
2912380,75
2913000,37
2913628,41
2914252,52
2914876,48
2915508,48
2916128,22
2916756,11
2917388,14
2918008,18
2918636,23
2919260,24
2919892,16
2920520,12
2921136,13
2921768,49
2922392,60
2923016,60
2923644,58
2924264,53
2924892,11
2925516,20
2926140,38
2926772,12
2927392,57
2928024,67
2928652,73
2929272,73
2929900,35
2930524,44
2931156,51
2931788,68
2932408,64
2933036,29
2933664,23
2934288,30
2934916,26
2935536,15
2936168,21
2936792,25
2937416,31
2938048,34
2938664,48
2939296,88
2939924,102
2940596,76
2941224,41
2941848,16
2942472,12
2943104,10
2943720,19
2944352,15
2944976,21
2945600,65
2946228,58
2946848,40
2947476,42
2948108,44
2948728,47
2949356,34
2949980,18
2950612,24
2951240,20
2951856,11
2952484,15
2953108,42
2953736,47
2954364,18
2954984,48
2955612,103
2956296,118
2956964,58
2957588,59
2958212,71
2958844,82
2959472,58
2960096,13
2960724,55
2961348,46
2961972,75
2962600,99
2963216,52
2963848,49
2964468,62
2965092,59
2965724,52
2966348,41
2966980,37
2967608,18
2968232,15
2968860,13
2969484,21
2970116,25
2970744,15
2971368,18
2971996,53
2972620,65
2973244,65
2973876,50
2974496,47
2975124,61
2975756,84
2976376,78
2977004,63
2977628,16
2978256,32
2978884,32
2979504,35
2980132,38
2980756,45
2981384,55
2982012,50
2982632,45
2983260,16
2983884,13
2984508,22
2985140,18
2985760,22
2986388,41
2987020,36
2987640,25
2988268,32
2988892,48
2989524,47
2990152,50
2990776,49
2991404,20
2992028,56
2992652,96
2993280,66
2993904,29
2994532,11
2995160,27
2995784,29
2996412,21
2997032,45
2997660,59
2998292,64
2998912,73
2999544,53
3000168,29
3000796,72
3001428,44
3002048,13
3002676,54
3003304,63
3003928,29
3004556,15
3005176,52
3005808,68
3006432,73
3007056,69
3007684,64
3008304,59
3008932,66
3009564,66
3010184,23
3010816,19
3011436,64
3012068,59
3012700,36
3013320,44
3013948,56
3014576,50
3015200,48
3015828,52
3016448,41
3017076,17
3017704,43
3018328,64
3018956,23
3019576,16
3020208,30
3020836,54
3021456,66
3022084,47
3022708,48
3023340,49
3023972,48
3024592,30
3025224,24
3025848,27
3026472,45
3027104,49
3027720,23
3028352,43
3028976,83
3029600,60
3030232,45
3030856,45
3031488,49
3032116,54
3032736,35
3033368,14
3033992,28
3034620,76
3035252,74
3035872,33
3036504,17
3037128,33
3037752,66
3038384,47
3039004,50
3039632,51
3040264,58
3040888,51
3041516,24
3042140,33
3042772,55
3043404,80
3044024,64
3044652,47
3045276,21
3045900,59
3046532,34
3047152,43
3047784,61
3048408,82
3049032,88
3049660,63
3050280,42
3050908,16
3051540,24
3052160,23
3052788,35
3053416,29
3054044,20
3054676,20
3055296,54
3055928,52
3056552,57
3057176,61
3057808,48
3058424,41
3059056,67
3059680,73
3060304,47
3060936,23
3061552,11
3062184,29
3062816,35
3063432,45
3064064,45
3064688,46
3065320,50
3065948,44
3066568,12
3067200,16
3067824,13
3068448,10
3069080,20
3069700,32
3070332,59
3070956,37
3071584,28
3072216,58
3072836,78
3073468,75
3074096,78
3074712,57
3075344,56
3075968,47
3076596,31
3077224,25
3077848,40
3078476,17
3079100,33
3079724,27
3080352,39
3080972,46
3081600,55
3082224,65
3082848,51
3083476,32
3084100,47
3084728,55
3085360,29
3085976,11
3086608,17
3087232,24
3087860,15
3088492,49
3089112,65
3089740,55
3090368,52
3090992,53
3091620,91
3092240,78
3092868,50
3093492,53
3094116,36
3094748,31
3095372,31
3096000,31
3096632,65
3097248,87
3097880,78
3098504,73
3099132,57
3099764,12
3100384,18
3101012,87
3101640,154
3102316,92
3102944,23
3103568,15
3104200,13
3104828,14
3105448,71
3106076,80
3106700,67
3107332,59
3107964,54
3108584,75
3109216,86
3109840,76
3110464,39
3111092,13
3111712,12
3112344,15
3112972,39
3113592,45
3114220,44
3114848,47
3115476,49
3116108,35
3116728,37
3117360,12
3117984,16
3118608,11
3119236,14
3119856,18
3120488,13
3121112,15
3121736,45
3122364,47
3122984,47
3123616,49
3124244,46
3124864,21
3125492,47
3126116,87
3126748,73
3127376,32
3127996,23
3128624,10
3129248,19
3129872,39
3130504,45
3131124,57
3131752,59
3132376,56
3133004,44
3133632,27
3134256,13
3134884,11
3135516,28
3136136,15
3136764,16
3137388,14
3138020,23
3138648,81
3139268,110
3139948,82
3140568,61
3141192,36
3141824,28
3142440,48
3143068,55
3143700,13
3144320,51
3144948,69
3145572,60
3146204,45
3146836,56
3147456,63
3148088,61
3148712,53
3149336,32
3149968,17
3150588,11
3151216,19
3151844,41
3152468,61
3153096,45
3153720,15
3154352,21
3154980,55
3155600,91
3156228,93
3156856,92
3157484,65
3158116,37
3158736,38
3159368,15
3159992,19
3160616,69
3161248,62
3161864,37
3162496,16
3163120,18
3163744,43
3164376,47
3165000,50
3165632,49
3166260,21
3166880,25
3167508,29
3168136,11
3168764,12
3169396,13
3170016,13
3170648,15
3171272,16
3171896,81
3172528,95
3173144,72
3173776,61
3174408,72
3175024,91
3175656,64
3176280,33
3176908,14
3177540,14
3178160,19
3178792,52
3179416,55
3180040,45
3180672,47
3181288,48
3181916,50
3182544,50
3183168,17
3183800,46
3184420,18
3185048,23
3185680,12
3186300,29
3186928,39
3187556,46
3188184,51
3188816,95
3189436,137
3190120,91
3190736,59
3191364,23
3191992,86
3192620,81
3193248,62
3193880,72
3194504,43
3195136,36
3195760,57
3196392,49
3197024,46
3197640,45
3198272,50
3198896,47
3199524,40
3200156,70
3200776,74
3201404,123
3202084,152
3202756,91
3203380,38
3204004,21
3204624,59
3205256,116
3205924,145
3206600,108
3207276,67
3207896,83
3208524,98
3209148,59
3209772,31
3210400,19
3211016,19
3211644,11
3212268,37
3212892,23
3213520,42
3214144,44
3214772,48
3215404,46
3216024,27
3216652,10
3217276,10
3217904,11
3218532,16
3219152,34
3219784,45
3220408,45
3221028,33
3221660,44
3222280,57
3222908,66
3223536,59
3224160,54
3224788,27
3225412,30
3226044,39
3226672,36
3227296,25
3227924,22
3228548,12
3229176,19
3229808,17
3230424,40
3231056,46
3231680,51
3232304,49
3232932,36
3233552,53
3234180,39
3234808,16
3235432,11
3236060,11
3236684,31
3237312,31
3237944,21
3238560,80
3239188,83
3239816,55
3240444,51
3241076,29
3241696,52
3242324,47
3242948,37
3243572,14
3244204,14
3244824,19
3245452,34
3246076,30
3246704,44
3247332,43
3247960,47
3248588,46
3249220,47
3249840,21
3250468,11
3251092,19
3251720,25
3252348,10
3252968,22
3253596,22
3254224,27
3254848,23
3255476,56
3256096,61
3256728,66
3257356,59
3257976,30
3258604,37
3259228,44
3259860,36
3260488,11
3261112,33
3261744,51
3262368,59
3262992,40
3263624,43
3264240,43
3264872,49
3265496,47
3266120,24
3266748,31
3267368,43
3267996,30
3268628,26
3269248,13
3269876,14
3270504,12
3271132,15
3271764,70
3272384,111
3273068,112
3273748,117
3274420,141
3275100,179
3275772,194
3276452,116
3277132,18
3277748,22
3278372,115
3279052,192
3279724,176
3280400,229
3281072,289
3281748,226
3282424,119
3283096,46
3283720,21
3284348,12
3284968,25
3285592,17
3286220,35
3286840,37
3287468,16
3288096,23
3288712,68
3289340,92
3289964,105
3290644,108
3291320,101
3291988,88
3292612,101
3293296,101
3293964,70
3294588,29
3295212,27
3295836,27
3296464,18
3297088,40
3297716,48
3298344,57
3298960,82
3299588,84
3300212,77
3300840,32
3301468,11
3302088,13
3302716,14
3303340,12
3303960,41
3304592,90
3305208,118
3305888,106
3306564,88
3307184,76
3307812,30
3308436,13
3309060,36
3309692,45
3310312,22
3310940,16
3311564,13
3312188,17
3312816,14
3313440,45
3314068,48
3314696,49
3315320,49
3315948,40
3316572,24
3317204,11
3317832,29
3318448,37
3319080,15
3319700,24
3320324,33
3320956,28
3321576,32
3322204,59
3322828,65
3323452,64
3324084,66
3324704,59
3325332,74
3325964,52
3326584,43
3327212,20
3327836,13
3328468,23
3329096,35
3329720,18
3330348,39
3330968,48
3331592,53
3332220,52
3332840,34
3333468,24
3334092,22
3334712,27
3335344,32
3335960,32
3336588,36
3337212,18
3337840,17
3338468,67
3339092,82
3339720,49
3340348,51
3340968,40
3341596,31
3342220,68
3342848,60
3343476,18
3344096,35
3344724,31
3345348,31
3345968,40
3346600,36
3347216,47
3347844,50
3348468,49
3349092,47
3349720,23
3350344,15
3350972,12
3351604,10
3352224,23
3352852,26
3353476,26
3354108,18
3354736,17
3355360,65
3355988,81
3356612,76
3357236,55
3357868,24
3358488,11
3359116,29
3359740,32
3360368,29
3360996,34
3361620,28
3362248,17
3362876,39
3363496,57
3364124,60
3364748,73
3365376,67
3366004,42
3366624,11
3367252,34
3367876,71
3368500,83
3369128,102
3369796,143
3370472,143
3371148,99
3371768,46
3372396,57
3373020,78
3373644,124
3374324,133
3374996,93
3375620,82
3376248,40
3376864,18
3377496,32
3378120,12
3378744,31
3379372,24
3379988,43
3380620,46
3381240,46
3381864,49
3382492,60
3383116,78
3383744,53
3384372,23
3384992,13
3385620,22
3386240,30
3386872,47
3387500,59
3388120,46
3388748,48
3389372,65
3389996,94
3390628,102
3391300,83
3391924,81
3392556,82
3393176,50
3393804,25
3394428,18
3395056,14
3395684,18
3396304,23
3396932,43
3397556,50
3398180,54
3398812,48
3399432,21
3400060,34
3400684,56
3401308,33
3401936,14
3402552,11
3403184,18
3403812,17
3404432,17
3405060,48
3405684,62
3406312,69
3406940,88
3407560,75
3408188,51
3408812,58
3409436,49
3410064,34
3410680,15
3411312,26
3411932,86
3412556,102
3413240,60
3413856,41
3414484,54
3415116,52
3415736,49
3416364,19
3416988,15
3417612,11
3418244,18
3418864,32
3419492,31
3420120,26
3420744,29
3421372,23
3421992,45
3422624,58
3423252,58
3423872,56
3424504,61
3425128,51
3425756,50
3426388,54
3427008,33
3427640,21
3428264,16
3428888,11
3429516,31
3430136,66
3430768,68
3431388,50
3432012,75
3432644,68
3433264,40
3433892,11
3434524,11
3435144,48
3435776,71
3436400,70
3437028,39
3437660,24
3438280,45
3438908,91
3439536,56
3440160,50
3440788,48
3441408,41
3442036,37
3442660,19
3443284,27
3443912,54
3444528,53
3445156,54
3445788,38
3446408,19
3447036,47
3447660,52
3448292,48
3448920,48
3449536,24
3450168,13
3450792,12
3451416,18
3452044,14
3452664,25
3453292,24
3453916,20
3454544,21
3455172,46
3455792,71
3456424,83
3457052,62
3457672,49
3458300,56
3458924,44
3459552,24
3460184,11
3460800,19
3461428,50
3462052,88
3462676,68
3463304,40
3463928,54
3464556,91
3465180,127
3465856,110
3466532,53
3467152,32
3467784,12
3468412,21
3469032,67
3469660,105
3470344,105
3471012,70
3471640,47
3472264,47
3472892,48
3473520,46
3474144,47
3474772,34
3475400,59
3476024,43
3476652,14
3477272,56
3477904,61
3478532,39
3479152,12
3479784,35
3480408,52
3481036,59
3481668,82
3482284,83
3482916,24
3483536,11
3484164,13
3484792,10
3485416,16
3486044,16
3486668,15
3487292,30
3487924,22
3488544,51
3489172,73
3489804,57
3490424,54
3491052,36
3491676,12
3492308,16
3492936,12
3493552,11
3494184,11
3494808,17
3495432,46
3496060,53
3496680,45
3497308,47
3497932,51
3498556,49
3499188,44
3499808,26
3500436,52
3501068,44
3501688,22
3502316,12
3502944,36
3503572,44
3504204,35
3504824,25
3505452,47
3506076,65
3506700,55
3507332,50
3507952,13
3508580,15
3509204,14
3509828,15
3510460,14
3511080,12
3511712,13
3512340,19
3512960,70
3513588,131
3514268,156
3514940,86
3515568,49
3516184,33
3516816,50
3517440,40
3518064,42
3518696,97
3519320,140
3520004,106
3520680,74
3521296,35
3521924,65
3522548,96
3523172,90
3523804,49
3524424,69
3525056,49
3525684,20
3526304,52
3526932,37
3527556,21
3528188,25
3528816,11
3529440,16
3530068,57
3530692,55
3531316,52
3531948,48
3532568,38
3533200,43
3533820,20
3534448,44
3535076,39
3535700,44
3536332,80
3536960,96
3537576,71
3538208,52
3538832,47
3539460,49
3540092,49
3540712,54
3541340,65
3541964,69
3542592,77
3543220,79
3543840,60
3544468,35
3545100,30
3545720,72
3546348,87
3546972,53
3547604,48
3548232,51
3548852,51
3549480,31
3550104,13
3550728,43
3551356,68
3551976,24
3552608,22
3553232,55
3553856,64
3554484,64
3555104,44
3555736,87
3556364,100
3557036,68
3557664,68
3558288,87
3558920,102
3559600,81
3560216,47
3560844,28
3561468,13
3562096,34
3562724,37
3563352,42
3563980,45
3564612,52
3565232,63
3565860,46
3566484,12
3567108,18
3567740,14
3568360,21
3568988,11
3569612,21
3570236,28
3570868,19
3571488,26
3572116,60
3572748,62
3573368,50
3574000,52
3574624,64
3575252,28
3575884,40
3576504,51
3577136,21
3577760,52
3578384,137
3579068,104
3579740,33
3580368,75
3581000,87
3581616,78
3582248,70
3582872,35
3583496,25
3584128,36
3584752,33
3585380,11
3586004,41
3586624,97
3587256,111
3587924,78
3588548,41
3589180,64
3589800,76
3590428,82
3591052,90
3591684,77
3592312,49
3592928,45
3593560,31
3594184,11
3594808,21
3595436,45
3596056,50
3596684,41
3597312,43
3597936,45
3598564,53
3599192,43
3599820,31
3600452,22
3601072,21
3601700,29
3602324,61
3602952,88
3603580,99
3604200,85
3604828,33
3605452,79
3606076,95
3606704,115
3607376,132
3608048,123
3608724,93
3609344,29
3609972,13
3610596,10
3611220,15
3611848,33
3612464,12
3613096,24
3613724,38
3614344,55
3614972,56
3615596,60
3616228,74
3616856,67
3617480,36
3618108,14
3618732,34
3619356,19
3619984,14
3620608,14
3621236,15
3621860,55
3622484,63
3623112,63
3623736,53
3624364,49
3624996,63
3625616,91
3626244,88
3626868,38
3627496,19
3628128,37
3628744,62
3629376,66
3630000,50
3630624,45
3631252,48
3631872,49
3632504,45
3633128,14
3633752,21
3634384,21
3635000,15
3635632,18
3636260,43
3636880,53
3637508,40
3638132,30
3638764,105
3639444,104
3640116,57
3640740,52
3641372,12
3641992,22
3642620,35
3643244,25
3643876,45
3644508,50
3645128,49
3645756,50
3646384,27
3647008,44
3647636,45
3648256,51
3648884,48
3649508,15
3650132,11
3650760,17
3651380,26
3652008,29
3652636,26
3653256,38
3653884,37
3654508,15
3655140,54
3655772,101
3656444,96
3657068,54
3657692,63
3658316,56
3658948,12
3659568,11
3660196,33
3660828,56
3661448,18
3662076,28
3662700,26
3663332,40
3663964,48
3664584,57
3665212,54
3665840,47
3666464,29
3667092,16
3667712,14
3668340,20
3668964,54
3669588,53
3670220,37
3670840,32
3671472,25
3672100,56
3672720,67
3673352,72
3673976,70
3674608,61
3675236,59
3675856,53
3676488,47
3677112,31
3677736,29
3678368,25
3678984,14
3679616,17
3680240,38
3680864,56
3681492,63
3682116,79
3682748,85
3683380,48
3684000,15
3684628,13
3685256,17
3685884,37
3686516,45
3687136,35
3687764,22
3688384,49
3689008,57
3689636,56
3690256,60
3690884,58
3691508,58
3692132,64
3692760,61
3693384,37
3694012,18
3694644,12
3695264,22
3695892,28
3696516,33
3697148,46
3697776,53
3698396,52
3699024,51
3699648,22
3700272,12
3700900,22
3701520,21
3702148,12
3702772,12
3703400,25
3704028,66
3704652,57
3705284,53
3705912,108
3706584,84
3707208,49
3707832,80
3708456,81
3709084,50
3709704,51
3710336,25
3710960,11
3711584,49
3712216,93
3712840,59
3713468,42
3714096,62
3714716,87
3715344,63
3715968,54
3716596,65
3717228,42
3717848,19
3718476,11
3719100,10
3719724,16
3720356,16
3720976,17
3721604,45
3722228,59
3722852,56
3723484,56
3724108,58
3724740,59
3725368,62
3725992,61
3726624,41
3727248,21
3727876,21
3728508,16
3729128,58
3729756,50
3730380,39
3731004,47
3731636,50
3732256,51
3732884,20
3733516,10
3734136,14
3734768,24
3735392,36
3736020,34
3736652,68
3737272,79
3737904,53
3738528,44
3739152,60
3739780,65
3740400,64
3741028,57
3741656,55
3742280,62
3742908,64
3743528,41
3744160,21
3744788,10
3745408,26
3746036,27
3746660,43
3747292,47
3747924,48
3748544,49
3749172,44
3749796,31
3750424,21
3751052,16
3751672,13
3752304,25
3752928,37
3753552,40
3754184,35
3754804,31
3755432,56
3756064,67
3756684,88
3757316,114
3757992,139
3758664,135
3759340,93
3759960,22
3760592,10
3761224,22
3761844,18
3762472,11
3763100,23
3763724,45
3764356,85
3764976,108
3765656,98
3766288,94
3766904,76
3767536,64
3768164,70
3768792,64
3769424,26
3770044,20
3770672,32
3771296,35
3771920,99
3772552,78
3773168,58
3773800,49
3774424,28
3775048,12
3775680,56
3776296,62
3776924,23
3777556,10
3778176,25
3778804,58
3779432,39
3780060,44
3780692,50
3781312,53
3781944,50
3782568,32
3783192,15
3783824,19
3784440,21
3785068,18
3785692,23
3786320,21
3786948,11
3787568,19
3788200,41
3788828,65
3789448,46
3790076,46
3790700,50
3791332,37
3791960,42
3792584,24
3793212,11
3793840,17
3794464,12
3795092,33
3795712,54
3796344,33
3796968,42
3797592,50
3798224,49
3798844,50
3799472,28
3800104,27
3800724,21
3801352,14
3801980,14
3802608,25
3803236,38
3803856,34
3804488,21
3805112,50
3805736,61
3806368,62
3806988,55
3807616,60
3808244,60
3808868,58
3809496,46
3810120,13
3810752,11
3811384,11
3812000,14
3812628,14
3813256,42
3813884,45
3814516,48
3815136,48
3815768,47
3816392,17
3817016,15
3817648,12
3818264,12
3818892,13
3819520,16
3820144,25
3820776,27
3821400,17
3822032,64
3822664,85
3823280,79
3823912,71
3824536,14
3825164,13
3825796,42
3826416,17
3827048,19
3827672,15
3828296,39
3828928,46
3829544,26
3830176,42
3830808,44
3831428,51
3832060,46
3832684,25
3833316,28
3833948,51
3834568,66
3835200,73
3835824,56
3836448,15
3837080,14
3837704,24
3838336,46
3838964,53
3839592,50
3840224,49
3840844,44
3841476,33
3842104,61
3842720,50
3843352,13
3843976,70
3844604,81
3845236,108
3845908,143
3846584,88
3847212,54
3847832,53
3848464,47
3849084,45
3849716,12
3850348,28
3850968,47
3851596,42
3852220,16
3852844,22
3853472,36
3854092,44
3854720,19
3855344,63
3855968,66
3856596,84
3857220,92
3857852,104
3858532,115
3859204,109
3859880,68
3860504,30
3861120,19
3861752,19
3862376,45
3863004,53
3863636,60
3864256,63
3864884,67
3865512,62
3866136,37
3866764,38
3867384,20
3868012,24
3868636,35
3869264,36
3869892,50
3870512,52
3871144,45
3871772,42
3872392,45
3873020,48
3873644,55
3874276,60
3874904,66
3875528,74
3876160,67
3876780,31
3877408,17
3878036,13
3878656,19
3879284,21
3879908,42
3880536,45
3881164,47
3881784,50
3882412,50
3883044,28
3883664,20
3884292,14
3884920,11
3885548,21
3886180,28
3886800,32
3887428,29
3888056,18
3888680,57
3889308,58
3889928,67
3890560,66
3891184,51
3891808,44
3892440,41
3893064,34
3893692,18
3894324,20
3894944,20
3895572,11
3896200,17
3896828,51
3897460,51
3898080,47
3898708,47
3899332,22
3899960,31
3900588,49
3901208,14
3901840,66
3902468,98
3903088,91
3903720,85
3904344,75
3904972,46
3905604,65
3906224,68
3906856,57
3907480,56
3908104,47
3908732,35
3909352,13
3909984,27
3910608,25
3911232,12
3911864,13
3912480,11
3913108,52
3913740,48
3914360,64
3914992,70
3915616,67
3916248,69
3916876,46
3917496,15
3918124,29
3918752,52
3919376,63
3920008,56
3920624,81
3921256,119
3921936,159
3922612,135
3923292,94
3923912,59
3924536,15
3925164,30
3925784,50
3926416,43
3927044,52
3927664,78
3928296,130
3928972,178
3929652,106
3930328,40
3930952,57
3931584,56
3932216,59
3932832,31
3933460,10
3934084,21
3934712,12
3935344,10
3935964,10
3936596,33
3937220,58
3937844,65
3938472,43
3939088,69
3939720,66
3940344,47
3940968,24
3941596,11
3942224,23
3942852,34
3943484,12
3944104,24
3944732,27
3945356,31
3945988,17
3946616,45
3947236,48
3947864,49
3948488,50
3949112,62
3949740,53
3950360,35
3950992,19
3951620,10
3952240,21
3952868,31
3953492,24
3954124,20
3954752,26
3955376,66
3956004,86
3956628,94
3957256,92
3957884,63
3958504,53
3959132,56
3959760,44
3960384,18
3961012,10
3961632,25
3962260,33
3962892,20
3963512,41
3964144,47
3964768,49
3965400,52
3966028,46
3966648,31
3967280,11
3967904,11
3968528,33
3969160,43
3969776,39
3970404,36
3971028,39
3971656,44
3972284,54
3972904,54
3973536,57
3974164,64
3974784,67
3975412,48
3976036,33
3976668,31
3977296,20
3977920,11
3978548,11
3979172,15
3979800,44
3980428,44
3981048,51
3981676,50
3982300,52
3982928,37
3983556,24
3984176,24
3984804,15
3985436,26
3986056,24
3986684,29
3987312,22
3987940,25
3988572,56
3989192,57
3989824,59
3990448,49
3991072,51
3991704,69
3992320,30
3992952,14
3993576,21
3994204,12
3994836,10
3995460,10
3996088,36
3996720,70
3997340,69
3997968,57
3998596,48
3999224,28
3999856,21
4000476,31
4001104,25
4001728,26
4002352,58
4002980,66
4003600,53
4004228,69
4004852,54
4005476,53
4006104,78
4006728,118
4007408,180
4008088,179
4008764,117
4009440,26
4010068,63
4010688,63
4011320,64
4011944,109
4012620,111
4013300,77
4013920,64
4014552,51
4015180,50
4015800,61
4016428,43
4017052,15
4017676,50
4018308,49
4018928,31
4019556,35
4020180,53
4020804,70
4021432,38
4022056,65
4022684,88
4023316,159
4023988,202
4024668,127
4025340,19
4025960,13
4026588,11
4027212,29
4027844,29
4028472,23
4029092,26
4029720,24
4030344,41
4030976,46
4031608,47
4032224,45
4032856,20
4033480,27
4034104,23
4034732,19
4035352,29
4035980,32
4036604,44
4037232,45
4037860,31
4038484,44
4039116,56
4039748,64
4040368,75
4040996,92
4041620,120
4042296,144
4042976,113
4043652,50
4044280,11
4044908,34
4045528,37
4046156,43
4046780,54
4047404,49
4048032,50
4048656,50
4049284,21
4049908,17
4050532,13
4051164,44
4051788,69
4052420,98
4053048,126
4053724,86
4054352,46
4054976,44
4055600,63
4056228,63
4056848,51
4057476,42
4058104,53
4058728,74
4059356,80
4059980,81
4060612,51
4061244,20
4061864,14
4062492,11
4063120,43
4063748,44
4064380,62
4065000,79
4065632,65
4066252,45
4066876,36
4067508,13
4068128,40
4068756,43
4069388,23
4070008,16
4070640,13
4071264,24
4071892,55
4072524,50
4073144,47
4073776,55
4074400,55
4075024,33
4075656,15
4076272,11
4076904,10
4077528,35
4078152,48
4078780,39
4079400,19
4080032,49
4080660,62
4081280,53
4081908,47
4082536,37
4083164,45
4083796,32
4084416,17
4085048,19
4085672,26
4086296,63
4086928,84
4087544,105
4088228,67
4088856,55
4089472,84
4090104,67
4090728,46
4091360,11
4091988,10
4092608,16
4093240,14
4093868,11
4094492,24
4095124,12
4095744,11
4096380,31
4097000,47
4097620,45
4098248,47
4098864,49
4099492,15
4100120,48
4100736,43
4101364,37
4101988,27
4102616,12
4103244,28
4103864,63
4104492,47
4105112,50
4105736,81
4106364,78
4106984,74
4107612,64
4108232,55
4108856,38
4109484,36
4110104,46
4110732,37
4111356,18
4111980,16
4112608,38
4113232,42
4113860,46
4114488,46
4115112,47
4115740,45
4116364,19
4116996,12
4117624,37
4118240,29
4118868,17
4119492,15
4120116,40
4120744,82
4121368,73
4121996,50
4122620,58
4123248,61
4123876,57
4124500,23
4125128,15
4125756,45
4126376,73
4127004,76
4127628,98
4128260,74
4128888,41
4129504,41
4130132,54
4130756,45
4131380,61
4132008,88
4132632,64
4133260,13
4133884,43
4134512,39
4135140,16
4135764,19
4136396,18
4137024,21
4137640,15
4138268,43
4138892,46
4139520,52
4140152,50
4140768,45
4141396,48
4142020,53
4142644,58
4143276,37
4143896,15
4144524,11
4145148,14
4145776,33
4146404,74
4147028,64
4147660,55
4148288,48
4148912,52
4149540,45
4150164,23
4150788,16
4151420,16
4152040,65
4152668,120
4153352,95
4153968,55
4154596,27
4155220,43
4155852,49
4156480,45
4157100,47
4157728,23
4158352,27
4158980,37
4159612,38
4160232,33
4160860,36
4161480,18
4162104,29
4162732,46
4163352,44
4163980,47
4164604,51
4165224,48
4165856,41
4166476,36
4167108,19
4167736,16
4168352,23
4168984,53
4169604,62
4170232,32
4170864,30
4171480,46
4172112,87
4172736,77
4173360,65
4173988,67
4174608,33
4175236,15
4175860,13
4176484,19
4177112,13
4177736,29
4178368,65
4178996,39
4179616,15
4180244,44
4180868,50
4181496,48
4182124,48
4182744,16
4183372,17
4183996,12
4184620,17
4185248,26
4185872,16
4186500,17
4187124,14
4187748,22
4188376,42
4189000,46
4189628,51
4190256,57
4190880,55
4191508,63
4192132,54
4192764,44
4193392,34
4194008,27
4194640,12
4195260,31
4195884,11
4196516,49
4197136,44
4197764,52
4198388,61
4199016,54
4199644,31
4200268,23
4200896,21
4201524,30
4202144,81
4202772,104
4203448,85
4204064,58
4204692,30
4205312,63
4205940,99
4206564,121
4207240,107
4207916,97
4208536,89
4209160,65
4209788,15
4210408,47
4211036,59
4211660,65
4212284,45
4212912,38
4213536,45
4214164,53
4214796,75
4215416,79
4216048,40
4216668,19
4217300,77
4217928,58
4218552,14
4219180,33
4219804,61
4220428,96
4221060,61
4221680,49
4222308,61
4222932,54
4223560,51
4224188,28
4224804,24
4225432,43
4226064,37
4226680,14
4227308,34
4227932,26
4228560,44
4229192,59
4229808,52
4230436,61
4231060,67
4231684,60
4232316,48
4232936,17
4233564,56
4234192,72
4234816,70
4235444,16
4236064,56
4236692,85
4237324,60
4237944,38
4238572,45
4239200,51
4239828,50
4240460,46
4241080,43
4241708,60
4242332,70
4242956,58
4243588,22
4244208,19
4244836,11
4245460,27
4246084,25
4246712,40
4247336,45
4247964,48
4248596,58
4249216,24
4249848,32
4250468,13
4251096,22
4251728,35
4252344,43
4252976,16
4253600,53
4254224,92
4254852,98
4255472,61
4256104,50
4256724,50
4257348,53
4257980,44
4258600,65
4259228,75
4259860,35
4260480,19
4261108,10
4261732,32
4262360,26
4262988,18
4263608,39
4264236,48
4264860,52
4265484,52
4266112,41
4266728,37
4267360,17
4267984,12
4268608,18
4269236,22
4269856,27
4270484,23
4271116,46
4271736,39
4272364,53
4272988,55
4273620,50
4274248,28
4274864,25
4275496,28
4276120,44
4276744,50
4277372,30
4277992,14
4278620,49
4279244,53
4279868,48
4280500,47
4281120,47
4281748,49
4282376,46
4283000,17
4283628,43
4284252,40
4284884,31
4285512,32
4286132,17
4286760,37
4287384,32
4288008,24
4288636,50
4289256,69
4289884,82
4290508,83
4291132,80
4291764,88
4292384,114
4293064,66
4293696,24
4294312,108
4294996,103
4295668,52
4296288,19
4296916,48
4297540,49
4298172,47
4298804,76
4299424,54
4300056,22
4300680,34
4301312,40
4301940,88
4302560,61
4303188,55
4303812,45
4304436,48
4305068,46
4305688,54
4306316,56
4306940,49
4307568,27
4308196,17
4308820,67
4309452,67
4310080,17
4310704,13
4311336,12
4311960,15
4312584,17
4313212,80
4313832,97
4314460,73
4315084,56
4315708,57
4316340,30
4316960,28
4317588,19
4318220,10
4318840,17
4319468,17
4320096,18
4320724,34
4321352,34
4321976,49
4322604,49
4323228,49
4323852,49
4324480,25
4325096,14
4325728,31
4326352,51
4326976,25
4327604,10
4328224,11
4328852,17
4329484,54
4330104,49
4330732,50
4331356,55
4331988,77
4332620,48
4333240,32
4333868,12
4334492,17
4335116,26
4335748,25
4336368,72
4336996,77
4337624,65
4338244,44
4338876,86
4339496,91
4340128,73
4340756,58
4341376,49
4342008,81
4342628,88
4343260,66
4343892,55
4344512,38
4345140,10
4345764,13
4346388,34
4347020,45
4347640,60
4348268,77
4348892,73
4349520,69
4350148,52
4350768,40
4351400,46
4352028,53
4352644,51
4353276,42
4353896,28
4354528,16
4355156,42
4355776,51
4356404,56
4357028,61
4357652,66
4358284,64
4358904,67
4359532,31
4360156,17
4360780,13
4361412,18
4362032,11
4362660,20
4363292,44
4363912,61
4364540,59
4365168,50
4365796,42
4366424,52
4367044,15
4367672,47
4368296,49
4368920,60
4369548,73
4370168,49
4370796,30
4371424,41
4372048,96
4372676,119
4373348,112
4374028,119
4374704,139
4375380,125
4376056,123
4376736,95
4377360,31
4377992,41
4378616,79
4379240,76
4379868,69
4380492,82
4381124,87
4381752,79
4382372,86
4383004,92
4383628,65
4384260,14
4384888,11
4385504,29
4386132,64
4386760,73
4387384,51
4388012,34
4388632,110
4389312,95
4389944,71
4390560,57
4391188,47
4391812,67
4392444,84
4393076,52
4393696,12
4394324,19
4394948,29
4395576,27
4396204,16
4396824,40
4397452,45
4398080,49
4398704,53
4399336,24
4399960,11
4400592,20
4401224,19
4401840,11
4402472,14
4403096,49
4403720,56
4404348,27
4404968,45
4405596,64
4406220,60
4406844,51
4407476,30
4408096,15
4408724,14
4409356,26
4409976,25
4410604,21
4411228,18
4411860,24
4412492,53
4413112,81
4413744,60
4414368,53
4414992,56
4415624,49
4416240,76
4416872,139
4417552,187
4418220,166
4418900,149
4419572,122
4420244,78
4420868,23
4421492,69
4422124,108
4422808,100
4423476,104
4424156,143
4424832,145
4425508,128
4426184,85
4426812,20
4427432,22
4428064,24
4428688,12
4429316,17
4429948,46
4430568,46
4431196,48
4431824,49
4432448,32
4433076,25
4433696,42
4434324,33
4434956,14
4435576,13
4436204,61
4436828,78
4437460,68
4438092,47
4438712,48
4439344,56
4439968,50
4440592,51
4441224,17
4441840,56
4442468,75
4443092,55
4443720,22
4444348,14
4444968,27
4445596,47
4446228,66
4446848,59
4447476,50
4448104,48
4448732,49
4449364,76
4449984,110
4450664,135
4451344,117
4452020,130
4452696,154
4453372,135
4454052,95
4454680,36
4455304,82
4455932,137
4456616,154
4457284,116
4457960,107
4458640,99
4459264,90
4459896,73
4460520,76
4461144,63
4461776,37
4462392,11
4463024,31
4463656,43
4464272,66
4464904,78
4465528,77
4466160,58
4466788,43
4467408,53
4468036,78
4468660,79
4469288,29
4469916,16
4470536,23
4471168,35
4471792,87
4472416,84
4473044,57
4473672,50
4474300,25
4474932,17
4475552,37
4476184,46
4476808,24
4477436,13
4478068,11
4478688,27
4479320,16
4479944,49
4480572,50
4481200,46
4481824,56
4482452,38
4483084,14
4483704,10
4484332,19
4484956,41
4485588,71
4486220,88
4486840,129
4487520,142
4488188,57
4488816,55
4489444,74
4490068,84
4490700,98
4491328,119
4492000,108
4492672,76
4493296,54
4493920,62
4494552,47
4495176,21
4495808,74
4496436,96
4497056,77
4497688,60
4498308,61
4498940,50
4499572,14
4500192,12
4500824,13
4501444,19
4502072,12
4502700,14
4503320,13
4503952,13
4504584,27
4505200,81
4505832,58
4506456,53
4507084,55
4507712,46
4508332,35
4508960,25
4509584,11
4510212,40
4510844,82
4511464,108
4512144,83
4512772,22
4513392,71
4514020,59
4514644,50
4515276,53
4515904,24
4516520,13
4517152,11
4517776,27
4518404,31
4519032,12
4519656,14
4520284,27
4520908,59
4521536,50
4522164,44
4522784,47
4523416,56
4524044,62
4524664,60
4525296,63
4525920,52
4526548,18
4527180,12
4527800,11
4528428,23
4529052,13
4529676,31
4530308,41
4530928,45
4531560,51
4532184,51
4532804,27
4533436,12
4534056,10
4534688,22
4535316,56
4535936,47
4536568,25
4537192,21
4537820,35
4538452,73
4539072,71
4539704,61
4540328,59
4540952,63
4541584,79
4542200,61
4542832,39
4543456,15
4544080,16
4544708,11
4545328,14
4545956,33
4546588,67
4547208,54
4547836,49
4548460,62
4549092,90
4549724,110
4550396,112
4551076,93
4551704,58
4552320,25
4552948,14
4553576,13
4554204,15
4554836,52
4555456,76
4556088,83
4556712,74
4557336,44
4557968,14
4558588,14
4559216,29
4559840,22
4560464,13
4561092,12
4561712,13
4562344,17
4562972,22
4563592,45
4564220,48
4564848,48
4565476,50
4566108,30
4566728,21
4567356,23
4567984,17
4568608,37
4569236,58
4569856,56
4570484,23
4571108,14
4571736,47
4572364,54
4572984,57
4573616,50
4574244,40
4574864,52
4575496,80
4576120,86
4576748,24
4577380,38
4578000,37
4578628,43
4579256,38
4579880,45
4580508,44
4581128,47
4581760,47
4582384,35
4583008,15
4583640,10
4584264,12
4584896,14
4585524,18
4586144,21
4586776,22
4587400,18
4588032,38
4588660,50
4589280,52
4589908,48
4590532,59
4591160,79
4591788,80
4592408,69
4593036,65
4593660,38
4594288,32
4594916,22
4595544,11
4596172,29
4596804,50
4597424,46
4598056,53
4598680,65
4599304,50
4599936,32
4600552,27
4601184,24
4601808,45
4602432,70
4603064,84
4603680,62
4604308,38
4604940,47
4605560,59
4606192,53
4606816,49
4607448,37
4608080,46
4608692,66
4609320,73
4609944,51
4610568,36
4611196,23
4611816,15
4612444,17
4613068,42
4613692,45
4614324,44
4614944,62
4615572,55
4616204,10
4616824,11
4617452,18
4618076,13
4618708,22
4619336,17
4619960,37
4620588,34
4621216,17
4621836,48
4622468,54
4623088,57
4623716,53
4624344,32
4624964,17
4625596,18
4626216,25
4626844,15
4627476,38
4628096,18
4628724,17
4629348,17
4629980,42
4630608,47
4631228,47
4631856,62
4632480,41
4633104,14
4633736,29
4634352,81
4634984,137
4635664,120
4636340,70
4636968,29
4637588,15
4638216,66
4638844,83
4639464,97
4640096,105
4640776,111
4641444,89
4642068,57
4642692,39
4643324,16
4643952,12
4644572,18
4645200,41
4645824,79
4646448,81
4647076,82
4647696,83
4648324,84
4648948,59
4649572,33
4650204,12
4650828,26
4651460,58
4652088,46
4652712,19
4653344,13
4653968,19
4654596,45
4655228,74
4655848,57
4656480,49
4657104,50
4657728,51
4658356,57
4658976,58
4659608,65
4660236,62
4660856,35
4661484,31
4662108,51
4662740,31
4663368,41
4663992,49
4664624,46
4665248,50
4665872,29
4666500,26
4667120,31
4667752,16
4668376,11
4669000,37
4669632,55
4670248,20
4670876,40
4671508,46
4672128,46
4672756,53
4673380,63
4674012,57
4674640,27
4675256,20
4675884,41
4676508,20
4677132,14
4677764,10
4678384,63
4679016,59
4679640,31
4680264,43
4680892,48
4681512,49
4682144,49
4682772,16
4683392,32
4684024,14
4684648,22
4685276,13
4685908,16
4686528,48
4687156,48
4687784,19
4688408,56
4689036,55
4689656,47
4690284,49
4690908,34
4691532,22
4692164,44
4692784,42
4693416,15
4694044,10
4694664,21
4695296,42
4695920,16
4696548,52
4697180,50
4697800,44
4698432,50
4699056,33
4699680,25
4700312,70
4700928,75
4701560,37
4702184,16
4702808,24
4703440,29
4704056,25
4704688,34
4705320,65
4705936,61
4706568,52
4707192,63
4707824,81
4708456,71
4709076,71
4709708,59
4710332,30
4710960,15
4711588,66
4712208,66
4712836,77
4713464,77
4714088,62
4714716,61
4715340,51
4715972,15
4716604,29
4717224,45
4717856,33
4718480,34
4719108,39
4719740,36
4720360,30
4720992,41
4721616,45
4722240,53
4722868,46
4723488,50
4724116,24
4724748,31
4725368,36
4726000,29
4726624,16
4727252,24
4727884,36
4728504,12
4729132,34
4729760,41
4730384,51
4731016,62
4731632,82
4732264,79
4732888,63
4733512,31
4734144,13
4734764,17
4735392,10
4736024,14
4736648,30
4737276,85
4737900,123
4738584,97
4739208,56
4739824,51
4740456,64
4741080,89
4741704,100
4742384,112
4743060,130
4743736,50
4744360,18
4744980,58
4745608,72
4746232,34
4746860,39
4747492,53
4748116,50
4748748,49
4749380,22
4750000,31
4750632,43
4751256,34
4751880,33
4752512,54
4753128,85
4753760,81
4754384,41
4755008,51
4755640,74
4756256,75
4756888,81
4757516,64
4758136,53
4758768,68
4759392,58
4760024,36
4760652,30
4761272,25
4761904,19
4762528,19
4763152,53
4763784,48
4764400,83
4765028,89
4765652,74
4766280,44
4766908,11
4767528,13
4768160,13
4768788,10
4769408,15
4770036,30
4770664,49
4771292,31
4771924,58
4772544,59
4773176,50
4773800,54
4774424,23
4775052,36
4775672,67
4776304,69
4776928,37
4777552,16
4778184,15
4778800,21
4779432,16
4780064,41
4780684,56
4781312,55
4781940,50
4782572,18
4783200,16
4783824,11
4784456,23
4785080,29
4785704,11
4786336,43
4786956,66
4787588,60
4788212,42
4788836,64
4789468,55
4790092,49
4790724,34
4791356,32
4791980,22
4792612,14
4793236,19
4793864,17
4794496,16
4795112,27
4795744,34
4796372,58
4796996,48
4797628,46
4798248,47
4798880,46
4799512,19
4800132,30
4800760,44
4801384,25
4802012,31
4802644,52
4803264,62
4803892,47
4804516,24
4805140,57
4805772,64
4806392,64
4807024,74
4807648,59
4808272,31
4808900,29
4809520,64
4810152,69
4810780,25
4811400,15
4812032,13
4812656,37
4813288,69
4813916,55
4814536,50
4815164,45
4815788,49
4816412,91
4817044,100
4817716,101
4818392,112
4819076,147
4819748,122
4820424,60
4821056,20
4821672,91
4822304,60
4822928,58
4823560,62
4824188,86
4824808,129
4825488,178
4826172,152
4826844,83
4827472,34
4828096,12
4828720,26
4829352,19
4829968,42
4830600,46
4831224,83
4831848,110
4832532,61
4833152,15
4833784,45
4834412,38
4835032,32
4835664,13
4836288,73
4836912,153
4837596,134
4838268,50
4838896,52
4839524,69
4840144,75
4840772,75
4841400,71
4842024,60
4842652,49
4843272,41
4843904,21
4844528,11
4845152,73
4845780,106
4846456,63
4847088,47
4847716,50
4848336,66
4848964,57
4849588,22
4850216,63
4850844,87
4851464,97
4852096,32
4852720,70
4853344,92
4853976,62
4854600,39
4855228,65
4855860,90
4856480,93
4857108,67
4857736,46
4858364,43
4858996,40
4859616,43
4860248,21
4860872,16
4861496,33
4862128,26
4862744,14
4863376,39
4864008,49
4864628,60
4865260,60
4865884,45
4866512,41
4867144,27
4867764,11
4868392,13
4869020,16
4869644,31
4870272,23
4870896,27
4871524,43
4872152,50
4872776,66
4873408,72
4874028,97
4874656,89
4875284,59
4875904,31
4876536,23
4877160,21
4877788,17
4878420,12
4879040,25
4879672,47
4880296,47
4880920,55
4881548,56
4882168,61
4882796,63
4883424,36
4884048,19
4884676,16
4885296,23
4885924,24
4886556,22
4887176,15
4887808,24
4888432,70
4889064,68
4889692,63
4890312,61
4890940,56
4891568,49
4892192,25
4892820,38
4893440,37
4894072,12
4894696,12
4895320,15
4895952,31
4896572,54
4897200,49
4897832,54
4898452,50
4899080,53
4899704,111
4900388,76
4901016,26
4901636,20
4902264,16
4902892,20
4903516,33
4904148,15
4904772,53
4905404,50
4906036,50
4906656,50
4907288,42
4907912,19
4908544,23
4909176,19
4909796,34
4910428,34
4911052,35
4911676,44
4912308,34
4912928,33
4913560,45
4914192,45
4914812,49
4915444,51
4916068,13
4916696,14
4917324,14
4917944,13
4918572,12
4919196,21
4919820,49
4920452,69
4921072,83
4921700,59
4922324,49
4922948,47
4923576,80
4924200,133
4924880,140
4925560,123
4926236,118
4926912,109
4927592,76
4928216,39
4928844,12
4929468,14
4930092,38
4930720,49
4931336,56
4931968,76
4932592,76
4933216,81
4933844,79
4934468,70
4935100,45
4935728,14
4936352,30
4936980,14
4937604,24
4938232,41
4938864,55
4939484,62
4940112,53
4940736,40
4941364,39
4941992,34
4942612,13
4943240,51
4943864,43
4944488,28
4945116,18
4945740,18
4946372,58
4947004,50
4947624,47
4948252,48
4948876,44
4949508,14
4950140,36
4950760,32
4951392,18
4952016,21
4952640,15
4953268,22
4953888,15
4954516,24
4955148,47
4955768,47
4956400,50
4957024,60
4957652,52
4958284,42
4958904,35
4959536,43
4960160,18
4960780,22
4961412,12
4962032,21
4962660,20
4963284,43
4963908,49
4964540,56
4965160,68
4965788,77
4966420,66
4967040,85
4967668,85
4968292,41
4968920,25
4969552,19
4970172,15
4970800,15
4971424,52
4972048,66
4972676,62
4973296,72
4973924,84
4974552,85
4975176,105
4975856,56
4976480,39
4977108,43
4977740,38
4978360,45
4978992,47
4979616,39
4980240,43
4980868,46
4981488,48
4982120,47
4982744,20
4983368,16
4983996,10
4984616,11
4985248,25
4985880,44
4986496,58
4987128,60
4987752,41
4988384,45
4989012,65
4989632,77
4990264,82
4990888,107
4991564,80
4992192,52
4992808,58
4993440,18
4994068,18
4994688,39
4995316,67
4995944,43
4996572,44
4997204,44
4997824,51
4998452,49
4999076,29
4999700,34
5000332,30
5000952,17
5001584,19
5002208,34
5002832,30
5003464,16
5004080,15
5004708,44
5005340,46
5005960,52
5006592,56
5007216,72
5007848,65
5008476,44
5009096,17
5009728,10
5010352,20
5010976,39
5011608,12
5012224,15
5012856,22
5013480,44
5014104,45
5014736,49
5015352,55
5015984,68
5016616,69
5017236,58
5017868,43
5018492,24
5019120,15
5019752,38
5020372,47
5021000,41
5021628,77
5022252,99
5022880,90
5023504,62
5024136,34
5024760,13
5025384,17
5026012,12
5026636,41
5027268,22
5027900,10
5028520,25
5029148,27
5029776,43
5030404,45
5031036,45
5031656,50
5032288,40
5032912,32
5033536,24
5034168,10
5034788,14
5035420,11
5036052,17
5036672,33
5037304,49
5037928,70
5038560,54
5039188,48
5039808,78
5040440,87
5041064,87
5041688,58
5042316,40
5042936,45
5043568,31
5044192,13
5044816,36
5045444,49
5046064,38
5046696,39
5047324,54
5047944,51
5048576,56
5049200,28
5049828,12
5050460,50
5051080,75
5051712,64
5052336,54
5052960,84
5053592,67
5054208,35
5054840,41
5055468,49
5056092,54
5056724,59
5057348,60
5057980,57
5058608,41
5059232,37
5059860,36
5060488,18
5061116,10
5061748,16
5062368,10
5063000,41
5063624,44
5064248,48
5064880,48
5065500,51
5066132,60
5066760,45
5067384,20
5068016,19
5068640,11
5069272,26
5069904,57
5070520,62
5071152,33
5071776,59
5072404,70
5073036,77
5073656,82
5074288,69
5074912,67
5075536,59
5076168,42
5076788,14
5077420,10
5078052,12
5078672,15
5079304,31
5079932,52
5080564,51
5081192,56
5081816,67
5082448,37
5083072,13
5083696,56
5084328,69
5084944,69
5085576,58
5086200,59
5086824,62
5087456,51
5088080,45
5088708,69
5089340,83
5089960,80
5090588,51
5091216,12
5091844,11
5092476,42
5093096,44
5093728,29
5094352,19
5094980,23
5095612,46
5096232,34
5096864,45
5097496,62
5098116,64
5098748,51
5099372,43
5100004,43
5100636,25
5101256,12
5101888,12
5102516,17
5103140,16
5103772,23
5104392,15
5105024,47
5105652,53
5106276,54
5106908,52
5107536,49
5108168,59
5108796,63
5109420,31
5110052,11
5110676,14
5111304,12
5111936,23
5112556,16
5113188,66
5113816,90
5114440,80
5115072,70
5115700,48
5116332,23
5116964,18
5117584,54
5118220,136
5118896,175
5119576,147
5120252,133
5120920,33
5121544,100
5122224,80
5122840,68
5123468,53
5124092,48
5124712,51
5125340,65
5125964,56
5126592,16
5127220,61
5127840,61
5128468,45
5129092,29
5129720,42
5130352,48
5130968,46
5131596,47
5132220,47
5132844,14
5133472,12
5134092,13
5134720,13
5135344,25
5135968,35
5136596,37
5137220,33
5137852,23
5138480,56
5139100,65
5139728,69
5140356,70
5140984,72
5141612,30
5142232,16
5142860,31
5143484,11
5144108,24
5144740,12
5145360,16
5145988,16
5146612,40
5147236,46
5147868,52
5148492,50
5149120,19
5149748,22
5150368,35
5151000,35
5151624,30
5152252,14
5152884,23
5153504,46
5154132,54
5154756,44
5155380,72
5156012,90
5156632,77
5157264,61
5157888,70
5158512,84
5159140,78
5159768,43
5160396,21
5161028,12
5161648,26
5162276,25
5162900,30
5163528,47
5164156,60
5164776,64
5165408,69
5166032,45
5166656,25
5167284,13
5167904,27
5168536,30
5169164,16
5169784,50
5170412,61
5171040,33
5171668,49
5172300,49
5172920,50
5173548,52
5174172,37
5174796,33
5175428,50
5176048,53
5176676,14
5177300,35
5177924,35
5178556,28
5179176,14
5179808,45
5180436,45
5181056,49
5181688,51
5182312,37
5182940,27
5183572,10
5184192,13
5184820,13
5185444,10
5186068,16
5186696,41
5187320,38
5187948,49
5188572,119
5189248,124
5189924,92
5190544,65
5191172,64
5191804,46
5192424,23
5193052,27
5193676,67
5194300,110
5194984,119
5195652,81
5196280,45
5196908,45
5197528,47
5198156,46
5198784,48
5199408,34
5200040,58
5200656,45
5201284,44
5201908,16
5202532,16
5203164,24
5203788,50
5204420,16
5205048,62
5205664,52
5206296,48
5206920,49
5207548,15
5208180,18
5208800,13
5209428,11
5210052,19
5210680,11
5211308,25
5211928,50
5212560,66
5213184,43
5213808,46
5214436,46
5215064,45
5215692,36
5216324,47
5216944,39
5217576,12
5218200,11
5218824,19
5219452,34
5220072,53
5220704,46
5221328,41
5221952,81
5222584,98
5223200,72
5223828,51
5224460,23
5225080,33
5225708,26
5226332,25
5226964,17
5227592,15
5228216,13
5228844,17
5229468,20
5230092,41
5230724,43
5231344,46
5231976,49
5232600,15
5233224,15
5233856,11
5234476,20
5235104,12
5235736,11
5236360,13
5236992,35
5237616,48
5238244,45
5238876,52
5239496,51
5240128,49
5240752,27
5241376,31
5242008,58
5242624,76
5243256,30
5243880,22
5244500,76
5245132,138
5245804,82
5246428,47
5247056,82
5247680,81
5248308,87
5248932,63
5249552,43
5250184,43
5250800,43
5251428,38
5252052,93
5252672,106
5253356,115
5254028,92
5254652,49
5255280,54
5255904,67
5256532,77
5257156,76
5257780,79
5258408,71
5259024,53
5259652,41
5260276,47
5260900,40
5261528,14
5262152,31
5262780,19
5263412,40
5264032,47
5264660,49
5265280,50
5265912,32
5266540,33
5267160,19
5267788,14
5268412,32
5269036,29
5269668,24
5270288,14
5270916,14
5271540,40
5272164,45
5272796,52
5273420,58
5274052,69
5274680,60
5275300,60
5275928,59
5276552,32
5277180,15
5277812,18
5278432,22
5279060,48
5279684,49
5280308,54
5280940,54
5281560,51
5282188,44
5282812,11
5283440,11
5284068,36
5284692,63
5285320,66
5285948,62
5286568,61
5287196,61
5287820,42
5288448,49
5289076,86
5289696,130
5290376,132
5291052,100
5291724,94
5292348,106
5293024,114
5293700,91
5294324,37
5294948,49
5295580,158
5296260,119
5296932,62
5297556,72
5298188,94
5298808,85
5299436,24
5300060,11
5300688,28
5301320,39
5301936,14
5302568,30
5303192,47
5303816,32
5304448,17
5305064,52
5305692,62
5306316,55
5306940,53
5307572,38
5308192,47
5308820,53
5309452,48
5310072,21
5310704,13
5311328,14
5311960,21
5312588,15
5313208,41
5313836,47
5314464,47
5315088,51
5315716,44
5316336,45
5316964,27
5317588,16
5318216,18
5318844,17
5319464,18
5320096,20
5320724,54
5321344,61
5321976,67
5322600,97
5323228,80
5323860,50
5324480,46
5325108,40
5325732,24
5326356,19
5326984,44
5327600,60
5328232,58
5328852,40
5329476,39
5330104,40
5330728,51
5331356,45
5331984,48
5332608,57
5333236,75
5333860,55
5334488,15
5335120,23
5335736,21
5336364,25
5336988,37
5337612,48
5338240,44
5338856,47
5339488,51
5340112,51
5340736,32
5341364,20
5341984,11
5342612,10
5343244,21
5343864,35
5344496,32
5345116,17
5345748,12
5346376,44
5347000,47
5347628,49
5348252,47
5348876,41
5349508,14
5350128,17
5350756,14
5351380,12
5352004,18
5352636,35
5353256,53
5353884,45
5354516,30
5355136,53
5355768,61
5356392,51
5357020,46
5357652,12
5358272,13
5358900,21
5359524,35
5360152,30
5360780,39
5361400,40
5362028,20
5362652,42
5363276,48
5363908,48
5364528,45
5365156,50
5365788,42
5366408,37
5367036,23
5367660,33
5368292,54
5368920,34
5369544,13
5370176,41
5370800,64
5371424,61
5372052,50
5372672,53
5373304,49
5373928,33
5374552,19
5375184,11
5375800,17
5376432,31
5377064,37
5377680,38
5378308,20
5378932,11
5379560,43
5380188,48
5380808,49
5381436,47
5382060,46
5382684,12
5383312,10
5383936,13
5384564,28
5385188,19
5385812,14
5386444,22
5387064,35
5387692,23
5388324,45
5388944,48
5389572,51
5390196,55
5390828,27
5391456,11
5392076,43
5392704,71
5393328,48
5393952,49
5394580,55
5395200,44
5395828,43
5396452,52
5397080,48
5397708,46
5398328,74
5398960,135
5399640,110
5400308,78
5400936,93
5401560,111
5402236,79
5402864,59
5403488,38
5404116,25
5404748,50
5405368,104
5406052,131
5406732,118
5407404,112
5408080,105
5408752,60
5409376,25
5410004,30
5410628,41
5411256,46
5411888,54
5412504,18
5413132,51
5413756,53
5414388,47
5415020,48
5415640,31
5416272,38
5416896,70
5417520,75
5418148,31
5418768,11
5419396,15
5420024,15
5420648,24
5421276,45
5421900,45
5422532,49
5423164,49
5423784,51
5424416,18
5425040,20
5425668,22
5426300,34
5426920,43
5427552,35
5428172,21
5428796,24
5429428,60
5430048,61
5430676,55
5431308,46
5431928,49
5432560,23
5433180,31
5433812,41
5434444,28
5435064,20
5435692,18
5436316,13
5436944,17
5437572,14
5438192,41
5438824,52
5439448,56
5440072,65
5440700,56
5441320,37
5441948,43
5442576,58
5443192,45
5443824,30
5444448,19
5445076,11
5445708,10
5446328,43
5446956,43
5447580,45
5448204,47
5448836,42
5449456,15
5450084,14
5450708,15
5451332,11
5451960,32
5452584,17
5453212,22
5453844,17
5454464,30
5455092,109
5455768,173
5456440,128
5457120,80
5457736,22
5458364,31
5458996,55
5459616,61
5460244,52
5460868,45
5461500,22
5462128,26
5462752,47
5463380,46
5464004,49
5464628,49
5465260,58
5465880,95
5466508,62
5467132,14
5467760,40
5468392,28
5469016,24
5469644,13
5470276,24
5470896,17
5471524,58
5472152,73
5472776,62
5473404,72
5474024,89
5474652,65
5475276,64
5475904,35
5476532,17
5477152,39
5477784,37
5478412,44
5479032,34
5479660,41
5480284,46
5480916,47
5481544,50
5482168,47
5482796,32
5483424,80
5484048,91
5484676,44
5485296,30
5485924,84
5486552,93
5487176,43
5487804,24
5488424,59
5489056,73
5489684,63
5490304,50
5490932,71
5491560,38
5492188,24
5492816,55
5493440,21
5494068,51
5494692,88
5495316,77
5495948,21
5496568,43
5497196,44
5497824,46
5498448,49
5499076,47
5499696,48
5500324,41
5500956,27
5501576,13
5502208,10
5502832,15
5503464,25
5504096,29
5504712,48
5505340,80
5505964,96
5506588,98
5507220,87
5507840,83
5508468,103
5509152,98
5509768,49
5510396,21
5511024,15
5511652,34
5512284,79
5512904,75
5513536,89
5514160,67
5514784,50
5515416,53
5516032,57
5516664,80
5517288,42
5517912,18
5518544,33
5519164,33
5519792,13
5520424,55
5521044,59
5521672,45
5522296,59
5522928,70
5523560,81
5524176,64
5524808,64
5525428,90
5526056,90
5526688,53
5527304,38
5527936,40
5528560,21
5529184,39
5529816,43
5530440,49
5531068,46
5531696,65
5532320,66
5532948,59
5533572,45
5534204,51
5534832,46
5535456,45
5536084,47
5536708,47
5537332,38
5537964,42
5538584,57
5539212,70
5539836,60
5540464,51
5541096,63
5541720,79
5542352,74
5542984,38
5543600,23
5544228,17
5544856,21
5545480,21
5546108,24
5546728,41
5547360,45
5547984,50
5548608,46
5549240,20
5549856,27
5550488,51
5551116,70
5551736,59
5552368,31
5552992,28
5553624,17
5554252,24
5554872,41
5555504,47
5556128,52
5556752,53
5557384,43
5558000,57
5558632,76
5559256,63
5559880,24
5560512,30
5561128,35
5561760,37
5562388,17
5563008,46
5563640,51
5564264,50
5564896,52
5565524,62
5566144,47
5566776,36
5567400,27
5568024,21
5568652,44
5569272,47
5569904,37
5570528,24
5571152,30
5571784,78
5572400,100
5573080,85
5573712,59
5574328,25
5574960,14
5575584,11
5576208,14
5576836,16
5577456,16
5578088,27
5578712,50
5579336,45
5579968,50
5580584,65
5581216,64
5581844,49
5582464,19
5583092,79
5583720,115
5584400,108
5585076,60
5585696,30
5586324,15
5586956,13
5587576,17
5588208,44
5588832,46
5589460,58
5590092,54
5590712,39
5591344,48
5591968,44
5592592,21
5593224,22
5593840,36
5594472,16
5595096,15
5595720,27
5596352,44
5596968,45
5597600,48
5598228,46
5598848,40
5599480,59
5600104,48
5600732,22
5601364,14
5601984,31
5602612,59
5603236,59
5603860,35
5604492,66
5605112,99
5605744,62
5606368,51
5606992,49
5607620,22
5608240,53
5608868,67
5609500,42
5610120,31
5610752,42
5611376,36
5612004,49
5612636,80
5613256,85
5613884,72
5614512,51
5615136,48
5615764,16
5616384,11
5617012,15
5617640,32
5618264,61
5618892,82
5619512,83
5620144,69
5620772,50
5621392,41
5622024,47
5622648,48
5623276,46
5623908,28
5624528,33
5625160,67
5625784,47
5626408,40
5627036,27
5627656,12
5628288,45
5628912,51
5629536,41
5630168,44
5630792,47
5631424,69
5632056,126
5632724,120
5633400,59
5634016,13
5634640,17
5635268,54
5635888,89
5636516,91
5637148,87
5637768,78
5638396,45
5639020,56
5639652,65
5640284,51
5640904,34
5641532,58
5642156,53
5642784,57
5643412,54
5644032,56
5644660,29
5645284,13
5645908,19
5646540,48
5647160,71
5647792,67
5648420,49
5649040,19
5649668,25
5650292,13
5650924,26
5651556,38
5652176,56
5652804,93
5653428,100
5654104,71
5654728,43
5655344,46
5655976,48
5656608,56
5657224,67
5657856,69
5658476,84
5659108,100
5659788,100
5660460,88
5661084,53
5661716,12
5662336,27
5662968,41
5663592,50
5664220,52
5664852,48
5665472,51
5666100,62
5666724,74
5667348,42
5667980,26
5668600,32
5669228,16
5669852,16
5670476,19
5671108,32
5671728,48
5672356,60
5672988,62
5673608,68
5674236,61
5674860,77
5675492,72
5676124,32
5676744,45
5677376,79
5678000,92
5678624,56
5679256,17
5679872,49
5680504,58
5681128,53
5681752,58
5682384,29
5683000,11
5683632,27
5684260,37
5684880,66
5685508,99
5686132,84
5686764,60
5687396,48
5688016,46
5688644,68
5689268,77
5689896,60
5690524,39
5691144,42
5691776,63
5692400,59
5693024,36
5693656,18
5694280,23
5694908,19
5695540,12
5696160,35
5696788,43
5697412,46
5698044,46
5698672,50
5699292,13
5699920,13
5700544,15
5701168,11
5701796,32
5702416,43
5703044,49
5703668,25
5704296,15
5704924,47
5705552,54
5706184,60
5706812,62
5707432,72
5708064,61
5708688,59
5709320,37
5709948,21
5710568,33
5711200,42
5711824,57
5712448,45
5713080,52
5713700,86
5714328,132
5715012,130
5715684,90
5716312,63
5716936,39
5717560,25
5718192,11
5718812,16
5719440,16
5720072,40
5720692,89
5721324,151
5722000,163
5722676,133
5723356,79
5723976,37
5724608,23
5725240,29
5725860,29
5726492,13
5727116,16
5727748,23
5728380,10
5729000,24
5729632,43
5730256,47
5730880,46
5731512,49
5732132,42
5732764,19
5733396,18
5734016,15
5734648,15
5735272,31
5735904,31
5736532,24
5737152,43
5737780,68
5738404,48
5739028,48
5739660,54
5740280,57
5740908,47
5741532,53
5742156,56
5742788,36
5743408,12
5744036,10
5744668,14
5745288,17
5745916,16
5746540,40
5747172,47
5747804,50
5748424,47
5749052,25
5749680,40
5750304,24
5750932,12
5751552,14
5752184,37
5752808,69
5753432,65
5754064,28
5754680,48
5755312,47
5755944,55
5756560,59
5757192,49
5757816,59
5758448,70
5759076,81
5759696,66
5760328,37
5760948,14
5761572,15
5762204,10
5762824,37
5763452,58
5764076,76
5764700,61
5765328,52
5765944,12
5766576,24
5767204,46
5767824,56
5768452,22
5769076,22
5769704,33
5770336,25
5770952,19
5771584,44
5772208,57
5772832,53
5773460,49
5774080,48
5774708,61
5775332,81
5775960,62
5776588,14
5777208,56
5777836,79
5778468,72
5779088,35
5779716,41
5780340,47
5780972,48
5781600,50
5782224,37
5782856,13
5783480,53
5784104,82
5784732,55
5785352,17
5785984,15
5786604,13
5787228,22
5787860,39
5788484,49
5789112,49
5789744,50
5790360,56
5790992,19
5791616,17
5792244,37
5792876,47
5793496,39
5794124,42
5794748,47
5795372,35
5796004,41
5796624,49
5797252,47
5797876,45
5798500,47
5799132,44
5799756,62
5800388,34
5801016,17
5801632,17
5802264,19
5802888,24
5803516,24
5804148,29
5804768,42
5805400,46
5806024,46
5806648,48
5807276,32
5807896,24
5808528,18
5809156,30
5809776,23
5810408,13
5811032,35
5811664,48
5812292,15
5812912,41
5813540,44
5814168,47
5814792,51
5815424,47
5816040,21
5816672,13
5817296,13
5817920,17
5818548,15
5819168,19
5819800,24
5820428,26
5821048,32
5821680,74
5822304,66
5822932,51
5823564,52
5824184,56
5824816,73
5825440,77
5826064,71
5826692,54
5827312,32
5827940,12
5828564,35
5829188,49
5829820,46
5830440,69
5831068,151
5831752,140
5832420,69
5833048,33
5833672,13
5834296,13
5834924,11
5835544,18
5836176,31
5836804,31
5837424,24
5838052,45
5838676,59
5839308,62
5839940,57
5840560,57
5841188,54
5841812,61
5842440,57
5843068,38
5843688,33
5844316,33
5844944,11
5845564,13
5846196,43
5846816,43
5847448,54
5848076,52
5848696,51
5849324,31
5849952,32
5850580,24
5851212,10
5851832,13
5852464,15
5853088,16
5853712,27
5854344,32
5854964,46
5855592,46
5856216,49
5856840,49
5857472,16
5858088,22
5858720,37
5859348,39
5859968,26
5860600,16
5861224,11
5861852,11
5862484,34
5863104,50
5863732,63
5864360,56
5864984,47
5865612,26
5866232,23
5866864,28
5867488,17
5868112,27
5868744,47
5869360,44
5869992,68
5870624,49
5871240,47
5871872,79
5872500,85
5873132,60
5873760,47
5874384,14
5875016,13
5875640,19
5876264,41
5876896,42
5877520,65
5878152,81
5878776,65
5879400,31
5880032,41
5880656,48
5881288,49
5881916,49
5882536,13
5883168,33
5883792,51
5884424,46
5885056,44
5885672,16
5886304,47
5886932,68
5887556,26
5888188,58
5888808,65
5889436,66
5890064,76
5890688,81
5891316,77
5891944,75
5892572,38
5893204,22
5893824,12
5894456,10
5895080,35
5895704,56
5896332,57
5896952,57
5897584,56
5898208,57
5898836,39
5899464,12
5900084,17
5900712,18
5901344,12
5901960,58
5902592,73
5903216,29
5903844,14
5904476,56
5905096,85
5905724,69
5906352,54
5906976,47
5907604,12
5908224,16
5908856,23
5909476,16
5910104,12
5910732,16
5911352,17
5911984,24
5912616,31
5913232,42
5913864,49
5914488,50
5915116,47
5915748,31
5916368,32
5917000,21
5917624,11
5918248,11
5918876,14
5919496,47
5920128,48
5920748,29
5921372,44
5922004,65
5922628,77
5923256,77
5923888,52
5924504,20
5925136,13
5925760,13
5926388,17
5927020,20
5927640,31
5928272,13
5928896,11
5929520,43
5930148,47
5930768,50
5931400,48
5932024,51
5932648,36
5933280,21
5933904,13
5934536,35
5935164,80
5935784,62
5936416,48
5937040,38
5937672,21
5938304,51
5938920,59
5939552,55
5940176,52
5940800,38
5941428,49
5942048,70
5942676,64
5943308,34
5943928,34
5944560,30
5945184,42
5945812,67
5946444,92
5947064,75
5947696,47
5948316,56
5948944,79
5949572,92
5950192,100
5950876,94
5951504,74
5952124,51
5952752,40
5953376,43
5954004,33
5954636,44
5955256,46
5955884,74
5956508,99
5957132,114
5957816,102
5958484,86
5959108,75
5959740,26
5960360,11
5960988,11
5961612,30
5962244,47
5962872,43
5963492,49
5964124,65
5964748,62
5965372,53
5966004,13
5966624,43
5967252,45
5967884,15
5968504,29
5969132,43
5969760,40
5970388,41
5971020,32
5971640,47
5972272,61
5972896,61
5973520,49
5974152,14
5974768,38
5975400,78
5976028,85
5976652,63
5977280,32
5977904,18
5978536,33
5979164,14
5979784,40
5980416,53
5981040,59
5981668,61
5982300,64
5982920,81
5983552,70
5984176,42
5984800,29
5985428,26
5986048,21
5986676,12
5987304,17
5987928,72
5988560,114
5989228,110
5989908,88
5990536,84
5991152,68
5991784,43
5992408,16
5993032,20
5993664,35
5994284,12
5994912,13
5995544,10
5996164,40
5996792,46
5997420,46
5998052,50
5998684,48
5999304,27
5999936,19
6000560,12
6001184,20
6001816,52
6002436,68
6003064,79
6003692,67
6004316,34
6004944,48
6005568,50
6006200,48
6006828,45
6007448,43
6008080,58
6008704,64
6009332,43
6009964,11
6010584,12
6011216,11
6011840,12
6012464,25
6013096,41
6013716,50
6014344,47
6014972,48
6015600,24
6016232,11
6016856,17
6017488,31
6018120,34
6018736,15
6019364,33
6019992,43
6020616,33
6021248,40
6021864,53
6022496,55
6023116,59
6023744,66
6024372,48
6024992,52
6025620,36
6026252,16
6026872,45
6027504,56
6028128,65
6028760,41
6029388,27
6030008,43
6030640,48
6031264,48
6031888,48
6032520,24
6033136,21
6033768,12
6034392,41
6035016,67
6035648,54
6036272,63
6036904,51
6037536,18
6038152,76
6038784,106
6039464,90
6040080,68
6040712,65
6041332,54
6041964,46
6042588,39
6043212,10
6043844,11
6044464,11
6045096,15
6045724,15
6046344,43
6046976,46
6047600,49
6048232,55
6048860,57
6049480,57
6050112,40
6050736,23
6051360,25
6051992,27
6052608,32
6053240,28
6053864,25
6054492,40
6055120,60
6055748,70
6056380,74
6057008,62
6057632,40
6058264,53
6058888,67
6059520,53
6060148,47
6060768,71
6061404,65
6062028,81
6062652,96
6063284,45
6063904,54
6064536,57
6065168,59
6065784,74
6066416,79
6067040,107
6067724,119
6068404,148
6069076,166
6069756,130
6070436,67
6071056,30
6071688,69
6072312,72
6072936,72
6073568,68
6074196,64
6074824,67
6075456,81
6076080,82
6076712,70
6077340,57
6077964,23
6078596,28
6079216,24
6079848,39
6080476,52
6081100,52
6081732,48
6082352,20
6082984,15
6083612,18
6084232,11
6084860,36
6085488,50
6086116,67
6086748,92
6087368,69
6088000,39
6088620,49
6089248,68
6089876,91
6090496,82
6091128,66
6091752,58
6092376,51
6093008,28
6093628,17
6094256,12
6094888,17
6095504,13
6096136,41
6096760,59
6097388,68
6098020,52
6098640,47
6099272,16
6099896,11
6100520,31
6101152,31
6101768,28
6102400,18
6103024,15
6103648,13
6104280,30
6104904,77
6105536,80
6106168,66
6106784,49
6107416,27
6108040,57
6108672,54
6109300,26
6109920,30
6110552,62
6111176,70
6111804,68
6112436,52
6113056,48
6113688,47
6114316,48
6114936,48
6115568,26
6116192,19
6116824,11
6117452,32
6118072,65
6118704,49
6119332,15
6119956,37
6120588,49
6121208,48
6121840,47
6122464,53
6123088,53
6123720,54
6124340,52
6124968,62
6125600,53
6126220,31
6126852,27
6127476,43
6128108,17
6128740,11
6129360,26
6129992,42
6130616,67
6131240,67
6131872,59
6132492,38
6133124,27
6133748,13
6134376,11
6135008,24
6135632,35
6136264,48
6136900,42
6137520,21
6138156,51
6138780,68
6139408,69
6140040,65
6140660,59
6141292,52
6141916,50
6142544,36
6143176,13
6143796,13
6144432,11
6145060,32
6145680,30
6146308,42
6146932,47
6147560,46
6148192,49
6148808,37
6149436,21
6150060,13
6150684,11
6151316,15
6151936,19
6152568,59
6153192,62
6153816,47
6154444,40
6155064,69
6155692,80
6156324,67
6156944,58
6157572,42
6158196,57
6158828,65
6159460,34
6160080,23
6160708,22
6161332,11
6161956,27
6162588,42
6163208,56
6163836,61
6164464,51
6165088,46
6165716,23
6166340,31
6166972,17
6167604,10
6168224,11
6168852,20
6169480,37
6170108,49
6170740,23
6171360,49
6171988,67
6172616,64
6173240,57
6173868,42
6174488,40
6175120,59
6175748,63
6176368,51
6176996,31
6177620,13
6178252,34
6178880,54
6179504,59
6180136,58
6180760,53
6181384,47
6182016,46
6182632,18
6183260,25
6183888,30
6184512,19
6185140,22
6185760,21
6186388,19
6187020,19
6187640,22
6188268,48
6188896,57
6189524,65
6190156,63
6190776,50
6191408,63
6192032,81
6192656,56
6193288,14
6193904,13
6194536,12
6195160,28
6195784,22
6196416,41
6197036,44
6197664,47
6198296,47
6198912,76
6199544,105
6200220,85
6200840,35
6201472,11
6202088,14
6202716,27
6203344,14
6203968,35
6204600,94
6205220,113
6205900,99
6206528,79
6207144,74
6207776,46
6208404,11
6209028,31
6209660,56
6210280,35
6210912,47
6211536,85
6212160,49
6212788,44
6213408,97
6214040,104
6214720,95
6215344,52
6215976,52
6216600,72
6217224,47
6217856,21
6218472,24
6219104,32
6219728,69
6220356,95
6220988,66
6221608,46
6222236,48
6222868,50
6223488,69
6224120,78
6224744,95
6225372,91
6226004,75
6226624,69
6227252,52
6227876,25
6228500,13
6229132,20
6229752,39
6230384,48
6231008,51
6231632,74
6232264,110
6232936,102
6233612,36
6234236,17
6234856,10
6235488,12
6236112,19
6236736,23
6237368,29
6237988,40
6238620,46
6239248,48
6239872,48
6240504,41
6241128,41
6241760,26
6242388,12
6243008,12
6243640,15
6244264,29
6244888,41
6245516,26
6246136,41
6246768,49
6247392,49
6248016,47
6248644,46
6249264,15
6249892,14
6250524,16
6251144,14
6251776,11
6252400,16
6253028,32
6253660,36
6254280,24
6254908,50
6255536,61
6256160,69
6256788,68
6257408,66
6258040,61
6258664,81
6259288,98
6259916,61
6260536,15
6261168,42
