tempo_arduino_micro_s,valor_ADC
500,20
1004,19
1504,38
2000,53
2508,26
3000,10
3508,63
4000,82
4504,63
5000,28
5500,40
6000,55
6500,51
7000,45
7500,57
8000,40
8500,12
9000,52
9500,95
10000,123
10560,117
11128,92
11652,48
12172,15
12700,32
13220,41
13740,45
14260,43
14780,44
15300,91
15820,121
16400,43
16916,13
17444,30
17964,45
18492,54
19012,53
19540,30
20060,14
20588,12
21108,30
21636,98
22156,174
22736,145
23304,83
23836,46
24356,48
24884,48
25404,62
25932,81
26452,82
26980,62
27500,37
28028,32
28548,25
29076,16
29596,23
30116,43
30636,50
31160,45
31676,47
32196,47
32716,46
33236,28
33756,12
34276,21
34796,39
35316,21
35836,13
36368,28
36892,37
37412,20
37940,15
38460,29
38988,64
39508,44
40036,51
40556,59
41084,68
41604,51
42128,14
42652,59
43180,96
43700,97
44228,78
44748,23
45276,40
45796,67
46324,43
46844,27
47372,38
47892,44
48420,52
48940,54
49468,45
49988,14
50516,36
51040,75
51564,111
52136,93
52660,47
53180,13
53700,31
54220,70
54740,86
55260,60
55780,44
56300,48
56820,46
57340,55
57868,51
58396,13
58916,22
59444,47
59964,70
60492,56
61012,49
61540,46
62060,30
62588,19
63108,21
63636,49
64160,45
64684,47
65204,49
65732,45
66252,51
66780,88
67300,107
67880,104
68448,72
68980,43
69500,20
70028,16
70548,26
71068,40
71588,20
72112,58
72628,90
73148,106
73724,105
74300,94
74828,72
75352,69
75876,88
76400,100
76976,115
77548,100
78128,81
78644,52
79172,13
79696,44
80220,102
80796,168
81372,168
81952,129
82520,68
83048,30
83572,31
84100,47
84620,37
85148,12
85668,23
86196,27
86716,15
87244,24
87764,63
88292,100
88868,71
89396,45
89916,46
90444,45
90964,48
91492,27
92016,28
92540,43
93060,49
93588,49
94108,37
94628,33
95152,26
95672,10
96192,12
96708,32
97228,41
97748,45
98268,44
98788,43
99308,47
99828,42
100352,56
100924,50
101504,19
102076,19
102656,51
103224,80
103800,36
104368,33
104944,45
105520,86
106088,109
106724,104
107340,91
107916,83
108488,65
109064,53
109648,61
110216,204
110844,159
111460,49
112036,10
112608,29
113176,56
113760,62
114328,51
114912,50
115484,46
116064,47
116632,35
117208,50
117792,47
118360,65
118944,62
119516,27
120096,25
120664,20
121248,25
121820,35
122392,53
122976,60
123544,66
124128,50
124696,37
125280,34
125848,25
126424,50
127008,41
127580,26
128160,12
128728,29
129304,39
129872,37
130448,42
131016,45
131584,46
132168,56
132736,82
133312,85
133880,58
134464,15
135032,13
135608,21
136176,20
136752,18
137328,13
137896,19
138480,33
139048,59
139632,73
140204,49
140776,50
141360,19
141928,45
142512,91
143084,76
143664,39
144232,18
144816,14
145384,17
145952,41
146536,69
147108,96
147688,127
148308,121
148936,68
149512,44
150084,20
150664,15
151236,19
151816,26
152388,28
152968,48
153536,60
154116,44
154696,19
155264,66
155848,83
156416,50
157000,49
157568,66
158152,79
158728,61
159300,58
159880,57
160452,46
161032,36
161600,36
162184,26
162752,22
163328,27
163912,40
164480,44
165056,46
165624,46
166200,53
166768,72
167352,57
167920,32
168496,11
169080,11
169648,10
170224,30
170792,34
171376,21
171944,42
172520,50
173104,47
173672,49
174256,43
174824,51
175408,102
176028,141
176652,123
177276,107
177896,104
178524,86
179092,60
179668,45
180248,63
180816,50
181400,190
182020,219
182648,142
183272,177
183892,128
184520,31
185084,26
185664,29
186232,12
186808,67
187376,102
188004,83
188580,43
189152,84
189728,101
190348,70
190928,48
191504,48
192076,26
192656,64
193224,112
193852,69
194420,21
195000,12
195568,11
196144,33
196728,86
197300,95
197880,84
198448,90
199032,87
199604,39
200180,19
200760,56
201328,74
201912,61
202484,57
203064,73
203636,129
204268,142
204896,84
205464,39
206040,71
206608,120
207244,106
207864,96
208432,85
209016,78
209584,60
210160,35
210728,11
211312,30
211880,97
212456,153
213092,116
213712,55
214288,47
214856,61
215440,61
216008,63
216584,24
217168,18
217736,33
218320,39
218888,66
219472,95
220044,115
220676,94
221252,25
221824,63
222400,122
223020,97
223600,79
224172,82
224744,85
225328,70
225896,70
226480,41
227048,22
227632,27
228200,16
228784,18
229356,19
229932,23
230512,43
231080,45
231664,46
232236,48
232816,38
233384,28
233960,41
234544,50
235116,40
235696,17
236268,12
236848,67
237416,154
238052,175
238680,69
239252,47
239832,65
240404,65
240984,53
241552,51
242132,58
242712,56
243284,47
243864,17
244432,14
245016,19
245588,35
246168,46
246744,36
247320,48
247904,62
248476,63
249056,52
249624,30
250208,58
250780,97
251356,126
251988,128
252608,111
253236,115
253856,77
254428,45
255008,30
255580,45
256160,60
256732,52
257312,46
257880,29
258456,12
259024,107
259652,169
260280,112
260896,46
261472,21
262040,51
262616,80
263200,55
263768,36
264352,45
264920,49
265504,46
266076,46
266656,19
267224,13
267800,15
268384,35
268952,41
269536,18
270104,19
270688,28
271256,42
271836,43
272416,50
272984,69
273568,67
274140,56
274720,27
275288,14
275872,21
276444,46
277020,42
277600,20
278168,18
278752,13
279324,19
279904,51
280476,78
281052,67
281632,45
282200,46
282784,49
283356,62
283936,64
284508,32
285088,56
285660,167
286284,155
286916,67
287484,16
288064,56
288632,109
289260,129
289888,74
290452,46
291032,49
291604,59
292184,85
292752,46
293332,25
293912,22
294484,11
295064,19
295632,43
296216,13
296788,55
297368,47
297940,43
298512,48
299096,48
299668,20
300248,12
300820,26
301400,28
301972,11
302548,12
303128,38
303700,57
304280,72
304852,58
305432,39
306004,69
306584,82
307156,95
307732,102
308364,102
308984,109
309608,99
310180,55
310756,14
311336,43
311908,22
312488,11
313060,17
313640,49
314208,54
314792,45
315364,47
315940,53
316520,40
317092,38
317672,13
318252,32
318832,41
319412,27
319988,23
320572,63
321140,68
321720,43
322288,54
322872,55
323444,58
324024,49
324592,35
325172,69
325752,101
326376,70
326952,47
327524,59
328104,61
328672,56
329240,23
329824,53
330392,81
330976,65
331544,53
332128,45
332696,48
333276,61
333856,90
334424,80
335008,26
335576,22
336160,56
336728,48
337312,49
337880,32
338460,44
339040,67
339612,97
340192,100
340812,71
341388,49
341960,29
342536,11
343120,26
343688,29
344272,19
344844,13
345424,13
345996,11
346576,37
347152,62
347724,67
348304,63
348872,65
349456,56
350024,42
350608,13
351180,40
351756,42
352336,46
352904,63
353488,95
354060,108
354692,95
355264,52
355836,46
356416,58
356988,63
357568,59
358140,49
358720,41
359296,27
359880,19
360456,10
361024,18
361608,11
362176,16
362760,25
363332,29
363912,37
364484,43
365056,54
365640,48
366212,23
366792,23
367364,15
367944,25
368516,34
369096,14
369672,42
370240,61
370824,48
371396,27
371976,45
372548,70
373128,81
373696,74
374276,69
374856,46
375428,39
376008,27
376576,14
377160,37
377732,61
378312,92
378888,71
379456,26
380040,74
380612,61
381192,43
381772,46
382352,49
382924,18
383500,22
384080,12
384652,36
385232,54
385804,15
386384,45
386956,75
387536,65
388112,55
388684,42
389264,43
389832,43
390416,51
390984,58
391568,57
392140,75
392716,81
393296,58
393868,26
394448,19
395016,27
395600,52
396172,83
396752,89
397328,61
397900,44
398480,48
399052,48
399632,115
400256,139
400884,104
401512,78
402076,86
402656,81
403228,63
403808,61
404380,57
404956,38
405536,47
406108,46
406688,54
407260,82
407840,111
408464,115
409092,116
409720,111
410336,68
410912,53
411480,27
412064,16
412632,74
413212,77
413792,51
414360,55
414944,82
415512,84
416096,56
416664,25
417232,17
417808,21
418376,11
418960,14
419528,19
420112,19
420680,37
421264,29
421832,53
422412,95
422992,89
423560,61
424144,49
424712,39
425296,49
425864,64
426448,64
427024,43
427596,30
428176,12
428744,31
429328,51
429900,50
430480,45
431048,46
431624,45
432208,65
432776,56
433360,29
433928,13
434512,17
435084,19
435664,13
436240,14
436808,46
437392,92
437964,103
438596,47
439168,52
439744,99
440316,149
440944,170
441572,168
442192,108
442820,54
443392,141
444020,100
444648,26
445212,33
445792,42
446364,19
446940,54
447520,54
448092,47
448672,75
449240,127
449876,122
450500,41
451068,11
451648,14
452216,20
452800,11
453368,23
453952,35
454524,61
455104,47
455676,46
456252,55
456832,69
457404,63
457984,61
458556,55
459136,63
459708,67
460284,49
460864,42
461432,29
462008,11
462576,23
463160,16
463732,40
464312,43
464884,50
465456,49
466040,37
466608,30
467192,47
467764,64
468344,46
468916,55
469492,50
470072,20
470644,27
471224,64
471796,116
472428,122
473052,108
473676,112
474304,66
474868,13
475448,17
476020,22
476600,19
477172,29
477748,26
478328,13
478900,11
479480,52
480052,82
480632,51
481204,43
481780,49
482360,74
482932,61
483512,26
484084,22
484664,83
485236,169
485868,130
486496,62
487064,69
487648,131
488272,85
488848,51
489420,57
489996,58
490576,52
491148,26
491728,31
492308,61
492888,67
493456,64
494032,46
494616,34
495188,34
495768,38
496340,51
496920,60
497488,51
498072,45
498644,49
499220,45
499800,13
500372,52
500952,90
501532,78
502112,63
502692,59
503268,66
503848,49
504420,44
505000,40
505572,70
506156,87
506732,74
507312,59
507892,56
508468,60
509048,92
509620,93
510200,67
510772,48
511352,27
511932,14
512508,18
513088,26
513656,38
514240,59
514808,105
515444,117
516064,101
516684,85
517260,83
517832,81
518408,57
518976,35
519560,24
520132,18
520704,20
521288,24
521856,79
522440,112
523060,108
523688,81
524256,55
524832,50
525416,49
525988,40
526568,33
527140,14
527720,11
528292,10
528864,19
529448,11
530016,39
530600,46
531172,79
531752,86
532332,50
532912,21
533480,22
534060,17
534640,11
535208,11
535792,32
536364,72
536944,107
537568,101
538192,84
538768,44
539336,51
539920,73
540492,117
541124,135
541752,102
542368,73
542948,72
543524,79
544104,88
544672,59
545248,23
545832,43
546404,20
546984,43
547556,41
548136,53
548708,58
549288,40
549868,12
550444,23
551024,35
551596,11
552176,53
552756,83
553336,116
553968,96
554536,48
555112,55
555684,104
556316,85
556888,48
557464,69
558036,46
558612,49
559192,30
559764,16
560344,25
560924,30
561504,17
562076,10
562652,36
563232,106
563856,110
564484,80
565052,57
565632,43
566204,29
566780,69
567360,174
567984,188
568612,111
569236,39
569808,22
570392,15
570964,18
571544,25
572116,45
572696,51
573276,61
573856,68
574436,67
575012,69
575592,70
576164,56
576744,52
577312,55
577896,37
578468,11
579044,10
579624,14
580196,37
580776,42
581348,43
581928,48
582500,53
583080,13
583652,45
584228,54
584808,52
585380,61
585960,57
586532,73
587112,72
587692,57
588268,40
588848,54
589416,72
590000,69
590572,61
591152,72
591732,86
592312,98
592892,80
593468,39
594048,27
594620,29
595200,30
595768,46
596352,43
596924,39
597500,46
598080,46
598652,46
599232,44
599804,72
600384,94
600964,99
601544,91
602120,83
602692,69
603272,55
603844,34
604424,24
605004,37
605584,42
606164,49
606740,54
607320,61
607892,65
608476,74
609052,79
609632,67
610212,35
610788,13
611368,10
611940,32
612520,25
613096,20
613676,46
614252,41
614836,47
615408,47
615984,33
616568,31
617140,25
617720,15
618292,10
618872,17
619444,15
620020,27
620600,37
621172,34
621752,37
622324,39
622904,45
623476,51
624056,72
624636,82
625212,63
625792,54
626364,64
626944,51
627524,32
628104,12
628676,67
629252,84
629832,35
630404,40
630984,44
631556,47
632136,51
632716,25
633296,12
633880,23
634452,31
635032,29
635608,32
636184,25
636756,21
637336,24
637916,47
638492,40
639072,41
639648,49
640228,46
640800,51
641376,28
641944,24
642520,19
643104,40
643676,57
644256,64
644828,36
645408,41
645976,91
646560,53
647128,44
647708,54
648288,60
648860,59
649440,37
650012,32
650592,20
651164,11
651740,15
652320,24
652892,30
653472,43
654044,45
654624,22
655196,46
655776,40
656352,45
656928,47
657512,47
658084,33
658664,29
659232,21
659816,13
660388,11
660964,15
661544,23
662116,42
662696,25
663268,45
663848,45
664420,45
665000,47
665572,44
666148,15
666728,12
667296,21
667880,20
668448,14
669032,37
669600,50
670176,20
670760,12
671328,24
671912,75
672484,97
673064,85
673632,50
674216,40
674788,19
675364,30
675944,35
676512,48
677096,25
677668,12
678248,10
678820,48
679392,62
679976,43
680548,43
681128,46
681696,44
682280,44
682848,34
683432,35
684004,17
684576,14
685160,10
685732,28
686312,61
686884,59
687464,44
688036,15
688608,54
689192,56
689764,63
690344,70
690916,68
691496,62
692076,75
692656,71
693228,43
693804,53
694384,67
694956,40
695536,13
696108,13
696688,41
697256,41
697836,46
698416,45
698984,50
699568,53
700140,61
700720,59
701300,47
701880,27
702460,19
703036,18
703616,16
704192,19
704768,21
705340,43
705920,52
706492,73
707068,71
707648,55
708220,31
708800,24
709368,19
709952,67
710524,132
711156,101
711788,106
712408,128
713036,55
713608,38
714184,58
714760,70
715336,67
715912,47
716488,12
717064,43
717644,46
718224,13
718796,22
719372,26
719952,25
720524,47
721104,19
721676,59
722256,73
722828,60
723408,52
723984,51
724556,40
725136,32
725708,41
726288,38
726868,13
727448,14
728028,30
728604,19
729184,15
729756,26
730336,37
730908,45
731488,51
732060,44
732636,27
733216,22
733788,26
734368,14
734940,35
735520,59
736100,52
736680,43
737252,42
737828,15
738408,51
738980,62
739560,61
740132,76
740712,85
741284,112
741912,107
742540,20
743104,11
743688,23
744260,56
744840,73
745412,66
745988,60
746568,61
747140,53
747720,46
748292,47
748872,59
749444,155
750076,201
750708,160
751328,87
751904,22
752484,14
753064,66
753636,91
754212,89
754792,55
755368,45
755944,46
756516,51
757096,51
757676,35
758252,38
758832,69
759404,91
759984,105
760608,112
761240,82
761808,19
762388,22
762968,20
763540,45
764120,44
764700,47
765280,67
765860,90
766436,59
767016,16
767592,25
768172,47
768740,29
769320,12
769888,42
770472,52
771044,17
771620,50
772200,56
772772,45
773352,51
773932,47
774512,28
775084,17
775660,21
776240,48
776812,46
777392,45
777964,46
778544,13
779116,48
779696,71
780276,58
780852,51
781432,51
782004,47
782584,26
783156,24
783736,23
784316,12
784892,14
785472,22
786044,27
786624,27
787196,30
787780,17
788356,43
788936,45
789520,47
790092,59
790672,95
791244,114
791876,112
792500,89
793072,49
793648,17
794220,20
794800,14
795372,52
795952,51
796532,39
797112,46
797692,53
798272,71
798852,71
799424,56
800000,50
800576,71
801160,61
801732,66
802308,38
802888,51
803460,138
804092,207
804708,227
805340,197
805968,155
806584,69
807160,47
807732,65
808312,104
808936,136
809560,117
810188,48
810756,11
811336,27
811916,54
812496,72
813080,56
813652,38
814232,50
814804,50
815384,47
815956,26
816540,19
817116,11
817692,33
818272,65
818844,103
819476,57
820048,18
820624,69
821192,89
821768,130
822404,174
823020,173
823648,122
824272,29
824840,137
825476,181
826096,133
826720,71
827292,51
827864,38
828448,49
829016,19
829600,15
830168,38
830752,44
831320,63
831904,70
832476,55
833048,16
833632,34
834200,47
834784,27
835352,39
835936,57
836508,66
837084,55
837664,35
838236,43
838816,53
839388,56
839968,59
840540,67
841120,66
841688,83
842264,91
842848,95
843416,73
844000,48
844568,12
845152,54
845720,73
846300,53
846880,39
847448,46
848032,49
848600,56
849184,31
849756,60
850336,78
850908,40
851480,18
852064,47
852632,59
853216,16
853788,42
854368,55
854940,43
855516,45
856096,44
856668,47
857248,59
857820,106
858452,107
859076,65
859644,61
860224,90
860792,129
861428,122
862048,52
862624,27
863196,61
863772,56
864352,44
864924,47
865504,127
866128,306
866756,234
867384,103
868000,55
868576,30
869148,34
869728,46
870300,15
870876,27
871456,71
872028,113
872660,72
873228,81
873808,103
874432,174
875052,195
875680,110
876304,15
876880,69
877448,54
878032,123
878660,220
879280,273
879908,220
880532,87
881104,49
881688,63
882256,70
882840,54
883412,65
883992,62
884564,59
885144,45
885716,32
886292,18
886872,40
887444,70
888024,55
888596,49
889176,65
889748,69
890324,55
890904,25
891476,11
892056,20
892628,15
893208,13
893788,20
894368,12
894940,21
895516,28
896100,17
896668,61
897248,63
897820,53
898400,46
898972,48
899548,21
900128,32
900700,16
901280,14
901852,39
902432,69
903000,88
903584,75
904156,50
904732,32
905312,60
905884,68
906464,61
907036,55
907616,33
908196,21
908772,36
909352,60
909924,80
910504,76
911076,68
911656,18
912236,26
912816,23
913388,61
913964,51
914544,46
915116,56
915700,84
916276,82
916856,53
917436,32
918012,42
918592,22
919164,19
919744,32
920316,36
920896,50
921476,84
922060,96
922640,99
923212,70
923792,72
924364,99
924944,95
925516,77
926096,63
926676,25
927252,127
927884,187
928504,214
929132,173
929756,141
930376,64
930956,49
931528,48
932104,45
932676,30
933256,37
933836,46
934412,52
934992,38
935564,17
936144,42
936724,79
937304,86
937884,67
938460,42
939040,50
939612,55
940192,53
940764,73
941348,120
941976,150
942600,133
943228,82
943796,38
944376,21
944956,19
945536,59
946116,97
946692,69
947272,45
947844,48
948424,67
948996,48
949576,11
950156,18
950736,33
951320,13
951892,48
952476,68
953048,67
953624,43
954204,53
954784,51
955364,47
955940,45
956520,47
957096,46
957676,30
958252,44
958832,47
959412,20
959988,24
960572,25
961144,12
961720,25
962292,67
962872,128
963504,136
964124,127
964752,82
965324,47
965904,61
966476,77
967056,113
967684,144
968304,174
968932,182
969552,100
970180,17
970760,20
971332,46
971912,85
972488,103
973116,103
973740,95
974312,70
974888,19
975460,69
976040,51
976612,20
977192,26
977772,47
978352,51
978932,49
979508,58
980088,55
980660,42
981240,52
981812,47
982392,46
982972,58
983548,70
984128,65
984700,34
985280,84
985852,118
986484,86
987052,63
987628,50
988208,48
988776,79
989360,85
989932,71
990512,66
991092,27
991672,39
992252,74
992828,62
993408,38
993980,21
994560,12
995132,17
995712,18
996292,22
996868,41
997448,42
998020,50
998600,50
999172,33
999752,22
1000332,14
1000956,12
1001588,13
1002208,16
1002836,32
1003460,37
1004084,25
1004712,43
1005336,79
1005964,87
1006588,79
1007216,66
1007844,50
1008468,55
1009096,56
1009724,36
1010344,18
1010972,25
1011596,27
1012224,16
1012856,24
1013472,40
1014100,67
1014724,61
1015348,50
1015980,14
1016600,26
1017228,34
1017852,40
1018480,23
1019108,21
1019732,41
1020364,76
1020992,69
1021616,42
1022244,82
1022868,105
1023548,49
1024176,36
1024788,125
1025468,137
1026144,82
1026756,35
1027384,124
1028060,116
1028728,122
1029408,145
1030076,154
1030748,86
1031372,54
1031992,48
1032620,68
1033248,97
1033864,85
1034492,21
1035116,24
1035744,12
1036372,20
1036992,49
1037620,57
1038240,42
1038864,60
1039492,62
1040112,56
1040740,43
1041360,48
1041984,77
1042612,82
1043232,67
1043860,55
1044488,55
1045104,30
1045732,10
1046352,35
1046984,60
1047612,80
1048232,60
1048860,47
1049480,13
1050112,32
1050740,40
1051360,27
1051988,13
1052612,13
1053232,89
1053860,161
1054532,104
1055208,45
1055832,48
1056448,58
1057076,66
1057700,66
1058320,65
1058948,78
1059568,67
1060196,27
1060816,11
1061440,50
1062068,66
1062688,29
1063316,42
1063944,46
1064568,46
1065196,48
1065820,38
1066448,25
1067076,38
1067696,29
1068324,24
1068944,37
1069572,55
1070200,37
1070824,14
1071452,42
1072076,60
1072696,63
1073328,51
1073944,53
1074572,25
1075196,34
1075824,102
1076504,78
1077120,45
1077748,48
1078376,22
1079000,65
1079628,161
1080304,198
1080972,134
1081648,63
1082264,55
1082884,95
1083516,110
1084188,82
1084812,60
1085436,31
1086064,16
1086692,33
1087316,37
1087948,39
1088576,45
1089192,45
1089820,47
1090444,46
1091072,42
1091700,80
1092320,112
1093000,61
1093616,104
1094292,107
1094968,58
1095592,34
1096216,19
1096844,40
1097464,45
1098092,54
1098716,48
1099340,14
1099968,31
1100588,47
1101216,37
1101844,14
1102464,13
1103092,23
1103716,41
1104348,37
1104976,41
1105592,61
1106224,83
1106844,90
1107468,78
1108096,70
1108720,71
1109348,61
1109972,13
1110596,28
1111224,13
1111844,10
1112472,45
1113100,66
1113720,47
1114348,93
1114972,133
1115656,83
1116276,55
1116896,37
1117524,16
1118148,67
1118772,187
1119456,341
1120124,249
1120800,71
1121424,50
1122040,67
1122668,61
1123292,77
1123916,93
1124544,86
1125160,117
1125844,109
1126520,66
1127140,14
1127772,19
1128392,63
1129016,71
1129644,46
1130260,53
1130892,77
1131516,52
1132140,49
1132768,43
1133392,34
1134020,12
1134652,46
1135272,55
1135900,36
1136528,20
1137156,17
1137784,31
1138404,60
1139032,67
1139656,72
1140280,83
1140908,88
1141528,66
1142156,23
1142780,12
1143408,16
1144036,14
1144660,15
1145292,21
1145920,44
1146536,93
1147168,129
1147844,130
1148516,89
1149140,31
1149764,138
1150444,250
1151120,277
1151796,188
1152476,58
1153100,14
1153720,13
1154348,15
1154972,50
1155592,50
1156224,45
1156840,50
1157468,20
1158092,29
1158716,62
1159344,71
1159960,68
1160592,63
1161216,67
1161840,54
1162468,47
1163092,92
1163720,140
1164400,131
1165068,116
1165744,85
1166368,52
1166984,12
1167616,56
1168240,121
1168920,225
1169592,281
1170260,146
1170936,56
1171564,38
1172184,50
1172812,55
1173436,70
1174060,68
1174688,52
1175312,33
1175940,11
1176564,36
1177188,30
1177820,21
1178444,28
1179072,53
1179700,48
1180320,53
1180948,80
1181572,120
1182252,108
1182928,71
1183552,15
1184180,85
1184812,114
1185484,83
1186108,58
1186732,39
1187356,31
1187988,38
1188608,54
1189236,58
1189860,62
1190484,67
1191112,65
1191732,72
1192360,80
1192988,95
1193608,94
1194236,74
1194860,38
1195492,31
1196120,42
1196744,38
1197376,59
1198000,83
1198624,99
1199252,67
1199872,21
1200504,13
1201124,15
1201748,11
1202380,35
1203000,84
1203628,106
1204312,87
1204928,41
1205556,48
1206180,48
1206804,47
1207432,50
1208056,95
1208684,150
1209368,159
1210036,99
1210660,55
1211284,39
1211908,128
1212592,104
1213260,78
1213888,86
1214516,69
1215136,47
1215768,41
1216392,33
1217020,13
1217652,17
1218272,19
1218900,36
1219524,33
1220148,15
1220776,29
1221400,54
1222028,52
1222652,50
1223280,47
1223908,41
1224532,62
1225164,82
1225792,66
1226416,49
1227044,41
1227668,12
1228296,62
1228924,65
1229540,31
1230172,44
1230792,46
1231416,45
1232044,54
1232660,16
1233288,27
1233912,54
1234536,52
1235164,29
1235788,13
1236416,18
1237048,33
1237664,62
1238292,96
1238916,109
1239600,144
1240272,162
1240948,104
1241624,14
1242252,92
1242872,197
1243552,155
1244228,74
1244848,28
1245476,10
1246100,25
1246724,35
1247356,46
1247976,48
1248608,49
1249228,16
1249852,15
1250484,62
1251104,123
1251784,98
1252412,84
1253032,107
1253712,137
1254388,80
1255008,53
1255636,123
1256312,181
1256988,183
1257664,128
1258332,65
1258956,32
1259588,20
1260208,15
1260836,25
1261460,13
1262084,11
1262716,18
1263336,38
1263968,49
1264592,50
1265216,48
1265844,26
1266464,15
1267092,23
1267724,11
1268344,13
1268972,12
1269596,35
1270228,35
1270860,42
1271480,43
1272108,44
1272732,46
1273356,45
1273988,27
1274608,40
1275236,81
1275860,124
1276536,147
1277220,113
1277892,82
1278512,18
1279144,27
1279760,41
1280392,46
1281016,45
1281636,57
1282264,42
1282884,17
1283512,17
1284144,27
1284760,103
1285440,162
1286104,151
1286780,130
1287456,77
1288072,46
1288700,61
1289328,47
1289944,48
1290572,49
1291196,77
1291820,109
1292500,120
1293172,98
1293796,81
1294424,62
1295048,30
1295676,74
1296300,85
1296920,46
1297548,51
1298168,47
1298796,46
1299420,49
1300044,61
1300672,23
1301288,47
1301916,76
1302548,72
1303168,40
1303796,87
1304420,203
1305100,171
1305776,133
1306452,50
1307076,68
1307708,106
1308380,87
1309004,59
1309628,21
1310252,53
1310884,65
1311500,28
1312132,10
1312752,33
1313372,54
1314000,44
1314620,46
1315248,49
1315876,47
1316496,46
1317124,37
1317744,41
1318372,51
1319004,46
1319624,47
1320252,54
1320876,41
1321496,44
1322124,58
1322744,71
1323372,74
1323992,77
1324616,94
1325248,118
1325916,140
1326592,115
1327272,48
1327888,19
1328516,24
1329140,15
1329764,44
1330392,60
1331016,60
1331644,57
1332272,49
1332888,37
1333516,37
1334140,53
1334768,65
1335396,60
1336016,47
1336644,39
1337264,50
1337888,43
1338516,64
1339136,91
1339764,107
1340444,117
1341116,149
1341792,123
1342472,70
1343088,49
1343716,19
1344340,21
1344968,99
1345596,108
1346268,57
1346892,42
1347516,44
1348136,59
1348768,85
1349384,111
1350064,121
1350740,61
1351360,13
1351988,21
1352612,16
1353236,34
1353864,38
1354480,34
1355108,51
1355732,49
1356356,50
1356984,46
1357600,51
1358228,98
1358856,104
1359532,88
1360156,63
1360780,31
1361408,17
1362036,26
1362652,23
1363284,54
1363904,48
1364528,51
1365156,47
1365776,41
1366404,74
1367024,70
1367648,110
1368332,159
1369004,119
1369676,26
1370300,118
1370972,142
1371648,161
1372328,162
1372996,130
1373672,80
1374296,48
1374912,33
1375540,96
1376164,94
1376788,79
1377416,86
1378032,80
1378664,35
1379284,40
1379908,57
1380536,46
1381160,60
1381788,54
1382420,24
1383036,13
1383668,33
1384292,47
1384920,35
1385548,23
1386168,17
1386796,17
1387420,22
1388044,47
1388672,100
1389348,104
1390024,75
1390656,84
1391272,66
1391900,39
1392528,13
1393156,63
1393788,29
1394408,22
1395036,26
1395660,32
1396284,50
1396912,49
1397528,51
1398156,49
1398780,42
1399408,12
1400036,17
1400660,15
1401288,14
1401916,95
1402536,75
1403164,72
1403788,114
1404472,80
1405092,47
1405712,54
1406340,53
1406964,45
1407588,56
1408220,105
1408896,119
1409568,28
1410192,29
1410808,13
1411436,11
1412060,25
1412684,47
1413312,45
1413928,51
1414556,59
1415184,69
1415808,118
1416488,115
1417156,43
1417776,12
1418404,11
1419024,13
1419652,25
1420276,28
1420900,26
1421528,47
1422152,51
1422780,87
1423412,126
1424084,129
1424760,71
1425376,50
1426000,40
1426628,16
1427248,14
1427876,16
1428504,17
1429128,56
1429756,79
1430380,52
1431012,45
1431644,82
1432264,139
1432944,82
1433568,34
1434192,53
1434820,68
1435440,62
1436068,65
1436696,51
1437312,31
1437944,47
1438568,91
1439196,94
1439828,70
1440448,48
1441076,51
1441700,74
1442320,82
1442948,63
1443568,35
1444196,12
1444820,27
1445440,25
1446068,28
1446688,50
1447316,52
1447944,48
1448568,46
1449196,67
1449820,33
1450448,16
1451076,30
1451696,64
1452324,64
1452948,51
1453572,23
1454204,44
1454824,97
1455452,66
1456076,55
1456700,50
1457328,25
1457944,18
1458572,12
1459196,18
1459824,57
1460452,81
1461076,65
1461704,35
1462336,14
1462952,70
1463584,93
1464208,79
1464836,86
1465464,88
1466088,79
1466716,36
1467340,29
1467964,21
1468596,60
1469216,133
1469896,108
1470576,75
1471200,68
1471828,56
1472456,53
1473080,47
1473708,67
1474328,83
1474956,69
1475580,22
1476208,45
1476836,114
1477512,30
1478132,10
1478764,13
1479384,30
1480012,45
1480636,46
1481256,48
1481888,44
1482504,27
1483132,38
1483756,29
1484380,12
1485012,29
1485632,43
1486260,16
1486888,29
1487512,47
1488140,43
1488764,59
1489392,80
1490020,73
1490640,81
1491268,74
1491892,68
1492512,49
1493144,17
1493760,16
1494388,38
1495012,61
1495636,28
1496268,50
1496888,77
1497516,99
1498148,156
1498820,162
1499496,116
1500176,71
1500800,17
1501428,80
1502052,189
1502736,250
1503408,298
1504084,248
1504760,80
1505384,48
1506000,67
1506628,57
1507252,61
1507876,70
1508508,90
1509128,108
1509808,64
1510432,47
1511048,16
1511680,57
1512304,21
1512932,53
1513564,64
1514184,57
1514816,51
1515440,44
1516064,82
1516692,71
1517312,44
1517940,16
1518564,17
1519188,24
1519820,12
1520440,14
1521068,34
1521700,42
1522320,45
1522948,51
1523572,60
1524204,66
1524832,78
1525452,70
1526080,36
1526704,27
1527328,50
1527956,13
1528576,87
1529204,67
1529828,43
1530452,47
1531084,45
1531704,46
1532332,16
1532964,19
1533584,24
1534216,18
1534840,23
1535472,37
1536104,47
1536716,37
1537348,28
1537968,48
1538592,73
1539220,73
1539840,70
1540468,68
1541092,74
1541716,65
1542344,29
1542960,12
1543592,14
1544220,32
1544840,13
1545468,23
1546092,39
1546724,46
1547352,48
1547968,47
1548596,47
1549220,27
1549844,48
1550476,43
1551096,22
1551724,29
1552348,47
1552972,59
1553604,51
1554224,17
1554852,78
1555484,80
1556104,61
1556732,61
1557356,80
1557988,109
1558668,118
1559340,99
1559964,75
1560596,58
1561216,34
1561844,75
1562468,55
1563096,56
1563728,144
1564396,198
1565072,132
1565752,82
1566376,36
1567008,28
1567628,22
1568260,40
1568888,21
1569504,19
1570136,17
1570760,21
1571384,44
1572012,46
1572632,48
1573260,65
1573884,92
1574512,111
1575192,117
1575868,91
1576488,93
1577116,54
1577736,42
1578364,23
1578988,19
1579612,51
1580244,55
1580868,50
1581496,52
1582124,67
1582744,115
1583424,78
1584048,44
1584672,44
1585300,94
1585920,161
1586600,183
1587280,108
1587956,41
1588580,81
1589204,95
1589828,80
1590460,69
1591080,93
1591708,129
1592392,116
1593060,45
1593688,22
1594308,95
1594936,125
1595616,106
1596284,56
1596912,59
1597540,76
1598160,57
1598788,76
1599416,154
1600092,182
1600768,169
1601432,112
1602108,46
1602732,31
1603352,20
1603980,14
1604604,56
1605224,77
1605856,82
1606476,68
1607104,46
1607736,31
1608352,26
1608980,36
1609604,45
1610232,54
1610860,66
1611480,47
1612108,21
1612732,34
1613356,49
1613988,52
1614608,48
1615236,93
1615860,99
1616484,42
1617112,12
1617736,25
1618364,16
1618996,14
1619616,36
1620244,68
1620868,109
1621548,104
1622224,58
1622848,47
1623476,47
1624108,27
1624728,41
1625356,51
1625980,30
1626612,10
1627240,15
1627856,31
1628488,27
1629112,40
1629732,51
1630364,46
1630984,46
1631612,48
1632240,20
1632860,27
1633492,44
1634116,62
1634744,58
1635372,59
1635992,53
1636624,59
1637248,44
1637876,43
1638508,166
1639176,155
1639852,97
1640476,66
1641092,20
1641720,27
1642344,48
1642972,34
1643600,14
1644216,11
1644844,11
1645464,11
1646084,47
1646712,46
1647328,44
1647956,46
1648580,63
1649204,86
1649828,48
1650448,17
1651076,11
1651696,29
1652320,36
1652948,33
1653572,17
1654200,15
1654828,68
1655448,90
1656076,103
1656748,65
1657368,63
1657996,106
1658668,92
1659292,38
1659920,100
1660596,54
1661220,25
1661844,13
1662468,19
1663096,53
1663720,69
1664348,81
1664972,57
1665592,18
1666220,46
1666836,37
1667468,43
1668088,54
1668708,81
1669340,91
1669960,61
1670588,14
1671216,86
1671832,107
1672512,76
1673128,74
1673752,95
1674380,94
1675000,69
1675628,32
1676252,18
1676872,48
1677504,69
1678120,29
1678748,24
1679376,37
1679992,47
1680624,53
1681244,167
1681924,144
1682600,104
1683264,88
1683892,44
1684520,24
1685136,24
1685764,18
1686384,28
1687016,24
1687644,33
1688264,49
1688892,47
1689516,47
1690136,45
1690768,27
1691384,20
1692012,10
1692632,41
1693256,51
1693884,59
1694504,35
1695132,17
1695760,31
1696376,39
1697008,47
1697628,47
1698256,101
1698936,89
1699552,62
1700180,39
1700804,11
1701424,26
1702052,23
1702672,24
1703300,61
1703924,41
1704548,46
1705176,65
1705800,65
1706428,72
1707056,71
1707672,73
1708304,73
1708928,57
1709556,43
1710184,46
1710804,35
1711432,12
1712056,12
1712676,36
1713308,46
1713928,50
1714556,47
1715180,48
1715804,61
1716436,31
1717060,12
1717688,13
1718316,10
1718936,27
1719564,51
1720188,28
1720820,21
1721448,76
1722064,93
1722692,89
1723316,74
1723940,43
1724568,13
1725184,66
1725816,83
1726440,52
1727060,25
1727692,70
1728312,71
1728940,59
1729568,53
1730192,47
1730820,84
1731444,68
1732072,51
1732700,51
1733320,49
1733948,44
1734572,55
1735196,70
1735824,59
1736448,25
1737076,54
1737700,123
1738376,155
1739052,137
1739724,100
1740396,118
1741076,124
1741748,114
1742420,33
1743044,94
1743664,80
1744292,58
1744920,81
1745536,87
1746168,72
1746788,53
1747420,46
1748048,46
1748664,48
1749292,70
1749916,61
1750540,24
1751172,16
1751792,37
1752420,35
1753044,27
1753668,19
1754296,38
1754920,51
1755548,46
1756180,45
1756800,45
1757428,68
1758052,104
1758732,92
1759356,47
1759976,12
1760608,28
1761228,30
1761852,22
1762484,16
1763104,51
1763732,141
1764412,81
1765032,48
1765660,16
1766284,10
1766912,22
1767544,18
1768160,17
1768788,12
1769412,13
1770036,14
1770664,13
1771280,46
1771908,60
1772532,55
1773156,55
1773784,61
1774408,73
1775036,76
1775668,56
1776288,27
1776916,11
1777540,12
1778172,10
1778800,11
1779416,41
1780048,57
1780672,69
1781296,57
1781924,43
1782544,14
1783172,15
1783796,31
1784420,67
1785052,46
1785672,24
1786304,39
1786932,114
1787604,87
1788228,48
1788852,86
1789476,72
1790108,55
1790728,49
1791356,87
1791984,100
1792660,90
1793284,18
1793908,70
1794536,80
1795164,63
1795784,19
1796412,37
1797036,71
1797660,65
1798288,60
1798912,38
1799540,30
1800164,11
1800788,23
1801416,27
1802036,24
1802664,22
1803292,31
1803912,23
1804540,48
1805164,66
1805792,86
1806420,84
1807040,67
1807668,50
1808292,29
1808912,12
1809544,26
1810160,23
1810788,24
1811412,61
1812036,50
1812664,42
1813280,60
1813908,60
1814540,46
1815160,43
1815788,17
1816412,31
1817040,31
1817672,12
1818288,67
1818916,127
1819592,99
1820208,47
1820836,35
1821456,49
1822084,49
1822708,53
1823332,67
1823960,81
1824584,94
1825216,80
1825844,80
1826464,51
1827092,35
1827716,17
1828344,11
1828976,14
1829592,40
1830220,47
1830848,54
1831468,53
1832100,40
1832720,40
1833348,27
1833972,13
1834596,12
1835228,12
1835852,24
1836480,13
1837108,32
1837728,82
1838356,88
1838984,73
1839612,54
1840244,40
1840864,29
1841492,41
1842116,12
1842740,81
1843372,78
1843988,13
1844620,10
1845240,11
1845860,47
1846492,79
1847112,71
1847744,59
1848372,63
1848992,47
1849620,42
1850240,29
1850868,49
1851500,177
1852172,289
1852848,242
1853524,117
1854196,39
1854820,74
1855444,101
1856120,97
1856744,97
1857364,93
1857992,95
1858624,105
1859292,66
1859916,36
1860540,29
1861164,11
1861792,13
1862412,30
1863040,83
1863664,107
1864340,78
1864964,57
1865588,41
1866216,50
1866848,37
1867464,16
1868092,15
1868716,33
1869340,53
1869972,20
1870592,59
1871220,139
1871904,152
1872572,140
1873248,141
1873928,121
1874604,92
1875228,47
1875852,64
1876480,231
1877164,152
1877836,48
1878464,17
1879092,54
1879712,59
1880344,49
1880964,47
1881596,44
1882228,15
1882848,15
1883476,14
1884100,50
1884728,88
1885356,65
1885976,21
1886604,36
1887228,16
1887856,42
1888484,43
1889108,53
1889740,56
1890368,63
1890988,95
1891616,92
1892240,52
1892868,23
1893500,14
1894120,11
1894752,32
1895372,38
1895996,40
1896628,40
1897248,53
1897876,75
1898508,74
1899128,61
1899760,32
1900380,18
1901012,15
1901644,10
1902264,18
1902892,13
1903516,27
1904144,26
1904772,66
1905392,77
1906024,65
1906644,51
1907268,53
1907900,62
1908520,45
1909148,11
1909780,37
1910400,19
1911028,10
1911652,44
1912284,65
1912916,64
1913536,119
1914220,98
1914840,53
1915464,32
1916096,72
1916712,85
1917344,85
1917976,77
1918596,40
1919224,16
1919852,39
1920484,33
1921112,41
1921728,49
1922356,54
1922980,47
1923604,70
1924232,111
1924908,77
1925532,29
1926164,25
1926784,20
1927412,13
1928036,29
1928664,29
1929292,40
1929912,45
1930540,45
1931164,62
1931788,70
1932420,55
1933040,51
1933668,53
1934292,59
1934916,27
1935548,14
1936168,30
1936796,81
1937428,94
1938048,55
1938676,47
1939300,45
1939932,47
1940560,53
1941176,105
1941860,124
1942536,95
1943160,51
1943792,36
1944416,11
1945044,35
1945676,28
1946296,40
1946924,50
1947548,49
1948168,49
1948800,18
1949416,11
1950044,13
1950668,10
1951292,14
1951924,11
1952544,20
1953172,17
1953804,28
1954424,70
1955052,82
1955676,48
1956308,64
1956940,42
1957560,89
1958188,18
1958816,76
1959440,67
1960068,32
1960688,43
1961316,89
1961940,75
1962564,43
1963196,42
1963816,44
1964444,47
1965076,46
1965696,13
1966324,15
1966948,15
1967576,14
1968208,20
1968824,20
1969452,25
1970076,21
1970700,20
1971328,76
1971944,91
1972576,107
1973256,102
1973924,87
1974548,57
1975172,22
1975800,13
1976432,14
1977048,25
1977676,50
1978300,62
1978924,24
1979552,39
1980172,44
1980800,47
1981424,48
1982048,24
1982676,28
1983300,31
1983932,17
1984564,16
1985184,18
1985812,15
1986436,18
1987068,18
1987696,52
1988312,83
1988944,88
1989568,63
1990192,34
1990820,11
1991440,27
1992068,79
1992692,96
1993316,54
1993948,80
1994572,141
1995252,72
1995880,42
1996496,49
1997124,47
1997748,46
1998372,55
1999004,80
1999624,89
2000252,64
2000876,30
2001500,27
2002128,17
2002744,13
2003376,14
2004004,19
2004624,39
2005252,53
2005876,54
2006508,44
2007136,13
2007752,45
2008380,73
2009004,85
2009628,74
2010256,77
2010872,68
2011504,81
2012128,107
2012804,105
2013480,69
2014096,52
2014724,55
2015356,98
2015976,124
2016660,152
2017336,120
2018012,60
2018636,14
2019260,20
2019884,22
2020512,64
2021136,62
2021764,49
2022388,43
2023016,45
2023644,31
2024268,61
2024896,85
2025528,117
2026196,108
2026876,74
2027496,43
2028120,17
2028748,38
2029368,51
2029996,48
2030628,67
2031248,68
2031880,38
2032504,40
2033132,103
2033816,99
2034432,66
2035060,17
2035688,43
2036312,19
2036940,47
2037560,54
2038192,90
2038820,280
2039492,266
2040172,107
2040848,28
2041472,73
2042104,91
2042728,71
2043356,36
2043988,25
2044608,15
2045240,30
2045864,38
2046488,42
2047120,42
2047736,47
2048368,45
2048992,11
2049612,14
2050240,11
2050856,17
2051484,18
2052112,19
2052728,25
2053356,22
2053976,15
2054608,58
2055236,66
2055856,64
2056484,52
2057104,39
2057732,44
2058360,53
2058976,49
2059604,28
2060228,36
2060852,17
2061480,27
2062096,21
2062724,40
2063344,44
2063968,46
2064596,44
2065220,28
2065848,20
2066476,20
2067096,29
2067724,23
2068348,18
2068976,29
2069604,28
2070224,18
2070852,47
2071476,49
2072096,48
2072728,52
2073344,52
2073972,45
2074596,53
2075220,50
2075848,40
2076464,21
2077092,20
2077724,15
2078344,19
2078972,21
2079596,39
2080228,47
2080852,44
2081468,56
2082100,78
2082720,93
2083344,107
2084024,76
2084636,46
2085268,15
2085896,23
2086512,35
2087140,30
2087764,54
2088392,68
2089020,79
2089636,72
2090268,56
2090888,36
2091516,56
2092144,64
2092768,40
2093396,18
2094020,10
2094644,31
2095272,45
2095888,40
2096520,44
2097144,43
2097764,46
2098396,52
2099020,38
2099648,12
2100276,32
2100896,47
2101524,28
2102144,14
2102776,12
2103404,34
2104024,59
2104652,44
2105276,46
2105900,47
2106528,47
2107144,16
2107776,17
2108400,10
2109024,17
2109652,29
2110276,35
2110904,35
2111532,11
2112152,24
2112780,41
2113404,46
2114032,50
2114660,47
2115280,32
2115908,34
2116532,26
2117152,36
2117784,56
2118400,40
2119028,22
2119652,53
2120276,94
2120908,71
2121528,44
2122156,64
2122788,79
2123408,68
2124036,82
2124660,91
2125292,66
2125920,13
2126536,25
2127168,13
2127792,85
2128416,157
2129096,49
2129712,80
2130340,81
2130972,48
2131592,59
2132220,39
2132844,35
2133472,42
2134100,22
2134720,20
2135348,31
2135972,55
2136596,22
2137228,28
2137848,64
2138476,63
2139100,69
2139724,62
2140352,34
2140976,21
2141604,60
2142232,84
2142852,41
2143480,25
2144104,16
2144732,14
2145360,18
2145984,41
2146612,52
2147236,77
2147860,58
2148488,27
2149104,33
2149736,69
2150360,91
2150984,99
2151612,111
2152284,89
2152908,39
2153540,15
2154160,45
2154788,62
2155412,109
2156088,137
2156768,92
2157384,51
2158012,45
2158644,44
2159264,33
2159892,16
2160516,25
2161148,15
2161776,16
2162392,33
2163024,48
2163648,46
2164272,49
2164900,45
2165520,47
2166148,51
2166772,14
2167396,63
2168028,39
2168648,26
2169280,38
2169908,17
2170528,81
2171156,92
2171780,147
2172464,140
2173140,56
2173760,55
2174388,84
2175020,80
2175640,63
2176272,29
2176892,12
2177520,14
2178152,17
2178768,33
2179396,40
2180020,43
2180644,46
2181272,46
2181888,20
2182516,11
2183140,11
2183764,11
2184392,12
2185008,16
2185640,19
2186268,14
2186888,15
2187516,57
2188140,73
2188772,66
2189400,55
2190020,48
2190648,18
2191272,11
2191896,15
2192524,18
2193144,11
2193772,25
2194396,10
2195020,13
2195652,38
2196272,56
2196900,47
2197532,46
2198152,85
2198780,130
2199460,57
2200080,12
2200708,31
2201328,104
2202008,59
2202636,14
2203256,13
2203884,14
2204508,46
2205140,44
2205768,50
2206384,64
2207016,86
2207640,89
2208264,98
2208892,93
2209512,65
2210140,53
2210764,24
2211388,14
2212020,20
2212640,41
2213268,45
2213896,44
2214520,57
2215148,65
2215772,57
2216404,33
2217032,12
2217648,24
2218276,11
2218900,22
2219528,35
2220156,56
2220776,48
2221408,52
2222032,60
2222656,49
2223284,42
2223904,29
2224536,75
2225164,79
2225784,77
2226412,47
2227036,21
2227668,23
2228300,20
2228920,25
2229548,45
2230176,43
2230800,45
2231428,50
2232048,44
2232676,25
2233300,26
2233924,15
2234556,94
2235176,137
2235860,106
2236540,39
2237160,17
2237792,45
2238416,45
2239040,55
2239668,61
2240288,58
2240920,40
2241548,34
2242168,58
2242796,33
2243420,28
2244052,12
2244680,19
2245296,14
2245924,45
2246548,48
2247172,46
2247804,47
2248424,35
2249052,20
2249676,14
2250300,13
2250932,18
2251552,27
2252180,17
2252812,16
2253428,27
2254060,43
2254684,46
2255312,62
2255940,57
2256560,47
2257188,36
2257812,57
2258436,45
2259068,22
2259688,15
2260316,34
2260940,45
2261564,57
2262192,60
2262816,61
2263444,56
2264076,76
2264696,57
2265324,19
2265948,43
2266580,79
2267208,95
2267824,71
2268456,41
2269076,161
2269752,223
2270436,202
2271108,84
2271736,52
2272364,99
2272984,51
2273612,18
2274236,12
2274860,31
2275492,16
2276112,32
2276740,37
2277364,53
2277992,33
2278620,54
2279244,90
2279872,87
2280504,52
2281120,52
2281752,81
2282376,63
2283004,49
2283636,45
2284256,49
2284884,83
2285508,133
2286184,128
2286860,60
2287480,48
2288108,64
2288740,102
2289412,132
2290092,115
2290768,71
2291392,60
2292020,72
2292648,61
2293272,15
2293900,48
2294520,76
2295148,53
2295772,41
2296396,45
2297024,44
2297648,43
2298276,43
2298908,36
2299528,59
2300156,68
2300780,60
2301412,16
2302044,40
2302664,64
2303296,62
2303920,47
2304544,47
2305172,54
2305792,59
2306420,59
2307044,56
2307668,47
2308296,42
2308912,33
2309540,17
2310172,14
2310792,30
2311420,52
2312044,39
2312676,38
2313304,49
2313924,53
2314552,51
2315176,36
2315800,27
2316428,18
2317048,24
2317676,29
2318300,33
2318924,43
2319556,40
2320176,29
2320804,59
2321432,92
2322056,88
2322684,69
2323308,53
2323940,50
2324568,65
2325184,54
2325812,28
2326436,10
2327060,20
2327688,28
2328312,17
2328940,71
2329568,67
2330192,47
2330820,45
2331440,61
2332068,46
2332700,26
2333320,47
2333948,75
2334576,81
2335204,92
2335836,116
2336508,90
2337132,71
2337756,60
2338380,81
2339012,82
2339632,52
2340260,76
2340892,140
2341564,144
2342244,116
2342920,70
2343544,47
2344172,12
2344796,11
2345428,17
2346060,40
2346680,43
2347308,43
2347936,44
2348560,22
2349188,48
2349808,76
2350440,72
2351064,63
2351688,58
2352316,62
2352936,59
2353568,47
2354196,50
2354816,103
2355500,142
2356172,149
2356844,120
2357520,107
2358188,117
2358860,96
2359488,32
2360104,11
2360732,33
2361364,40
2361984,32
2362612,40
2363236,44
2363868,48
2364496,44
2365120,20
2365748,15
2366376,73
2367000,234
2367684,238
2368356,76
2368980,22
2369612,58
2370232,64
2370864,81
2371488,59
2372112,47
2372740,46
2373360,27
2373988,18
2374616,71
2375240,96
2375868,66
2376488,29
2377116,31
2377748,98
2378368,81
2378996,43
2379620,45
2380252,49
2380880,50
2381504,57
2382132,31
2382756,22
2383380,11
2384012,24
2384632,45
2385260,55
2385884,60
2386512,37
2387140,19
2387760,75
2388388,88
2389020,86
2389640,65
2390272,64
2390896,61
2391528,35
2392156,12
2392776,89
2393408,123
2394084,84
2394704,40
2395336,21
2395952,44
2396584,49
2397212,45
2397832,44
2398464,35
2399088,55
2399720,59
2400352,50
2400968,20
2401596,26
2402220,27
2402844,24
2403476,19
2404096,54
2404724,65
2405348,61
2405976,52
2406604,60
2407224,73
2407852,78
2408480,75
2409104,49
2409732,25
2410356,17
2410984,18
2411616,24
2412232,29
2412864,41
2413488,47
2414112,51
2414740,66
2415360,67
2415988,52
2416616,29
2417240,18
2417868,23
2418488,29
2419116,40
2419748,42
2420368,31
2420996,47
2421620,63
2422252,55
2422880,52
2423504,37
2424136,51
2424760,65
2425384,65
2426012,29
2426632,12
2427264,25
2427888,44
2428512,30
2429140,40
2429764,44
2430396,47
2431028,46
2431648,34
2432280,30
2432904,23
2433532,19
2434164,16
2434784,26
2435412,40
2436036,51
2436664,49
2437292,40
2437912,61
2438544,79
2439168,107
2439844,119
2440520,92
2441144,65
2441768,41
2442396,10
2443016,21
2443648,20
2444272,38
2444896,41
2445524,37
2446148,41
2446780,57
2447408,57
2448032,51
2448660,30
2449284,21
2449916,16
2450544,16
2451168,25
2451800,25
2452424,33
2453048,31
2453680,18
2454296,44
2454928,51
2455560,53
2456176,52
2456808,68
2457432,78
2458064,73
2458692,49
2459312,11
2459940,10
2460564,18
2461188,18
2461820,22
2462440,47
2463068,44
2463692,47
2464316,46
2464944,31
2465564,19
2466192,51
2466820,42
2467440,13
2468068,73
2468692,103
2469372,79
2469996,59
2470616,48
2471244,44
2471868,45
2472492,49
2473120,62
2473740,87
2474368,101
2475048,80
2475672,45
2476300,12
2476924,49
2477556,82
2478184,50
2478808,19
2479436,42
2480060,52
2480684,48
2481312,48
2481928,19
2482560,13
2483184,11
2483808,10
2484436,11
2485060,21
2485688,46
2486320,51
2486936,20
2487564,49
2488188,45
2488820,53
2489448,70
2490068,20
2490696,80
2491320,130
2491996,135
2492676,109
2493348,75
2493968,45
2494596,24
2495216,42
2495844,61
2496472,51
2497096,49
2497724,96
2498344,127
2499024,74
2499652,55
2500272,42
2500900,33
2501524,39
2502152,52
2502780,56
2503400,41
2504028,44
2504652,77
2505276,99
2505908,112
2506580,106
2507256,81
2507884,51
2508504,25
2509136,12
2509756,17
2510380,23
2511012,42
2511632,20
2512264,37
2512884,42
2513508,43
2514140,48
2514764,45
2515396,11
2516024,16
2516648,14
2517276,11
2517900,17
2518532,17
2519164,34
2519784,74
2520416,139
2521096,99
2521712,50
2522340,51
2522964,55
2523596,68
2524228,92
2524848,107
2525528,99
2526148,84
2526772,82
2527400,70
2528024,66
2528652,54
2529276,42
2529904,43
2530536,44
2531160,47
2531792,57
2532420,117
2533092,121
2533772,69
2534392,33
2535016,116
2535700,261
2536372,170
2537044,39
2537672,89
2538288,126
2538968,104
2539652,84
2540272,92
2540900,93
2541524,75
2542152,52
2542780,27
2543400,19
2544028,13
2544660,11
2545280,31
2545908,52
2546536,47
2547164,45
2547796,50
2548416,30
2549048,12
2549672,12
2550296,11
2550928,23
2551544,53
2552176,98
2552800,86
2553424,68
2554056,42
2554676,70
2555304,69
2555936,50
2556556,31
2557188,17
2557812,27
2558444,48
2559076,63
2559696,94
2560332,120
2561004,98
2561620,48
2562248,44
2562868,43
2563500,45
2564128,48
2564744,52
2565372,74
2565996,96
2566624,105
2567304,90
2567920,91
2568548,69
2569172,37
2569792,16
2570424,22
2571040,62
2571668,69
2572296,66
2572912,62
2573544,56
2574164,65
2574796,81
2575424,80
2576040,35
2576672,27
2577292,65
2577920,66
2578552,18
2579168,56
2579796,83
2580420,75
2581044,51
2581676,19
2582296,11
2582924,13
2583548,23
2584176,43
2584804,41
2585428,40
2586060,31
2586688,27
2587304,42
2587932,46
2588556,48
2589188,58
2589816,56
2590432,15
2591064,29
2591688,66
2592312,78
2592940,66
2593560,53
2594188,25
2594812,15
2595440,36
2596068,45
2596692,42
2597320,57
2597952,98
2598572,108
2599252,72
2599872,33
2600496,15
2601124,20
2601744,19
2602372,22
2602996,20
2603620,14
2604248,59
2604872,80
2605500,78
2606132,70
2606752,62
2607380,57
2608004,63
2608632,55
2609264,29
2609880,23
2610512,12
2611136,32
2611760,26
2612388,39
2613008,43
2613636,44
2614260,44
2614884,31
2615516,16
2616140,11
2616768,10
2617400,24
2618016,35
2618648,49
2619272,59
2619900,57
2620532,44
2621152,48
2621784,67
2622404,85
2623028,69
2623656,52
2624276,51
2624900,33
2625524,18
2626148,44
2626776,84
2627396,124
2628080,167
2628752,200
2629420,82
2630044,61
2630676,64
2631296,44
2631924,20
2632548,118
2633228,201
2633904,212
2634572,224
2635248,216
2635924,168
2636596,104
2637272,42
2637900,82
2638520,98
2639148,89
2639772,94
2640396,124
2641076,135
2641748,118
2642424,102
2643104,95
2643720,71
2644348,28
2644972,13
2645592,40
2646220,59
2646840,100
2647520,83
2648140,59
2648760,30
2649388,29
2650012,31
2650636,48
2651264,95
2651880,111
2652560,70
2653188,29
2653808,38
2654436,64
2655060,68
2655688,60
2656320,61
2656936,67
2657564,103
2658240,111
2658908,58
2659532,11
2660152,11
2660780,18
2661412,14
2662032,19
2662660,43
2663284,45
2663912,47
2664540,48
2665156,13
2665788,18
2666408,21
2667028,17
2667660,30
2668280,36
2668908,41
2669528,43
2670152,45
2670780,38
2671400,51
2672028,65
2672656,76
2673272,84
2673904,83
2674524,70
2675156,56
2675784,53
2676408,59
2677036,42
2677660,12
2678284,29
2678912,40
2679528,51
2680160,46
2680784,68
2681408,116
2682088,99
2682704,43
2683332,24
2683960,30
2684584,43
2685212,28
2685836,32
2686464,63
2687096,101
2687764,62
2688392,47
2689012,104
2689688,145
2690360,165
2691028,130
2691700,47
2692324,39
2692948,66
2693576,21
2694208,21
2694824,14
2695452,39
2696076,47
2696704,44
2697332,46
2697952,53
2698580,42
2699204,37
2699828,32
2700456,20
2701076,13
2701704,23
2702328,39
2702952,56
2703580,53
2704204,66
2704832,44
2705460,46
2706080,46
2706708,30
2707332,25
2707960,37
2708588,59
2709208,25
2709836,27
2710460,31
2711084,43
2711712,74
2712332,63
2712960,52
2713584,65
2714208,74
2714836,145
2715512,107
2716188,58
2716812,76
2717432,63
2718060,32
2718684,19
2719308,13
2719940,33
2720560,61
2721188,45
2721816,48
2722440,88
2723068,128
2723744,132
2724412,124
2725088,87
2725704,38
2726332,25
2726964,10
2727584,51
2728212,107
2728888,110
2729556,65
2730180,43
2730800,45
2731428,35
2732060,16
2732680,15
2733308,15
2733932,20
2734564,10
2735192,23
2735812,43
2736440,51
2737064,33
2737688,78
2738316,96
2738936,87
2739564,70
2740188,51
2740812,33
2741440,18
2742064,11
2742692,10
2743324,10
2743944,41
2744576,35
2745196,19
2745828,44
2746456,43
2747076,44
2747704,48
2748328,19
2748952,18
2749580,45
2750200,16
2750828,25
2751452,13
2752080,42
2752708,28
2753328,33
2753956,110
2754640,162
2755308,114
2755984,52
2756612,82
2757232,123
2757912,115
2758588,77
2759208,52
2759836,24
2760456,13
2761084,16
2761708,39
2762332,59
2762964,51
2763588,44
2764216,47
2764844,23
2765460,18
2766092,12
2766712,13
2767344,17
2767972,14
2768592,27
2769220,29
2769844,25
2770468,39
2771096,47
2771720,65
2772348,71
2772972,66
2773596,48
2774228,61
2774852,75
2775484,37
2776112,10
2776732,14
2777360,15
2777984,40
2778612,34
2779244,50
2779864,49
2780492,47
2781116,46
2781740,25
2782372,10
2782992,32
2783624,20
2784248,13
2784872,16
2785500,27
2786124,27
2786752,23
2787384,48
2788000,62
2788628,49
2789252,45
2789884,20
2790512,31
2791128,43
2791760,35
2792384,11
2793004,12
2793636,10
2794256,15
2794884,14
2795508,67
2796132,78
2796764,45
2797388,45
2798016,44
2798648,54
2799264,88
2799896,79
2800520,51
2801148,30
2801780,23
2802400,29
2803028,43
2803652,38
2804276,48
2804908,62
2805528,71
2806156,74
2806780,60
2807408,38
2808036,40
2808660,39
2809292,12
2809920,11
2810536,15
2811168,18
2811792,15
2812420,43
2813052,40
2813672,45
2814300,45
2814928,25
2815552,21
2816184,13
2816800,11
2817428,11
2818056,19
2818672,38
2819300,37
2819924,31
2820552,41
2821180,49
2821800,57
2822428,57
2823052,53
2823680,49
2824308,59
2824928,58
2825556,43
2826180,31
2826804,19
2827436,12
2828056,11
2828684,37
2829308,44
2829936,45
2830564,48
2831188,54
2831820,66
2832448,40
2833064,21
2833696,14
2834320,32
2834948,43
2835580,66
2836200,83
2836828,73
2837452,46
2838076,44
2838708,52
2839328,53
2839956,42
2840588,48
2841208,81
2841836,113
2842512,121
2843188,111
2843868,68
2844488,33
2845116,25
2845748,40
2846368,43
2847000,47
2847624,44
2848252,21
2848880,50
2849504,55
2850132,34
2850756,34
2851380,46
2852012,62
2852632,55
2853260,52
2853884,42
2854512,63
2855140,71
2855764,62
2856396,44
2857024,24
2857648,37
2858276,46
2858900,32
2859528,13
2860156,34
2860776,70
2861408,67
2862032,39
2862656,37
2863288,44
2863904,46
2864536,49
2865164,11
2865784,11
2866416,11
2867040,11
2867668,17
2868300,20
2868920,35
2869548,48
2870172,39
2870796,43
2871424,44
2872040,45
2872672,47
2873296,52
2873920,64
2874548,75
2875168,57
2875796,36
2876428,34
2877048,20
2877676,14
2878300,19
2878932,37
2879560,52
2880184,52
2880812,47
2881432,55
2882056,39
2882684,16
2883304,21
2883932,31
2884556,61
2885176,94
2885808,89
2886424,63
2887052,37
2887676,42
2888304,55
2888932,53
2889556,58
2890188,72
2890816,84
2891432,86
2892064,73
2892688,48
2893316,39
2893948,14
2894568,14
2895196,50
2895820,53
2896444,45
2897072,68
2897692,77
2898320,58
2898948,34
2899568,31
2900196,37
2900820,80
2901448,101
2902132,89
2902752,36
2903380,42
2904004,104
2904680,112
2905356,96
2905976,70
2906604,27
2907236,41
2907856,50
2908488,18
2909108,15
2909732,19
2910364,14
2910984,15
2911612,23
2912236,47
2912860,41
2913492,44
2914116,44
2914744,33
2915372,23
2915992,13
2916620,11
2917248,19
2917876,18
2918508,30
2919128,42
2919756,50
2920380,53
2921004,49
2921632,44
2922248,47
2922880,56
2923504,85
2924128,122
2924808,142
2925476,117
2926148,92
2926772,60
2927392,17
2928020,49
2928652,100
2929324,118
2930000,117
2930676,154
2931348,136
2932024,91
2932648,56
2933272,15
2933900,53
2934520,85
2935148,47
2935772,16
2936400,40
2937028,39
2937648,53
2938276,68
2938908,62
2939528,53
2940156,33
2940784,64
2941412,48
2942044,35
2942664,40
2943296,55
2943920,42
2944544,19
2945176,29
2945792,45
2946420,47
2947044,47
2947668,46
2948300,15
2948920,49
2949548,93
2950180,106
2950852,79
2951476,45
2952100,19
2952724,13
2953352,14
2953976,37
2954604,49
2955228,45
2955852,51
2956484,70
2957104,96
2957732,91
2958364,82
2958984,37
2959616,10
2960236,11
2960868,37
2961496,70
2962112,63
2962744,86
2963368,107
2964040,60
2964668,36
2965288,18
2965916,19
2966548,16
2967168,13
2967796,11
2968424,64
2969052,88
2969684,42
2970300,38
2970932,53
2971556,58
2972180,70
2972808,77
2973424,86
2974052,59
2974676,24
2975300,12
2975932,10
2976552,9
2977128,15
2977760,11
2978384,53
2979012,74
2979632,54
2980260,45
2980892,44
2981512,52
2982140,72
2982768,91
2983396,97
2984024,72
2984648,66
2985276,87
2985900,70
2986524,24
2987156,69
2987776,98
2988404,85
2989028,79
2989656,74
2990284,117
2990956,131
2991636,96
2992264,19
2992880,104
2993560,102
2994236,75
2994856,29
2995488,39
2996108,67
2996740,109
2997424,49
2998040,33
2998668,25
2999292,10
2999920,12
3000552,12
3001176,21
3001804,59
3002436,46
3003056,19
3003684,47
3004312,68
3004936,63
3005568,55
3006184,45
3006816,11
3007440,24
3008064,47
3008692,56
3009312,57
3009940,51
3010572,34
3011192,37
3011824,84
3012448,124
3013128,126
3013808,95
3014432,47
3015060,13
3015692,20
3016312,13
3016944,127
3017620,309
3018296,283
3018972,218
3019644,140
3020324,70
3020952,44
3021568,45
3022196,57
3022824,121
3023500,176
3024180,192
3024852,182
3025524,110
3026204,78
3026824,61
3027456,19
3028084,45
3028704,46
3029336,48
3029960,59
3030584,68
3031216,55
3031832,50
3032464,52
3033092,39
3033712,29
3034340,24
3034968,27
3035596,30
3036228,28
3036848,22
3037476,65
3038104,83
3038728,67
3039356,50
3039976,23
3040608,10
3041232,11
3041860,23
3042488,22
3043104,21
3043736,16
3044368,25
3044984,17
3045612,52
3046240,54
3046868,47
3047500,44
3048120,20
3048748,13
3049376,23
3050000,17
3050628,12
3051248,15
3051880,27
3052504,18
3053128,14
3053756,48
3054376,69
3055008,80
3055636,76
3056256,73
3056888,75
3057512,43
3058144,49
3058772,124
3059444,56
3060072,15
3060696,12
3061320,27
3061952,35
3062568,51
3063200,55
3063832,47
3064448,52
3065080,49
3065704,20
3066336,15
3066964,30
3067584,25
3068216,26
3068840,12
3069464,42
3070096,31
3070716,43
3071348,57
3071972,54
3072600,49
3073228,28
3073848,25
3074476,24
3075104,10
3075728,18
3076356,27
3076980,51
3077612,47
3078240,35
3078860,47
3079488,47
3080112,49
3080736,53
3081364,56
3081984,45
3082612,22
3083236,64
3083860,71
3084492,52
3085112,17
3085740,43
3086372,46
3086992,41
3087620,52
3088244,49
3088876,97
3089504,58
3090124,66
3090752,115
3091428,105
3092100,63
3092728,35
3093348,26
3093980,11
3094612,10
3095232,43
3095860,49
3096484,53
3097108,49
3097740,46
3098360,15
3098988,13
3099612,26
3100236,52
3100868,74
3101488,51
3102116,40
3102748,29
3103368,24
3103996,39
3104624,45
3105252,51
3105884,55
3106504,58
3107136,62
3107760,58
3108384,39
3109016,14
3109632,10
3110264,13
3110888,21
3111512,16
3112144,40
3112764,44
3113392,44
3114024,46
3114640,27
3115272,15
3115896,12
3116524,15
3117156,22
3117776,14
3118408,80
3119032,88
3119656,45
3120288,41
3120904,54
3121532,44
3122156,44
3122784,49
3123412,54
3124036,59
3124664,72
3125296,53
3125912,26
3126544,35
3127168,12
3127796,34
3128428,21
3129048,40
3129676,43
3130300,45
3130924,46
3131556,26
3132176,22
3132804,11
3133428,27
3134056,13
3134684,53
3135312,98
3135940,123
3136624,81
3137248,42
3137876,51
3138500,55
3139128,57
3139756,44
3140376,35
3141008,36
3141636,52
3142256,40
3142888,19
3143512,34
3144144,41
3144772,20
3145392,44
3146024,69
3146648,111
3147324,104
3148004,65
3148624,39
3149256,32
3149884,18
3150504,35
3151136,78
3151760,90
3152392,108
3153072,108
3153748,40
3154376,46
3155004,44
3155624,45
3156252,44
3156880,91
3157508,143
3158192,143
3158860,66
3159488,28
3160116,20
3160736,19
3161368,34
3161992,65
3162620,118
3163304,91
3163920,72
3164552,65
3165176,25
3165800,39
3166432,61
3167056,46
3167688,12
3168316,44
3168936,60
3169568,37
3170192,35
3170824,47
3171452,44
3172072,48
3172704,67
3173328,94
3173952,103
3174636,86
3175256,64
3175884,33
3176516,14
3177136,17
3177768,29
3178392,18
3179016,38
3179648,45
3180264,58
3180896,78
3181520,82
3182144,47
3182772,23
3183392,13
3184024,24
3184652,30
3185272,38
3185904,27
3186528,29
3187160,48
3187792,70
3188412,65
3189040,59
3189668,73
3190292,75
3190924,88
3191544,92
3192176,67
3192804,19
3193428,37
3194060,12
3194680,12
3195312,41
3195944,57
3196564,75
3197196,60
3197820,51
3198452,19
3199084,12
3199704,11
3200336,34
3200960,17
3201580,17
3202212,22
3202832,33
3203460,80
3204084,86
3204704,54
3205332,48
3205956,47
3206584,60
3207216,104
3207884,102
3208560,85
3209176,46
3209800,67
3210428,43
3211048,27
3211676,17
3212308,120
3212980,70
3213604,47
3214228,54
3214856,20
3215484,19
3216104,12
3216732,14
3217356,27
3217980,43
3218608,118
3219276,116
3219952,29
3220580,149
3221252,166
3221928,82
3222556,52
3223176,55
3223804,71
3224432,72
3225060,52
3225692,26
3226312,81
3226940,64
3227564,54
3228188,48
3228816,49
3229432,54
3230064,53
3230688,44
3231312,23
3231940,13
3232560,28
3233188,35
3233820,37
3234440,63
3235068,78
3235696,46
3236324,17
3236952,62
3237576,79
3238204,90
3238828,82
3239452,76
3240084,43
3240704,45
3241332,35
3241956,12
3242580,9
3243160,11
3243784,35
3244412,33
3245036,18
3245660,40
3246292,50
3246916,51
3247548,57
3248176,93
3248796,136
3249476,140
3250148,126
3250820,70
3251448,31
3252072,176
3252752,276
3253428,277
3254100,191
3254780,82
3255408,48
3256024,71
3256656,58
3257276,15
3257900,24
3258532,48
3259152,61
3259784,36
3260408,12
3261032,13
3261660,25
3262288,41
3262916,45
3263548,50
3264168,46
3264796,15
3265424,37
3266052,41
3266684,26
3267304,23
3267932,22
3268556,13
3269184,14
3269812,13
3270432,41
3271060,49
3271692,48
3272312,49
3272944,48
3273568,41
3274200,33
3274832,26
3275448,14
3276080,11
3276704,11
3277328,27
3277956,19
3278576,48
3279204,54
3279824,53
3280448,50
3281076,44
3281692,23
3282324,47
3282952,72
3283568,72
3284196,15
3284816,81
3285444,111
3286124,98
3286744,45
3287372,51
3287992,63
3288616,72
3289244,66
3289864,81
3290492,85
3291112,92
3291736,72
3292364,32
3292984,99
3293612,94
3294240,70
3294856,39
3295484,37
3296108,45
3296736,51
3297364,51
3297980,34
3298612,25
3299232,11
3299856,24
3300484,22
3301104,37
3301732,104
3302416,109
3303080,60
3303708,47
3304332,61
3304960,49
3305588,108
3306260,125
3306936,72
3307560,35
3308176,50
3308804,108
3309480,155
3310148,168
3310824,75
3311440,53
3312068,66
3312696,54
3313320,45
3313948,48
3314572,114
3315252,195
3315928,158
3316596,69
3317220,16
3317852,30
3318472,29
3319100,23
3319724,25
3320348,57
3320976,47
3321592,69
3322224,63
3322844,29
3323468,59
3324100,106
3324772,106
3325448,41
3326076,36
3326696,67
3327328,45
3327952,13
3328576,67
3329204,76
3329824,58
3330452,47
3331080,43
3331696,37
3332324,16
3332948,24
3333576,37
3334204,10
3334824,24
3335452,14
3336076,26
3336704,58
3337332,77
3337952,73
3338580,51
3339204,47
3339824,24
3340456,20
3341072,36
3341704,105
3342384,127
3343052,73
3343676,32
3344300,16
3344924,59
3345552,78
3346176,61
3346804,49
3347428,46
3348052,24
3348680,24
3349296,13
3349928,18
3350556,72
3351176,100
3351856,86
3352480,67
3353104,32
3353732,47
3354352,79
3354980,89
3355604,86
3356228,117
3356908,118
3357580,96
3358208,68
3358836,34
3359456,17
3360084,13
3360704,70
3361328,53
3361956,42
3362576,49
3363204,51
3363824,57
3364448,37
3365076,88
3365700,123
3366380,38
3367004,27
3367624,74
3368252,123
3368928,83
3369544,41
3370172,45
3370792,48
3371420,47
3372052,63
3372672,76
3373300,71
3373924,79
3374556,76
3375184,45
3375804,11
3376432,11
3377056,11
3377680,17
3378308,16
3378928,42
3379556,48
3380180,46
3380804,43
3381432,43
3382048,78
3382676,76
3383304,64
3383928,57
3384556,14
3385180,53
3385812,72
3386440,83
3387056,113
3387736,139
3388404,118
3389076,145
3389752,106
3390428,64
3391048,129
3391728,137
3392396,109
3393072,56
3393696,15
3394312,57
3394940,57
3395564,39
3396188,43
3396816,51
3397440,77
3398068,67
3398700,41
3399320,15
3399948,28
3400572,77
3401204,127
3401884,175
3402556,160
3403232,104
3403908,40
3404528,54
3405156,98
3405780,119
3406456,125
3407128,145
3407804,123
3408476,95
3409100,66
3409720,29
3410348,79
3410980,188
3411652,107
3412328,42
3412952,46
3413576,57
3414204,81
3414824,51
3415452,52
3416084,76
3416704,67
3417332,31
3417960,29
3418588,88
3419216,96
3419840,72
3420468,45
3421092,50
3421716,70
3422348,94
3422968,26
3423596,55
3424224,74
3424848,90
3425476,70
3426096,32
3426724,43
3427356,36
3427976,36
3428604,45
3429228,51
3429860,102
3430544,82
3431160,50
3431788,37
3432412,27
3433036,20
3433668,12
3434288,25
3434916,47
3435548,35
3436168,15
3436796,56
3437424,67
3438052,50
3438684,57
3439304,56
3439936,42
3440560,50
3441184,60
3441812,34
3442432,13
3443060,10
3443684,12
3444308,11
3444936,20
3445556,38
3446184,58
3446812,54
3447432,61
3448060,20
3448684,59
3449312,124
3449996,138
3450668,63
3451292,27
3451924,98
3452544,114
3453224,84
3453848,45
3454472,48
3455100,50
3455720,49
3456352,49
3456972,34
3457596,48
3458228,70
3458848,55
3459476,33
3460108,26
3460728,18
3461356,26
3461980,38
3462612,54
3463240,60
3463856,53
3464488,57
3465108,41
3465736,16
3466364,18
3466984,21
3467612,11
3468236,32
3468860,78
3469492,79
3470112,45
3470740,52
3471372,56
3471992,63
3472624,53
3473248,32
3473876,40
3474508,38
3475128,30
3475760,29
3476384,24
3477008,14
3477636,14
3478256,19
3478888,56
3479512,75
3480136,57
3480768,46
3481384,17
3482016,70
3482644,114
3483316,104
3483992,111
3484664,90
3485280,92
3485908,63
3486532,25
3487164,165
3487844,233
3488516,170
3489192,77
3489816,35
3490432,36
3491060,23
3491684,11
3492316,33
3492944,96
3493568,113
3494248,69
3494872,25
3495496,36
3496124,45
3496744,50
3497372,63
3498004,43
3498624,25
3499252,12
3499876,51
3500508,60
3501140,85
3501760,65
3502388,16
3503016,43
3503640,86
3504268,132
3504940,123
3505616,62
3506244,34
3506864,145
3507548,185
3508220,107
3508900,28
3509524,40
3510148,25
3510780,35
3511412,30
3512032,39
3512664,41
3513284,47
3513908,47
3514540,21
3515160,47
3515792,95
3516424,122
3517092,70
3517720,27
3518344,28
3518976,46
3519608,33
3520224,42
3520856,61
3521476,55
3522100,59
3522732,60
3523352,60
3523980,35
3524604,16
3525232,12
3525860,34
3526484,48
3527112,35
3527744,25
3528360,50
3528992,56
3529616,48
3530244,47
3530872,64
3531492,172
3532172,152
3532852,68
3533472,21
3534100,38
3534724,49
3535352,40
3535984,16
3536600,64
3537228,126
3537904,90
3538528,45
3539156,67
3539784,46
3540412,12
3541044,24
3541664,11
3542296,21
3542920,24
3543548,23
3544180,15
3544800,27
3545428,62
3546052,66
3546676,47
3547308,46
3547928,17
3548560,21
3549180,13
3549808,24
3550436,20
3551060,13
3551692,38
3552324,48
3552944,44
3553572,41
3554200,42
3554824,47
3555452,49
3556072,33
3556700,24
3557328,29
3557952,35
3558584,28
3559200,26
3559828,33
3560460,20
3561080,11
3561708,45
3562332,54
3562964,49
3563596,49
3564216,53
3564844,13
3565468,24
3566092,29
3566720,11
3567344,11
3567976,15
3568600,26
3569224,59
3569852,27
3570472,54
3571104,63
3571736,58
3572352,49
3572984,27
3573608,37
3574236,36
3574868,30
3575488,87
3576120,84
3576744,30
3577368,41
3578000,73
3578616,58
3579248,54
3579872,77
3580496,61
3581128,32
3581748,28
3582380,11
3583012,76
3583636,164
3584316,119
3584988,88
3585608,67
3586236,26
3586856,45
3587484,57
3588116,70
3588736,74
3589364,67
3589988,68
3590620,70
3591248,56
3591872,35
3592504,17
3593128,22
3593748,58
3594380,88
3595000,78
3595632,48
3596252,51
3596880,47
3597508,44
3598128,17
3598756,11
3599388,10
3600008,11
3600636,10
3601260,20
3601892,33
3602520,26
3603140,17
3603768,48
3604392,55
3605020,61
3605648,87
3606264,91
3606892,91
3607516,115
3608192,133
3608868,84
3609488,65
3610116,47
3610748,43
3611368,37
3611996,39
3612620,82
3613244,205
3613924,223
3614596,196
3615272,146
3615952,52
3616576,41
3617204,66
3617836,54
3618456,23
3619084,65
3619708,32
3620340,56
3620968,105
3621636,103
3622312,80
3622944,41
3623560,15
3624188,29
3624812,51
3625444,13
3626072,14
3626692,10
3627320,40
3627944,98
3628568,92
3629196,62
3629816,54
3630444,48
3631068,31
3631692,16
3632324,26
3632944,51
3633572,47
3634204,12
3634824,49
3635456,54
3636076,43
3636708,45
3637336,81
3637956,111
3638636,86
3639256,66
3639880,73
3640512,96
3641128,94
3641756,49
3642388,14
3643008,22
3643636,35
3644260,25
3644892,42
3645520,69
3646144,53
3646772,45
3647396,56
3648020,43
3648648,11
3649272,34
3649900,15
3650524,30
3651148,32
3651780,38
3652400,43
3653028,88
3653660,133
3654332,90
3654960,45
3655584,56
3656208,62
3656836,64
3657456,70
3658088,70
3658712,49
3659336,61
3659964,64
3660584,21
3661216,40
3661844,43
3662464,50
3663092,58
3663720,64
3664348,64
3664980,62
3665600,15
3666228,36
3666852,30
3667480,17
3668108,23
3668728,40
3669356,68
3669984,47
3670608,50
3671236,60
3671856,61
3672488,62
3673116,58
3673736,68
3674368,80
3674992,93
3675624,83
3676252,75
3676872,69
3677500,53
3678128,71
3678752,58
3679384,45
3680000,55
3680632,60
3681256,43
3681880,63
3682508,139
3683180,115
3683860,49
3684484,25
3685104,25
3685736,14
3686360,16
3686984,40
3687616,44
3688232,45
3688860,47
3689488,24
3690112,47
3690740,38
3691364,54
3691996,106
3692676,45
3693296,65
3693924,151
3694608,195
3695276,118
3695952,69
3696576,57
3697200,54
3697828,27
3698448,55
3699076,29
3699700,65
3700324,160
3701008,186
3701676,123
3702348,48
3702976,36
3703592,43
3704224,56
3704852,70
3705472,75
3706104,68
3706728,50
3707356,36
3707988,34
3708608,21
3709236,17
3709864,21
3710488,11
3711116,10
3711736,46
3712368,50
3712992,51
3713612,52
3714244,42
3714864,19
3715492,32
3716124,14
3716744,32
3717376,100
3718052,125
3718724,134
3719400,101
3720076,48
3720700,53
3721332,78
3721952,84
3722580,69
3723204,62
3723828,61
3724460,58
3725080,54
3725708,46
3726332,30
3726960,13
3727588,21
3728212,32
3728844,41
3729472,51
3730092,49
3730720,49
3731344,16
3731972,27
3732604,43
3733224,61
3733852,53
3734476,32
3735104,28
3735732,90
3736352,79
3736984,42
3737612,70
3738232,79
3738860,84
3739484,79
3740116,73
3740748,92
3741368,91
3742000,60
3742624,33
3743248,59
3743876,176
3744548,97
3745172,56
3745804,62
3746424,51
3747052,45
3747680,33
3748308,15
3748940,30
3749560,76
3750192,50
3750816,17
3751440,26
3752068,14
3752688,37
3753320,42
3753944,57
3754568,55
3755196,51
3755816,50
3756448,50
3757080,67
3757696,63
3758328,12
3758952,22
3759584,17
3760212,28
3760832,28
3761460,19
3762088,43
3762712,46
3763344,59
3763960,49
3764588,19
3765216,19
3765840,12
3766468,30
3767088,29
3767720,40
3768348,34
3768968,15
3769596,68
3770220,48
3770852,48
3771484,52
3772104,49
3772736,19
3773360,15
3773984,12
3774616,10
3775232,11
3775864,14
3776488,15
3777112,31
3777740,12
3778360,56
3778992,44
3779620,46
3780240,49
3780868,43
3781492,16
3782124,15
3782756,14
3783376,30
3784008,18
3784628,18
3785256,46
3785888,32
3786504,29
3787136,71
3787760,85
3788384,57
3789016,48
3789640,19
3790268,71
3790900,103
3791572,92
3792200,83
3792820,93
3793444,49
3794076,12
3794696,22
3795324,37
3795952,94
3796576,165
3797256,170
3797932,151
3798604,73
3799232,23
3799848,11
3800480,21
3801108,27
3801728,35
3802356,27
3802984,15
3803612,40
3804244,50
3804864,75
3805496,67
3806120,49
3806744,47
3807376,56
3807992,59
3808624,47
3809252,38
3809876,19
3810504,11
3811128,33
3811760,68
3812388,70
3813008,60
3813640,47
3814264,32
3814896,32
3815524,12
3816144,82
3816776,122
3817452,97
3818072,94
3818704,66
3819320,66
3819952,44
3820584,92
3821204,148
3821884,154
3822556,114
3823228,102
3823908,25
3824528,176
3825212,242
3825892,135
3826564,25
3827192,16
3827824,36
3828444,51
3829076,44
3829700,46
3830324,53
3830956,50
3831576,52
3832208,27
3832840,12
3833464,23
3834096,19
3834720,14
3835352,13
3835984,30
3836604,70
3837236,95
3837860,97
3838488,91
3839120,48
3839740,21
3840372,35
3840996,23
3841616,12
3842248,10
3842864,10
3843492,37
3844124,50
3844744,19
3845372,46
3845996,53
3846628,47
3847256,48
3847880,14
3848508,11
3849132,11
3849756,12
3850388,10
3851008,11
3851636,27
3852260,49
3852884,68
3853512,42
3854136,45
3854764,49
3855396,53
3856016,68
3856644,86
3857268,92
3857896,89
3858528,51
3859148,28
3859776,13
3860400,35
3861024,39
3861656,44
3862272,53
3862904,63
3863528,49
3864152,43
3864780,23
3865400,18
3866032,16
3866660,20
3867280,44
3867908,49
3868536,19
3869164,18
3869796,34
3870416,63
3871048,66
3871672,72
3872296,71
3872924,38
3873544,21
3874172,59
3874800,98
3875424,101
3876104,79
3876720,49
3877352,27
3877984,40
3878600,40
3879228,83
3879856,125
3880532,137
3881212,79
3881832,31
3882464,11
3883092,18
3883712,16
3884344,63
3884968,77
3885592,55
3886224,16
3886840,63
3887472,65
3888096,44
3888720,72
3889352,58
3889968,14
3890600,64
3891232,112
3891900,105
3892576,93
3893200,46
3893824,17
3894452,36
3895072,55
3895700,55
3896332,52
3896952,49
3897580,31
3898208,48
3898836,128
3899520,99
3900136,49
3900768,33
3901392,33
3902016,22
3902648,36
3903268,42
3903896,61
3904528,93
3905144,109
3905824,97
3906448,67
3907076,60
3907708,86
3908328,104
3909008,91
3909640,33
3910256,21
3910888,24
3911512,37
3912144,44
3912772,44
3913392,45
3914024,48
3914648,24
3915272,25
3915904,14
3916520,16
3917152,22
3917776,17
3918400,33
3919028,29
3919648,17
3920280,52
3920908,84
3921528,60
3922160,48
3922784,33
3923412,17
3924044,14
3924664,30
3925292,34
3925920,41
3926544,43
3927172,134
3927844,52
3928472,40
3929100,51
3929720,64
3930352,83
3930976,68
3931608,53
3932236,54
3932856,73
3933484,37
3934108,25
3934732,58
3935364,89
3935984,95
3936616,71
3937240,57
3937864,63
3938492,84
3939112,85
3939744,58
3940372,14
3940992,14
3941620,13
3942244,13
3942876,29
3943508,42
3944128,24
3944756,33
3945380,51
3946004,67
3946636,106
3947308,100
3947984,45
3948616,14
3949232,13
3949860,11
3950488,15
3951112,13
3951740,20
3952360,41
3952988,27
3953612,51
3954236,69
3954868,76
3955488,70
3956116,54
3956748,62
3957368,66
3958000,48
3958624,15
3959252,11
3959884,10
3960504,30
3961132,34
3961760,43
3962384,51
3963012,55
3963632,51
3964264,29
3964888,23
3965508,13
3966140,16
3966760,15
3967392,11
3968020,14
3968640,21
3969268,25
3969892,46
3970520,59
3971152,49
3971772,48
3972400,45
3973024,45
3973652,56
3974280,45
3974900,23
3975528,16
3976152,14
3976776,29
3977408,36
3978024,19
3978652,53
3979284,50
3979904,70
3980536,74
3981160,48
3981788,47
3982420,34
3983040,12
3983672,62
3984296,173
3984972,185
3985648,90
3986272,25
3986904,65
3987532,80
3988152,95
3988784,93
3989408,105
3990084,102
3990764,129
3991436,171
3992116,166
3992796,44
3993416,88
3994048,132
3994732,147
3995404,118
3996084,87
3996708,83
3997328,99
3997960,108
3998636,64
3999256,13
3999888,47
4000504,11
4001136,36
4001760,40
4002380,27
4003012,17
4003632,71
4004260,83
4004892,78
4005512,71
4006140,39
4006764,32
4007396,55
4008024,63
4008640,38
4009272,33
4009896,25
4010520,11
4011148,21
4011768,52
4012396,51
4013024,43
4013648,48
4014276,66
4014896,87
4015524,68
4016156,26
4016776,11
4017404,11
4018028,14
4018656,13
4019288,37
4019904,55
4020532,62
4021156,52
4021780,63
4022408,119
4023084,156
4023760,148
4024440,115
4025116,28
4025744,77
4026364,69
4026992,45
4027620,18
4028244,49
4028876,49
4029504,130
4030180,77
4030808,59
4031432,38
4032056,31
4032684,38
4033304,29
4033932,52
4034556,62
4035184,54
4035816,42
4036440,40
4037068,65
4037700,76
4038320,99
4038952,98
4039576,93
4040200,107
4040880,94
4041496,66
4042124,17
4042752,10
4043376,14
4044008,11
4044632,49
4045260,73
4045892,71
4046512,84
4047140,71
4047768,42
4048392,60
4049020,74
4049640,22
4050268,118
4050952,212
4051620,226
4052296,255
4052972,198
4053644,76
4054272,49
4054896,55
4055528,79
4056156,90
4056776,83
4057404,85
4058032,81
4058656,53
4059284,32
4059904,23
4060536,30
4061160,63
4061784,72
4062416,62
4063032,47
4063664,43
4064296,16
4064912,15
4065544,37
4066168,94
4066796,117
4067480,92
4068096,60
4068724,57
4069352,39
4069976,49
4070608,57
4071224,48
4071852,47
4072484,48
4073104,59
4073736,79
4074360,93
4074988,67
4075620,51
4076240,11
4076868,31
4077492,30
4078120,41
4078748,50
4079368,52
4080000,49
4080620,45
4081248,27
4081876,26
4082504,49
4083132,57
4083764,46
4084384,32
4085016,13
4085640,29
4086272,19
4086900,42
4087520,50
4088152,49
4088776,45
4089400,16
4090032,11
4090648,25
4091280,43
4091912,41
4092528,34
4093160,13
4093788,55
4094420,71
4095048,80
4095672,88
4096308,50
4096928,49
4097548,25
4098176,10
4098796,19
4099424,30
4100048,27
4100668,47
4101296,77
4101920,69
4102548,64
4103176,44
4103792,82
4104420,131
4105096,120
4105768,109
4106440,103
4107112,76
4107740,37
4108368,10
4108992,11
4109620,24
4110240,37
4110864,35
4111492,37
4112112,45
4112740,47
4113364,50
4113984,50
4114616,43
4115232,37
4115860,21
4116488,12
4117108,38
4117740,53
4118364,41
4118992,38
4119624,21
4120240,61
4120868,83
4121492,79
4122120,56
4122748,48
4123368,31
4123996,12
4124620,11
4125244,10
4125872,28
4126488,43
4127120,19
4127744,34
4128368,89
4128996,127
4129672,119
4130344,72
4130968,20
4131584,11
4132212,45
4132836,97
4133460,68
4134088,56
4134712,90
4135340,69
4135972,64
4136592,50
4137220,51
4137844,52
4138472,53
4139104,45
4139720,18
4140348,39
4140972,70
4141596,61
4142224,24
4142848,14
4143476,11
4144100,15
4144724,56
4145352,63
4145972,57
4146600,54
4147228,46
4147844,16
4148476,12
4149096,13
4149728,45
4150356,84
4150976,97
4151604,104
4152280,65
4152900,28
4153528,49
4154144,72
4154776,69
4155404,56
4156024,34
4156652,30
4157280,49
4157908,45
4158540,19
4159160,13
4159792,13
4160416,12
4161036,35
4161668,61
4162288,47
4162916,44
4163536,55
4164160,57
4164788,46
4165408,14
4166036,21
4166668,32
4167288,27
4167916,30
4168540,61
4169168,78
4169796,71
4170416,72
4171044,45
4171668,45
4172296,46
4172924,14
4173544,46
4174172,95
4174796,147
4175472,119
4176144,26
4176768,12
4177396,23
4178028,62
4178648,69
4179276,79
4179900,95
4180520,66
4181152,47
4181768,116
4182448,82
4183072,38
4183688,21
4184316,17
4184940,31
4185572,78
4186200,77
4186820,54
4187448,113
4188124,132
4188796,103
4189472,94
4190096,82
4190724,48
4191352,16
4191976,17
4192608,39
4193232,49
4193856,33
4194484,22
4195104,38
4195736,45
4196364,44
4196984,43
4197612,37
4198236,19
4198868,11
4199496,10
4200120,28
4200748,49
4201372,60
4201996,63
4202624,54
4203240,42
4203872,45
4204492,48
4205116,62
4205748,107
4206420,111
4207096,73
4207720,27
4208336,10
4208968,16
4209588,28
4210212,34
4210844,50
4211464,42
4212092,43
4212716,48
4213340,51
4213972,56
4214596,27
4215224,12
4215852,11
4216472,11
4217100,31
4217728,27
4218356,13
4218988,16
4219608,37
4220236,70
4220860,81
4221484,81
4222112,67
4222732,45
4223360,44
4223984,48
4224608,42
4225236,19
4225860,10
4226488,33
4227116,42
4227736,51
4228364,47
4228988,45
4229620,46
4230248,45
4230864,45
4231496,40
4232120,43
4232744,49
4233372,39
4233992,24
4234620,29
4235244,19
4235868,34
4236500,43
4237124,52
4237752,62
4238384,64
4239004,86
4239632,75
4240256,61
4240884,57
4241512,34
4242136,11
4242764,21
4243388,67
4244012,111
4244692,88
4245312,65
4245940,44
4246572,56
4247192,81
4247820,61
4248448,44
4249076,51
4249708,46
4250328,13
4250956,33
4251580,45
4252204,49
4252832,44
4253448,50
4254080,64
4254704,57
4255328,48
4255960,67
4256584,81
4257212,71
4257844,79
4258464,82
4259092,53
4259720,15
4260348,84
4260976,94
4261600,68
4262228,64
4262852,53
4263476,52
4264104,55
4264720,71
4265352,61
4265976,47
4266596,34
4267228,44
4267852,67
4268480,47
4269108,14
4269728,85
4270356,129
4271032,128
4271708,104
4272384,103
4273060,85
4273680,63
4274308,43
4274928,33
4275560,29
4276180,14
4276804,25
4277432,31
4278056,61
4278684,112
4279368,88
4279984,47
4280616,42
4281240,20
4281864,12
4282492,46
4283112,68
4283740,33
4284364,19
4284988,17
4285620,64
4286240,31
4286868,64
4287500,63
4288120,51
4288748,51
4289372,42
4290000,11
4290632,13
4291248,26
4291876,54
4292500,95
4293128,94
4293756,64
4294376,49
4295008,43
4295632,53
4296256,57
4296884,46
4297504,20
4298136,70
4298764,109
4299436,76
4300064,39
4300688,29
4301320,41
4301948,34
4302568,14
4303196,59
4303820,71
4304444,73
4305076,64
4305696,46
4306324,40
4306956,78
4307576,35
4308204,13
4308828,24
4309460,32
4310088,31
4310708,41
4311336,66
4311960,61
4312584,73
4313216,84
4313832,87
4314460,56
4315084,38
4315708,15
4316340,62
4316960,120
4317640,92
4318268,53
4318888,32
4319516,25
4320144,43
4320772,51
4321404,50
4322024,86
4322652,86
4323276,31
4323900,71
4324528,95
4325152,65
4325780,41
4326412,26
4327032,53
4327660,32
4328284,42
4328912,56
4329544,52
4330164,50
4330792,22
4331416,18
4332040,28
4332668,26
4333288,31
4333916,42
4334544,48
4335168,47
4335796,29
4336416,55
4337048,73
4337676,57
4338296,60
4338928,67
4339552,85
4340180,93
4340812,44
4341432,34
4342064,35
4342688,17
4343312,23
4343940,14
4344560,28
4345188,45
4345812,58
4346440,72
4347068,54
4347688,40
4348316,21
4348948,12
4349568,37
4350200,14
4350824,12
4351452,22
4352084,93
4352700,75
4353332,44
4353952,57
4354576,61
4355208,57
4355824,62
4356452,53
4357076,44
4357700,28
4358332,10
4358952,10
4359580,11
4360212,18
4360832,20
4361460,40
4362084,43
4362716,50
4363344,49
4363968,40
4364596,31
4365220,23
4365844,25
4366476,16
4367096,21
4367724,31
4368352,31
4368972,27
4369604,34
4370224,51
4370852,69
4371484,103
4372156,112
4372836,79
4373456,37
4374080,17
4374708,12
4375328,19
4375956,18
4376588,60
4377208,90
4377840,44
4378460,43
4379092,60
4379724,58
4380344,48
4380972,31
4381600,60
4382224,73
4382852,138
4383524,192
4384204,95
4384828,48
4385448,47
4386076,39
4386700,45
4387332,66
4387960,78
4388584,80
4389212,70
4389840,89
4390464,145
4391144,149
4391812,94
4392440,71
4393068,35
4393688,22
4394316,26
4394940,55
4395568,58
4396196,46
4396816,78
4397444,167
4398128,150
4398796,89
4399424,62
4400048,62
4400672,26
4401300,27
4401920,33
4402548,23
4403176,47
4403800,50
4404428,51
4405048,48
4405676,48
4406308,52
4406928,13
4407556,41
4408180,47
4408812,39
4409440,28
4410064,20
4410692,46
4411320,43
4411944,44
4412572,46
4413192,48
4413824,44
4414448,24
4415072,13
4415700,23
4416328,29
4416956,15
4417588,32
4418208,62
4418836,33
4419464,20
4420092,54
4420724,62
4421344,53
4421976,46
4422600,24
4423224,30
4423852,50
4424472,36
4425100,11
4425724,10
4426352,12
4426980,12
4427604,27
4428236,42
4428864,43
4429488,46
4430116,49
4430740,20
4431364,53
4431996,82
4432616,78
4433248,29
4433872,19
4434496,61
4435124,91
4435744,95
4436372,50
4437004,45
4437624,47
4438256,49
4438880,53
4439508,48
4440140,52
4440760,43
4441388,41
4442016,44
4442640,38
4443268,10
4443888,12
4444520,29
4445140,44
4445768,48
4446396,54
4447016,65
4447648,63
4448280,23
4448896,11
4449524,11
4450148,21
4450780,30
4451412,40
4452032,43
4452660,30
4453288,45
4453912,75
4454544,111
4455212,138
4455888,131
4456568,104
4457244,55
4457872,11
4458496,47
4459120,78
4459752,89
4460376,66
4461008,21
4461636,40
4462256,42
4462888,48
4463512,44
4464136,17
4464768,19
4465384,31
4466016,15
4466640,12
4467264,11
4467892,58
4468512,61
4469140,67
4469772,46
4470392,45
4471024,46
4471648,49
4472280,29
4472908,28
4473528,43
4474160,69
4474784,79
4475408,85
4476040,84
4476660,47
4477288,12
4477916,37
4478540,41
4479172,50
4479792,53
4480428,50
4481056,20
4481672,13
4482300,60
4482924,98
4483556,96
4484184,117
4484852,92
4485476,52
4486100,239
4486776,203
4487452,132
4488124,95
4488744,62
4489372,15
4489992,71
4490624,107
4491304,61
4491920,32
4492552,39
4493176,12
4493804,45
4494436,58
4495056,55
4495688,52
4496308,48
4496932,43
4497564,38
4498184,68
4498812,55
4499440,29
4500064,22
4500692,18
4501316,14
4501948,53
4502580,98
4503200,152
4503884,130
4504556,82
4505176,62
4505808,57
4506424,50
4507052,45
4507680,35
4508304,12
4508932,19
4509556,25
4510184,36
4510816,25
4511432,42
4512064,45
4512688,45
4513308,43
4513940,32
4514560,40
4515188,12
4515812,17
4516440,27
4517068,52
4517688,83
4518316,75
4518948,51
4519568,44
4520196,47
4520820,57
4521452,74
4522080,68
4522704,70
4523336,41
4523960,23
4524584,29
4525212,11
4525832,12
4526464,12
4527084,16
4527708,33
4528340,55
4528964,53
4529592,52
4530224,50
4530844,25
4531472,114
4532148,178
4532820,122
4533496,71
4534120,41
4534748,16
4535380,20
4536000,52
4536628,92
4537256,76
4537880,57
4538508,56
4539128,46
4539760,31
4540384,27
4541008,57
4541640,37
4542256,35
4542888,21
4543516,10
4544136,28
4544768,45
4545392,44
4546020,75
4546652,101
4547324,73
4547948,14
4548572,46
4549196,32
4549828,11
4550448,33
4551076,43
4551708,22
4552328,17
4552956,46
4553584,52
4554212,51
4554844,49
4555464,66
4556096,79
4556720,21
4557344,41
4557976,55
4558596,67
4559224,83
4559848,45
4560472,13
4561100,34
4561720,44
4562348,46
4562980,46
4563600,49
4564228,13
4564852,37
4565484,63
4566116,78
4566736,32
4567368,36
4567992,61
4568616,49
4569244,32
4569864,35
4570492,50
4571116,47
4571744,48
4572376,43
4573000,47
4573628,49
4574260,42
4574880,20
4575512,23
4576136,13
4576764,21
4577396,15
4578016,41
4578644,46
4579272,45
4579896,45
4580524,34
4581144,13
4581776,17
4582404,21
4583024,37
4583656,55
4584280,81
4584908,81
4585540,53
4586160,35
4586792,56
4587416,60
4588044,65
4588672,50
4589292,33
4589920,41
4590544,55
4591168,40
4591800,37
4592416,62
4593048,44
4593676,13
4594296,54
4594928,77
4595552,83
4596180,69
4596812,51
4597432,25
4598064,43
4598688,45
4599312,45
4599944,23
4600560,23
4601192,25
4601816,19
4602440,40
4603068,43
4603688,44
4604316,71
4604948,61
4605568,90
4606200,145
4606876,162
4607548,158
4608228,93
4608848,19
4609472,100
4610156,123
4610828,127
4611504,125
4612180,106
4612852,84
4613476,52
4614100,23
4614724,86
4615356,92
4615976,46
4616604,14
4617236,12
4617856,45
4618484,49
4619108,29
4619740,43
4620368,50
4620992,66
4621620,64
4622244,54
4622868,57
4623500,78
4624120,87
4624748,51
4625372,13
4625996,23
4626628,61
4627248,59
4627876,40
4628508,46
4629128,47
4629756,45
4630380,46
4631012,19
4631644,18
4632264,11
4632892,11
4633520,17
4634144,31
4634772,34
4635392,32
4636024,21
4636644,47
4637268,65
4637900,80
4638520,77
4639152,30
4639780,27
4640400,26
4641028,13
4641652,13
4642280,14
4642912,10
4643528,27
4644160,61
4644784,63
4645408,52
4646036,46
4646656,45
4647284,25
4647908,25
4648532,11
4649164,22
4649784,26
4650412,30
4651044,96
4651664,115
4652344,91
4652968,47
4653592,66
4654220,64
4654840,53
4655468,37
4656096,17
4656716,13
4657348,10
4657968,33
4658600,39
4659228,36
4659848,29
4660476,13
4661100,35
4661732,63
4662360,96
4662984,102
4663664,72
4664288,30
4664912,16
4665540,13
4666160,21
4666788,41
4667420,52
4668040,66
4668672,91
4669296,81
4669924,42
4670556,44
4671176,58
4671808,93
4672432,109
4673108,110
4673784,121
4674460,118
4675132,81
4675760,38
4676376,12
4677004,17
4677628,68
4678256,73
4678888,63
4679512,65
4680140,65
4680772,56
4681392,43
4682024,37
4682648,50
4683272,74
4683900,70
4684520,49
4685152,24
4685772,25
4686396,60
4687028,51
4687648,51
4688280,54
4688908,42
4689528,29
4690160,46
4690784,55
4691412,43
4692044,24
4692664,14
4693292,23
4693920,16
4694544,51
4695172,53
4695792,45
4696424,49
4697048,49
4697672,32
4698300,15
4698920,15
4699548,16
4700180,26
4700800,43
4701428,66
4702056,63
4702688,58
4703320,50
4703936,45
4704568,62
4705196,75
4705820,116
4706504,128
4707172,62
4707800,24
4708432,28
4709052,30
4709684,11
4710308,26
4710936,19
4711564,59
4712184,114
4712864,88
4713492,53
4714112,15
4714744,32
4715368,15
4716000,15
4716628,12
4717248,26
4717876,90
4718504,102
4719180,47
4719808,48
4720428,61
4721056,53
4721684,46
4722304,42
4722936,61
4723560,88
4724188,100
4724872,67
4725488,63
4726120,56
4726744,16
4727368,16
4727996,44
4728616,56
4729248,77
4729880,116
4730548,135
4731228,118
4731900,57
4732528,13
4733160,22
4733784,11
4734412,16
4735044,14
4735664,14
4736296,50
4736920,85
4737544,115
4738224,111
4738900,112
4739580,95
4740208,75
4740824,56
4741452,32
4742080,17
4742704,15
4743332,19
4743952,21
4744584,41
4745208,46
4745832,50
4746464,59
4747088,51
4747720,21
4748348,32
4748968,51
4749600,36
4750224,50
4750856,66
4751488,47
4752104,23
4752732,30
4753356,52
4753984,50
4754612,48
4755232,54
4755860,65
4756492,75
4757112,53
4757744,33
4758368,45
4759000,34
4759632,24
4760248,23
4760880,43
4761504,70
4762128,56
4762760,48
4763376,47
4764008,26
4764632,37
4765256,61
4765888,93
4766504,111
4767188,118
4767868,128
4768540,80
4769164,21
4769796,91
4770416,117
4771100,98
4771720,65
4772352,64
4772984,69
4773600,80
4774232,49
4774856,15
4775480,10
4776112,13
4776728,29
4777360,17
4777992,45
4778608,53
4779240,49
4779864,53
4780496,38
4781124,13
4781744,51
4782376,74
4783000,65
4783628,38
4784260,16
4784880,49
4785512,56
4786136,48
4786760,45
4787392,60
4788008,71
4788640,50
4789272,13
4789888,11
4790520,27
4791144,27
4791776,11
4792408,15
4793024,36
4793656,47
4794280,21
4794904,40
4795536,48
4796152,51
4796784,49
4797412,14
4798036,16
4798668,11
4799288,25
4799920,39
4800556,30
4801176,19
4801804,21
4802428,31
4803060,43
4803688,51
4804308,58
4804936,70
4805560,80
4806184,73
4806816,71
4807432,68
4808064,39
4808684,11
4809308,11
4809940,42
4810564,53
4811196,44
4811828,44
4812448,47
4813080,50
4813700,44
4814332,30
4814960,30
4815584,11
4816212,30
4816836,53
4817460,49
4818092,39
4818712,45
4819340,40
4819964,48
4820592,56
4821220,73
4821844,63
4822476,58
4823108,54
4823728,27
4824356,19
4824984,27
4825608,40
4826236,62
4826856,26
4827488,25
4828112,46
4828736,43
4829368,47
4829984,56
4830616,39
4831248,15
4831864,20
4832496,41
4833120,71
4833752,94
4834380,97
4835000,41
4835632,14
4836256,60
4836880,92
4837508,102
4838180,98
4838808,112
4839488,97
4840104,89
4840732,94
4841360,103
4842040,97
4842664,108
4843332,100
4844012,71
4844636,54
4845256,47
4845884,49
4846512,75
4847136,140
4847816,220
4848492,216
4849172,115
4849852,43
4850472,27
4851104,57
4851736,76
4852352,70
4852984,49
4853608,56
4854240,60
4854872,47
4855488,27
4856120,63
4856744,89
4857368,101
4858052,83
4858672,67
4859304,21
4859932,71
4860552,65
4861184,42
4861808,47
4862440,47
4863068,45
4863688,40
4864320,39
4864944,40
4865568,22
4866196,27
4866816,21
4867444,16
4868068,14
4868692,29
4869324,46
4869944,41
4870572,46
4871204,52
4871824,54
4872456,36
4873080,40
4873708,44
4874340,59
4874960,64
4875588,62
4876216,15
4876840,15
4877468,21
4878088,36
4878716,52
4879344,63
4879968,48
4880600,16
4881224,20
4881852,11
4882484,22
4883104,42
4883736,47
4884360,48
4884992,29
4885620,18
4886240,45
4886872,49
4887496,45
4888120,47
4888748,29
4889368,29
4890000,79
4890624,103
4891300,70
4891928,20
4892552,36
4893184,41
4893812,18
4894432,47
4895064,51
4895688,43
4896312,53
4896944,53
4897560,41
4898192,19
4898820,13
4899440,13
4900072,18
4900696,21
4901328,13
4901956,20
4902576,46
4903208,127
4903884,148
4904556,74
4905184,47
4905808,19
4906440,11
4907068,19
4907688,56
4908320,24
4908944,13
4909576,30
4910208,44
4910824,17
4911456,60
4912080,56
4912708,46
4913336,44
4913960,49
4914592,40
4915224,56
4915848,41
4916476,12
4917100,12
4917728,35
4918356,48
4918976,37
4919604,41
4920228,50
4920852,67
4921484,90
4922104,62
4922732,18
4923356,18
4923980,46
4924612,18
4925232,53
4925864,62
4926492,60
4927112,37
4927744,40
4928368,45
4928996,51
4929624,61
4930240,55
4930872,11
4931496,15
4932120,33
4932748,51
4933368,55
4933996,39
4934624,41
4935248,73
4935876,76
4936496,42
4937124,96
4937756,126
4938428,119
4939104,96
4939728,91
4940352,58
4940984,13
4941600,14
4942228,13
4942860,28
4943480,27
4944108,17
4944732,42
4945364,49
4945992,130
4946668,109
4947344,54
4947972,31
4948592,16
4949220,11
4949844,14
4950476,12
4951108,39
4951728,57
4952360,21
4952984,58
4953608,74
4954236,81
4954856,62
4955488,56
4956112,34
4956736,24
4957368,32
4957984,27
4958616,12
4959244,14
4959864,46
4960496,38
4961120,47
4961748,61
4962380,70
4963000,91
4963632,75
4964256,21
4964876,21
4965508,46
4966128,53
4966760,56
4967380,51
4968004,35
4968636,31
4969256,35
4969884,41
4970516,64
4971136,73
4971768,49
4972392,20
4973020,31
4973652,50
4974272,39
4974904,33
4975528,26
4976152,17
4976780,11
4977400,15
4978028,36
4978652,51
4979276,57
4979908,54
4980528,46
4981156,35
4981788,50
4982408,45
4983036,11
4983664,19
4984292,16
4984924,14
4985544,25
4986176,45
4986800,70
4987424,63
4988056,46
4988672,34
4989304,11
4989928,23
4990552,78
4991184,60
4991804,15
4992436,17
4993064,10
4993688,14
4994316,38
4994944,56
4995572,56
4996204,54
4996824,59
4997452,48
4998076,37
4998704,17
4999332,64
4999952,72
5000584,50
5001208,45
5001832,37
5002460,33
5003084,38
5003716,48
5004348,48
5004968,56
5005596,95
5006224,113
5006904,116
5007580,71
5008200,26
5008828,11
5009460,27
5010080,52
5010708,19
5011336,58
5011964,54
5012596,50
5013216,63
5013848,45
5014472,16
5015096,12
5015728,19
5016344,30
5016976,22
5017608,39
5018224,94
5018852,91
5019480,46
5020108,50
5020740,52
5021360,51
5021992,78
5022616,111
5023292,114
5023972,113
5024644,80
5025268,59
5025900,26
5026520,39
5027152,63
5027776,69
5028400,105
5029080,112
5029756,82
5030384,60
5031016,24
5031636,23
5032268,66
5032892,79
5033516,61
5034148,21
5034768,12
5035400,15
5036024,51
5036648,57
5037280,47
5037904,47
5038536,48
5039168,53
5039784,63
5040416,53
5041040,25
5041672,11
5042300,10
5042920,29
5043552,28
5044176,29
5044800,53
5045428,45
5046048,48
5046680,47
5047308,92
5047928,127
5048612,87
5049232,75
5049864,88
5050492,63
5051112,34
5051744,13
5052368,35
5052992,77
5053624,90
5054240,76
5054872,91
5055504,91
5056124,46
5056756,11
5057380,37
5058012,49
5058640,33
5059264,21
5059892,19
5060520,19
5061144,45
5061772,59
5062392,61
5063024,57
5063648,59
5064276,47
5064904,23
5065528,62
5066160,42
5066792,12
5067412,63
5068044,91
5068668,90
5069300,61
5069932,46
5070552,78
5071184,105
5071860,95
5072480,87
5073112,89
5073736,72
5074368,58
5075000,59
5075620,23
5076252,68
5076876,109
5077560,66
5078188,51
5078808,66
5079440,63
5080072,59
5080692,85
5081320,121
5082000,54
5082624,19
5083252,22
5083872,24
5084504,23
5085128,27
5085752,37
5086384,66
5087004,60
5087636,54
5088268,52
5088888,72
5089520,74
5090144,56
5090776,18
5091404,12
5092024,13
5092656,21
5093280,16
5093904,17
5094536,47
5095156,77
5095788,79
5096412,95
5097036,79
5097668,54
5098288,57
5098920,24
5099548,41
5100168,136
5100852,200
5101524,226
5102196,198
5102876,46
5103496,79
5104128,79
5104760,82
5105384,77
5106016,62
5106640,46
5107264,25
5107896,50
5108516,18
5109148,22
5109780,22
5110400,11
5111032,48
5111656,46
5112288,49
5112924,53
5113544,61
5114180,47
5114804,30
5115432,33
5116064,28
5116684,23
5117316,27
5117944,45
5118572,63
5119204,85
5119828,51
5120464,60
5121092,114
5121764,150
5122440,131
5123112,61
5123736,43
5124364,51
5124988,40
5125616,26
5126244,12
5126864,23
5127492,25
5128116,52
5128740,48
5129368,46
5129984,47
5130612,16
5131236,19
5131860,17
5132488,19
5133104,40
5133736,40
5134364,44
5134984,37
5135612,24
5136236,47
5136868,55
5137496,52
5138112,53
5138744,40
5139368,21
5139992,12
5140620,40
5141240,58
5141868,28
5142492,41
5143116,44
5143744,18
5144368,43
5144996,44
5145628,54
5146248,55
5146876,49
5147500,26
5148128,23
5148760,18
5149380,14
5150008,22
5150632,30
5151256,36
5151884,36
5152504,22
5153132,90
5153756,122
5154432,108
5155112,58
5155736,33
5156360,83
5156988,122
5157660,103
5158336,41
5158968,12
5159584,52
5160216,45
5160840,39
5161468,47
5162100,56
5162720,170
5163400,188
5164080,47
5164704,17
5165332,14
5165956,26
5166588,22
5167216,24
5167840,15
5168468,16
5169092,19
5169716,41
5170348,48
5170968,51
5171600,59
5172220,32
5172848,61
5173476,81
5174100,67
5174732,19
5175360,21
5175980,56
5176608,55
5177232,47
5177860,40
5178492,44
5179112,51
5179744,73
5180368,56
5180992,47
5181624,64
5182240,64
5182868,24
5183500,58
5184120,82
5184748,59
5185372,53
5186004,65
5186632,61
5187248,49
5187880,49
5188504,45
5189128,38
5189756,68
5190376,77
5191008,77
5191632,67
5192256,57
5192884,13
5193504,29
5194136,27
5194764,38
5195384,46
5196016,51
5196640,67
5197272,73
5197900,68
5198520,58
5199152,53
5199776,47
5200400,18
5201028,13
5201648,14
5202276,15
5202900,49
5203524,57
5204156,64
5204776,63
5205404,68
5206036,76
5206656,95
5207284,77
5207908,13
5208540,21
5209172,20
5209792,17
5210420,12
5211044,43
5211668,44
5212300,46
5212920,50
5213548,61
5214176,79
5214800,47
5215428,11
5216048,26
5216676,21
5217308,23
5217928,13
5218556,13
5219184,31
5219812,49
5220444,52
5221064,55
5221696,64
5222320,56
5222944,54
5223576,62
5224192,37
5224824,15
5225448,33
5226072,50
5226700,47
5227320,42
5227952,39
5228580,43
5229200,45
5229828,47
5230452,27
5231084,71
5231716,106
5232388,122
5233068,90
5233696,57
5234312,43
5234944,49
5235568,58
5236200,49
5236828,60
5237448,67
5238080,63
5238704,22
5239328,33
5239960,80
5240576,107
5241260,132
5241940,131
5242612,107
5243292,46
5243916,15
5244536,39
5245164,47
5245788,50
5246416,45
5247048,23
5247664,23
5248296,31
5248916,27
5249540,19
5250168,66
5250792,92
5251420,110
5252100,136
5252772,124
5253448,54
5254072,75
5254696,141
5255376,142
5256044,130
5256720,111
5257396,106
5258068,72
5258692,16
5259324,41
5259944,37
5260572,35
5261196,68
5261828,79
5262456,82
5263072,80
5263704,64
5264328,21
5264948,11
5265580,11
5266200,22
5266828,30
5267452,28
5268080,17
5268708,29
5269332,47
5269960,61
5270592,58
5271208,48
5271840,55
5272464,77
5273092,99
5273724,73
5274344,40
5274972,12
5275596,13
5276220,49
5276848,67
5277464,36
5278096,49
5278724,45
5279344,49
5279972,48
5280600,13
5281228,25
5281856,36
5282472,36
5283104,12
5283728,62
5284356,115
5285040,99
5285656,40
5286284,43
5286908,47
5287536,45
5288164,50
5288788,52
5289416,67
5290044,72
5290664,58
5291292,48
5291916,45
5292548,35
5293176,11
5293796,20
5294424,43
5295048,57
5295672,70
5296300,66
5296920,49
5297548,45
5298172,37
5298800,28
5299428,18
5300052,13
5300684,25
5301312,30
5301932,12
5302560,41
5303184,52
5303812,56
5304444,50
5305064,51
5305692,44
5306316,53
5306940,56
5307572,44
5308192,18
5308820,10
5309452,38
5310072,32
5310704,17
5311328,40
5311960,43
5312588,44
5313208,47
5313836,19
5314460,15
5315088,52
5315716,76
5316336,56
5316964,16
5317588,15
5318216,15
5318844,16
5319464,42
5320096,47
5320724,46
5321344,48
5321972,33
5322600,61
5323228,91
5323860,79
5324480,27
5325112,13
5325732,14
5326356,18
5326984,29
5327600,48
5328232,47
5328852,46
5329476,44
5330104,44
5330728,25
5331356,15
5331984,11
5332608,14
5333236,26
5333860,49
5334488,65
5335120,58
5335736,32
5336364,53
5336988,63
5337612,58
5338240,45
5338856,18
5339488,29
5340112,49
5340736,41
5341364,10
5341984,13
5342612,12
5343244,28
5343864,22
5344496,42
5345116,65
5345748,92
5346376,101
5347052,75
5347676,65
5348300,43
5348924,23
5349556,92
5350176,133
5350860,159
5351536,141
5352212,83
5352836,50
5353460,50
5354084,49
5354716,47
5355340,47
5355972,82
5356600,113
5357276,90
5357904,56
5358528,30
5359152,10
5359784,29
5360400,29
5361028,41
5361652,45
5362276,44
5362908,45
5363532,28
5364160,42
5364792,73
5365408,40
5366040,16
5366664,36
5367292,61
5367924,76
5368544,60
5369172,44
5369796,49
5370420,56
5371052,46
5371672,48
5372304,16
5372932,50
5373552,32
5374184,16
5374808,12
5375436,15
5376068,14
5376684,16
5377316,45
5377936,52
5378564,43
5379192,47
5379816,48
5380444,49
5381068,52
5381692,41
5382324,11
5382944,28
5383572,12
5384204,19
5384824,58
5385452,77
5386076,52
5386708,50
5387336,60
5387960,48
5388588,22
5389212,38
5389836,73
5390468,70
5391088,45
5391716,19
5392344,24
5392964,20
5393596,14
5394216,42
5394844,44
5395476,49
5396096,49
5396724,43
5397348,16
5397980,11
5398612,20
5399232,93
5399860,96
5400488,48
5401112,36
5401740,38
5402360,31
5402988,38
5403612,47
5404236,55
5404868,74
5405488,89
5406116,84
5406748,72
5407368,61
5407996,13
5408620,49
5409252,65
5409880,38
5410496,27
5411128,58
5411752,49
5412376,47
5413004,51
5413624,29
5414252,13
5414876,16
5415500,10
5416132,42
5416752,79
5417384,75
5418012,49
5418632,55
5419264,50
5419888,46
5420516,47
5421148,46
5421768,41
5422396,14
5423024,32
5423648,18
5424276,54
5424896,29
5425524,13
5426152,40
5426776,63
5427408,53
5428024,49
5428652,45
5429284,73
5429904,96
5430532,114
5431208,104
5431876,53
5432504,13
5433120,24
5433748,17
5434380,14
5435000,13
5435628,14
5436252,55
5436884,97
5437516,124
5438188,109
5438868,76
5439496,73
5440112,47
5440740,15
5441364,13
5441992,32
5442624,77
5443240,111
5443920,91
5444536,73
5445160,65
5445788,62
5446408,55
5447036,37
5447660,23
5448284,10
5448912,21
5449536,17
5450164,10
5450796,32
5451416,25
5452044,17
5452668,47
5453300,67
5453928,82
5454552,86
5455180,75
5455804,62
5456428,42
5457060,11
5457680,17
5458308,38
5458932,25
5459556,14
5460188,27
5460812,39
5461440,44
5462068,50
5462688,46
5463316,63
5463944,70
5464572,84
5465204,91
5465824,78
5466452,21
5467076,34
5467704,36
5468332,32
5468952,24
5469580,65
5470208,147
5470884,148
5471560,139
5472236,68
5472856,17
5473484,10
5474104,16
5474732,15
5475364,10
5475984,25
5476616,33
5477240,17
5477868,40
5478500,44
5479120,46
5479748,53
5480372,22
5480996,15
5481624,28
5482248,45
5482876,31
5483500,11
5484128,47
5484756,79
5485384,78
5486012,55
5486644,43
5487264,51
5487896,77
5488520,100
5489200,69
5489828,42
5490448,49
5491076,48
5491704,61
5492328,72
5492956,21
5493580,14
5494212,48
5494844,44
5495464,71
5496096,85
5496716,70
5497348,31
5497980,12
5498600,35
5499232,43
5499856,23
5500480,22
5501108,37
5501728,40
5502360,31
5502992,58
5503608,67
5504240,47
5504864,50
5505492,13
5506124,52
5506744,75
5507372,60
5507996,42
5508624,35
5509252,20
5509872,27
5510500,71
5511124,48
5511752,45
5512380,46
5513000,51
5513628,79
5514260,90
5514880,54
5515508,22
5516136,11
5516768,18
5517396,13
5518016,19
5518648,20
5519272,47
5519896,55
5520528,49
5521148,61
5521776,62
5522404,63
5523028,59
5523656,59
5524280,45
5524912,13
5525540,16
5526160,12
5526792,11
5527416,40
5528048,47
5528676,52
5529296,47
5529928,44
5530548,12
5531172,14
5531804,19
5532424,36
5533052,49
5533676,52
5534304,63
5534932,51
5535556,25
5536188,63
5536820,98
5537440,113
5538120,110
5538796,101
5539468,76
5540096,57
5540720,23
5541348,16
5541980,70
5542600,118
5543280,111
5543960,53
5544584,44
5545212,44
5545840,47
5546468,47
5547100,26
5547720,27
5548352,26
5548976,45
5549600,32
5550228,15
5550848,13
5551480,15
5552104,13
5552728,43
5553356,46
5553976,58
5554608,64
5555236,32
5555856,21
5556484,15
5557108,28
5557740,56
5558372,80
5558992,111
5559676,98
5560296,64
5560924,53
5561556,43
5562180,58
5562812,56
5563444,42
5564064,45
5564696,58
5565320,50
5565952,21
5566584,43
5567204,73
5567832,51
5568460,27
5569084,48
5569716,59
5570336,58
5570968,49
5571596,48
5572216,69
5572844,63
5573468,41
5574100,11
5574732,32
5575352,61
5575984,89
5576608,111
5577284,140
5577960,147
5578636,109
5579316,78
5579944,48
5580560,105
5581244,196
5581920,270
5582596,219
5583276,129
5583956,58
5584576,35
5585208,16
5585832,59
5586456,97
5587084,95
5587704,77
5588336,64
5588960,60
5589584,67
5590216,59
5590832,46
5591464,15
5592096,10
5592712,37
5593344,45
5593968,27
5594596,46
5595228,50
5595848,47
5596480,49
5597104,67
5597728,31
5598360,12
5598976,20
5599608,19
5600236,33
5600860,25
5601488,17
5602104,14
5602736,63
5603364,64
5603984,50
5604612,47
5605236,17
5605868,38
5606500,12
5607120,42
5607748,45
5608372,20
5608996,23
5609628,38
5610248,51
5610876,56
5611504,46
5612128,49
5612756,59
5613384,39
5614012,12
5614644,33
5615264,56
5615896,89
5616520,120
5617200,92
5617828,66
5618448,61
5619080,42
5619704,53
5620328,61
5620956,54
5621584,47
5622212,56
5622844,64
5623464,54
5624096,43
5624720,41
5625348,77
5625980,118
5626652,104
5627332,70
5627960,46
5628576,48
5629208,46
5629832,54
5630464,55
5631096,71
5631716,76
5632348,54
5632968,32
5633592,13
5634220,18
5634840,29
5635468,20
5636092,46
5636720,49
5637348,48
5637972,60
5638604,61
5639232,71
5639852,89
5640480,93
5641104,53
5641732,14
5642364,12
5642984,48
5643612,53
5644236,42
5644860,43
5645492,48
5646112,48
5646740,30
5647372,14
5647992,39
5648624,34
5649248,34
5649876,38
5650508,18
5651128,18
5651760,27
5652384,63
5653008,95
5653636,66
5654256,56
5654884,59
5655508,199
5656188,170
5656864,64
5657488,72
5658120,31
5658748,27
5659368,40
5659996,59
5660624,122
5661300,140
5661980,74
5662600,57
5663232,48
5663860,37
5664480,61
5665108,89
5665732,136
5666408,129
5667088,80
5667712,58
5668344,37
5668972,33
5669592,68
5670224,79
5670848,78
5671472,71
5672104,67
5672720,92
5673352,116
5674032,105
5674708,62
5675336,15
5675960,62
5676584,41
5677216,20
5677832,57
5678464,135
5679144,95
5679768,57
5680400,32
5681024,13
5681652,17
5682284,10
5682904,17
5683536,26
5684160,21
5684780,49
5685412,28
5686032,66
5686660,75
5687284,75
5687912,81
5688540,66
5689168,55
5689796,46
5690428,33
5691048,16
5691676,10
5692304,12
5692932,34
5693564,26
5694184,41
5694812,45
5695440,45
5696064,46
5696692,36
5697312,27
5697940,15
5698572,10
5699192,19
5699824,13
5700448,33
5701076,38
5701708,38
5702328,38
5702960,55
5703584,61
5704208,60
5704840,60
5705456,54
5706088,48
5706712,18
5707336,17
5707968,26
5708584,22
5709216,34
5709848,31
5710468,17
5711096,48
5711724,55
5712352,47
5712984,46
5713604,43
5714236,38
5714860,31
5715484,40
5716116,48
5716736,30
5717368,19
5717992,47
5718616,15
5719248,46
5719864,61
5720496,70
5721128,63
5721744,38
5722376,33
5723000,44
5723632,26
5724264,22
5724880,35
5725512,85
5726136,140
5726812,106
5727492,44
5728112,45
5728744,51
5729376,69
5729992,69
5730624,26
5731248,29
5731872,33
5732504,33
5733124,30
5733752,20
5734380,13
5735008,17
5735636,34
5736260,47
5736892,50
5737520,51
5738140,47
5738768,27
5739392,56
5740024,43
5740652,18
5741272,63
5741904,85
5742528,101
5743204,73
5743832,30
5744456,63
5745084,115
5745768,124
5746436,85
5747064,15
5747688,46
5748312,49
5748940,25
5749560,25
5750192,33
5750820,32
5751440,15
5752072,34
5752696,80
5753324,71
5753956,64
5754576,61
5755208,65
5755832,64
5756456,44
5757088,56
5757704,165
5758388,148
5759068,128
5759740,86
5760368,22
5760988,61
5761612,58
5762240,52
5762864,52
5763492,28
5764120,10
5764744,45
5765372,74
5765996,59
5766628,47
5767256,56
5767872,37
5768504,15
5769128,80
5769748,150
5770432,153
5771100,100
5771776,24
5772408,19
5773024,12
5773652,26
5774276,18
5774900,21
5775532,20
5776152,15
5776780,22
5777404,42
5778032,46
5778660,49
5779284,47
5779912,52
5780544,43
5781160,18
5781792,13
5782416,24
5783044,67
5783676,51
5784296,43
5784928,39
5785552,31
5786176,48
5786804,66
5787424,72
5788052,77
5788684,71
5789304,51
5789932,54
5790560,44
5791188,18
5791820,18
5792440,15
5793068,47
5793692,46
5794316,39
5794948,42
5795568,45
5796196,50
5796820,40
5797444,19
5798076,14
5798696,35
5799324,44
5799956,21
5800576,28
5801204,40
5801828,30
5802460,44
5803088,68
5803712,51
5804344,48
5804968,34
5805592,17
5806220,17
5806840,11
5807468,12
5808096,23
5808716,37
5809348,50
5809968,52
5810600,55
5811228,43
5811848,53
5812476,55
5813104,45
5813732,18
5814364,19
5814984,32
5815616,35
5816240,42
5816864,45
5817492,49
5818112,44
5818740,49
5819368,41
5819992,46
5820624,47
5821240,47
5821872,31
5822504,62
5823120,118
5823804,148
5824476,117
5825148,86
5825776,81
5826400,63
5827028,45
5827660,42
5828280,92
5828908,91
5829536,85
5830160,72
5830792,63
5831408,57
5832040,41
5832664,17
5833288,19
5833916,16
5834536,17
5835168,38
5835800,42
5836416,67
5837048,70
5837672,53
5838304,44
5838932,73
5839552,57
5840184,21
5840804,21
5841428,23
5842060,11
5842680,21
5843308,23
5843932,47
5844556,80
5845188,90
5845808,88
5846436,74
5847068,32
5847688,14
5848316,11
5848944,12
5849572,42
5850204,44
5850824,32
5851456,29
5852080,23
5852704,39
5853336,47
5853952,58
5854584,85
5855208,114
5855884,114
5856564,148
5857236,115
5857908,20
5858536,64
5859160,67
5859792,30
5860420,23
5861040,41
5861672,49
5862296,69
5862920,91
5863548,113
5864220,102
5864896,66
5865528,41
5866144,37
5866776,27
5867400,34
5868032,53
5868660,34
5869280,63
5869908,91
5870536,86
5871160,60
5871792,50
5872412,55
5873044,60
5873672,58
5874296,29
5874928,19
5875552,34
5876184,44
5876812,16
5877432,61
5878064,63
5878688,46
5879312,47
5879944,37
5880564,17
5881192,30
5881820,53
5882444,48
5883076,10
5883696,66
5884328,109
5885008,76
5885632,43
5886264,47
5886888,61
5887512,68
5888144,46
5888760,86
5889392,108
5890072,94
5890696,65
5891328,36
5891952,27
5892580,17
5893212,11
5893832,26
5894464,45
5895088,49
5895712,60
5896340,63
5896960,58
5897592,26
5898216,15
5898840,20
5899468,36
5900088,44
5900716,48
5901348,38
5901968,25
5902596,47
5903224,67
5903852,53
5904484,50
5905104,56
5905736,84
5906360,91
5906984,86
5907612,44
5908232,13
5908864,21
5909484,43
5910112,59
5910740,47
5911364,45
5911996,47
5912628,48
5913248,43
5913880,19
5914504,15
5915132,34
5915764,44
5916384,59
5917016,70
5917640,69
5918264,69
5918896,52
5919512,47
5920144,49
5920768,55
5921392,78
5922020,93
5922644,80
5923276,69
5923904,51
5924528,25
5925156,27
5925780,29
5926408,44
5927036,80
5927656,88
5928288,68
5928912,52
5929536,47
5930168,21
5930784,52
5931416,126
5932096,173
5932772,140
5933452,133
5934132,137
5934804,89
5935432,25
5936056,69
5936680,117
5937360,132
5938036,92
5938664,85
5939292,84
5939912,85
5940540,85
5941164,48
5941788,11
5942420,42
5943040,71
5943668,36
5944292,40
5944916,43
5945548,47
5946168,47
5946796,31
5947428,11
5948048,41
5948676,69
5949304,39
5949932,23
5950564,86
5951184,114
5951868,89
5952488,50
5953112,47
5953744,53
5954360,71
5954992,87
5955620,87
5956240,92
5956868,85
5957492,27
5958124,25
5958756,38
5959376,47
5960008,55
5960628,47
5961252,49
5961884,50
5962504,53
5963136,46
5963760,13
5964384,12
5965016,14
5965640,20
5966268,11
5966900,14
5967520,31
5968152,52
5968776,37
5969404,43
5970036,64
5970656,90
5971288,96
5971912,118
5972588,102
5973268,94
5973888,75
5974520,35
5975148,12
5975768,45
5976400,92
5977024,113
5977700,100
5978376,72
5979000,55
5979632,47
5980264,19
5980880,21
5981508,17
5982136,40
5982760,24
5983388,21
5984008,13
5984636,12
5985260,25
5985888,45
5986516,47
5987144,47
5987772,46
5988404,50
5989024,54
5989656,58
5990280,85
5990912,76
5991544,56
5992160,30
5992788,11
5993416,15
5994040,43
5994672,44
5995288,59
5995920,56
5996552,34
5997168,28
5997800,77
5998424,85
5999056,48
5999684,27
6000304,14
6000936,41
6001560,47
6002184,56
6002816,67
6003432,56
6004060,47
6004684,45
6005308,25
6005940,52
6006560,60
6007188,67
6007820,52
6008440,33
6009068,12
6009696,28
6010324,20
6010956,46
6011576,55
6012208,58
6012832,49
6013456,31
6014088,21
6014704,14
6015336,15
6015964,11
6016592,35
6017220,91
6017840,96
6018472,75
6019100,46
6019720,96
6020352,112
6021028,108
6021700,80
6022328,73
6022944,67
6023576,37
6024208,35
6024824,55
6025452,70
6026080,93
6026708,80
6027340,44
6027960,41
6028592,49
6029216,49
6029840,41
6030472,11
6031088,33
6031720,36
6032344,33
6032968,12
6033596,51
6034216,59
6034848,69
6035480,43
6036096,65
6036728,89
6037352,91
6037984,96
6038616,94
6039240,68
6039872,18
6040496,18
6041124,68
6041756,112
6042428,86
6043052,42
6043684,19
6044304,51
6044936,48
6045560,42
6046188,44
6046820,19
6047440,13
6048072,12
6048696,15
6049320,21
6049948,43
6050568,46
6051200,34
6051824,35
6052448,38
6053080,49
6053704,53
6054336,66
6054968,85
6055584,90
6056220,69
6056844,31
6057476,13
6058104,20
6058728,16
6059360,25
6059984,15
6060608,42
6061240,40
6061864,45
6062496,46
6063128,42
6063748,15
6064376,29
6065004,30
6065632,12
6066264,23
6066884,15
6067512,36
6068140,59
6068764,38
6069396,75
6070016,87
6070648,50
6071272,55
6071896,14
6072528,18
6073148,19
6073780,14
6074408,10
6075032,13
6075664,15
6076288,30
6076920,16
6077552,41
6078172,42
6078800,47
6079428,48
6080052,35
6080684,38
6081304,23
6081932,13
6082556,40
6083184,48
6083816,19
6084440,26
6085068,24
6085700,56
6086320,79
6086952,60
6087576,69
6088200,81
6088828,51
6089448,31
6090080,23
6090704,11
6091328,49
6091960,70
6092580,58
6093212,33
6093840,37
6094460,43
6095088,49
6095712,71
6096344,79
6096972,62
6097592,41
6098224,17
6098848,20
6099472,41
6100104,52
6100720,14
6101352,41
6101976,16
6102604,83
6103232,95
6103856,78
6104488,56
6105116,34
6105736,25
6106368,12
6106992,19
6107624,20
6108252,14
6108872,22
6109504,16
6110128,15
6110752,47
6111384,55
6112004,45
6112632,47
6113256,31
6113884,25
6114516,11
6115140,29
6115772,36
6116404,18
6117024,18
6117656,59
6118280,119
6118964,68
6119592,48
6120212,60
6120840,67
6121468,69
6122096,66
6122728,43
6123352,34
6123984,35
6124616,70
6125236,95
6125864,79
6126492,70
6127116,67
6127748,42
6128368,55
6129000,68
6129628,60
6130252,107
6130936,150
6131608,102
6132284,46
6132912,50
6133532,51
6134164,61
6134796,62
6135416,42
6136048,49
6136676,64
6137308,72
6137940,108
6138612,116
6139292,66
6139920,17
6140540,11
6141172,24
6141800,16
6142432,40
6143064,22
6143684,30
6144316,51
6144940,47
6145564,57
6146192,77
6146812,84
6147440,33
6148064,65
6148688,93
6149316,60
6149936,15
6150564,45
6151196,56
6151816,32
6152444,53
6153068,74
6153700,61
6154332,55
6154952,40
6155580,22
6156204,25
6156832,48
6157460,38
6158080,27
6158708,29
6159336,12
6159960,12
6160592,41
6161208,41
6161836,47
6162468,46
6163088,47
6163720,35
6164344,13
6164972,34
6165604,46
6166224,66
6166852,56
6167480,44
6168104,44
6168732,36
6169352,45
6169984,46
6170608,45
6171232,49
6171860,44
6172484,57
6173116,66
6173748,60
6174368,40
6175000,15
6175624,19
6176256,24
6176884,18
6177504,47
6178132,44
6178760,51
6179384,51
6180012,36
6180632,47
6181264,45
6181892,34
6182512,24
6183140,21
6183768,36
6184396,31
6185028,30
6185648,43
6186276,61
6186900,90
6187528,101
6188208,68
6188824,47
6189452,49
6190076,42
6190704,40
6191336,30
6191960,17
6192592,14
6193224,19
6193840,39
6194472,42
6195100,47
6195724,45
6196356,48
6196976,15
6197604,61
6198232,62
6198856,24
6199488,28
6200104,34
6200736,15
6201368,23
6201984,23
6202616,82
6203240,66
6203868,46
6204500,71
6205120,96
6205752,82
6206376,37
6207000,23
6207632,11
6208252,19
6208880,23
6209504,31
6210128,21
6210760,38
6211376,45
6212008,47
6212636,54
6213256,77
6213888,112
6214564,122
6215236,126
6215916,110
6216588,70
6217216,17
6217844,39
6218464,78
6219096,51
6219720,45
6220344,46
6220976,115
6221644,164
6222324,85
6222952,19
6223572,68
6224204,73
6224828,62
6225452,29
6226084,50
6226704,66
6227332,55
6227956,69
6228584,63
6229212,49
6229836,30
6230468,12
6231100,21
6231720,18
6232352,13
6232976,17
6233604,39
6234236,26
6234856,14
6235488,48
6236112,75
6236736,64
6237368,71
6237988,69
6238620,66
6239252,66
6239872,75
6240504,63
6241128,30
6241760,22
6242388,38
6243008,77
6243640,65
6244264,55
6244888,66
6245516,55
6246136,45
6246768,15
6247392,28
6248016,61
6248644,73
6249264,51
6249892,26
6250524,14
6251144,27
6251776,46
6252400,85
6253028,87
6253660,52
6254280,47
6254908,32
6255536,51
6256160,77
6256792,79
6257408,40
6258040,21
6258664,12
6259288,18
6259916,33
