tempo_arduino_micro_s,valor_ADC
500,44
1004,44
1504,44
2000,48
2508,23
3000,14
3508,11
4000,12
4508,10
5000,10
5500,10
6000,14
6500,26
7004,26
7500,25
8000,35
8500,47
9000,51
9500,58
10000,60
10516,48
11036,24
11564,26
12084,36
12612,42
13132,27
13660,13
14180,16
14708,15
15228,24
15756,26
16276,23
16796,39
17316,47
17836,49
18356,49
18876,46
19396,12
19916,13
20436,16
20956,22
21476,21
21996,28
22516,14
23036,22
23564,30
24084,34
24612,31
25132,52
25660,67
26180,79
26708,66
27228,51
27756,39
28276,39
28804,49
29324,35
29852,19
30372,19
30900,15
31420,13
31948,22
32468,17
32996,36
33516,41
34044,44
34564,44
35092,47
35612,48
36140,36
36660,29
37188,30
37708,28
38236,24
38760,23
39284,22
39804,21
40332,13
40852,36
41372,44
41892,50
42412,55
42932,53
43452,48
43972,49
44492,57
45012,71
45532,50
46052,37
46572,27
47092,11
47612,37
48140,63
48660,55
49188,38
49708,40
50236,47
50756,46
51284,46
51804,45
52332,40
52852,25
53380,17
53900,12
54428,10
54948,11
55476,28
55996,37
56524,31
57044,29
57572,22
58096,42
58620,57
59140,58
59668,63
60188,58
60716,63
61240,63
61764,61
62284,68
62812,52
63332,23
63860,14
64384,19
64908,10
65428,10
65948,14
66468,42
66988,47
67508,54
68028,61
68548,62
69068,52
69588,45
70108,31
70628,27
71148,32
71672,44
72192,38
72716,29
73236,23
73764,33
74284,35
74812,44
75332,54
75860,61
76384,65
76908,56
77428,49
77956,52
78480,55
79004,54
79528,56
80052,29
80572,11
81100,16
81620,47
82148,51
82668,28
83196,40
83716,42
84244,45
84764,49
85292,44
85812,19
86340,12
86860,10
87388,16
87908,20
88436,20
88956,31
89484,47
90004,44
90524,34
91044,17
91564,43
92084,47
92604,57
93124,60
93644,57
94164,53
94684,63
95208,74
95724,55
96248,20
96764,16
97292,23
97812,24
98340,29
98860,23
99388,15
99908,39
100436,45
101004,47
101584,46
102156,47
102736,16
103304,20
103880,15
104456,12
105024,19
105600,33
106168,35
106744,15
107312,16
107896,32
108464,48
109040,49
109624,50
110192,60
110768,69
111336,55
111920,48
112492,47
113072,42
113640,29
114216,17
114792,13
115364,15
115944,15
116512,43
117096,44
117664,50
118240,50
118824,47
119392,12
119976,22
120548,12
121128,17
121696,11
122280,36
122848,75
123428,61
124008,43
124576,40
125152,51
125720,51
126304,49
126872,56
127448,54
128032,62
128600,71
129176,66
129744,29
130320,10
130888,11
131472,19
132040,25
132616,15
133192,42
133760,44
134344,50
134912,48
135496,48
136064,27
136648,36
137224,43
137792,27
138376,16
138944,14
139528,17
140096,32
140680,26
141252,38
141824,60
142408,62
142976,62
143560,58
144128,41
144712,28
145280,31
145864,25
146440,35
147008,20
147592,10
148160,17
148744,19
149312,15
149896,41
150464,45
151040,48
151624,49
152196,44
152776,25
153348,31
153928,29
154504,13
155080,13
155656,14
156228,35
156808,46
157376,45
157960,42
158532,55
159112,61
159684,72
160260,68
160840,55
161408,48
161984,60
162552,70
163136,51
163708,29
164288,16
164856,53
165424,56
166000,35
166568,39
167152,47
167720,47
168304,51
168872,46
169448,26
170032,16
170600,12
171176,11
171744,11
172328,15
172896,35
173480,34
174048,26
174624,45
175208,51
175776,53
176360,56
176928,59
177512,57
178084,56
178656,54
179240,47
179808,25
180384,16
180952,14
181536,51
182108,66
182688,34
183256,45
183832,53
184416,46
184984,49
185560,37
186132,11
186712,17
187280,16
187856,33
188440,43
189008,49
189592,62
190164,61
190744,49
191312,43
191896,53
192468,64
193040,75
193624,68
194192,60
194776,57
195344,58
195928,45
196496,27
197072,19
197656,19
198224,12
198808,12
199376,19
199960,39
200532,51
201112,49
201684,47
202256,29
202840,11
203412,11
203992,13
204564,14
205144,17
205712,16
206288,22
206864,27
207432,21
208008,44
208576,57
209152,47
209720,47
210304,49
210872,26
211448,14
212032,19
212600,27
213176,11
213744,10
214328,10
214900,21
215480,34
216048,21
216624,42
217200,48
217768,48
218352,48
218920,32
219504,23
220076,16
220648,10
221232,10
221804,23
222384,22
222956,37
223536,46
224108,35
224688,44
225256,50
225836,53
226416,58
226984,64
227568,59
228136,60
228720,58
229292,55
229864,45
230448,35
231016,12
231592,16
232164,25
232744,21
233316,40
233896,47
234464,46
235040,48
235624,35
236192,39
236776,29
237348,30
237928,32
238500,35
239076,42
239656,77
240228,55
240808,20
241376,64
241960,87
242528,87
243112,72
243684,52
244256,45
244840,45
245408,43
245992,35
246560,16
247144,11
247712,11
248288,25
248872,23
249440,32
250024,45
250592,50
251176,52
251748,50
252328,30
252900,22
253472,11
254056,15
254628,24
255208,33
255780,32
256360,32
256936,33
257504,29
258088,43
258656,60
259232,66
259800,55
260376,57
260944,42
261528,47
262096,54
262672,47
263256,29
263824,27
264408,11
264976,31
265552,25
266124,34
266704,45
267280,48
267848,46
268432,45
269000,23
269584,17
270152,14
270736,11
271304,26
271884,55
272464,61
273032,59
273616,49
274184,23
274768,50
275340,56
275920,55
276496,56
277064,51
277648,30
278220,42
278800,40
279368,24
279952,10
280524,12
281096,11
281680,29
282248,27
282824,42
283396,51
283976,45
284548,45
285128,47
285704,17
286276,19
286856,14
287424,14
288008,27
288576,33
289152,38
289724,42
290296,34
290880,18
291448,48
292032,55
292600,57
293184,51
293756,45
294336,32
294920,53
295492,54
296072,42
296640,10
297224,9
297744,11
298320,26
298888,18
299472,39
300048,43
300620,47
301200,48
301772,46
302352,17
302924,11
303504,13
304076,14
304652,14
305232,31
305804,35
306384,25
306964,32
307544,19
308120,58
308696,71
309280,65
309848,77
310432,91
311000,83
311584,77
312156,52
312736,18
313316,26
313892,51
314472,71
315044,58
315624,33
316196,41
316776,47
317348,46
317924,45
318504,54
319076,57
319656,49
320228,40
320808,33
321376,25
321952,35
322520,43
323100,34
323680,24
324248,16
324832,74
325404,76
325984,63
326556,59
327132,53
327712,59
328280,75
328864,82
329432,60
330016,16
330584,16
331168,41
331740,58
332316,58
332896,45
333464,45
334040,45
334608,46
335192,50
335764,24
336336,18
336920,31
337488,22
338072,11
338640,11
339224,17
339792,13
340368,17
340936,17
341512,50
342096,51
342668,64
343248,62
343816,47
344400,33
344968,50
345552,59
346128,41
346700,11
347280,12
347848,11
348432,10
349000,14
349584,43
350152,48
350732,47
351312,47
351884,48
352464,15
353032,23
353616,21
354184,18
354768,33
355344,47
355916,64
356496,54
357068,51
357648,32
358220,51
358800,55
359376,60
359952,55
360536,41
361104,44
361688,54
362256,41
362840,27
363408,15
363988,16
364568,12
365140,13
365720,17
366292,40
366872,41
367444,47
368024,45
368592,46
369172,24
369752,30
370324,35
370904,33
371476,47
372056,47
372624,43
373204,34
373784,37
374352,38
374936,52
375508,69
376088,67
376668,53
377248,48
377820,57
378396,58
378976,61
379548,32
380128,13
380700,18
381280,15
381852,15
382428,15
383008,40
383580,47
384160,48
384732,50
385312,45
385880,16
386464,26
387036,42
387612,16
388192,15
388764,25
389344,36
389916,26
390496,25
391064,43
391644,63
392224,70
392796,61
393376,61
393948,44
394528,44
395100,37
395680,17
396260,23
396836,30
397416,26
397988,45
398568,42
399148,22
399728,40
400308,44
400884,48
401464,47
402036,37
402616,10
403184,11
403768,12
404348,18
404928,27
405496,37
406076,49
406656,42
407228,30
407808,46
408380,58
408960,67
409532,77
410108,72
410688,58
411256,50
411840,46
412408,51
412992,25
413560,11
414144,11
414712,43
415292,54
415872,30
416444,43
417024,43
417592,47
418176,47
418744,27
419320,11
419904,11
420472,21
421056,32
421624,43
422208,41
422780,42
423360,33
423928,21
424508,44
425088,50
425656,58
426240,59
426808,58
427392,45
427964,49
428540,50
429120,45
429688,18
430272,18
430844,19
431424,18
431996,27
432576,27
433160,45
433732,49
434312,49
434884,50
435464,26
436032,18
436616,15
437184,11
437764,10
438344,24
438916,24
439496,25
440068,22
440648,20
441216,40
441800,45
442376,51
442948,48
443528,52
444100,34
444680,44
445252,56
445832,50
446412,26
446988,25
447568,16
448140,22
448720,26
449288,34
449872,43
450444,47
451024,45
451600,46
452168,25
452752,19
453324,11
453904,13
454476,26
455056,40
455624,44
456204,32
456784,26
457356,24
457936,46
458508,52
459088,58
459660,54
460240,51
460824,38
461392,45
461968,46
462536,39
463120,17
463692,11
464272,12
464840,21
465416,29
466000,41
466568,43
467152,45
467724,47
468304,45
468876,17
469456,15
470032,15
470604,13
471184,10
471756,11
472336,16
472908,20
473488,33
474060,26
474636,44
475216,53
475788,58
476368,47
476948,41
477528,15
478100,15
478676,22
479256,44
479832,43
480412,11
480980,27
481560,43
482132,48
482712,40
483284,45
483856,50
484440,50
485012,46
485592,23
486164,11
486744,12
487312,11
487892,18
488472,20
489044,24
489624,14
490192,20
490776,24
491356,45
491936,46
492516,56
493092,64
493672,66
494244,65
494824,78
495396,65
495976,20
496548,20
497124,37
497704,49
498276,63
498856,40
499428,42
500008,43
500576,48
501160,45
501732,46
502308,15
502888,18
503460,35
504040,33
504612,15
505192,13
505764,14
506340,22
506920,38
507492,40
508072,47
508644,50
509224,51
509804,54
510384,40
510964,41
511540,62
512124,72
512692,59
513272,47
513840,34
514424,14
514992,27
515568,17
516152,42
516720,45
517304,47
517872,51
518456,56
519024,39
519608,24
520180,23
520752,26
521336,19
521908,14
522488,22
523056,27
523640,23
524208,35
524788,48
525368,53
525940,67
526520,63
527092,35
527672,19
528244,35
528824,30
529392,17
529972,10
530552,15
531124,19
531704,21
532276,15
532856,39
533424,46
534004,46
534584,46
535152,46
535736,11
536308,11
536888,24
537460,31
538040,19
538616,15
539192,18
539776,41
540348,47
540928,41
541496,47
542080,50
542652,57
543228,57
543808,50
544380,35
544960,47
545528,50
546112,31
546684,18
547264,12
547836,16
548412,20
548992,16
549564,39
550144,46
550724,50
551304,48
551876,39
552452,17
553032,11
553604,11
554184,10
554756,18
555336,27
555916,42
556496,36
557080,24
557652,42
558232,46
558804,46
559384,49
559956,54
560540,44
561116,50
561692,53
562272,42
562844,24
563424,27
563992,32
564576,11
565144,11
565724,17
566304,40
566876,52
567456,47
568028,46
568608,27
569180,12
569760,13
570328,18
570908,36
571488,64
572060,55
572640,50
573220,43
573800,30
574380,49
574956,65
575536,60
576108,54
576688,51
577256,51
577840,63
578412,60
578992,45
579564,17
580140,10
580720,10
581292,25
581872,32
582444,27
583024,39
583596,46
584172,46
584752,47
585324,27
585904,26
586476,23
587056,20
587628,14
588208,19
588780,24
589356,43
589936,47
590508,31
591088,47
591660,59
592240,59
592820,61
593396,62
593976,52
594548,50
595128,50
595700,44
596280,18
596852,12
597432,11
598004,25
598580,21
599160,37
599732,44
600312,48
600892,46
601472,58
602044,63
602620,45
603200,22
603772,11
604352,12
604924,15
605504,21
606076,17
606656,17
607240,14
607812,53
608396,70
608968,71
609544,65
610116,57
610696,25
611276,28
611852,32
612432,21
613004,14
613584,27
614164,32
614748,38
615320,27
615900,39
616480,43
617048,47
617632,46
618200,46
618784,22
619356,16
619936,14
620516,11
621092,10
621672,11
622244,23
622824,20
623396,29
623976,16
624556,51
625132,60
625712,62
626284,62
626864,70
627436,58
628016,35
628596,24
629176,17
629748,12
630324,12
630904,23
631476,37
632056,39
632636,46
633216,46
633796,47
634372,47
634952,52
635528,29
636104,14
636676,15
637256,19
637836,21
638416,31
639000,36
639576,25
640156,22
640724,23
641304,54
641872,54
642456,53
643028,49
643604,30
644184,48
644752,67
645336,61
645908,43
646488,21
647056,14
647632,15
648216,24
648788,16
649368,39
649940,42
650520,48
651092,47
651672,48
652244,21
652820,19
653400,16
653972,14
654552,21
655132,26
655712,34
656288,32
656864,35
657448,40
658016,41
658600,52
659168,66
659752,60
660324,47
660904,41
661472,41
662052,42
662632,37
663204,32
663784,31
664356,11
664936,17
665508,18
666084,45
666664,43
667232,48
667816,54
668388,53
668968,32
669536,28
670120,21
670692,17
671268,30
671848,39
672420,47
673000,35
673568,24
674152,42
674724,57
675300,59
675880,52
676448,45
677032,43
677604,61
678184,77
678756,49
679336,13
679908,16
680484,10
681064,23
681632,32
682216,17
682788,43
683368,43
683940,48
684516,46
685096,48
685668,50
686248,29
686816,23
687400,14
687968,14
688552,13
689132,19
689708,24
690288,27
690860,43
691440,51
692016,54
692600,57
693172,61
693748,51
694328,35
694900,21
695480,15
696052,13
696632,15
697204,11
697784,39
698352,41
698932,18
699512,42
700084,43
700664,47
701236,46
701816,32
702388,11
702964,11
703544,15
704116,18
704696,18
705264,15
705848,21
706420,16
707000,23
707572,41
708148,56
708728,74
709300,65
709880,61
710452,64
711032,61
711604,32
712180,10
712760,20
713332,26
713912,24
714488,27
715064,24
715636,20
716216,41
716796,47
717376,50
717952,55
718524,34
719104,25
719676,15
720256,11
720832,11
721408,17
721992,25
722564,26
723144,29
723716,28
724296,47
724868,55
725448,53
726024,58
726596,57
727176,47
727748,48
728328,50
728900,49
729480,15
730052,13
730628,10
731208,27
731780,27
732360,36
732932,41
733512,43
734084,47
734664,48
735240,28
735812,17
736396,12
736968,14
737544,18
738116,35
738696,41
739268,42
739844,39
740424,24
740996,44
741576,56
742148,57
742728,52
743304,51
743888,51
744464,62
745036,47
745616,33
746184,15
746768,18
747340,14
747920,20
748500,22
749076,41
749656,43
750228,46
750808,49
751388,47
751968,22
752548,15
753124,13
753704,12
754276,14
754856,34
755432,43
756008,39
756588,36
757168,21
757748,52
758324,75
758904,71
759476,70
760056,54
760636,36
761216,22
761796,29
762372,42
762952,25
763524,14
764104,10
764676,17
765256,27
765836,41
766416,51
767000,59
767576,51
768156,45
768724,23
769304,25
769872,19
770456,17
771028,19
771604,25
772184,34
772756,32
773336,32
773916,21
774496,52
775076,62
775652,57
776232,57
776804,45
777384,49
777956,56
778536,44
779116,32
779696,19
780276,11
780852,22
781432,32
782004,19
782584,42
783156,46
783736,46
784316,49
784892,47
785472,17
786044,15
786624,15
787196,13
787780,16
788356,18
788936,35
789520,40
790092,40
790672,37
791248,56
791824,59
792404,51
792984,51
793564,43
794140,47
794720,49
795292,45
795872,33
796452,28
797032,25
797612,14
798188,15
798768,20
799340,39
799920,46
800496,49
801072,52
801644,50
802224,33
802796,26
803372,17
803952,11
804524,19
805104,20
805676,30
806256,27
806836,24
807412,42
807992,47
808564,50
809144,54
809716,51
810296,45
810868,35
811448,41
812028,43
812604,23
813184,12
813756,13
814336,16
814916,14
815496,19
816076,46
816652,46
817232,47
817804,49
818384,32
818964,21
819544,18
820120,19
820688,16
821264,27
821832,29
822416,40
822984,37
823560,34
824132,43
824712,47
825280,52
825856,54
826440,51
827008,45
827592,50
828164,54
828744,49
829316,23
829896,12
830472,12
831040,15
831624,14
832196,23
832776,45
833344,44
833928,48
834496,48
835072,30
835656,18
836224,18
836808,17
837376,19
837960,32
838532,32
839112,41
839688,38
840256,23
840840,45
841408,55
841992,61
842564,68
843144,64
843716,57
844292,53
844872,43
845440,28
846016,10
846584,11
847168,11
847740,25
848320,29
848888,30
849464,41
850048,45
850616,44
851200,48
851768,21
852352,13
852924,20
853496,25
854080,30
854652,37
855232,30
855804,39
856384,37
856956,23
857536,47
858120,56
858692,57
859272,61
859844,52
860424,27
860992,30
861576,32
862148,42
862724,21
863304,11
863876,14
864456,31
865028,23
865608,34
866176,46
866760,45
867336,46
867908,48
868488,24
869060,18
869640,14
870220,11
870800,15
871376,32
871956,39
872536,37
873108,39
873688,25
874256,46
874840,61
875412,65
875988,57
876568,55
877140,49
877720,64
878292,64
878872,46
879452,22
880032,11
880608,11
881188,22
881768,18
882336,41
882920,43
883492,43
884072,44
884644,47
885216,15
885800,19
886368,27
886952,32
887524,47
888104,57
888676,56
889256,49
889828,44
890404,29
890984,43
891556,58
892136,60
892716,51
893296,47
893876,47
894452,52
895032,46
895604,35
896188,21
896756,16
897336,13
897908,26
898488,24
899060,42
899636,46
900216,46
900788,44
901368,47
901944,11
902528,11
903096,23
903676,26
904256,23
904828,27
905408,35
905980,28
906560,32
907128,22
907712,65
908284,72
908860,50
909440,48
910008,34
910592,43
911172,42
911752,34
912332,30
912908,26
913488,16
914060,17
914640,33
915212,21
915792,41
916364,46
916944,47
917528,43
918100,45
918680,24
919252,27
919832,28
920412,19
920992,24
921572,31
922148,47
922728,46
923300,26
923880,39
924452,61
925032,57
925604,51
926180,48
926760,34
927332,34
927912,45
928488,46
929064,27
929636,13
930216,9
930736,24
931308,23
931888,15
932460,44
933040,48
933612,47
934192,46
934764,50
935344,24
935916,14
936492,13
937072,13
937644,15
938224,20
938796,30
939380,30
939956,27
940532,36
941112,47
941688,50
942264,50
942836,53
943416,44
943996,49
944580,52
945160,41
945732,34
946312,27
946884,11
947464,23
948036,29
948616,17
949188,39
949764,45
950344,46
950916,45
951496,43
952072,23
952648,14
953228,12
953808,11
954392,27
954964,36
955544,39
956116,35
956700,46
957276,46
957860,50
958436,60
959012,61
959596,72
960168,80
960744,69
961316,34
961896,17
962468,12
963044,12
963624,11
964196,26
964776,34
965348,21
965928,36
966500,46
967080,47
967652,47
968228,36
968808,18
969380,11
969960,10
970532,11
971112,24
971692,29
972268,36
972848,30
973420,22
974000,47
974572,55
975152,64
975724,60
976304,50
976884,25
977460,18
978040,29
978612,35
979192,11
979772,15
980352,11
980932,12
981508,10
982088,33
982660,37
983240,48
983812,47
984392,45
984964,23
985544,16
986120,19
986692,15
987272,13
987844,26
988424,39
988996,52
989576,45
990148,26
990724,47
991304,58
991876,58
992456,52
993028,49
993608,43
994176,56
994760,60
995336,42
995908,27
996488,19
997060,18
997640,15
998220,33
998804,47
999380,46
999956,46
1000536,47
1001152,47
1001784,16
1002404,21
1003028,28
1003660,21
1004280,15
1004908,23
1005528,36
1006152,43
1006780,32
1007400,44
1008028,55
1008656,61
1009280,55
1009908,38
1010532,42
1011160,59
1011792,57
1012408,28
1013040,14
1013660,10
1014284,12
1014916,10
1015536,47
1016164,43
1016788,46
1017412,47
1018044,46
1018664,22
1019292,25
1019924,18
1020544,14
1021172,23
1021796,48
1022428,61
1023060,48
1023680,20
1024312,59
1024932,64
1025552,56
1026180,59
1026796,53
1027424,35
1028048,41
1028668,53
1029296,39
1029916,11
1030548,33
1031176,26
1031792,21
1032420,44
1033044,48
1033672,48
1034300,45
1034916,22
1035548,10
1036168,13
1036796,25
1037424,36
1038048,22
1038676,37
1039300,44
1039924,40
1040552,44
1041168,57
1041796,56
1042420,47
1043040,49
1043668,50
1044292,62
1044920,49
1045548,22
1046168,11
1046796,13
1047416,12
1048048,15
1048676,22
1049296,41
1049924,46
1050544,44
1051168,46
1051796,12
1052416,29
1053044,23
1053668,12
1054288,26
1054916,29
1055536,37
1056164,41
1056792,34
1057408,41
1058036,54
1058660,57
1059288,53
1059916,38
1060536,32
1061164,47
1061788,52
1062408,30
1063036,24
1063656,25
1064284,11
1064908,12
1065532,43
1066160,44
1066776,47
1067404,45
1068028,46
1068652,19
1069284,17
1069904,14
1070536,11
1071164,10
1071784,28
1072412,50
1073036,55
1073664,48
1074296,46
1074912,57
1075540,57
1076164,49
1076784,12
1077416,12
1078032,21
1078660,42
1079284,35
1079908,20
1080536,14
1081156,17
1081788,15
1082416,42
1083032,47
1083660,49
1084284,51
1084912,21
1085544,13
1086160,12
1086788,11
1087412,11
1088036,35
1088664,38
1089276,34
1089908,27
1090528,45
1091152,52
1091780,53
1092400,51
1093028,47
1093656,28
1094280,29
1094908,45
1095532,37
1096164,15
1096792,14
1097408,25
1098036,13
1098660,31
1099284,44
1099912,45
1100532,45
1101160,47
1101784,12
1102408,15
1103036,16
1103656,11
1104284,11
1104916,13
1105536,29
1106164,34
1106788,35
1107416,38
1108048,46
1108664,50
1109292,49
1109916,33
1110540,39
1111168,37
1111788,27
1112416,16
1113040,12
1113664,12
1114292,14
1114912,13
1115540,47
1116172,50
1116792,48
1117420,45
1118044,37
1118676,26
1119308,36
1119928,21
1120560,11
1121180,29
1121804,49
1122436,50
1123056,46
1123684,35
1124308,55
1124932,61
1125560,63
1126184,61
1126812,59
1127444,64
1128064,63
1128692,33
1129312,16
1129944,41
1130572,58
1131192,45
1131820,26
1132444,37
1133068,47
1133696,45
1134320,45
1134948,24
1135572,18
1136196,13
1136828,13
1137448,21
1138076,23
1138704,32
1139328,30
1139956,25
1140580,44
1141208,57
1141840,59
1142456,64
1143084,70
1143708,64
1144332,45
1144960,46
1145584,15
1146212,10
1146840,10
1147464,33
1148092,28
1148712,37
1149340,44
1149972,48
1150592,51
1151220,50
1151844,25
1152476,21
1153104,11
1153720,13
1154352,13
1154972,48
1155596,53
1156228,43
1156848,25
1157476,49
1158100,56
1158720,58
1159352,57
1159968,59
1160596,56
1161228,48
1161848,43
1162476,17
1163100,13
1163728,11
1164356,20
1164976,32
1165604,43
1166228,47
1166852,48
1167484,46
1168104,26
1168732,19
1169356,21
1169976,21
1170608,19
1171224,27
1171852,37
1172476,31
1173104,28
1173732,45
1174356,57
1174988,58
1175620,57
1176240,54
1176868,46
1177492,52
1178120,52
1178748,40
1179368,24
1179996,15
1180620,15
1181244,25
1181876,20
1182496,39
1183124,45
1183756,47
1184376,49
1185004,24
1185628,34
1186256,32
1186888,24
1187504,28
1188132,29
1188756,36
1189384,33
1190012,24
1190632,43
1191260,59
1191884,61
1192508,59
1193140,41
1193760,36
1194388,49
1195020,44
1195640,31
1196268,25
1196892,28
1197524,24
1198152,33
1198772,43
1199400,45
1200024,48
1200648,46
1201276,43
1201896,20
1202524,17
1203148,15
1203776,18
1204404,24
1205024,28
1205652,27
1206284,24
1206904,31
1207532,55
1208156,64
1208788,58
1209416,50
1210036,14
1210664,19
1211288,37
1211912,42
1212540,17
1213160,11
1213788,24
1214412,30
1215036,16
1215668,38
1216288,46
1216916,45
1217548,46
1218168,24
1218796,25
1219420,23
1220052,11
1220680,12
1221296,28
1221928,38
1222552,34
1223176,42
1223804,42
1224424,47
1225052,58
1225676,54
1226300,48
1226932,42
1227552,53
1228184,58
1228812,48
1229428,20
1230056,11
1230680,21
1231312,21
1231940,38
1232560,40
1233188,48
1233812,45
1234436,45
1235068,11
1235688,16
1236316,15
1236940,31
1237564,53
1238192,52
1238816,51
1239444,37
1240076,16
1240696,48
1241324,47
1241948,58
1242576,57
1243204,52
1243824,47
1244452,40
1245076,37
1245700,21
1246332,26
1246952,31
1247580,11
1248204,19
1248828,43
1249456,46
1250080,45
1250708,49
1251336,41
1251952,39
1252584,24
1253208,13
1253836,19
1254468,32
1255088,41
1255716,33
1256340,22
1256964,41
1257592,47
1258216,55
1258844,58
1259468,57
1260092,49
1260724,56
1261344,59
1261972,47
1262604,27
1263224,15
1263852,35
1264480,28
1265108,20
1265736,39
1266360,49
1266988,48
1267616,48
1268240,17
1268868,12
1269488,17
1270116,15
1270740,20
1271364,29
1271996,44
1272616,45
1273244,24
1273876,48
1274496,58
1275124,53
1275752,52
1276380,47
1277012,43
1277632,42
1278260,37
1278888,25
1279512,22
1280144,12
1280756,27
1281388,36
1282008,43
1282628,43
1283256,46
1283872,46
1284500,46
1285128,21
1285744,16
1286372,28
1286996,34
1287624,42
1288252,42
1288872,40
1289500,37
1290124,22
1290752,48
1291380,52
1292000,53
1292628,51
1293252,40
1293872,49
1294500,52
1295120,44
1295748,24
1296372,16
1296992,13
1297624,25
1298244,16
1298872,43
1299504,48
1300120,46
1300748,49
1301372,31
1302000,28
1302632,17
1303248,12
1303876,11
1304500,15
1305124,26
1305752,32
1306376,33
1307004,45
1307628,53
1308252,63
1308880,73
1309496,71
1310124,32
1310756,23
1311372,29
1312004,24
1312624,16
1313252,11
1313880,19
1314496,15
1315124,27
1315748,41
1316368,47
1317000,46
1317616,49
1318244,14
1318868,11
1319488,11
1320120,10
1320736,28
1321364,38
1321992,63
1322608,70
1323236,45
1323860,41
1324488,57
1325116,63
1325736,60
1326364,56
1326988,42
1327616,42
1328244,39
1328864,21
1329492,16
1330112,11
1330736,21
1331364,13
1331980,43
1332608,46
1333232,49
1333852,48
1334484,47
1335104,24
1335732,11
1336360,20
1336980,24
1337612,29
1338232,77
1338860,53
1339492,29
1340112,28
1340740,52
1341364,51
1341988,54
1342616,55
1343236,47
1343864,45
1344488,44
1345108,35
1345736,16
1346360,13
1346988,14
1347616,25
1348232,20
1348860,38
1349484,47
1350112,44
1350740,45
1351360,20
1351988,24
1352612,24
1353236,11
1353864,10
1354480,23
1355108,46
1355732,35
1356356,40
1356984,44
1357600,58
1358228,58
1358856,74
1359480,65
1360108,27
1360728,23
1361360,42
1361988,39
1362608,27
1363236,14
1363856,22
1364484,27
1365112,36
1365728,44
1366360,48
1366984,49
1367608,48
1368236,24
1368856,15
1369484,13
1370108,25
1370736,32
1371364,34
1371988,43
1372616,42
1373248,26
1373864,42
1374492,56
1375116,53
1375748,56
1376376,47
1376992,46
1377620,51
1378244,52
1378868,31
1379496,22
1380112,12
1380740,11
1381364,12
1381988,43
1382620,47
1383240,45
1383868,46
1384496,35
1385112,36
1385744,49
1386368,37
1386996,35
1387624,41
1388248,41
1388876,43
1389500,30
1390124,38
1390752,54
1391368,56
1391996,60
1392624,61
1393248,54
1393876,52
1394500,45
1395128,44
1395756,15
1396376,11
1397004,23
1397628,37
1398256,20
1398888,37
1399504,44
1400132,48
1400756,49
1401380,25
1402008,22
1402632,17
1403260,14
1403884,24
1404508,34
1405136,37
1405752,28
1406384,16
1407012,50
1407632,49
1408264,49
1408884,51
1409512,45
1410140,49
1410760,52
1411388,38
1412012,22
1412632,14
1413264,10
1413880,17
1414508,12
1415132,41
1415756,42
1416384,44
1417000,46
1417628,45
1418256,28
1418880,21
1419508,29
1420132,28
1420760,29
1421392,36
1422008,34
1422640,33
1423264,20
1423888,49
1424516,54
1425136,55
1425764,54
1426388,40
1427012,27
1427644,44
1428264,48
1428892,29
1429524,12
1430144,18
1430772,26
1431396,20
1432028,41
1432660,45
1433280,47
1433908,45
1434532,26
1435156,12
1435784,12
1436408,14
1437036,11
1437660,31
1438284,57
1438912,65
1439528,43
1440160,42
1440788,56
1441408,58
1442036,50
1442656,50
1443284,33
1443912,50
1444528,58
1445156,49
1445780,20
1446404,10
1447032,23
1447648,29
1448280,24
1448900,39
1449524,46
1450156,44
1450776,49
1451404,26
1452028,24
1452656,11
1453284,13
1453908,11
1454540,25
1455168,45
1455784,59
1456412,52
1457036,41
1457668,65
1458296,73
1458912,60
1459544,43
1460164,42
1460788,50
1461420,61
1462040,42
1462668,15
1463292,20
1463920,37
1464548,34
1465172,43
1465800,47
1466432,49
1467048,48
1467676,45
1468300,28
1468932,14
1469560,11
1470180,19
1470808,29
1471432,27
1472056,41
1472684,38
1473304,34
1473932,52
1474556,60
1475184,66
1475812,69
1476436,49
1477064,42
1477696,52
1478312,49
1478940,15
1479564,13
1480196,38
1480824,42
1481440,30
1482068,42
1482692,46
1483316,48
1483944,47
1484564,35
1485192,42
1485816,29
1486436,21
1487064,21
1487688,22
1488316,32
1488944,23
1489568,29
1490196,43
1490820,59
1491448,54
1492076,47
1492696,44
1493324,42
1493948,50
1494572,46
1495200,31
1495824,17
1496452,11
1497076,18
1497700,17
1498328,36
1498952,42
1499580,48
1500208,46
1500832,48
1501460,19
1502084,19
1502712,14
1503344,14
1503964,18
1504592,22
1505216,35
1505840,39
1506472,29
1507088,41
1507720,55
1508344,53
1508968,57
1509596,58
1510220,59
1510852,57
1511484,52
1512104,23
1512732,11
1513356,20
1513988,36
1514620,20
1515240,45
1515868,43
1516492,46
1517116,47
1517748,34
1518368,22
1518996,17
1519628,17
1520248,21
1520876,28
1521500,35
1522132,38
1522760,34
1523380,42
1524008,50
1524632,63
1525256,65
1525884,56
1526504,56
1527132,49
1527756,45
1528380,23
1529012,14
1529632,11
1530260,12
1530892,18
1531512,17
1532144,38
1532768,49
1533400,49
1534028,46
1534648,17
1535280,15
1535904,15
1536528,12
1537156,16
1537776,15
1538404,27
1539024,34
1539648,20
1540280,44
1540896,57
1541524,53
1542152,53
1542776,49
1543404,41
1544028,53
1544656,49
1545284,32
1545904,22
1546532,14
1547156,36
1547784,29
1548412,40
1549032,43
1549660,45
1550284,46
1550908,49
1551536,16
1552160,15
1552788,20
1553420,19
1554040,33
1554668,47
1555292,48
1555924,47
1556552,29
1557168,54
1557800,59
1558424,56
1559044,53
1559676,42
1560296,47
1560924,45
1561548,40
1562172,20
1562804,12
1563424,13
1564052,22
1564684,16
1565304,41
1565932,43
1566556,49
1567188,47
1567816,22
1568440,14
1569068,11
1569692,11
1570316,13
1570944,22
1571564,35
1572192,40
1572816,39
1573440,44
1574068,50
1574688,59
1575316,60
1575948,49
1576568,29
1577196,32
1577820,33
1578452,24
1579080,16
1579704,13
1580332,14
1580956,22
1581580,33
1582212,43
1582832,45
1583460,52
1584084,49
1584708,22
1585340,14
1585960,12
1586588,13
1587220,28
1587840,27
1588468,33
1589092,43
1589724,31
1590352,46
1590976,53
1591608,59
1592232,60
1592856,52
1593484,50
1594104,49
1594732,43
1595360,38
1595984,48
1596616,26
1597232,25
1597864,44
1598492,46
1599112,46
1599744,45
1600368,48
1600996,29
1601624,25
1602240,34
1602868,39
1603492,34
1604112,38
1604740,47
1605360,32
1605988,17
1606612,45
1607232,56
1607864,58
1608480,55
1609108,52
1609736,52
1610352,61
1610984,57
1611608,50
1612236,29
1612864,13
1613484,23
1614116,34
1614740,22
1615364,38
1615996,44
1616616,49
1617244,45
1617868,27
1618492,21
1619120,16
1619744,16
1620372,16
1621004,18
1621624,30
1622252,34
1622876,28
1623508,43
1624136,61
1624752,62
1625384,57
1626008,45
1626632,40
1627260,46
1627880,42
1628508,16
1629132,10
1629756,10
1630384,33
1631008,35
1631640,39
1632268,42
1632888,45
1633516,46
1634140,47
1634772,12
1635400,13
1636020,11
1636648,11
1637272,29
1637896,49
1638528,40
1639140,38
1639768,38
1640392,49
1641012,54
1641640,63
1642256,59
1642884,56
1643504,66
1644128,62
1644756,54
1645376,33
1646004,21
1646636,27
1647252,45
1647884,38
1648504,39
1649132,46
1649760,46
1650380,45
1651012,22
1651632,14
1652256,21
1652884,25
1653500,24
1654132,30
1654752,47
1655376,36
1656004,18
1656620,43
1657252,48
1657880,57
1658496,62
1659124,60
1659748,53
1660376,55
1661004,46
1661624,39
1662252,21
1662872,12
1663496,24
1664124,32
1664740,24
1665368,39
1665988,44
1666612,47
1667240,47
1667856,23
1668484,25
1669104,26
1669728,24
1670356,26
1670980,24
1671608,36
1672236,38
1672856,30
1673484,43
1674104,49
1674736,52
1675364,59
1675984,70
1676612,65
1677236,43
1677860,12
1678488,11
1679104,12
1679732,10
1680356,21
1680976,17
1681604,41
1682220,42
1682848,44
1683480,46
1684096,51
1684724,25
1685344,24
1685972,17
1686600,13
1687216,29
1687844,42
1688468,40
1689092,41
1689720,32
1690340,44
1690968,53
1691592,61
1692216,64
1692844,50
1693460,48
1694092,57
1694712,64
1695336,41
1695964,33
1696588,23
1697216,11
1697844,15
1698464,44
1699092,49
1699716,50
1700344,49
1700972,22
1701592,34
1702220,70
1702844,71
1703468,60
1704096,54
1704712,49
1705340,38
1705964,35
1706588,43
1707216,55
1707832,60
1708460,57
1709092,56
1709712,49
1710340,59
1710964,57
1711596,45
1712224,21
1712840,15
1713472,14
1714092,25
1714716,21
1715348,39
1715968,48
1716596,48
1717220,47
1717844,26
1718472,25
1719088,23
1719720,25
1720348,20
1720964,15
1721592,20
1722216,27
1722848,28
1723476,38
1724096,47
1724724,53
1725348,49
1725972,47
1726600,48
1727224,61
1727852,60
1728476,32
1729100,12
1729728,10
1730344,20
1730976,19
1731604,40
1732224,43
1732852,46
1733476,46
1734104,44
1734732,12
1735352,17
1735980,13
1736604,15
1737228,52
1737856,62
1738480,48
1739108,37
1739732,33
1740356,51
1740988,58
1741604,67
1742232,67
1742864,61
1743480,57
1744108,53
1744732,32
1745360,17
1745988,27
1746608,14
1747236,10
1747860,16
1748484,40
1749112,43
1749736,47
1750364,50
1750992,24
1751616,24
1752244,32
1752864,24
1753492,17
1754124,22
1754744,41
1755372,41
1755996,30
1756628,45
1757256,59
1757880,59
1758508,59
1759132,44
1759760,43
1760388,61
1761008,66
1761636,43
1762256,11
1762880,15
1763508,20
1764128,19
1764756,38
1765384,41
1766008,45
1766636,47
1767260,47
1767888,15
1768516,30
1769136,38
1769764,24
1770388,33
1771012,45
1771644,55
1772264,44
1772892,23
1773516,47
1774140,59
1774768,57
1775384,54
1776016,51
1776636,54
1777264,59
1777892,49
1778516,18
1779148,12
1779780,13
1780400,15
1781028,17
1781652,41
1782280,48
1782908,48
1783528,49
1784156,32
1784780,20
1785404,17
1786036,10
1786656,11
1787284,27
1787916,48
1788536,45
1789164,33
1789788,42
1790420,54
1791052,59
1791672,65
1792304,64
1792924,46
1793548,50
1794176,47
1794800,42
1795428,31
1796052,24
1796672,11
1797304,19
1797920,19
1798548,38
1799180,50
1799800,51
1800428,49
1801052,16
1801684,12
1802312,10
1802928,12
1803556,16
1804180,25
1804804,45
1805432,40
1806048,21
1806680,52
1807300,57
1807924,49
1808556,44
1809176,23
1809804,32
1810428,45
1811056,46
1811684,26
1812308,25
1812936,12
1813568,17
1814184,17
1814812,41
1815436,45
1816068,47
1816696,47
1817312,44
1817944,21
1818564,18
1819188,16
1819820,28
1820440,47
1821068,37
1821692,32
1822320,43
1822948,21
1823572,56
1824204,54
1824832,51
1825448,49
1826076,42
1826700,45
1827328,52
1827960,53
1828576,32
1829204,20
1829828,12
1830452,11
1831080,18
1831696,40
1832328,47
1832952,52
1833576,51
1834204,29
1834828,25
1835460,17
1836088,12
1836712,14
1837344,20
1837968,32
1838596,39
1839228,41
1839848,43
1840476,48
1841100,52
1841724,50
1842356,46
1842976,42
1843604,49
1844232,50
1844856,37
1845484,16
1846104,10
1846732,29
1847364,28
1847984,31
1848612,41
1849236,47
1849860,45
1850492,48
1851112,14
1851740,12
1852364,10
1852988,16
1853616,21
1854240,46
1854868,51
1855496,34
1856120,23
1856748,50
1857372,64
1858000,55
1858628,48
1859248,50
1859876,69
1860500,44
1861124,38
1861756,22
1862376,21
1863008,14
1863628,19
1864252,21
1864884,41
1865504,45
1866132,44
1866764,46
1867384,39
1868012,28
1868636,34
1869268,26
1869896,19
1870512,25
1871144,35
1871768,34
1872392,38
1873020,41
1873640,53
1874268,55
1874892,59
1875516,58
1876148,36
1876768,43
1877396,49
1878028,36
1878648,20
1879276,18
1879900,13
1880532,18
1881164,18
1881784,40
1882412,46
1883036,48
1883660,45
1884292,24
1884912,29
1885540,26
1886164,21
1886788,28
1887416,30
1888036,30
1888664,27
1889292,16
1889912,44
1890540,50
1891164,57
1891796,51
1892424,45
1893048,38
1893676,38
1894304,39
1894928,18
1895556,11
1896176,11
1896804,23
1897428,20
1898052,39
1898680,43
1899304,48
1899932,46
1900564,47
1901184,19
1901812,14
1902436,13
1903068,14
1903700,31
1904320,37
1904948,34
1905572,39
1906196,23
1906828,52
1907448,60
1908076,59
1908700,51
1909324,23
1909956,21
1910576,41
1911204,45
1911836,30
1912456,31
1913088,13
1913712,15
1914340,15
1914972,40
1915592,45
1916224,47
1916848,46
1917472,30
1918104,33
1918720,25
1919352,24
1919976,20
1920604,34
1921232,40
1921856,37
1922484,36
1923112,49
1923736,62
1924364,54
1924988,55
1925620,52
1926248,48
1926864,40
1927492,29
1928116,33
1928740,20
1929368,14
1929984,35
1930616,25
1931236,33
1931860,43
1932492,44
1933112,46
1933740,49
1934372,30
1934992,36
1935620,26
1936244,12
1936876,10
1937504,17
1938124,30
1938752,34
1939376,23
1940000,47
1940628,51
1941248,61
1941876,58
1942500,52
1943124,48
1943756,46
1944376,43
1945004,26
1945636,28
1946256,19
1946884,16
1947504,16
1948136,43
1948764,44
1949384,53
1950012,54
1950636,53
1951260,45
1951892,28
1952512,14
1953140,11
1953764,15
1954388,40
1955020,50
1955640,47
1956268,41
1956900,54
1957520,52
1958148,50
1958776,53
1959404,47
1960032,46
1960656,41
1961284,45
1961908,29
1962532,23
1963164,20
1963784,22
1964412,18
1965040,41
1965664,46
1966292,49
1966916,48
1967544,29
1968172,18
1968792,11
1969420,13
1970044,24
1970672,31
1971300,33
1971920,29
1972548,23
1973172,46
1973792,48
1974424,53
1975040,58
1975668,56
1976292,58
1976916,52
1977548,44
1978168,32
1978796,17
1979428,19
1980048,14
1980676,25
1981300,41
1981932,44
1982560,47
1983184,50
1983816,46
1984440,30
1985064,20
1985692,10
1986312,10
1986940,19
1987564,31
1988188,43
1988816,41
1989432,29
1990064,47
1990692,59
1991312,67
1991944,59
1992568,41
1993196,46
1993824,51
1994448,55
1995076,29
1995700,22
1996324,12
1996956,35
1997576,33
1998204,41
1998828,44
1999452,50
2000084,49
2000704,34
2001332,29
2001964,18
2002584,11
2003212,17
2003832,34
2004464,36
2005092,24
2005712,17
2006340,45
2006968,61
2007592,55
2008220,49
2008840,46
2009468,39
2010092,55
2010716,46
2011344,26
2011964,19
2012592,13
2013220,19
2013840,25
2014468,27
2015092,37
2015724,46
2016352,45
2016972,45
2017600,15
2018224,15
2018844,17
2019476,12
2020096,21
2020724,31
2021348,43
2021972,38
2022604,22
2023224,55
2023852,58
2024484,52
2025104,49
2025732,37
2026356,39
2026988,52
2027616,56
2028240,35
2028868,20
2029492,15
2030116,27
2030744,37
2031368,46
2031996,45
2032624,48
2033248,47
2033876,37
2034500,21
2035132,29
2035764,18
2036384,12
2037016,24
2037640,30
2038268,27
2038900,26
2039520,37
2040152,52
2040776,58
2041400,54
2042028,52
2042648,32
2043276,37
2043900,38
2044528,37
2045160,17
2045784,11
2046412,27
2047044,19
2047664,21
2048296,41
2048916,44
2049540,48
2050168,49
2050784,31
2051412,34
2052032,31
2052656,13
2053284,16
2053900,12
2054532,32
2055152,41
2055776,29
2056404,46
2057024,56
2057652,53
2058280,51
2058896,40
2059524,30
2060148,30
2060776,45
2061404,42
2062024,29
2062652,21
2063276,16
2063896,21
2064528,39
2065144,47
2065772,49
2066396,46
2067016,47
2067648,17
2068264,19
2068892,17
2069520,19
2070136,43
2070764,53
2071388,56
2072016,50
2072644,27
2073264,50
2073892,59
2074516,57
2075140,55
2075772,42
2076392,48
2077020,60
2077644,59
2078268,25
2078896,18
2079512,18
2080140,23
2080764,15
2081388,46
2082016,45
2082640,48
2083268,47
2083896,27
2084512,15
2085140,12
2085764,11
2086392,11
2087020,11
2087640,38
2088268,48
2088892,27
2089516,41
2090144,50
2090760,50
2091388,55
2092012,50
2092636,31
2093264,37
2093880,34
2094512,25
2095140,11
2095760,9
2096336,28
2096968,29
2097596,18
2098224,44
2098840,51
2099472,48
2100092,47
2100724,18
2101352,12
2101968,17
2102596,26
2103220,27
2103844,24
2104472,31
2105088,31
2105716,27
2106340,44
2106964,58
2107592,61
2108208,61
2108840,46
2109468,29
2110088,31
2110716,27
2111340,24
2111972,11
2112600,11
2113224,25
2113852,15
2114476,38
2115100,43
2115728,49
2116344,46
2116976,49
2117600,21
2118220,17
2118852,10
2119472,10
2120100,21
2120728,38
2121352,42
2121980,43
2122604,33
2123232,43
2123864,54
2124480,59
2125112,56
2125736,48
2126356,52
2126988,58
2127608,50
2128236,16
2128860,10
2129484,13
2130112,28
2130728,20
2131360,42
2131988,43
2132608,46
2133236,47
2133860,31
2134488,11
2135116,12
2135736,11
2136364,17
2136988,25
2137612,30
2138240,39
2138856,65
2139484,45
2140108,67
2140732,64
2141364,58
2141984,66
2142612,67
2143244,64
2143864,49
2144492,29
2145116,10
2145748,11
2146376,29
2146992,39
2147624,28
2148248,41
2148872,48
2149500,47
2150120,48
2150748,17
2151372,14
2151996,13
2152624,10
2153248,21
2153876,31
2154504,30
2155128,26
2155756,29
2156380,39
2157012,49
2157640,52
2158260,55
2158888,55
2159512,51
2160136,51
2160764,36
2161384,11
2162012,16
2162636,11
2163260,15
2163888,15
2164504,42
2165132,45
2165756,46
2166384,47
2167012,45
2167636,19
2168268,29
2168896,22
2169520,12
2170148,14
2170772,27
2171400,36
2172028,44
2172648,30
2173276,50
2173900,55
2174524,56
2175156,54
2175776,43
2176408,49
2177036,47
2177656,41
2178284,23
2178908,16
2179536,13
2180164,16
2180784,15
2181412,38
2182036,45
2182660,44
2183292,46
2183912,20
2184540,14
2185164,11
2185788,10
2186416,18
2187040,43
2187668,67
2188300,60
2188920,45
2189548,42
2190172,53
2190804,63
2191432,60
2192048,47
2192680,46
2193300,58
2193924,53
2194556,24
2195176,11
2195808,12
2196432,17
2197056,24
2197684,35
2198304,45
2198936,46
2199564,47
2200184,47
2200812,13
2201436,17
2202068,16
2202696,16
2203320,34
2203948,34
2204572,39
2205196,36
2205828,16
2206448,53
2207076,52
2207700,53
2208328,51
2208956,52
2209576,50
2210204,47
2210836,47
2211456,22
2212084,13
2212708,14
2213340,27
2213968,18
2214588,46
2215216,47
2215840,44
2216460,48
2217092,30
2217712,32
2218340,30
2218964,17
2219588,24
2220220,32
2220840,34
2221468,36
2222100,41
2222720,45
2223348,48
2223972,51
2224604,48
2225236,56
2225856,55
2226484,55
2227112,34
2227736,26
2228364,22
2228984,18
2229612,17
2230236,25
2230864,21
2231492,44
2232112,46
2232744,46
2233372,49
2233992,29
2234620,23
2235244,15
2235876,15
2236508,24
2237128,36
2237760,49
2238384,43
2239008,21
2239640,48
2240256,63
2240888,62
2241508,57
2242132,31
2242764,20
2243384,45
2244012,66
2244640,53
2245264,27
2245892,11
2246516,23
2247144,19
2247776,40
2248392,43
2249024,47
2249648,48
2250272,48
2250900,24
2251520,21
2252148,21
2252776,15
2253400,19
2254028,28
2254648,42
2255276,35
2255904,28
2256528,57
2257156,63
2257780,50
2258408,48
2259040,43
2259656,60
2260284,64
2260908,49
2261532,11
2262160,21
2262784,43
2263412,20
2264036,26
2264660,44
2265288,48
2265912,46
2266540,48
2267172,19
2267792,33
2268420,49
2269044,45
2269676,31
2270304,17
2270924,33
2271552,40
2272180,27
2272800,50
2273432,50
2274048,57
2274680,61
2275300,50
2275924,39
2276556,40
2277176,20
2277804,15
2278436,30
2279056,29
2279684,13
2280308,19
2280936,34
2281568,44
2282188,46
2282816,48
2283440,46
2284064,23
2284692,12
2285312,13
2285940,11
2286568,17
2287188,37
2287820,54
2288440,41
2289068,22
2289700,50
2290320,60
2290952,56
2291576,54
2292204,48
2292836,52
2293456,55
2294088,49
2294708,34
2295332,31
2295964,10
2296584,28
2297212,28
2297836,41
2298460,47
2299092,48
2299716,46
2300344,32
2300972,13
2301592,14
2302224,23
2302848,37
2303476,53
2304108,57
2304724,50
2305356,42
2305976,40
2306600,55
2307228,54
2307848,58
2308476,55
2309100,37
2309724,51
2310352,48
2310976,37
2311604,17
2312236,11
2312856,19
2313484,19
2314108,20
2314740,42
2315368,46
2315988,44
2316616,48
2317240,24
2317864,17
2318492,16
2319112,15
2319744,13
2320368,11
2320988,25
2321620,49
2322240,44
2322872,43
2323500,56
2324120,60
2324748,58
2325372,39
2326004,27
2326632,38
2327252,51
2327880,29
2328504,11
2329128,11
2329756,21
2330376,25
2331004,45
2331628,46
2332252,46
2332884,48
2333504,46
2334136,19
2334764,15
2335384,11
2336012,11
2336636,20
2337264,32
2337896,36
2338512,39
2339144,35
2339768,47
2340392,54
2341020,58
2341640,53
2342268,47
2342892,52
2343516,47
2344148,41
2344772,19
2345404,10
2346032,23
2346656,27
2347284,15
2347908,40
2348540,45
2349172,46
2349792,47
2350424,22
2351048,23
2351672,18
2352300,14
2352920,15
2353548,23
2354180,29
2354800,31
2355432,41
2356056,45
2356684,55
2357312,62
2357936,61
2358564,52
2359188,43
2359816,47
2360444,47
2361064,35
2361692,21
2362316,11
2362940,26
2363572,29
2364192,36
2364820,44
2365452,44
2366072,47
2366704,49
2367328,25
2367956,15
2368588,20
2369208,30
2369836,40
2370460,32
2371084,27
2371716,26
2372336,15
2372964,58
2373592,58
2374216,57
2374848,53
2375464,37
2376096,40
2376724,46
2377344,50
2377972,29
2378596,15
2379228,12
2379856,16
2380480,17
2381108,39
2381732,45
2382356,45
2382988,48
2383608,27
2384236,11
2384860,10
2385484,14
2386116,24
2386736,27
2387364,38
2387996,45
2388616,48
2389244,45
2389868,53
2390500,62
2391132,53
2391752,49
2392384,46
2393008,61
2393632,37
2394260,18
2394880,13
2395508,14
2396136,42
2396760,42
2397392,21
2398008,41
2398640,48
2399272,47
2399888,46
2400520,13
2401144,12
2401772,12
2402404,14
2403024,32
2403652,41
2404276,45
2404900,42
2405532,24
2406152,47
2406784,59
2407404,55
2408028,51
2408656,39
2409280,44
2409908,59
2410540,54
2411160,29
2411792,17
2412416,11
2413044,21
2413672,20
2414296,42
2414924,46
2415552,47
2416176,50
2416804,44
2417424,18
2418052,17
2418676,15
2419300,11
2419928,23
2420552,31
2421180,36
2421812,38
2422432,32
2423060,53
2423684,58
2424316,62
2424948,53
2425568,37
2426200,30
2426824,36
2427448,44
2428076,28
2428696,22
2429328,19
2429956,27
2430576,15
2431208,40
2431832,48
2432464,47
2433092,47
2433712,27
2434340,21
2434964,15
2435592,11
2436220,27
2436840,53
2437468,49
2438092,37
2438716,31
2439348,43
2439968,54
2440600,62
2441228,59
2441848,49
2442476,47
2443100,55
2443732,61
2444364,48
2444984,25
2445612,12
2446236,28
2446860,21
2447492,41
2448112,44
2448740,47
2449364,46
2449988,47
2450620,28
2451240,36
2451868,25
2452500,18
2453120,27
2453748,29
2454376,34
2455008,33
2455640,20
2456256,47
2456888,52
2457512,53
2458136,52
2458768,32
2459384,37
2460012,34
2460636,34
2461260,14
2461888,13
2462504,11
2463136,13
2463764,16
2464384,46
2465012,45
2465636,47
2466264,47
2466892,32
2467512,52
2468140,67
2468764,21
2469388,24
2470016,26
2470640,17
2471268,22
2471892,27
2472516,40
2473148,62
2473768,67
2474396,65
2475028,54
2475648,41
2476276,43
2476900,38
2477532,13
2478160,13
2478780,10
2479408,23
2480032,19
2480656,24
2481284,38
2481904,49
2482532,51
2483156,47
2483780,15
2484412,16
2485032,13
2485660,12
2486292,18
2486912,24
2487540,40
2488164,45
2488796,42
2489424,42
2490048,59
2490676,59
2491300,52
2491924,44
2492556,42
2493176,49
2493804,47
2494428,19
2495052,11
2495684,10
2496304,27
2496932,26
2497564,40
2498184,47
2498812,47
2499436,49
2500068,39
2500696,11
2501312,11
2501944,11
2502568,11
2503192,11
2503820,19
2504440,24
2505068,26
2505692,32
2506316,53
2506948,55
2507568,50
2508196,52
2508828,44
2509448,43
2510076,39
2510700,36
2511332,11
2511960,15
2512584,26
2513212,23
2513836,16
2514464,42
2515092,47
2515712,49
2516340,50
2516968,27
2517592,19
2518220,16
2518840,20
2519472,25
2520100,23
2520720,41
2521348,46
2521976,37
2522604,43
2523236,58
2523856,59
2524488,62
2525112,63
2525736,57
2526364,67
2526984,60
2527616,40
2528240,28
2528864,19
2529492,27
2530116,31
2530748,39
2531380,45
2532000,45
2532628,48
2533256,48
2533884,20
2534516,22
2535136,18
2535768,11
2536392,15
2537016,19
2537644,23
2538264,24
2538892,18
2539524,50
2540144,50
2540776,50
2541400,48
2542028,19
2542660,12
2543280,37
2543912,44
2544536,25
2545160,20
2545788,13
2546408,19
2547036,19
2547664,47
2548288,48
2548916,48
2549536,48
2550168,31
2550796,45
2551416,40
2552048,25
2552672,20
2553300,27
2553932,49
2554552,50
2555184,33
2555808,44
2556432,53
2557064,56
2557684,52
2558312,49
2558940,45
2559564,56
2560200,60
2560812,51
2561440,26
2562068,10
2562684,19
2563312,20
2563936,25
2564564,44
2565192,45
2565808,45
2566436,45
2567060,14
2567684,22
2568312,25
2568928,12
2569560,23
2570184,36
2570808,47
2571436,42
2572056,19
2572684,48
2573308,62
2573936,55
2574564,53
2575188,36
2575816,30
2576444,47
2577064,51
2577692,27
2578316,10
2578944,11
2579572,23
2580192,17
2580820,41
2581444,47
2582064,46
2582696,48
2583312,41
2583940,14
2584564,17
2585188,24
2585820,31
2586440,40
2587068,33
2587700,24
2588320,27
2588948,30
2589572,62
2590200,77
2590832,65
2591448,56
2592076,41
2592700,33
2593324,41
2593952,35
2594572,12
2595200,33
2595824,32
2596448,13
2597076,16
2597700,39
2598332,46
2598960,47
2599584,46
2600212,30
2600836,29
2601468,24
2602096,15
2602720,17
2603348,11
2603972,17
2604596,25
2605228,27
2605848,43
2606476,51
2607100,55
2607728,52
2608356,36
2608980,11
2609612,35
2610240,77
2610860,47
2611488,18
2612112,18
2612740,11
2613368,12
2613992,41
2614620,45
2615244,48
2615868,49
2616500,46
2617120,15
2617748,13
2618380,11
2619000,11
2619628,33
2620252,43
2620884,63
2621512,56
2622136,30
2622764,47
2623384,50
2624008,52
2624636,50
2625256,47
2625884,59
2626504,64
2627128,57
2627756,35
2628376,28
2629004,23
2629628,15
2630248,19
2630880,44
2631500,47
2632132,49
2632760,49
2633376,50
2634004,49
2634628,33
2635256,19
2635884,10
2636504,23
2637132,41
2637756,39
2638380,43
2639008,40
2639628,53
2640256,61
2640880,59
2641500,51
2642128,50
2642752,62
2643380,55
2644008,41
2644624,21
2645252,10
2645876,26
2646504,26
2647132,16
2647752,39
2648380,46
2649004,50
2649624,50
2650252,23
2650872,13
2651500,12
2652124,16
2652748,14
2653376,15
2654000,47
2654628,48
2655260,36
2655880,42
2656508,49
2657132,56
2657764,53
2658392,45
2659008,47
2659636,58
2660260,52
2660884,27
2661512,14
2662136,10
2662764,31
2663388,34
2664012,41
2664636,43
2665256,45
2665884,48
2666512,46
2667128,12
2667756,12
2668380,13
2669008,10
2669636,18
2670256,33
2670884,50
2671508,49
2672132,35
2672764,45
2673384,55
2674012,54
2674636,51
2675256,49
2675884,61
2676504,52
2677132,41
2677756,11
2678380,10
2679008,19
2679632,23
2680260,17
2680892,40
2681512,43
2682140,47
2682764,49
2683396,22
2684024,12
2684640,11
2685272,11
2685896,14
2686520,17
2687148,16
2687768,16
2688396,23
2689020,42
2689648,49
2690276,45
2690896,48
2691528,51
2692156,44
2692776,51
2693404,44
2694028,18
2694656,12
2695288,10
2695904,18
2696532,25
2697156,25
2697780,41
2698408,47
2699024,49
2699656,46
2700280,12
2700904,11
2701532,11
2702156,12
2702784,24
2703416,30
2704032,37
2704660,38
2705284,27
2705912,39
2706540,58
2707160,67
2707788,58
2708412,37
2709036,41
2709668,44
2710288,45
2710916,16
2711540,11
2712164,10
2712796,20
2713420,21
2714052,41
2714680,43
2715296,43
2715924,45
2716548,38
2717180,15
2717808,15
2718424,18
2719056,19
2719680,24
2720304,35
2720932,42
2721552,33
2722180,33
2722804,48
2723428,56
2724056,57
2724680,48
2725308,30
2725936,49
2726552,61
2727184,58
2727804,39
2728436,25
2729064,15
2729680,13
2730308,14
2730932,37
2731556,44
2732184,47
2732800,49
2733432,49
2734056,56
2734680,21
2735308,11
2735928,25
2736556,47
2737188,53
2737808,41
2738436,30
2739060,47
2739692,67
2740320,86
2740944,70
2741572,53
2742196,39
2742820,44
2743452,38
2744072,11
2744700,27
2745324,14
2745948,23
2746576,29
2747200,38
2747832,43
2748460,46
2749080,49
2749708,49
2750332,27
2750964,19
2751592,15
2752216,11
2752844,16
2753468,24
2754092,31
2754720,31
2755344,21
2755972,44
2756596,55
2757220,58
2757852,55
2758472,45
2759104,51
2759732,53
2760352,41
2760980,19
2761604,12
2762232,11
2762864,20
2763484,14
2764112,39
2764740,44
2765364,45
2765992,47
2766608,24
2767240,19
2767864,20
2768488,17
2769116,11
2769740,12
2770368,43
2771000,60
2771616,45
2772248,44
2772872,53
2773500,64
2774132,60
2774752,64
2775384,47
2776004,50
2776628,43
2777260,18
2777880,21
2778508,20
2779132,26
2779760,36
2780388,25
2781012,38
2781644,44
2782272,47
2782896,47
2783524,17
2784152,25
2784776,15
2785404,11
2786024,24
2786652,31
2787276,35
2787900,22
2788528,14
2789144,40
2789772,46
2790396,50
2791024,49
2791656,43
2792280,55
2792908,61
2793540,55
2794160,27
2794788,13
2795412,11
2796040,21
2796668,24
2797288,42
2797916,46
2798540,46
2799164,47
2799796,42
2800416,22
2801044,19
2801676,14
2802296,15
2802924,17
2803548,31
2804180,27
2804808,28
2805424,32
2806056,50
2806676,51
2807300,48
2807932,54
2808552,41
2809180,41
2809804,41
2810428,36
2811060,22
2811680,18
2812308,11
2812940,10
2813560,16
2814188,39
2814816,45
2815444,44
2816076,46
2816692,27
2817324,21
2817944,11
2818568,11
2819196,24
2819816,39
2820444,39
2821068,23
2821692,26
2822320,40
2822944,47
2823572,57
2824204,54
2824824,43
2825452,50
2826076,57
2826708,48
2827336,30
2827952,22
2828584,21
2829208,15
2829828,19
2830460,36
2831080,46
2831708,47
2832332,45
2832956,58
2833588,74
2834208,41
2834836,15
2835468,11
2836088,25
2836716,38
2837340,44
2837972,46
2838600,29
2839220,50
2839848,60
2840472,53
2841096,57
2841724,48
2842344,49
2842972,60
2843596,60
2844220,31
2844852,14
2845472,11
2846100,18
2846732,16
2847352,41
2847980,45
2848608,48
2849236,53
2849868,47
2850488,37
2851116,17
2851744,13
2852368,11
2852996,20
2853616,33
2854244,36
2854872,27
2855496,43
2856124,52
2856744,59
2857376,59
2858004,48
2858624,36
2859256,55
2859880,61
2860508,45
2861140,20
2861760,18
2862388,12
2863016,13
2863640,25
2864272,39
2864888,44
2865516,49
2866144,48
2866768,12
2867400,18
2868016,32
2868644,38
2869272,41
2869888,50
2870520,55
2871144,43
2871772,25
2872404,46
2873024,64
2873652,71
2874276,55
2874900,32
2875528,50
2876144,75
2876776,50
2877400,12
2878024,18
2878652,20
2879272,31
2879904,18
2880532,40
2881152,43
2881780,45
2882400,48
2883032,43
2883660,14
2884280,11
2884908,11
2885532,10
2886156,42
2886784,57
2887400,30
2888032,15
2888652,35
2889276,52
2889904,52
2890520,55
2891152,56
2891780,42
2892400,59
2893028,61
2893652,43
2894280,15
2894908,10
2895528,13
2896156,30
2896780,32
2897408,38
2898040,45
2898656,47
2899284,45
2899908,31
2900532,35
2901160,25
2901776,14
2902408,13
2903032,21
2903656,29
2904284,26
2904908,24
2905540,41
2906172,46
2906792,53
2907424,53
2908048,51
2908676,58
2909308,71
2909928,74
2910556,24
2911180,14
2911804,25
2912436,39
2913056,25
2913684,39
2914316,44
2914936,45
2915564,47
2916188,48
2916820,11
2917448,10
2918072,12
2918704,18
2919328,22
2919952,14
2920580,12
2921200,25
2921828,24
2922452,36
2923076,48
2923708,44
2924328,47
2924956,56
2925588,46
2926208,31
2926836,25
2927460,12
2928092,19
2928720,30
2929344,27
2929972,13
2930596,45
2931220,44
2931848,45
2932472,47
2933100,26
2933728,11
2934352,11
2934980,10
2935600,13
2936228,21
2936860,39
2937480,40
2938112,29
2938736,44
2939368,49
2939996,66
2940616,72
2941248,66
2941872,44
2942496,34
2943128,32
2943744,34
2944376,21
2945000,12
2945624,15
2946252,16
2946872,20
2947500,41
2948132,47
2948752,53
2949384,57
2950004,49
2950636,36
2951264,23
2951880,20
2952512,23
2953136,25
2953760,43
2954388,46
2955008,21
2955636,53
2956260,61
2956884,59
2957516,54
2958136,46
2958764,46
2959396,52
2960016,49
2960644,36
2961268,26
2961896,13
2962524,41
2963144,35
2963772,41
2964396,45
2965024,47
2965652,46
2966272,41
2966900,20
2967528,38
2968152,21
2968780,10
2969400,30
2970032,40
2970660,31
2971280,29
2971908,30
2972532,53
2973160,56
2973792,48
2974408,47
2975036,43
2975660,40
2976284,31
2976916,32
2977536,17
2978164,17
2978788,14
2979412,20
2980044,16
2980664,39
2981292,47
2981920,50
2982544,47
2983172,17
2983796,15
2984428,14
2985056,13
2985676,17
2986304,21
2986928,27
2987552,25
2988180,20
2988800,46
2989428,49
2990052,59
2990680,48
2991308,34
2991928,33
2992560,49
2993188,49
2993808,27
2994436,11
2995060,13
2995692,11
2996324,16
2996944,38
2997572,41
2998200,44
2998824,47
2999452,48
3000072,37
3000704,35
3001328,22
3001952,19
3002580,39
3003204,39
3003836,42
3004464,33
3005088,23
3005720,47
3006344,49
3006972,53
3007604,57
3008224,39
3008852,56
3009476,81
3010100,55
3010732,18
3011352,11
3011980,12
3012608,17
3013232,17
3013860,43
3014488,47
3015116,50
3015748,46
3016368,29
3016996,31
3017624,30
3018248,17
3018876,10
3019496,22
3020128,51
3020752,57
3021376,41
3022008,45
3022624,59
3023256,59
3023888,59
3024504,56
3025136,46
3025760,45
3026392,39
3027020,28
3027640,21
3028268,27
3028896,13
3029520,11
3030152,28
3030768,39
3031400,47
3032024,45
3032648,48
3033276,45
3033896,43
3034524,19
3035156,11
3035776,23
3036408,26
3037032,38
3037664,37
3038292,30
3038912,42
3039544,53
3040168,61
3040792,61
3041420,57
3042040,46
3042668,37
3043292,19
3043916,10
3044548,10
3045168,15
3045796,13
3046428,17
3047048,42
3047676,46
3048300,45
3048932,45
3049564,36
3050184,29
3050816,29
3051440,32
3052064,33
3052696,38
3053312,43
3053944,34
3054568,16
3055192,35
3055824,49
3056444,57
3057072,54
3057704,57
3058324,63
3058956,50
3059580,50
3060212,47
3060840,25
3061460,12
3062088,19
3062716,28
3063340,27
3063972,38
3064592,47
3065224,45
3065848,50
3066472,28
3067104,24
3067728,25
3068360,11
3068988,14
3069608,25
3070240,38
3070864,22
3071496,18
3072128,42
3072744,49
3073372,53
3073996,57
3074620,46
3075248,35
3075864,43
3076492,49
3077116,31
3077744,17
3078372,11
3079000,29
3079628,27
3080260,40
3080880,41
3081508,45
3082132,47
3082760,47
3083388,10
3084008,11
3084636,24
3085260,26
3085884,29
3086516,62
3087136,58
3087764,40
3088396,18
3089016,50
3089644,67
3090268,57
3090900,49
3091528,26
3092152,32
3092784,46
3093408,41
3094032,11
3094660,10
3095280,12
3095908,16
3096536,16
3097160,42
3097788,47
3098408,47
3099036,47
3099668,24
3100288,25
3100916,21
3101540,12
3102172,17
3102804,29
3103424,42
3104056,40
3104676,27
3105300,44
3105932,47
3106552,57
3107184,57
3107808,48
3108432,26
3109064,37
3109680,49
3110312,57
3110944,34
3111560,24
3112192,11
3112816,12
3113448,29
3114076,41
3114696,50
3115328,48
3115952,46
3116576,33
3117208,25
3117824,17
3118456,11
3119080,29
3119704,32
3120332,30
3120952,36
3121580,19
3122212,43
3122832,59
3123464,59
3124084,57
3124716,57
3125344,46
3125968,35
3126596,33
3127220,16
3127844,12
3128476,14
3129096,31
3129724,34
3130352,48
3130976,45
3131604,45
3132228,49
3132860,36
3133492,20
3134112,17
3134744,17
3135368,18
3135996,19
3136628,36
3137248,46
3137876,44
3138500,41
3139128,57
3139756,60
3140376,58
3141008,55
3141636,44
3142256,59
3142888,61
3143512,47
3144144,18
3144772,12
3145392,15
3146024,16
3146648,21
3147272,42
3147900,43
3148520,49
3149152,48
3149776,31
3150400,32
3151028,25
3151648,14
3152280,18
3152908,29
3153528,36
3154160,32
3154784,29
3155412,42
3156044,44
3156664,53
3157292,55
3157920,48
3158544,46
3159172,52
3159792,53
3160424,36
3161048,31
3161672,15
3162300,37
3162920,32
3163552,45
3164180,51
3164800,49
3165428,46
3166056,49
3166684,33
3167316,14
3167936,33
3168568,22
3169196,27
3169820,46
3170452,54
3171072,91
3171704,61
3172328,41
3172952,51
3173584,56
3174204,51
3174836,34
3175468,46
3176088,53
3176716,47
3177344,27
3177972,12
3178604,22
3179224,51
3179856,26
3180480,40
3181104,47
3181736,44
3182352,50
3182984,37
3183612,26
3184236,19
3184868,14
3185492,11
3186124,17
3186752,31
3187376,30
3188008,21
3188632,49
3189256,63
3189888,62
3190504,57
3191136,43
3191760,32
3192384,23
3193016,25
3193636,22
3194268,12
3194900,10
3195520,33
3196152,43
3196776,39
3197408,45
3198040,45
3198660,46
3199288,43
3199916,19
3200540,16
3201172,14
3201792,13
3202420,35
3203044,40
3203664,29
3204296,27
3204912,16
3205540,52
3206172,52
3206792,56
3207420,51
3208044,36
3208672,53
3209300,48
3209920,29
3210548,16
3211172,26
3211796,15
3212428,22
3213048,17
3213676,47
3214300,47
3214924,46
3215556,47
3216176,41
3216804,29
3217432,13
3218052,18
3218680,16
3219304,17
3219932,33
3220564,46
3221184,51
3221812,43
3222436,57
3223060,49
3223688,54
3224312,48
3224944,38
3225568,62
3226192,72
3226820,57
3227440,30
3228068,21
3228700,22
3229320,40
3229948,21
3230572,40
3231204,51
3231836,55
3232456,50
3233084,28
3233708,18
3234332,11
3234964,10
3235584,22
3236212,27
3236836,25
3237460,17
3238092,30
3238712,39
3239340,51
3239972,74
3240592,71
3241220,38
3241844,35
3242476,55
3243104,56
3243724,38
3244352,24
3244976,13
3245600,42
3246228,38
3246848,42
3247476,45
3248100,46
3248724,45
3249356,43
3249976,17
3250604,11
3251236,20
3251856,20
3252484,10
3253108,17
3253740,36
3254368,63
3254992,47
3255624,45
3256248,45
3256872,51
3257500,51
3258120,53
3258748,60
3259376,47
3260000,31
3260628,18
3261252,15
3261884,11
3262516,17
3263136,15
3263768,41
3264392,49
3265020,47
3265652,46
3266272,24
3266900,17
3267524,14
3268148,14
3268780,20
3269400,27
3270032,37
3270660,30
3271280,29
3271912,47
3272536,51
3273168,53
3273796,55
3274416,51
3275048,48
3275672,56
3276296,50
3276928,39
3277544,37
3278172,17
3278792,28
3279416,34
3280044,42
3280660,41
3281288,47
3281908,47
3282532,45
3283160,20
3283784,16
3284412,14
3285040,13
3285656,26
3286284,33
3286908,45
3287536,46
3288164,28
3288780,48
3289412,59
3290036,52
3290656,55
3291284,40
3291904,42
3292532,52
3293156,50
3293776,35
3294408,22
3295024,14
3295652,22
3296284,20
3296900,41
3297532,44
3298152,44
3298784,48
3299412,40
3300032,41
3300660,24
3301284,13
3301904,11
3302536,21
3303152,39
3303780,42
3304404,34
3305024,40
3305656,50
3306272,56
3306900,56
3307528,56
3308152,63
3308780,70
3309404,62
3310032,49
3310664,39
3311280,14
3311912,29
3312536,13
3313160,19
3313788,38
3314408,54
3315036,61
3315660,51
3316284,27
3316916,18
3317536,11
3318164,13
3318796,14
3319416,37
3320044,62
3320668,46
3321296,26
3321924,45
3322544,55
3323172,56
3323796,52
3324424,38
3325052,26
3325672,41
3326300,51
3326924,37
3327548,34
3328180,18
3328796,39
3329424,44
3330052,41
3330672,45
3331300,47
3331920,47
3332552,45
3333180,10
3333800,12
3334428,17
3335048,22
3335680,31
3336308,24
3336928,35
3337556,38
3338180,35
3338804,50
3339432,53
3340056,52
3340684,48
3341308,39
3341936,50
3342564,53
3343188,44
3343816,24
3344448,16
3345064,11
3345692,13
3346316,15
3346948,40
3347576,46
3348192,51
3348824,51
3349444,30
3350068,24
3350700,18
3351320,11
3351948,11
3352572,18
3353200,35
3353828,28
3354452,25
3355084,43
3355712,50
3356332,62
3356960,64
3357584,56
3358212,50
3358844,46
3359464,25
3360092,22
3360716,13
3361336,11
3361964,22
3362584,21
3363212,29
3363832,40
3364456,45
3365084,46
3365708,46
3366336,29
3366968,31
3367584,29
3368212,15
3368836,30
3369464,31
3370096,29
3370712,25
3371340,25
3371964,38
3372588,51
3373220,70
3373840,65
3374468,47
3375092,54
3375716,61
3376348,41
3376968,13
3377600,15
3378228,10
3378848,35
3379476,36
3380100,41
3380728,46
3381356,49
3381976,47
3382604,38
3383228,24
3383852,12
3384480,15
3385096,21
3385724,29
3386348,31
3386972,30
3387600,28
3388216,37
3388848,53
3389476,62
3390096,56
3390724,47
3391348,29
3391980,48
3392608,50
3393232,39
3393860,23
3394484,13
3395108,21
3395736,22
3396360,19
3396988,44
3397612,43
3398236,50
3398868,49
3399492,39
3400120,35
3400748,16
3401368,11
3401996,10
3402620,16
3403248,27
3403880,13
3404496,25
3405124,43
3405748,45
3406372,51
3407000,52
3407620,44
3408248,37
3408872,49
3409492,40
3410124,22
3410744,16
3411372,10
3412000,32
3412624,29
3413252,39
3413876,42
3414508,47
3415136,47
3415752,45
3416384,23
3417008,19
3417632,23
3418260,14
3418880,13
3419508,16
3420132,14
3420756,17
3421388,16
3422008,51
3422636,50
3423268,44
3423888,48
3424520,30
3425140,53
3425772,62
3426400,45
3427024,15
3427652,31
3428280,13
3428900,14
3429532,14
3430152,44
3430784,48
3431408,47
3432032,46
3432660,25
3433284,23
3433912,21
3434544,19
3435160,21
3435792,29
3436416,45
3437044,34
3437676,36
3438296,45
3438928,45
3439552,49
3440176,48
3440804,44
3441420,38
3442052,54
3442676,50
3443300,30
3443928,14
3444548,10
3445180,17
3445808,20
3446432,21
3447060,40
3447684,47
3448312,44
3448940,48
3449560,33
3450192,21
3450816,17
3451440,14
3452068,19
3452688,19
3453316,23
3453944,29
3454568,27
3455196,42
3455820,64
3456452,67
3457084,52
3457704,25
3458332,32
3458956,42
3459584,44
3460216,23
3460832,10
3461464,16
3462088,38
3462708,21
3463340,42
3463960,47
3464588,46
3465212,46
3465840,40
3466468,16
3467092,12
3467724,10
3468352,11
3468972,25
3469600,50
3470224,64
3470852,49
3471484,39
3472104,47
3472732,52
3473356,56
3473980,53
3474612,40
3475232,49
3475860,48
3476492,56
3477112,45
3477744,17
3478368,27
3479000,23
3479628,15
3480248,39
3480876,45
3481504,47
3482128,50
3482756,42
3483376,33
3484004,17
3484628,12
3485252,17
3485880,12
3486500,62
3487128,51
3487756,26
3488376,45
3489004,52
3489628,56
3490256,56
3490884,42
3491504,46
3492132,49
3492756,37
3493384,15
3494012,12
3494632,13
3495260,43
3495884,21
3496508,40
3497140,44
3497760,48
3498388,46
3499020,46
3499640,25
3500268,27
3500892,11
3501524,11
3502156,32
3502776,43
3503404,47
3504028,41
3504652,30
3505284,42
3505904,48
3506536,58
3507160,48
3507784,38
3508412,43
3509032,51
3509664,47
3510292,23
3510912,22
3511544,13
3512168,23
3512796,19
3513428,42
3514048,47
3514676,47
3515304,48
3515928,31
3516560,21
3517176,23
3517808,21
3518436,17
3519060,19
3519692,26
3520312,33
3520940,42
3521572,42
3522192,57
3522824,70
3523444,67
3524076,62
3524704,53
3525320,53
3525952,46
3526576,24
3527200,11
3527828,10
3528448,27
3529076,38
3529700,33
3530324,43
3530952,44
3531576,45
3532204,50
3532836,22
3533456,16
3534084,18
3534708,15
3535336,17
3535968,32
3536588,51
3537216,31
3537840,17
3538464,47
3539092,58
3539712,67
3540340,59
3540964,41
3541588,43
3542220,58
3542840,28
3543468,17
3544100,18
3544720,11
3545348,33
3545976,26
3546604,41
3547232,43
3547856,47
3548484,49
3549108,41
3549732,21
3550364,10
3550984,12
3551616,11
3552240,25
3552864,51
3553492,59
3554116,44
3554748,39
3555380,50
3556000,49
3556628,51
3557256,59
3557884,55
3558516,50
3559136,52
3559768,41
3560392,24
3561016,11
3561644,44
3562264,44
3562892,17
3563516,40
3564144,49
3564776,46
3565400,47
3566028,25
3566660,31
3567280,23
3567908,11
3568536,14
3569160,17
3569788,36
3570408,46
3571036,35
3571664,42
3572288,54
3572920,55
3573536,56
3574168,55
3574796,54
3575416,63
3576048,51
3576672,35
3577300,20
3577932,10
3578552,27
3579184,26
3579808,41
3580432,49
3581064,45
3581680,57
3582312,59
3582936,43
3583564,24
3584196,14
3584816,13
3585444,29
3586072,31
3586692,30
3587320,29
3587944,25
3588572,52
3589204,58
3589824,58
3590452,55
3591076,53
3591700,52
3592332,56
3592952,57
3593584,36
3594208,11
3594832,24
3595460,20
3596080,19
3596708,41
3597340,46
3597960,53
3598592,48
3599216,21
3599844,21
3600476,32
3601096,21
3601724,16
3602348,24
3602972,29
3603604,19
3604224,15
3604852,45
3605476,59
3606100,51
3606728,46
3607344,42
3607976,30
3608604,55
3609224,56
3609852,29
3610476,14
3611104,32
3611732,40
3612352,31
3612980,29
3613604,42
3614228,47
3614856,46
3615480,46
3616108,23
3616732,29
3617356,20
3617984,17
3618600,21
3619232,24
3619860,35
3620480,42
3621108,29
3621732,43
3622364,57
3622992,57
3623616,57
3624244,48
3624868,47
3625492,49
3626124,47
3626744,34
3627372,22
3627996,13
3628620,13
3629252,14
3629872,42
3630500,47
3631132,44
3631752,46
3632384,37
3633008,28
3633636,22
3634268,18
3634888,17
3635516,31
3636140,39
3636764,27
3637396,36
3638016,41
3638644,53
3639268,61
3639892,58
3640524,51
3641144,40
3641772,53
3642404,52
3643024,37
3643652,11
3644276,16
3644908,33
3645540,25
3646160,17
3646788,39
3647412,47
3648036,48
3648668,47
3649288,15
3649916,10
3650540,15
3651164,12
3651796,14
3652420,24
3653048,45
3653680,49
3654296,35
3654928,42
3655552,52
3656180,54
3656812,56
3657432,55
3658064,33
3658688,36
3659312,57
3659940,38
3660560,16
3661192,10
3661816,19
3662440,32
3663068,40
3663692,46
3664324,46
3664952,50
3665572,50
3666204,33
3666828,21
3667456,21
3668084,17
3668704,28
3669332,33
3669960,37
3670584,35
3671212,25
3671832,52
3672464,52
3673092,53
3673712,55
3674340,47
3674968,51
3675596,49
3676228,40
3676848,29
3677476,18
3678100,13
3678728,23
3679356,19
3679976,37
3680608,47
3681232,44
3681856,46
3682488,28
3683108,18
3683736,14
3684368,11
3684988,15
3685616,24
3686240,45
3686872,43
3687504,27
3688120,50
3688748,53
3689372,62
3689996,61
3690624,47
3691240,36
3691872,45
3692496,47
3693116,41
3693748,26
3694368,11
3694996,33
3695628,38
3696248,37
3696876,40
3697500,47
3698132,48
3698760,45
3699376,19
3700008,17
3700632,17
3701256,14
3701884,15
3702504,14
3703132,30
3703760,39
3704384,28
3705012,42
3705632,56
3706260,52
3706892,50
3707512,44
3708140,25
3708768,35
3709396,48
3710028,21
3710648,12
3711280,13
3711904,15
3712528,13
3713160,50
3713776,48
3714404,50
3715028,44
3715652,31
3716284,14
3716904,17
3717532,12
3718164,11
3718784,16
3719412,19
3720036,33
3720668,69
3721296,48
3721920,44
3722548,45
3723172,44
3723800,49
3724428,35
3725048,27
3725676,38
3726300,35
3726928,17
3727556,14
3728176,16
3728804,22
3729432,17
3730056,40
3730684,47
3731308,44
3731940,44
3732572,22
3733192,21
3733824,15
3734448,13
3735072,22
3735700,30
3736320,38
3736948,37
3737576,26
3738200,44
3738828,54
3739448,57
3740076,57
3740708,50
3741328,51
3741960,58
3742584,53
3743212,17
3743844,10
3744464,11
3745092,23
3745720,18
3746344,42
3746972,44
3747592,45
3748224,45
3748848,48
3749468,19
3750100,13
3750724,13
3751356,18
3751988,31
3752608,38
3753240,36
3753864,33
3754496,33
3755124,48
3755744,55
3756376,62
3757000,49
3757624,33
3758256,45
3758872,47
3759504,41
3760136,16
3760752,11
3761384,20
3762008,25
3762636,18
3763268,42
3763888,47
3764516,47
3765140,45
3765768,19
3766396,16
3767016,16
3767648,12
3768272,14
3768896,33
3769524,50
3770144,49
3770772,44
3771404,44
3772024,52
3772656,61
3773280,63
3773908,49
3774540,46
3775160,52
3775792,47
3776416,29
3777040,17
3777668,12
3778288,15
3778916,19
3779544,35
3780168,43
3780796,47
3781416,48
3782048,45
3782676,22
3783296,37
3783928,39
3784552,30
3785180,39
3785812,36
3786432,35
3787064,36
3787688,31
3788312,49
3788944,60
3789560,57
3790188,48
3790812,45
3791436,45
3792068,47
3792688,51
3793316,22
3793948,10
3794568,13
3795196,20
3795824,14
3796452,42
3797084,46
3797704,49
3798336,49
3798960,28
3799584,25
3800216,21
3800832,17
3801464,13
3802088,29
3802712,46
3803344,40
3803960,34
3804592,41
3805220,59
3805840,53
3806472,58
3807096,52
3807728,41
3808356,60
3808976,51
3809608,35
3810228,14
3810852,10
3811484,14
3812104,13
3812732,20
3813360,37
3813984,50
3814616,49
3815240,48
3815868,31
3816500,21
3817120,12
3817752,11
3818376,23
3819008,29
3819636,36
3820256,41
3820888,35
3821512,41
3822136,52
3822768,57
3823384,63
3824016,67
3824644,68
3825264,52
3825896,21
3826520,12
3827152,11
3827784,14
3828404,27
3829032,19
3829660,41
3830284,44
3830916,46
3831536,48
3832168,37
3832792,33
3833416,23
3834048,15
3834668,11
3835300,25
3835932,32
3836552,33
3837184,33
3837812,37
3838444,52
3839076,52
3839700,52
3840332,54
3840952,51
3841576,57
3842208,49
3842824,19
3843452,10
3844076,11
3844700,10
3845332,13
3845952,15
3846584,42
3847212,44
3847832,47
3848460,46
3849084,20
3849716,22
3850348,16
3850968,11
3851596,13
3852220,17
3852844,37
3853472,31
3854092,18
3854720,53
3855344,67
3855968,46
3856600,49
3857220,27
3857852,26
3858480,40
3859104,41
3859736,16
3860360,11
3860988,12
3861620,31
3862240,31
3862868,41
3863496,46
3864120,47
3864748,47
3865368,48
3866000,24
3866620,20
3867248,21
3867876,16
3868500,27
3869132,34
3869764,35
3870384,32
3871016,21
3871640,61
3872264,64
3872892,61
3873512,61
3874144,63
3874768,34
3875392,11
3876020,30
3876640,21
3877268,18
3877900,16
3878520,29
3879148,18
3879772,40
3880404,45
3881036,46
3881656,48
3882284,25
3882908,13
3883532,11
3884164,11
3884784,18
3885416,54
3886040,47
3886664,50
3887296,51
3887912,41
3888544,55
3889176,59
3889792,57
3890424,49
3891048,54
3891680,62
3892308,50
3892928,32
3893556,20
3894180,24
3894804,10
3895436,18
3896056,34
3896684,41
3897308,46
3897932,47
3898564,48
3899184,31
3899816,31
3900444,21
3901064,15
3901696,22
3902320,25
3902948,47
3903580,58
3904200,40
3904832,43
3905456,49
3906080,59
3906708,53
3907328,59
3907956,55
3908584,50
3909208,45
3909836,11
3910456,14
3911084,12
3911716,20
3912336,18
3912964,43
3913588,47
3914220,50
3914852,48
3915472,28
3916104,12
3916728,22
3917352,19
3917984,22
3918600,28
3919232,40
3919856,35
3920480,36
3921108,41
3921736,55
3922364,57
3922996,58
3923616,58
3924248,60
3924872,56
3925500,26
3926132,24
3926752,27
3927384,12
3928008,25
3928632,25
3929264,23
3929880,41
3930512,45
3931144,47
3931764,47
3932392,23
3933016,16
3933648,11
3934276,10
3934896,12
3935524,14
3936148,29
3936772,31
3937404,26
3938024,42
3938652,47
3939276,50
3939900,51
3940532,42
3941152,39
3941784,40
3942412,34
3943032,11
3943660,13
3944284,11
3944916,16
3945544,21
3946164,42
3946792,44
3947416,45
3948040,48
3948668,44
3949288,21
3949916,11
3950544,11
3951168,21
3951796,60
3952416,59
3953048,39
3953676,31
3954296,30
3954924,55
3955552,68
3956180,64
3956812,54
3957432,33
3958064,44
3958688,47
3959312,41
3959944,27
3960560,26
3961192,15
3961816,36
3962440,20
3963068,40
3963688,47
3964316,47
3964948,46
3965568,20
3966200,18
3966824,20
3967452,23
3968084,31
3968704,36
3969332,43
3969956,39
3970580,29
3971208,42
3971832,60
3972464,59
3973088,53
3973712,50
3974344,44
3974960,40
3975588,41
3976220,21
3976840,11
3977468,11
3978092,20
3978724,20
3979356,35
3979976,43
3980608,47
3981232,48
3981856,45
3982484,25
3983104,22
3983736,16
3984360,11
3984984,16
3985612,23
3986232,30
3986864,34
3987492,18
3988112,54
3988744,64
3989368,63
3989996,56
3990628,46
3991248,52
3991880,57
3992504,47
3993128,18
3993760,12
3994376,19
3995004,43
3995632,37
3996256,40
3996884,43
3997508,52
3998140,54
3998772,32
3999392,28
4000024,26
4000644,25
4001272,25
4001900,28
4002520,39
4003148,43
4003772,35
4004396,49
4005028,62
4005648,56
4006276,51
4006900,52
4007524,50
4008156,52
4008780,38
4009408,31
4010036,25
4010656,28
4011284,15
4011908,38
4012540,27
4013172,42
4013792,45
4014424,48
4015044,45
4015668,27
4016300,25
4016920,23
4017548,14
4018172,19
4018800,27
4019428,35
4020052,35
4020684,28
4021312,42
4021928,57
4022560,66
4023184,60
4023812,52
4024444,30
4025064,44
4025692,48
4026316,19
4026940,15
4027568,10
4028192,25
4028820,18
4029452,44
4030072,45
4030704,51
4031328,54
4031960,45
4032588,21
4033208,12
4033836,11
4034460,11
4035088,31
4035716,44
4036336,43
4036964,29
4037588,35
4038216,48
4038844,55
4039464,59
4040096,62
4040724,56
4041344,35
4041972,37
4042600,47
4043228,36
4043860,28
4044480,12
4045108,23
4045732,15
4046356,39
4046988,44
4047608,48
4048236,47
4048860,23
4049484,25
4050116,18
4050736,12
4051364,25
4051996,54
4052616,70
4053248,45
4053872,29
4054500,49
4055132,56
4055752,61
4056384,53
4057008,45
4057632,53
4058260,68
4058880,56
4059508,22
4060132,15
4060760,23
4061388,31
4062008,25
4062636,39
4063268,46
4063888,47
4064520,50
4065144,45
4065772,22
4066404,21
4067024,11
4067656,20
4068280,16
4068904,20
4069532,41
4070152,35
4070784,16
4071408,48
4072032,63
4072660,62
4073288,50
4073916,33
4074548,30
4075168,26
4075800,36
4076424,15
4077056,10
4077684,12
4078304,23
4078936,16
4079560,44
4080184,48
4080812,45
4081432,45
4082064,29
4082692,38
4083312,32
4083940,16
4084568,21
4085196,35
4085828,42
4086448,41
4087076,31
4087704,42
4088328,59
4088956,73
4089576,65
4090208,53
4090836,49
4091460,45
4092092,38
4092712,26
4093344,17
4093976,10
4094596,26
4095228,28
4095852,33
4096484,41
4097112,49
4097728,47
4098356,44
4098980,21
4099600,21
4100228,13
4100844,13
4101472,10
4102096,18
4102716,61
4103348,58
4103968,22
4104596,51
4105224,55
4105840,54
4106468,56
4107092,48
4107720,47
4108348,55
4108968,47
4109596,19
4110216,15
4110848,25
4111476,21
4112096,11
4112724,42
4113344,44
4113968,47
4114596,47
4115216,43
4115844,23
4116468,18
4117092,18
4117720,15
4118344,19
4118972,39
4119604,47
4120224,38
4120852,36
4121476,62
4122108,68
4122736,74
4123352,55
4123980,24
4124604,40
4125228,57
4125856,38
4126480,13
4127108,13
4127732,16
4128356,12
4128984,15
4129604,37
4130236,44
4130864,48
4131480,48
4132112,21
4132736,30
4133364,41
4133992,40
4134616,38
4135244,56
4135868,63
4136492,53
4137120,40
4137744,46
4138372,56
4138996,67
4139620,59
4140248,45
4140872,52
4141500,66
4142128,60
4142752,34
4143380,22
4144004,17
4144632,27
4145260,35
4145880,40
4146508,42
4147132,47
4147760,45
4148388,48
4149008,35
4149636,24
4150260,17
4150884,13
4151512,21
4152136,32
4152764,33
4153396,40
4154016,28
4154644,44
4155268,54
4155900,59
4156528,63
4157152,60
4157784,35
4158404,27
4159028,41
4159660,22
4160280,14
4160908,11
4161532,21
4162152,20
4162780,40
4163404,45
4164032,47
4164660,46
4165280,27
4165908,12
4166532,10
4167160,13
4167788,15
4168408,20
4169036,21
4169660,25
4170280,25
4170912,43
4171528,61
4172156,51
4172780,49
4173404,45
4174036,41
4174660,49
4175288,42
4175916,10
4176536,13
4177164,21
4177788,14
4178420,27
4179048,19
4179664,39
4180292,50
4180916,46
4181540,47
4182168,17
4182784,13
4183416,26
4184040,21
4184660,43
4185292,40
4185912,49
4186540,39
4187172,16
4187792,54
4188420,63
4189044,62
4189676,57
4190304,54
4190924,50
4191552,52
4192176,45
4192800,19
4193428,17
4194048,11
4194676,27
4195300,25
4195924,42
4196552,46
4197176,47
4197804,45
4198436,46
4199052,24
4199684,11
4200304,10
4200936,15
4201564,31
4202184,41
4202812,30
4203436,30
4204060,28
4204688,60
4205308,56
4205936,49
4206560,50
4207184,19
4207812,38
4208432,53
4209060,53
4209692,32
4210312,23
4210940,13
4211564,14
4212196,28
4212824,39
4213440,46
4214072,47
4214696,48
4215320,26
4215948,17
4216568,14
4217196,10
4217820,12
4218444,17
4219076,44
4219696,43
4220324,36
4220956,39
4221576,49
4222204,60
4222832,57
4223460,47
4224092,33
4224708,49
4225340,61
4225960,43
4226584,26
4227212,10
4227832,33
4228460,32
4229084,36
4229708,43
4230336,47
4230960,46
4231588,45
4232220,14
4232840,19
4233468,23
4234092,13
4234724,17
4235352,20
4235972,43
4236600,46
4237228,24
4237848,49
4238480,53
4239096,49
4239728,51
4240352,56
4240976,54
4241604,54
4242224,47
4242852,15
4243484,12
4244104,11
4244732,25
4245356,35
4245988,40
4246616,45
4247236,46
4247864,46
4248488,29
4249112,11
4249744,13
4250360,16
4250988,51
4251612,61
4252236,52
4252868,22
4253488,17
4254116,41
4254748,44
4255368,57
4255996,64
4256624,63
4257252,63
4257884,63
4258504,47
4259132,48
4259760,33
4260384,16
4261012,40
4261632,61
4262260,27
4262884,42
4263508,48
4264136,46
4264752,55
4265384,49
4266012,32
4266632,21
4267260,15
4267884,15
4268512,20
4269144,29
4269760,27
4270388,23
4271012,53
4271636,71
4272268,52
4272888,50
4273516,31
4274140,27
4274764,24
4275396,26
4276016,27
4276644,21
4277272,15
4277896,16
4278524,15
4279148,45
4279780,47
4280408,46
4281032,47
4281660,48
4282284,22
4282908,19
4283536,19
4284152,17
4284784,31
4285408,38
4286032,39
4286664,33
4287280,22
4287908,53
4288540,63
4289160,61
4289788,55
4290412,50
4291044,47
4291672,47
4292292,44
4292920,12
4293544,24
4294168,41
4294796,44
4295416,24
4296048,43
4296668,47
4297292,44
4297924,47
4298544,27
4299172,25
4299804,19
4300424,13
4301056,15
4301676,24
4302308,33
4302936,30
4303556,34
4304184,43
4304808,51
4305428,59
4306060,55
4306680,49
4307308,43
4307932,57
4308556,48
4309184,36
4309808,31
4310436,19
4311068,22
4311688,22
4312316,37
4312944,46
4313572,48
4314204,46
4314824,46
4315452,17
4316080,13
4316704,33
4317332,39
4317952,65
4318584,57
4319208,53
4319832,51
4320464,26
4321080,46
4321708,53
4322340,49
4322960,50
4323588,49
4324212,48
4324844,45
4325472,40
4326088,25
4326720,20
4327344,11
4327964,16
4328596,14
4329216,43
4329844,46
4330468,47
4331092,48
4331724,31
4332344,12
4332972,12
4333604,10
4334224,11
4334852,30
4335480,61
4336108,47
4336740,30
4337360,40
4337988,44
4338612,48
4339240,45
4339868,49
4340488,44
4341116,51
4341744,47
4342368,35
4342996,19
4343620,13
4344252,11
4344884,16
4345504,19
4346136,41
4346760,48
4347388,47
4348020,46
4348640,14
4349268,21
4349896,15
4350520,21
4351152,29
4351768,25
4352400,38
4353032,46
4353648,32
4354276,42
4354900,52
4355528,51
4356160,54
4356776,54
4357404,43
4358028,42
4358660,38
4359288,25
4359912,19
4360540,12
4361164,23
4361788,24
4362420,42
4363040,43
4363668,46
4364300,46
4364920,44
4365548,13
4366172,11
4366804,10
4367432,12
4368052,26
4368680,47
4369304,61
4369928,44
4370556,30
4371176,51
4371808,60
4372432,65
4373056,58
4373684,36
4374304,34
4374936,41
4375564,38
4376184,26
4376812,32
4377440,19
4378068,26
4378700,48
4379320,46
4379948,44
4380576,45
4381200,45
4381828,32
4382448,37
4383080,17
4383704,12
4384328,20
4384956,22
4385576,36
4386208,31
4386836,22
4387456,51
4388084,67
4388708,50
4389340,53
4389972,45
4390592,39
4391220,38
4391848,50
4392472,39
4393100,19
4393720,10
4394348,35
4394976,33
4395600,36
4396228,45
4396848,48
4397476,49
4398108,44
4398728,21
4399356,28
4399984,18
4400616,13
4401248,19
4401864,28
4402496,31
4403120,37
4403744,31
4404372,43
4404992,51
4405620,57
4406244,48
4406868,35
4407500,48
4408120,51
4408748,36
4409380,14
4410000,15
4410628,13
4411252,23
4411884,19
4412512,42
4413136,47
4413768,47
4414392,48
4415016,31
4415648,16
4416264,22
4416892,28
4417516,17
4418140,21
4418772,25
4419396,21
4420024,31
4420656,44
4421272,49
4421904,63
4422528,59
4423156,56
4423788,36
4424408,51
4425036,48
4425660,31
4426284,14
4426912,11
4427532,15
4428160,20
4428784,17
4429408,41
4430036,45
4430660,47
4431292,46
4431924,20
4432544,25
4433172,29
4433800,14
4434428,17
4435060,20
4435680,35
4436308,45
4436936,39
4437560,40
4438188,47
4438808,55
4439440,55
4440064,50
4440688,53
4441316,55
4441944,53
4442572,32
4443204,28
4443824,27
4444456,11
4445080,11
4445704,45
4446332,48
4446952,49
4447584,48
4448208,50
4448832,41
4449460,32
4450080,37
4450708,40
4451340,44
4451960,51
4452592,41
4453216,23
4453844,32
4454476,54
4455096,60
4455724,56
4456352,53
4456976,33
4457604,38
4458224,49
4458856,45
4459480,21
4460104,18
4460736,16
4461352,18
4461984,16
4462616,37
4463232,47
4463864,45
4464488,54
4465120,26
4465748,16
4466368,12
4467000,11
4467624,13
4468248,35
4468876,46
4469496,41
4470128,35
4470752,50
4471376,62
4472008,62
4472624,61
4473256,63
4473888,65
4474504,37
4475136,32
4475760,15
4476392,13
4477020,10
4477640,23
4478272,31
4478896,39
4479524,43
4480156,44
4480776,47
4481404,52
4482028,38
4482652,13
4483280,16
4483896,10
4484524,33
4485156,48
4485776,47
4486404,34
4487028,15
4487656,55
4488288,60
4488904,56
4489536,54
4490160,48
4490784,47
4491412,35
4492032,31
4492660,17
4493288,21
4493912,13
4494540,27
4495160,19
4495792,41
4496420,46
4497040,48
4497668,48
4498292,27
4498924,24
4499556,32
4500176,29
4500804,30
4501428,33
4502056,46
4502684,40
4503304,35
4503936,42
4504560,51
4505184,54
4505816,55
4506436,58
4507068,44
4507696,51
4508312,57
4508944,47
4509568,30
4510196,13
4510828,20
4511448,22
4512076,20
4512700,37
4513324,47
4513952,45
4514572,49
4515200,27
4515824,20
4516448,13
4517076,11
4517700,14
4518332,15
4518964,36
4519584,46
4520212,33
4520836,45
4521468,60
4522096,71
4522720,63
4523348,57
4523976,45
4524600,44
4525228,53
4525848,27
4526476,11
4527100,22
4527728,40
4528356,35
4528980,42
4529612,46
4530240,47
4530860,45
4531488,40
4532112,30
4532744,40
4533372,40
4533992,25
4534624,23
4535248,37
4535872,39
4536504,35
4537120,37
4537752,52
4538380,57
4539000,58
4539632,59
4540256,53
4540884,57
4541516,40
4542136,26
4542768,18
4543392,17
4544016,13
4544644,16
4545264,15
4545892,41
4546520,46
4547144,48
4547772,48
4548392,20
4549024,16
4549652,21
4550272,15
4550904,17
4551528,26
4552156,39
4552788,42
4553408,26
4554040,49
4554664,60
4555288,47
4555920,50
4556536,46
4557168,54
4557792,59
4558416,49
4559044,29
4559664,13
4560296,11
4560924,32
4561544,41
4562176,42
4562800,41
4563428,45
4564060,44
4564680,47
4565308,16
4565932,15
4566560,19
4567188,18
4567808,29
4568440,35
4569064,37
4569688,35
4570316,22
4570936,55
4571568,64
4572196,56
4572816,54
4573444,60
4574068,57
4574700,55
4575332,47
4575952,26
4576584,18
4577208,13
4577836,39
4578464,22
4579088,44
4579720,48
4580344,48
4580968,47
4581600,39
4582224,40
4582856,32
4583484,21
4584104,19
4584732,41
4585360,55
4585992,37
4586620,31
4587240,44
4587872,56
4588496,63
4589120,63
4589748,44
4590368,45
4591000,47
4591628,38
4592248,18
4592876,10
4593500,13
4594132,10
4594764,15
4595384,33
4596012,41
4596636,44
4597260,46
4597892,46
4598512,34
4599140,19
4599768,15
4600392,17
4601020,27
4601640,23
4602268,29
4602900,32
4603520,37
4604152,41
4604776,57
4605408,57
4606040,56
4606656,52
4607288,54
4607912,59
4608540,47
4609168,20
4609784,14
4610412,11
4611036,15
4611660,19
4612288,43
4612904,43
4613536,49
4614164,46
4614784,35
4615412,11
4616036,16
4616664,11
4617296,13
4617912,25
4618544,54
4619168,85
4619792,66
4620420,40
4621040,49
4621668,51
4622292,55
4622916,54
4623548,44
4624168,47
4624796,39
4625428,30
4626048,11
4626676,10
4627300,17
4627932,19
4628564,28
4629184,52
4629812,51
4630436,45
4631060,49
4631692,24
4632312,25
4632944,13
4633568,11
4634192,18
4634820,25
4635440,48
4636068,35
4636700,18
4637320,51
4637952,53
4638576,50
4639204,53
4639836,48
4640456,50
4641084,57
4641708,53
4642332,24
4642960,12
4643584,13
4644212,37
4644836,35
4645460,41
4646092,45
4646712,45
4647340,45
4647972,45
4648592,33
4649220,35
4649844,21
4650476,13
4651104,22
4651728,35
4652356,35
4652984,35
4653608,28
4654236,57
4654856,72
4655488,65
4656112,47
4656736,25
4657364,43
4657988,51
4658620,41
4659252,26
4659872,13
4660500,15
4661124,19
4661756,15
4662384,41
4663008,46
4663640,48
4664264,49
4664888,31
4665516,46
4666136,49
4666764,33
4667392,19
4668016,21
4668648,49
4669272,41
4669904,31
4670532,43
4671152,61
4671784,71
4672408,67
4673032,64
4673660,46
4674280,38
4674908,40
4675532,30
4676156,21
4676788,10
4677408,25
4678036,23
4678668,36
4679288,44
4679916,46
4680544,49
4681172,44
4681804,22
4682424,35
4683052,20
4683676,16
4684304,16
4684932,22
4685552,39
4686184,29
4686808,19
4687432,53
4688060,64
4688680,64
4689308,57
4689940,40
4690560,18
4691188,29
4691816,37
4692444,16
4693076,12
4693696,17
4694328,29
4694952,27
4695576,40
4696208,46
4696824,44
4697456,46
4698080,30
4698704,32
4699336,21
4699952,16
4700584,17
4701216,26
4701832,36
4702464,37
4703088,35
4703720,43
4704352,53
4704968,61
4705600,60
4706224,57
4706848,43
4707480,38
4708096,45
4708728,43
4709352,21
4709976,15
4710608,16
4711232,22
4711860,19
4712492,38
4713112,46
4713744,49
4714368,49
4714996,24
4715628,34
4716248,25
4716876,16
4717500,22
4718128,29
4718756,34
4719376,33
4720008,24
4720628,43
4721256,57
4721884,59
4722512,56
4723140,53
4723772,51
4724392,48
4725024,45
4725648,29
4726276,15
4726908,10
4727528,26
4728160,26
4728784,43
4729408,45
4730040,46
4730656,48
4731288,41
4731920,21
4732540,18
4733168,25
4733796,20
4734424,30
4735056,39
4735676,35
4736308,30
4736932,34
4737556,57
4738188,53
4738808,53
4739436,57
4740064,48
4740688,53
4741316,48
4741936,38
4742568,15
4743196,13
4743816,11
4744448,11
4745072,20
4745700,38
4746332,45
4746952,45
4747584,49
4748208,33
4748832,36
4749460,30
4750080,28
4750712,27
4751336,33
4751960,38
4752592,30
4753212,19
4753840,50
4754472,59
4755092,59
4755720,59
4756348,33
4756976,27
4757608,47
4758228,56
4758860,31
4759484,11
4760108,11
4760740,20
4761360,25
4761992,41
4762616,39
4763240,45
4763868,45
4764496,47
4765124,13
4765756,46
4766376,24
4767008,11
4767632,18
4768264,33
4768892,42
4769512,47
4770144,24
4770768,54
4771392,56
4772024,49
4772640,56
4773268,52
4773900,46
4774520,43
4775148,38
4775776,23
4776404,14
4777036,14
4777656,19
4778284,15
4778912,40
4779536,45
4780168,48
4780784,49
4781416,27
4782040,22
4782664,27
4783296,22
4783912,17
4784544,19
4785176,27
4785800,30
4786432,28
4787056,47
4787688,56
4788320,56
4788936,55
4789568,54
4790192,64
4790816,61
4791448,43
4792068,22
4792700,11
4793324,24
4793948,13
4794580,10
4795208,37
4795836,42
4796468,50
4797088,52
4797720,48
4798344,14
4798976,11
4799608,33
4800228,27
4800856,39
4801480,44
4802104,53
4802732,68
4803352,39
4803980,48
4804604,62
4805232,63
4805860,57
4806484,41
4807116,40
4807744,42
4808368,42
4808996,21
4809620,10
4810244,19
4810876,30
4811496,15
4812128,49
4812752,52
4813376,47
4814008,45
4814624,42
4815256,37
4815884,15
4816504,11
4817132,11
4817756,24
4818388,40
4819016,41
4819640,38
4820268,41
4820892,60
4821516,57
4822148,52
4822768,50
4823400,33
4824024,50
4824644,39
4825276,27
4825896,18
4826524,17
4827156,12
4827776,17
4828408,19
4829032,37
4829660,48
4830292,54
4830912,47
4831544,25
4832168,13
4832792,12
4833424,24
4834040,31
4834668,33
4835292,38
4835916,32
4836548,18
4837168,46
4837796,59
4838428,55
4839048,55
4839676,51
4840300,51
4840932,47
4841564,36
4842184,19
4842816,14
4843440,11
4844064,21
4844692,20
4845312,39
4845944,45
4846568,47
4847192,45
4847824,44
4848440,26
4849072,27
4849704,27
4850320,27
4850952,29
4851576,21
4852208,28
4852836,30
4853456,38
4854088,48
4854712,52
4855336,49
4855968,68
4856588,71
4857216,60
4857844,59
4858468,43
4859096,18
4859724,17
4860352,11
4860984,19
4861604,16
4862232,42
4862860,45
4863492,46
4864124,45
4864744,18
4865372,16
4865996,27
4866620,39
4867248,43
4867872,35
4868500,41
4869132,34
4869752,21
4870384,48
4871008,59
4871640,60
4872268,57
4872888,48
4873520,44
4874144,48
4874768,35
4875396,13
4876016,10
4876644,10
4877272,18
4877896,17
4878524,41
4879144,46
4879776,47
4880404,46
4881024,51
4881652,41
4882276,26
4882908,20
4883540,15
4884160,25
4884788,33
4885416,33
4886040,23
4886668,16
4887288,47
4887916,54
4888544,55
4889168,55
4889800,48
4890416,53
4891044,58
4891676,42
4892296,16
4892928,17
4893552,11
4894180,17
4894812,15
4895432,40
4896064,45
4896688,47
4897308,47
4897940,28
4898560,35
4899188,30
4899816,22
4900440,14
4901072,19
4901688,39
4902320,45
4902952,29
4903572,43
4904204,53
4904828,54
4905460,60
4906092,50
4906712,43
4907344,56
4907968,54
4908596,41
4909228,28
4909848,15
4910480,20
4911112,27
4911732,29
4912364,41
4912988,47
4913620,46
4914252,47
4914872,25
4915508,23
4916128,24
4916752,16
4917384,37
4918000,43
4918628,43
4919252,41
4919876,20
4920508,54
4921128,67
4921756,70
4922384,57
4923008,47
4923636,43
4924260,43
4924892,46
4925520,28
4926140,26
4926768,12
4927392,20
4928016,15
4928644,40
4929264,46
4929892,53
4930516,52
4931140,43
4931772,32
4932392,31
4933024,21
4933652,12
4934272,24
4934904,43
4935528,42
4936156,34
4936788,40
4937408,54
4938036,57
4938660,57
4939284,54
4939916,55
4940536,55
4941168,42
4941788,32
4942412,19
4943044,10
4943664,18
4944296,28
4944924,14
4945544,41
4946176,45
4946800,47
4947428,46
4948056,19
4948680,13
4949308,16
4949932,24
4950560,21
4951188,24
4951808,31
4952440,42
4953064,31
4953688,50
4954316,56
4954936,53
4955568,56
4956196,63
4956816,49
4957444,61
4958068,55
4958700,36
4959332,19
4959952,11
4960584,29
4961208,35
4961832,44
4962460,46
4963080,49
4963708,45
4964336,46
4964960,21
4965588,21
4966212,14
4966844,27
4967476,32
4968096,32
4968724,29
4969348,38
4969980,40
4970608,41
4971228,52
4971856,62
4972480,60
4973104,59
4973736,60
4974352,52
4974984,51
4975608,25
4976232,15
4976860,15
4977484,24
4978116,15
4978744,38
4979368,48
4979996,43
4980620,45
4981252,25
4981884,28
4982504,24
4983132,14
4983760,12
4984384,23
4985012,28
4985632,34
4986260,44
4986892,44
4987512,52
4988144,60
4988768,60
4989400,59
4990032,49
4990648,51
4991280,43
4991904,15
4992528,12
4993160,17
4993776,22
4994408,21
4995032,37
4995656,43
4996288,45
4996904,47
4997536,44
4998164,11
4998784,13
4999412,27
5000036,30
5000668,25
5001296,21
5001916,39
5002548,47
5003172,23
5003796,51
5004428,64
5005048,60
5005676,50
5006304,39
5006928,50
5007556,48
5008176,40
5008804,21
5009436,14
5010056,12
5010684,17
5011312,14
5011940,44
5012572,46
5013192,53
5013824,59
5014448,48
5015072,36
5015704,21
5016320,13
5016952,11
5017576,11
5018204,22
5018832,20
5019456,17
5020084,41
5020716,48
5021336,61
5021968,58
5022592,53
5023224,29
5023852,41
5024472,35
5025100,26
5025728,13
5026352,20
5026984,31
5027600,29
5028232,19
5028856,41
5029480,52
5030112,48
5030736,47
5031364,27
5031996,18
5032616,16
5033248,12
5033872,19
5034504,23
5035132,30
5035752,26
5036384,19
5037012,45
5037636,54
5038268,46
5038888,49
5039520,41
5040148,51
5040768,54
5041396,35
5042024,18
5042652,12
5043284,20
5043904,33
5044536,27
5045160,41
5045784,45
5046412,44
5047032,45
5047664,39
5048288,17
5048912,13
5049544,10
5050160,10
5050792,15
5051424,25
5052040,27
5052672,26
5053296,35
5053928,50
5054560,53
5055180,50
5055812,50
5056436,39
5057060,45
5057692,42
5058312,44
5058944,28
5059568,26
5060192,15
5060824,40
5061448,30
5062076,43
5062708,46
5063328,46
5063960,48
5064584,19
5065216,28
5065844,22
5066464,14
5067096,14
5067720,18
5068344,36
5068976,37
5069600,28
5070228,47
5070860,51
5071480,52
5072112,54
5072736,50
5073368,48
5073996,58
5074616,55
5075248,31
5075872,20
5076500,17
5077128,10
5077752,12
5078384,42
5079012,44
5079636,48
5080268,46
5080888,47
5081520,22
5082148,19
5082768,12
5083400,13
5084024,48
5084656,77
5085284,61
5085904,50
5086536,30
5087160,53
5087784,59
5088416,59
5089040,58
5089672,57
5090296,53
5090920,44
5091552,32
5092176,15
5092808,13
5093436,11
5094056,12
5094688,17
5095316,40
5095944,46
5096576,44
5097196,48
5097824,17
5098452,12
5099076,14
5099708,26
5100328,37
5100960,47
5101588,59
5102208,47
5102840,33
5103464,42
5104096,53
5104728,54
5105344,52
5105976,46
5106604,43
5107228,55
5107860,57
5108480,41
5109112,28
5109740,12
5110364,30
5110996,29
5111624,41
5112256,46
5112888,46
5113508,47
5114140,46
5114768,27
5115400,24
5116032,17
5116652,16
5117284,29
5117912,35
5118540,39
5119172,38
5119796,23
5120428,49
5121056,58
5121672,62
5122300,58
5122924,48
5123552,51
5124180,59
5124800,57
5125428,13
5126048,11
5126672,14
5127304,18
5127920,15
5128548,43
5129172,42
5129796,49
5130424,48
5131040,26
5131672,29
5132300,48
5132920,54
5133548,31
5134172,20
5134800,24
5135432,31
5136048,33
5136676,41
5137300,52
5137924,72
5138556,78
5139176,65
5139808,41
5140432,33
5141056,37
5141684,30
5142304,25
5142932,16
5143564,19
5144184,17
5144812,26
5145436,42
5146068,47
5146696,45
5147320,46
5147948,17
5148572,13
5149196,13
5149828,18
5150448,27
5151076,28
5151700,41
5152328,45
5152956,27
5153576,47
5154204,59
5154836,49
5155456,46
5156084,25
5156708,38
5157340,41
5157972,48
5158592,55
5159220,42
5159844,11
5160472,38
5161100,35
5161720,44
5162348,46
5162972,46
5163596,48
5164224,44
5164848,38
5165476,16
5166104,12
5166728,11
5167356,22
5167980,33
5168612,33
5169244,30
5169864,37
5170492,57
5171120,61
5171744,65
5172372,52
5172992,43
5173620,61
5174244,58
5174868,37
5175500,18
5176120,13
5176748,18
5177380,38
5178000,31
5178628,40
5179252,46
5179884,50
5180516,48
5181136,20
5181768,11
5182388,11
5183016,11
5183644,13
5184264,25
5184892,44
5185516,50
5186140,50
5186772,42
5187396,50
5188024,55
5188652,54
5189272,48
5189900,35
5190528,41
5191156,52
5191788,40
5192408,24
5193036,11
5193660,28
5194284,28
5194916,41
5195536,47
5196168,47
5196792,47
5197416,46
5198048,22
5198672,19
5199300,15
5199932,12
5200552,20
5201180,30
5201808,49
5202436,49
5203068,24
5203688,55
5204316,67
5204940,67
5205564,59
5206196,49
5206816,63
5207444,61
5208076,47
5208696,18
5209324,14
5209952,24
5210580,26
5211212,16
5211832,43
5212464,45
5213088,51
5213712,49
5214344,19
5214960,16
5215592,33
5216216,25
5216840,19
5217468,19
5218088,40
5218716,53
5219348,38
5219968,45
5220600,58
5221224,52
5221852,48
5222484,43
5223104,41
5223732,53
5224356,55
5224980,38
5225608,22
5226232,11
5226860,27
5227488,24
5228112,30
5228740,43
5229360,45
5229988,47
5230620,46
5231240,18
5231872,20
5232496,21
5233124,24
5233756,36
5234376,33
5235008,25
5235632,23
5236256,17
5236888,38
5237504,49
5238136,55
5238760,63
5239384,47
5240016,33
5240632,40
5241264,41
5241892,22
5242512,23
5243144,14
5243764,13
5244396,13
5245024,48
5245640,47
5246272,45
5246896,46
5247516,32
5248148,27
5248764,23
5249392,28
5250016,37
5250640,44
5251268,52
5251888,44
5252516,43
5253144,43
5253760,47
5254388,57
5255012,56
5255640,55
5256272,48
5256888,45
5257516,40
5258140,33
5258764,20
5259396,12
5260016,18
5260644,21
5261268,17
5261892,37
5262520,45
5263144,45
5263772,45
5264404,21
5265024,17
5265652,11
5266276,11
5266904,11
5267532,18
5268152,34
5268780,41
5269404,38
5270028,43
5270660,51
5271280,60
5271908,62
5272532,56
5273160,53
5273788,44
5274408,48
5275036,27
5275664,12
5276288,11
5276916,41
5277540,40
5278172,41
5278800,44
5279416,46
5280048,48
5280668,48
5281292,27
5281920,27
5282536,28
5283168,20
5283792,11
5284416,14
5285044,24
5285664,36
5286292,22
5286920,55
5287544,65
5288172,63
5288796,50
5289424,22
5290052,24
5290672,26
5291300,35
5291924,25
5292548,18
5293180,16
5293800,29
5294428,17
5295052,45
5295676,45
5296308,47
5296928,47
5297556,23
5298188,22
5298808,19
5299436,18
5300060,22
5300692,33
5301320,34
5301940,27
5302568,20
5303192,45
5303816,59
5304448,61
5305064,74
5305692,65
5306316,43
5306940,28
5307572,21
5308192,20
5308820,13
5309452,10
5310072,13
5310704,32
5311328,28
5311960,41
5312592,53
5313208,48
5313836,45
5314460,25
5315088,24
5315716,16
5316336,13
5316964,16
5317588,24
5318216,38
5318844,27
5319464,18
5320096,44
5320724,54
5321344,63
5321976,58
5322600,49
5323228,51
5323860,57
5324480,62
5325112,39
5325732,21
5326356,14
5326988,18
5327608,15
5328236,42
5328860,49
5329480,65
5330112,49
5330728,39
5331356,11
5331988,10
5332608,12
5333236,10
5333860,23
5334492,47
5335120,66
5335736,60
5336368,41
5336988,46
5337612,53
5338240,58
5338864,49
5339492,39
5340116,55
5340740,60
5341372,46
5341992,18
5342620,10
5343252,22
5343872,27
5344504,17
5345124,39
5345756,45
5346384,47
5347008,47
5347636,19
5348260,15
5348884,11
5349512,14
5350136,32
5350768,22
5351388,33
5352012,32
5352644,22
5353264,47
5353892,50
5354524,52
5355144,53
5355776,42
5356400,38
5357028,48
5357660,48
5358280,23
5358908,11
5359536,14
5360160,19
5360788,16
5361408,44
5362036,49
5362660,43
5363284,49
5363916,50
5364536,36
5365164,19
5365796,10
5366416,14
5367044,29
5367668,31
5368296,29
5368928,24
5369544,17
5370176,50
5370800,51
5371424,49
5372052,48
5372672,31
5373304,45
5373928,56
5374552,52
5375184,30
5375800,19
5376432,12
5377060,36
5377680,29
5378308,42
5378932,44
5379560,45
5380192,48
5380808,25
5381436,15
5382060,11
5382684,10
5383312,10
5383936,15
5384564,33
5385188,44
5385812,55
5386444,43
5387064,54
5387692,55
5388320,58
5388944,54
5389572,52
5390196,57
5390828,53
5391456,37
5392076,11
5392704,35
5393328,57
5393952,49
5394580,27
5395200,37
5395828,44
5396452,46
5397080,45
5397708,11
5398328,13
5398960,20
5399588,10
5400208,27
5400836,35
5401460,44
5402092,45
5402724,20
5403344,50
5403972,58
5404600,52
5405224,49
5405852,38
5406472,48
5407104,39
5407728,47
5408352,29
5408980,11
5409600,11
5410232,15
5410860,19
5411480,41
5412108,47
5412732,47
5413364,44
5413992,35
5414612,14
5415240,19
5415864,11
5416488,11
5417116,34
5417736,61
5418364,53
5418988,33
5419612,34
5420244,57
5420868,60
5421496,54
5422128,48
5422744,32
5423376,43
5424000,42
5424628,34
5425260,24
5425880,28
5426512,13
5427136,25
5427760,19
5428388,38
5429008,43
5429636,45
5430260,47
5430884,25
5431516,20
5432140,12
5432768,10
5433400,24
5434016,39
5434648,41
5435272,32
5435900,30
5436532,42
5437152,50
5437784,57
5438408,57
5439032,45
5439660,47
5440280,57
5440908,52
5441532,26
5442160,19
5442788,14
5443412,12
5444040,13
5444672,43
5445288,47
5445916,50
5446540,49
5447172,50
5447800,34
5448416,25
5449048,21
5449668,16
5450292,26
5450924,49
5451544,62
5452172,47
5452796,18
5453424,54
5454052,64
5454676,62
5455308,58
5455936,42
5456560,29
5457188,44
5457812,52
5458440,23
5459068,10
5459688,12
5460316,12
5460940,20
5461564,47
5462196,48
5462816,44
5463444,54
5464076,54
5464696,29
5465324,24
5465952,19
5466580,25
5467208,39
5467832,42
5468464,40
5469088,31
5469712,42
5470340,52
5470960,56
5471588,53
5472216,49
5472840,46
5473468,50
5474088,44
5474716,29
5475348,13
5475968,11
5476596,15
5477224,18
5477852,27
5478484,40
5479104,46
5479732,47
5480356,47
5480980,17
5481608,22
5482232,22
5482860,12
5483488,19
5484112,27
5484740,43
5485360,41
5485988,18
5486620,52
5487240,62
5487872,57
5488496,61
5489124,57
5489756,40
5490376,38
5491008,25
5491632,14
5492256,13
5492884,15
5493504,32
5494132,35
5494756,43
5495384,44
5496012,46
5496632,49
5497264,35
5497892,25
5498512,19
5499144,16
5499768,14
5500400,23
5501028,31
5501648,27
5502276,26
5502904,41
5503528,55
5504160,61
5504776,55
5505404,53
5506028,44
5506652,41
5507284,35
5507908,19
5508536,13
5509168,16
5509784,11
5510416,18
5511040,17
5511668,38
5512300,48
5512920,47
5513552,45
5514176,19
5514800,11
5515428,11
5516048,13
5516680,18
5517304,29
5517928,51
5518560,47
5519184,40
5519816,46
5520448,47
5521064,55
5521692,54
5522320,32
5522948,26
5523580,50
5524200,44
5524828,26
5525452,15
5526080,11
5526708,22
5527328,15
5527960,43
5528588,44
5529208,47
5529840,48
5530460,47
5531092,17
5531720,12
5532344,18
5532972,27
5533596,51
5534224,54
5534852,39
5535472,35
5536104,24
5536724,46
5537348,53
5537980,55
5538600,61
5539228,63
5539860,50
5540480,44
5541108,34
5541732,18
5542364,14
5542996,12
5543616,29
5544248,28
5544872,41
5545496,45
5546128,47
5546744,48
5547376,32
5548000,22
5548624,11
5549256,11
5549872,17
5550504,35
5551136,36
5551752,37
5552384,32
5553008,45
5553636,57
5554268,64
5554888,66
5555520,51
5556144,37
5556768,42
5557400,38
5558016,19
5558648,11
5559272,11
5559896,20
5560528,21
5561144,34
5561776,42
5562404,46
5563024,45
5563656,46
5564280,21
5564912,22
5565540,18
5566160,11
5566792,16
5567416,19
5568040,36
5568672,35
5569288,24
5569920,45
5570544,53
5571168,62
5571800,61
5572424,39
5573052,31
5573684,35
5574304,42
5574936,23
5575560,17
5576192,11
5576820,14
5577440,13
5578068,42
5578696,46
5579320,60
5579952,53
5580568,34
5581200,21
5581828,11
5582448,10
5583076,13
5583700,23
5584332,29
5584964,27
5585584,24
5586216,42
5586840,53
5587464,57
5588092,50
5588712,47
5589344,37
5589968,43
5590592,33
5591224,19
5591840,13
5592472,12
5593100,19
5593720,17
5594348,20
5594976,41
5595604,44
5596236,46
5596856,47
5597484,19
5598112,15
5598736,17
5599368,15
5599984,16
5600616,19
5601244,26
5601868,36
5602496,24
5603112,48
5603744,56
5604376,51
5604992,55
5605624,65
5606248,44
5606876,33
5607508,40
5608128,26
5608756,21
5609380,19
5610004,13
5610636,16
5611256,42
5611888,47
5612512,55
5613136,53
5613764,44
5614384,30
5615016,26
5615644,19
5616264,14
5616892,22
5617516,27
5618148,29
5618780,31
5619400,32
5620028,54
5620652,59
5621276,56
5621908,55
5622528,45
5623156,58
5623784,59
5624408,44
5625036,20
5625656,12
5626284,21
5626916,28
5627536,15
5628168,40
5628792,47
5629424,45
5630056,46
5630672,21
5631304,18
5631932,16
5632556,27
5633188,27
5633808,33
5634436,47
5635060,45
5635684,40
5636312,43
5636936,58
5637568,51
5638196,50
5638816,61
5639444,63
5640068,57
5640700,43
5641328,37
5641948,31
5642576,21
5643200,30
5643824,38
5644452,39
5645072,47
5645700,47
5646324,47
5646948,45
5647580,23
5648204,16
5648832,18
5649464,23
5650080,29
5650712,34
5651336,39
5651964,36
5652596,17
5653216,49
5653844,56
5654468,58
5655092,51
5655724,28
5656344,30
5656972,50
5657596,54
5658224,29
5658856,10
5659480,21
5660108,19
5660740,16
5661360,45
5661988,44
5662616,48
5663240,54
5663868,41
5664488,22
5665116,11
5665740,12
5666364,16
5666996,26
5667616,35
5668244,27
5668876,20
5669496,47
5670124,67
5670752,62
5671380,63
5672012,46
5672632,31
5673264,41
5673888,33
5674512,13
5675140,26
5675760,14
5676392,21
5677016,24
5677640,24
5678268,41
5678888,47
5679516,46
5680148,47
5680768,17
5681396,15
5682024,11
5682652,10
5683284,10
5683904,11
5684532,25
5685156,32
5685780,28
5686408,38
5687032,47
5687664,56
5688288,52
5688912,39
5689544,41
5690160,31
5690792,15
5691424,11
5692040,10
5692672,15
5693296,23
5693928,21
5694556,42
5695176,49
5695808,50
5696432,45
5697056,45
5697684,30
5698304,26
5698932,16
5699556,12
5700184,31
5700812,40
5701432,40
5702064,29
5702692,38
5703312,58
5703944,57
5704568,53
5705196,59
5705828,48
5706448,57
5707080,56
5707704,35
5708328,12
5708960,10
5709576,22
5710208,16
5710832,28
5711456,45
5712088,47
5712712,47
5713340,50
5713972,28
5714592,20
5715224,17
5715848,17
5716476,26
5717108,30
5717728,40
5718360,35
5718984,30
5719612,44
5720240,58
5720864,57
5721496,54
5722128,43
5722744,45
5723376,55
5724000,37
5724632,15
5725264,15
5725880,10
5726512,23
5727140,29
5727764,39
5728396,44
5729016,44
5729648,51
5730272,49
5730896,16
5731528,14
5732148,19
5732780,19
5733412,26
5734032,32
5734668,31
5735288,35
5735920,28
5736548,54
5737168,62
5737796,59
5738420,49
5739044,39
5739676,50
5740296,46
5740924,39
5741548,23
5742172,15
5742804,13
5743428,19
5744060,18
5744688,39
5745308,48
5745936,47
5746560,45
5747188,19
5747820,20
5748440,47
5749068,24
5749696,14
5750320,18
5750948,36
5751568,39
5752200,35
5752824,43
5753448,56
5754080,57
5754704,53
5755336,46
5755964,40
5756584,43
5757216,40
5757840,22
5758468,12
5759100,10
5759720,21
5760352,21
5760976,35
5761600,40
5762228,44
5762848,45
5763476,45
5764108,18
5764728,21
5765356,19
5765980,15
5766612,21
5767240,25
5767856,35
5768488,32
5769108,26
5769736,43
5770364,48
5770984,58
5771612,57
5772236,48
5772860,53
5773492,60
5774112,61
5774740,38
5775372,16
5775992,13
5776620,27
5777244,17
5777876,41
5778508,44
5779128,52
5779760,50
5780384,34
5781008,24
5781636,16
5782256,15
5782884,15
5783508,32
5784136,42
5784764,33
5785384,44
5786016,44
5786644,50
5787264,67
5787892,63
5788516,60
5789148,48
5789776,56
5790392,55
5791024,33
5791648,10
5792276,10
5792904,26
5793524,26
5794152,19
5794776,39
5795400,46
5796028,47
5796648,51
5797276,23
5797908,19
5798528,12
5799156,12
5799780,27
5800412,33
5801040,38
5801664,31
5802292,21
5802916,48
5803540,56
5804172,50
5804792,57
5805424,53
5806048,48
5806672,51
5807304,43
5807920,24
5808552,14
5809180,10
5809800,25
5810432,27
5811056,41
5811688,46
5812316,48
5812936,49
5813564,42
5814192,11
5814816,10
5815448,16
5816064,20
5816696,27
5817320,29
5817944,37
5818572,46
5819192,40
5819824,41
5820452,58
5821072,57
5821704,50
5822328,38
5822956,44
5823588,48
5824208,40
5824836,17
5825460,11
5826084,20
5826716,27
5827336,17
5827964,41
5828592,43
5829216,44
5829844,48
5830468,27
5831100,19
5831732,12
5832352,15
5832980,17
5833608,21
5834236,34
5834868,38
5835488,35
5836120,45
5836744,56
5837368,56
5838000,57
5838616,60
5839248,59
5839880,48
5840496,40
5841124,19
5841748,13
5842380,14
5843008,19
5843632,24
5844260,37
5844884,44
5845508,46
5846140,44
5846760,47
5847388,14
5848016,26
5848636,29
5849268,22
5849888,24
5850516,27
5851148,34
5851768,35
5852400,16
5853024,58
5853652,57
5854284,50
5854904,50
5855536,24
5856160,28
5856784,55
5857416,50
5858032,19
5858660,13
5859284,11
5859912,16
5860540,17
5861160,42
5861788,47
5862420,46
5863040,45
5863668,25
5864292,21
5864924,32
5865556,14
5866176,17
5866808,33
5867432,38
5868056,32
5868688,31
5869308,45
5869936,58
5870564,58
5871188,48
5871820,41
5872440,32
5873072,45
5873704,59
5874320,47
5874952,15
5875576,14
5876208,41
5876840,50
5877456,31
5878088,39
5878716,46
5879340,48
5879972,44
5880592,19
5881224,15
5881848,11
5882472,11
5883104,15
5883728,23
5884360,28
5884992,24
5885608,21
5886240,42
5886864,47
5887496,49
5888128,46
5888744,44
5889372,43
5889996,41
5890620,34
5891252,24
5891872,15
5892500,11
5893132,21
5893752,16
5894384,45
5895008,43
5895640,45
5896272,45
5896888,39
5897520,27
5898144,22
5898768,22
5899396,22
5900016,21
5900644,25
5901268,30
5901892,32
5902524,39
5903144,64
5903776,63
5904404,56
5905024,58
5905652,63
5906276,63
5906908,64
5907540,36
5908160,13
5908788,11
5909416,25
5910040,51
5910672,28
5911288,39
5911920,45
5912544,50
5913168,49
5913800,35
5914416,45
5915044,43
5915676,28
5916296,22
5916928,21
5917552,37
5918180,40
5918812,28
5919432,48
5920064,67
5920684,62
5921308,55
5921940,42
5922560,45
5923188,49
5923812,38
5924440,23
5925068,16
5925688,14
5926316,16
5926948,25
5927568,41
5928200,47
5928824,47
5929452,46
5930084,43
5930704,16
5931336,14
5931960,18
5932584,19
5933216,28
5933832,40
5934464,53
5935088,66
5935712,37
5936344,47
5936968,62
5937600,65
5938228,59
5938848,55
5939480,76
5940104,52
5940732,28
5941364,12
5941984,15
5942612,11
5943236,12
5943860,16
5944492,40
5945112,45
5945740,48
5946364,54
5946992,56
5947620,51
5948244,25
5948876,14
5949508,14
5950128,20
5950760,40
5951384,37
5952008,31
5952636,42
5953256,54
5953888,55
5954512,53
5955136,49
5955768,44
5956384,53
5957016,60
5957644,39
5958264,18
5958896,11
5959520,31
5960152,32
5960780,35
5961400,45
5962028,45
5962656,45
5963280,47
5963908,26
5964528,18
5965160,11
5965784,10
5966404,31
5967036,42
5967656,46
5968288,41
5968916,24
5969536,47
5970168,59
5970792,60
5971424,55
5972052,47
5972672,44
5973304,43
5973928,39
5974552,19
5975184,16
5975800,12
5976432,14
5977060,13
5977684,41
5978312,46
5978936,47
5979568,47
5980196,30
5980816,27
5981444,24
5982068,19
5982700,17
5983332,24
5983952,36
5984584,36
5985208,29
5985832,41
5986464,59
5987080,55
5987712,53
5988336,51
5988960,38
5989592,38
5990216,46
5990848,43
5991476,20
5992096,11
5992724,32
5993352,29
5993980,19
5994612,39
5995232,45
5995864,49
5996488,49
5997112,22
5997744,18
5998364,16
5998992,15
5999624,18
6000248,22
6000880,31
6001504,29
6002132,21
6002764,40
6003384,53
6004012,51
6004636,55
6005264,40
6005892,40
6006512,49
6007140,42
6007768,20
6008392,17
6009024,19
6009640,11
6010268,11
6010900,44
6011520,48
6012152,47
6012776,45
6013408,45
6014040,41
6014656,32
6015288,22
6015916,21
6016540,41
6017172,52
6017792,51
6018424,34
6019048,34
6019672,58
6020304,67
6020920,63
6021552,52
6022184,31
6022800,26
6023428,31
6024056,26
6024684,16
6025316,18
6025936,23
6026568,27
6027192,19
6027816,37
6028448,46
6029064,46
6029696,46
6030320,19
6030944,20
6031576,19
6032200,15
6032828,16
6033460,20
6034080,22
6034708,14
6035336,15
6035968,45
6036600,49
6037216,51
6037848,57
6038472,57
6039096,61
6039728,62
6040348,44
6040976,17
6041608,11
6042228,19
6042856,42
6043480,34
6044112,43
6044740,43
6045360,48
6045992,47
6046616,48
6047240,11
6047872,16
6048492,26
6049120,25
6049744,35
6050368,41
6051000,59
6051620,55
6052248,25
6052880,54
6053500,66
6054128,66
6054756,51
6055388,44
6056016,57
6056636,64
6057268,60
6057892,27
6058516,13
6059148,14
6059768,28
6060400,32
6061024,41
6061652,43
6062284,44
6062904,49
6063536,29
6064164,14
6064784,11
6065416,20
6066040,19
6066668,16
6067300,28
6067920,27
6068552,28
6069176,44
6069800,51
6070432,50
6071048,53
6071680,51
6072304,40
6072928,38
6073560,45
6074184,29
6074816,11
6075448,10
6076068,19
6076696,15
6077324,37
6077956,42
6078588,46
6079208,46
6079840,46
6080468,12
6081092,10
6081720,10
6082344,17
6082976,22
6083604,23
6084224,43
6084852,64
6085476,32
6086108,44
6086740,46
6087360,54
6087992,55
6088616,47
6089240,44
6089872,50
6090488,43
6091116,12
6091744,21
6092368,26
6093000,28
6093616,25
6094244,43
6094876,43
6095496,46
6096128,47
6096752,27
6097380,17
6098012,14
6098632,14
6099264,11
6099888,17
6100512,34
6101144,44
6101760,38
6102392,41
6103016,62
6103644,67
6104276,59
6104900,57
6105532,39
6106164,46
6106784,44
6107416,33
6108040,21
6108672,10
6109300,31
6109920,31
6110552,20
6111176,42
6111804,45
6112436,46
6113056,46
6113688,13
6114316,10
6114936,12
6115568,20
6116192,37
6116824,45
6117452,51
6118072,30
6118704,23
6119332,43
6119956,65
6120588,66
6121208,64
6121840,53
6122464,51
6123088,40
6123720,38
6124340,15
6124968,12
6125600,18
6126220,29
6126852,37
6127476,45
6128108,44
6128740,44
6129360,46
6129992,38
6130616,19
6131240,14
6131872,16
6132492,21
6133124,33
6133748,34
6134376,28
6135008,28
6135632,39
6136268,54
6136900,62
6137520,63
6138156,63
6138780,60
6139408,51
6140040,23
6140660,17
6141292,22
6141920,19
6142544,19
6143176,27
6143796,17
6144432,38
6145060,47
6145680,47
6146308,48
6146932,25
6147560,23
6148192,17
6148808,12
6149436,17
6150060,22
6150684,39
6151316,37
6151936,24
6152564,49
6153188,57
6153816,61
6154444,54
6155064,42
6155692,39
6156324,42
6156944,46
6157572,23
6158196,19
6158828,10
6159460,23
6160080,19
6160708,41
6161332,47
6161956,44
6162588,46
6163208,46
6163836,32
6164460,29
6165088,23
6165716,14
6166340,28
6166972,36
6167604,40
6168224,40
6168852,29
6169480,55
6170108,58
6170740,52
6171360,56
6171988,36
6172616,43
6173240,48
6173868,33
6174488,23
6175116,13
6175748,24
6176368,30
6176996,17
6177620,39
6178252,44
6178880,46
6179504,45
6180136,23
6180760,30
6181384,28
6182016,23
6182632,26
6183260,27
6183888,31
6184512,23
6185140,22
6185760,47
6186388,53
6187020,54
6187640,59
6188272,53
6188896,56
6189524,59
6190156,56
6190776,35
6191408,14
6192032,21
6192656,25
6193284,18
6193904,38
6194536,43
6195160,47
6195784,47
6196416,45
6197036,12
6197664,15
6198296,29
6198916,28
6199548,36
6200172,27
6200804,31
6201432,43
6202052,27
6202684,45
6203308,57
6203932,50
6204564,45
6205184,35
6205816,44
6206440,50
6207064,51
6207696,32
6208312,23
6208944,12
6209572,22
6210192,23
6210824,41
6211448,45
6212076,46
6212708,46
6213328,25
6213960,12
6214584,15
6215208,22
6215840,19
6216456,22
6217088,35
6217712,35
6218336,32
6218968,43
6219592,53
6220224,57
6220856,61
6221472,65
6222104,56
6222728,60
6223360,42
6223988,17
6224608,13
6225240,16
6225868,43
6226492,55
6227124,35
6227744,42
6228372,45
6229004,47
6229624,43
6230256,20
6230880,19
6231508,17
6232140,13
6232760,21
6233392,21
6234016,36
6234640,50
6235272,25
6235888,46
6236520,59
6237144,55
6237768,57
6238400,52
6239016,50
6239648,54
6240280,41
6240896,22
6241524,12
6242148,11
6242780,11
6243412,10
6244032,42
6244660,45
6245288,45
6245912,50
6246544,36
6247160,19
6247788,28
6248412,22
6249036,17
6249668,28
6250288,43
6250916,46
6251548,36
6252168,38
6252796,55
6253424,61
6254052,54
6254684,49
6255304,33
6255936,41
6256560,45
6257184,31
6257816,16
6258432,18
6259064,11
6259688,14
6260312,15
6260944,37
6261560,44
6262192,48
6262824,47
