tempo_arduino_micro_s,valor_ADC
500,27
1004,20
1504,36
2000,40
2504,48
3000,48
3508,43
4000,28
4504,28
5000,35
5500,36
6000,36
6500,20
7004,15
7500,11
8000,15
8500,22
9000,28
9500,28
10000,30
10516,34
11036,33
11564,34
12084,34
12612,14
13132,10
13660,11
14180,11
14708,12
15228,20
15756,24
16276,29
16796,22
17316,16
17836,27
18356,32
18876,42
19396,47
19916,45
20436,47
20956,39
21476,34
21996,35
22516,35
23036,26
23564,15
24084,10
24612,27
25132,33
25660,17
26180,32
26708,36
27228,32
27756,35
28276,35
28804,32
29324,15
29852,24
30372,27
30900,18
31420,13
31948,16
32468,19
32996,29
33516,37
34044,34
34564,32
35092,42
35612,54
36140,54
36660,45
37188,33
37708,27
38236,32
38760,46
39284,51
39804,35
40332,11
40852,14
41372,19
41892,14
42412,12
42932,31
43452,34
43972,36
44492,36
45012,34
45532,25
46052,19
46572,16
47092,11
47612,13
48140,13
48660,10
49188,15
49708,22
50236,38
50760,36
51284,34
51804,39
52332,41
52852,41
53380,42
53900,33
54428,29
54948,34
55476,36
55996,28
56524,17
57044,10
57572,10
58096,17
58620,17
59140,13
59668,33
60188,35
60716,34
61240,34
61764,36
62284,22
62812,22
63332,14
63860,10
64384,10
64908,16
65428,20
65948,27
66468,25
66988,21
67508,14
68028,39
68548,44
69068,48
69588,46
70108,39
70632,25
71148,21
71668,36
72192,45
72716,48
73236,33
73764,29
74284,12
74812,32
75336,38
75860,23
76384,32
76908,33
77428,35
77956,41
78476,38
79004,20
79528,15
80052,13
80572,12
81100,12
81620,15
82148,18
82668,26
83196,24
83716,26
84244,20
84764,35
85292,43
85812,45
86340,45
86860,45
87388,39
87908,31
88436,34
88956,36
89484,36
90008,21
90524,10
91044,10
91564,22
92084,14
92604,14
93124,30
93644,35
94164,33
94684,34
95208,36
95724,21
96248,21
96764,16
97292,11
97812,10
98340,14
98860,28
99388,51
99908,51
100436,28
101000,14
101584,39
102156,45
102736,52
103304,49
103880,39
104456,28
105024,35
105600,38
106168,32
106744,14
107312,10
107896,15
108464,26
109040,24
109624,30
110192,33
110768,36
111336,35
111920,33
112492,14
113072,11
113640,10
114216,10
114792,11
115364,22
115944,30
116512,30
117096,25
117664,17
118244,35
118824,42
119392,43
119976,43
120548,40
121128,39
121696,45
122280,42
122848,27
123428,12
124008,14
124576,13
125160,17
125728,33
126312,38
126884,33
127456,35
128040,35
128608,36
129184,21
129752,18
130328,15
130896,11
131480,10
132048,16
132624,27
133200,35
133768,33
134344,17
134912,43
135496,50
136064,42
136648,39
137224,33
137792,33
138376,43
138944,42
139528,33
140096,21
140680,15
141248,14
141824,22
142408,22
142976,32
143560,34
144128,36
144712,34
145280,35
145864,13
146440,16
147008,14
147592,13
148164,15
148744,15
149312,19
149896,33
150468,42
151040,24
151624,35
152196,47
152776,52
153348,51
153928,48
154504,39
155088,33
155664,26
156232,19
156816,10
157384,13
157968,20
158540,20
159120,17
159692,34
160268,34
160848,37
161416,35
161992,36
162560,19
163144,12
163716,11
164296,12
164872,14
165440,12
166016,22
166584,28
167160,31
167728,27
168312,33
168880,41
169456,41
170032,42
170600,35
171184,32
171756,35
172336,37
172904,30
173488,18
174056,11
174636,22
175216,36
175784,36
176368,35
176936,35
177520,33
178092,35
178664,35
179248,12
179816,11
180392,13
180960,13
181544,11
182112,14
182696,25
183264,32
183844,27
184424,19
184992,37
185568,42
186140,47
186720,47
187288,38
187864,31
188448,35
189016,40
189600,29
190168,19
190752,13
191324,13
191904,16
192476,14
193048,31
193632,35
194200,37
194784,35
195352,34
195936,21
196504,22
197080,17
197664,11
198232,11
198816,13
199384,19
199968,21
200540,18
201120,24
201688,42
202264,47
202848,39
203420,40
204000,33
204572,31
205152,35
205728,34
206296,28
206872,19
207440,13
208024,24
208592,26
209168,16
209736,31
210320,32
210888,37
211464,37
212048,40
212616,26
213200,19
213768,15
214352,13
214924,15
215504,18
216080,22
216648,25
217224,29
217792,28
218376,43
218944,53
219528,51
220096,46
220672,39
221256,34
221824,35
222408,34
222976,19
223560,11
224132,11
224712,16
225288,22
225856,17
226432,30
227000,33
227584,33
228156,38
228736,33
229308,24
229880,21
230464,15
231032,9
231556,11
232132,18
232712,31
233284,24
233864,15
234432,27
235008,51
235592,48
236164,43
236744,42
237316,50
237896,44
238468,30
239048,16
239624,11
240196,19
240776,23
241344,11
241928,16
242496,16
243080,29
243652,33
244228,35
244808,35
245376,33
245960,11
246528,11
247112,14
247680,11
248264,15
248840,21
249408,25
249992,30
250564,36
251144,32
251716,39
252296,45
252868,53
253440,54
254024,47
254596,35
255176,28
255748,25
256328,14
256904,11
257480,14
258056,28
258624,30
259208,19
259776,28
260352,33
260920,35
261504,37
262072,36
262652,25
263232,18
263800,11
264384,11
264952,11
265536,19
266108,34
266688,34
267256,23
267832,32
268416,53
268988,54
269568,40
270136,35
270720,32
271288,36
271868,42
272448,31
273016,11
273600,11
274168,10
274752,18
275324,19
275904,16
276476,30
277052,32
277632,35
278204,35
278784,28
279356,22
279936,18
280508,14
281080,11
281664,13
282232,15
282808,21
283376,18
283960,14
284532,33
285112,43
285684,43
286256,40
286840,38
287408,29
287992,30
288564,36
289144,33
289712,21
290288,10
290872,14
291444,20
292024,18
292592,14
293176,29
293744,32
294328,37
294900,34
295472,26
296056,14
296624,11
297208,11
297776,11
298360,13
298932,18
299508,24
300088,21
300660,28
301240,33
301812,32
302392,41
302972,44
303552,47
304124,44
304700,50
305280,57
305852,54
306432,29
307012,11
307592,15
308168,35
308744,41
309328,27
309900,32
310480,39
311048,39
311632,36
312204,19
312784,21
313360,25
313932,24
314512,18
315084,21
315664,20
316236,24
316816,19
317388,14
317964,36
318544,40
319116,38
319696,42
320276,51
320856,51
321424,36
322004,33
322584,40
323152,30
323736,24
324308,14
324888,21
325456,19
326040,16
326612,32
327188,34
327768,40
328336,43
328912,29
329480,18
330064,14
330632,18
331216,11
331792,13
332364,15
332944,27
333512,29
334088,21
334656,35
335232,37
335804,42
336376,43
336960,44
337528,32
338104,31
338672,31
339256,29
339824,14
340408,10
340976,11
341552,18
342136,18
342704,18
343288,31
343856,35
344440,36
345008,38
345584,18
346168,23
346740,25
347320,17
347888,11
348472,17
349040,18
349624,23
350192,28
350772,22
351352,36
351924,46
352504,51
353080,48
353664,45
354232,46
354812,38
355392,21
355964,15
356544,11
357116,11
357696,10
358276,21
358856,22
359440,26
360008,34
360592,35
361160,35
361744,36
362312,15
362896,13
363464,13
364044,13
364624,15
365196,21
365776,23
366348,27
366928,27
367500,16
368080,40
368664,48
369232,48
369816,46
370384,40
370968,32
371540,32
372120,33
372692,38
373268,24
373848,12
374416,10
375000,19
375572,17
376152,29
376724,33
377300,36
377880,38
378452,36
379032,15
379604,13
380184,13
380756,17
381336,14
381916,19
382492,19
383072,24
383644,36
384228,40
384800,32
385384,35
385952,45
386532,59
387112,55
387684,40
388264,39
388836,40
389416,38
389988,26
390568,15
391136,11
391716,15
392296,18
392868,32
393448,33
394020,34
394600,37
395172,37
395748,25
396328,15
396900,13
397480,16
398052,38
398632,46
399212,40
399792,33
400372,26
400944,15
401528,42
402100,46
402680,51
403252,50
403832,42
404404,30
404980,29
405560,22
406132,20
406712,14
407284,15
407864,10
408436,21
409016,44
409588,45
410164,36
410744,35
411312,34
411896,36
412464,18
413048,14
413616,11
414192,12
414776,11
415344,15
415928,25
416500,29
417080,31
417648,18
418232,42
418800,50
419376,51
419960,48
420528,41
421112,40
421684,49
422264,42
422836,24
423408,11
423992,29
424564,41
425144,32
425712,12
426296,37
426864,33
427448,35
428020,35
428592,34
429176,19
429744,19
430328,19
430900,14
431480,11
432052,22
432624,33
433208,33
433780,27
434360,18
434932,43
435512,43
436084,43
436664,43
437232,40
437812,30
438392,35
438964,43
439544,43
440116,36
440696,26
441264,14
441844,27
442424,24
442992,31
443576,34
444148,40
444728,37
445300,38
445880,21
446452,15
447028,11
447608,12
448180,15
448760,25
449328,32
449912,25
450484,22
451060,24
451640,43
452208,46
452792,46
453364,43
453944,37
454516,34
455096,26
455668,15
456244,14
456824,12
457392,17
457976,11
458548,16
459128,16
459700,34
460276,30
460856,35
461428,35
462008,35
462576,12
463160,11
463732,11
464312,12
464884,19
465456,27
466040,36
466608,36
467192,40
467764,31
468344,43
468916,48
469492,50
470072,47
470644,36
471224,27
471792,31
472376,36
472956,26
473536,17
474120,12
474692,15
475272,23
475844,19
476424,32
476996,32
477576,35
478148,33
478724,32
479304,11
479876,13
480456,17
481028,19
481608,22
482176,22
482760,21
483336,22
483908,19
484488,33
485056,36
485640,39
486212,46
486792,44
487372,42
487948,35
488528,38
489100,32
489680,27
490248,14
490832,9
491352,14
491928,18
492504,17
493080,32
493664,32
494236,36
494816,37
495388,34
495968,11
496540,21
497116,24
497696,18
498268,24
498848,28
499420,30
500000,27
500568,23
501152,33
501724,48
502300,55
502880,59
503452,43
504032,17
504604,15
505184,31
505756,46
506332,39
506912,27
507484,15
508064,14
508636,20
509216,19
509796,32
510376,33
510956,34
511532,35
512116,26
512684,14
513264,14
513832,14
514416,16
514984,34
515560,48
516144,59
516716,46
517296,18
517864,42
518448,54
519016,63
519600,57
520172,45
520744,34
521328,27
521896,26
522480,23
523048,15
523632,11
524200,10
524776,26
525360,27
525928,15
526512,37
527084,34
527664,36
528236,35
528816,21
529384,11
529964,11
530544,14
531116,22
531696,33
532276,31
532856,30
533432,32
534012,25
534592,35
535164,52
535744,54
536316,46
536896,38
537468,16
538048,21
538616,28
539196,30
539776,12
540348,10
540928,11
541496,21
542080,21
542652,16
543228,36
543808,36
544380,35
544960,35
545528,23
546112,19
546684,18
547264,12
547832,12
548412,17
548992,18
549564,32
550144,30
550724,19
551304,32
551876,39
552452,44
553032,44
553604,41
554184,39
554756,51
555336,52
555916,42
556496,15
557080,10
557652,11
558232,18
558804,18
559384,24
559956,33
560540,36
561116,37
561692,36
562272,15
562844,10
563424,15
564000,12
564584,10
565152,12
565732,20
566312,31
566884,38
567464,28
568036,36
568616,51
569188,49
569768,46
570344,40
570924,30
571504,39
572076,35
572656,28
573236,15
573816,18
574396,17
574972,15
575552,28
576124,34
576704,34
577272,34
577856,37
578428,35
579008,21
579580,27
580156,40
580736,48
581308,42
581888,29
582460,18
583040,19
583612,21
584188,14
584768,42
585340,53
585920,60
586492,65
587072,57
587644,49
588224,45
588796,39
589372,28
589952,15
590524,15
591104,11
591676,28
592256,33
592836,32
593412,31
593992,34
594564,34
595144,36
595716,15
596296,16
596868,12
597448,12
598024,14
598596,23
599176,30
599748,34
600328,35
600908,19
601488,41
602060,47
602636,43
603216,37
603788,28
604368,28
604948,46
605528,45
606100,32
606676,11
607256,9
607776,10
608360,13
608932,13
609512,30
610092,31
610672,37
611244,43
611820,38
612404,13
612976,12
613552,13
614128,28
614708,31
615284,25
615864,21
616436,19
617008,18
617592,13
618164,41
618744,51
619316,49
619896,46
620476,36
621052,29
621632,36
622204,39
622784,29
623356,18
623936,15
624516,12
625096,23
625680,27
626252,29
626832,29
627404,35
627984,36
628556,34
629136,23
629708,28
630284,21
630864,13
631436,14
632016,14
632596,18
633176,19
633756,24
634332,23
634912,37
635484,38
636064,38
636636,38
637220,37
637796,41
638376,50
638956,42
639532,22
640116,11
640684,10
641264,13
641832,14
642416,13
642984,30
643564,31
644144,36
644716,36
645296,35
645864,11
646448,10
647016,10
647600,11
648172,17
648744,24
649328,25
649900,26
650480,45
651048,37
651632,35
652204,43
652780,47
653360,46
653932,41
654512,26
655084,32
655664,36
656240,25
656824,12
657392,9
657908,18
658488,28
659056,28
659640,29
660208,30
660792,36
661364,35
661944,35
662516,17
663092,14
663672,14
664244,12
664824,13
665392,16
665976,21
666544,19
667120,23
667704,27
668272,38
668856,46
669424,45
670008,44
670580,35
671160,33
671732,40
672308,42
672888,32
673456,13
674040,12
674608,25
675192,27
675764,15
676340,31
676920,32
677492,35
678072,37
678644,35
679224,17
679792,14
680376,12
680944,11
681524,16
682104,27
682672,31
683256,25
683828,27
684408,31
684980,49
685552,51
686136,41
686704,35
687288,26
687860,35
688440,45
689012,43
689592,27
690164,22
690740,13
691320,19
691888,22
692472,17
693044,27
693624,32
694196,36
694772,34
695352,32
695924,17
696504,17
697076,14
697656,10
698224,12
698808,15
699380,29
699956,27
700536,21
701108,34
701688,45
702268,42
702848,39
703420,42
703996,32
704580,34
705148,41
705728,36
706300,12
706880,23
707448,14
708032,13
708604,23
709180,37
709760,46
710332,34
710912,39
711492,39
712072,38
712652,24
713228,15
713808,12
714380,15
714960,12
715540,20
716120,29
716700,32
717276,30
717856,35
718428,34
719008,39
719580,47
720160,51
720728,43
721312,42
721884,47
722460,43
723040,18
723612,10
724192,13
724764,35
725344,29
725916,15
726492,33
727072,35
727644,35
728224,33
728796,19
729376,12
729956,14
730536,17
731108,17
731684,21
732264,18
732836,25
733416,26
733988,24
734568,35
735148,46
735724,47
736304,46
736876,41
737456,40
738028,43
738608,41
739176,31
739760,11
740340,15
740916,14
741496,20
742068,14
742648,22
743224,35
743808,33
744380,36
744956,34
745536,17
746108,16
746688,13
747260,15
747840,21
748412,27
748992,27
749564,42
750140,40
750720,32
751292,34
751872,42
752452,44
753032,46
753612,43
754188,31
754768,31
755344,41
755920,44
756492,22
757072,11
757644,13
758224,30
758808,22
759380,27
759960,33
760536,32
761112,34
761692,35
762272,17
762844,19
763420,15
764000,12
764572,14
765152,20
765732,23
766312,21
766892,19
767468,14
768052,35
768620,40
769200,39
769772,41
770352,41
770924,39
771504,41
772076,38
772652,34
773232,16
773804,11
774384,11
774956,21
775536,17
776116,32
776692,32
777272,38
777844,44
778424,44
778992,24
779576,11
780148,14
780728,21
781308,16
781884,16
782464,27
783036,27
783616,19
784196,14
784776,37
785348,49
785924,49
786504,45
787076,41
787656,38
788232,42
788808,43
789384,33
789968,14
790552,10
791124,16
791704,24
792276,24
792856,30
793436,32
794020,38
794596,34
795172,35
795756,19
796328,15
796904,13
797484,14
798064,19
798644,14
799220,20
799800,27
800376,27
800952,17
801524,39
802104,43
802676,42
803256,45
803824,40
804404,38
804984,39
805556,31
806136,22
806716,10
807296,15
807868,23
808444,11
809024,13
809596,33
810176,33
810748,36
811328,36
811908,35
812488,12
813072,18
813644,19
814224,18
814796,16
815376,15
815956,23
816540,31
817116,40
817692,42
818272,32
818844,38
819424,52
820000,52
820576,49
821144,44
821720,45
822304,43
822872,31
823456,18
824024,16
824608,11
825176,12
825760,13
826328,31
826896,32
827480,35
828048,43
828632,40
829204,26
829784,17
830352,12
830932,11
831512,20
832084,25
832664,27
833232,21
833808,23
834376,31
834960,43
835528,46
836104,42
836688,37
837260,28
837840,38
838412,44
838992,37
839564,19
840144,13
840720,14
841288,11
841872,12
842440,14
843024,32
843596,32
844176,35
844748,36
845324,31
845904,13
846476,15
847056,15
847628,16
848208,17
848776,21
849360,29
849936,34
850504,29
851088,32
851660,48
852240,50
852812,50
853392,43
853964,26
854540,26
855120,37
855692,34
856272,25
856844,15
857424,9
857944,14
858520,13
859092,13
859668,30
860248,32
860820,34
861400,35
861972,34
862552,20
863124,11
863700,10
864280,11
864852,17
865432,26
866004,34
866584,35
867156,29
867736,31
868316,40
868892,44
869472,43
870044,42
870624,43
871200,42
871784,43
872356,32
872932,11
873512,10
874084,11
874664,22
875236,22
875816,13
876388,38
876968,35
877548,35
878124,36
878704,31
879276,32
879856,34
880436,21
881016,11
881584,11
882164,11
882744,16
883316,22
883896,18
884468,34
885048,40
885620,42
886200,39
886772,38
887348,33
887928,43
888500,38
889080,34
889652,25
890232,18
890804,11
891380,33
891960,40
892532,22
893112,32
893684,33
894264,35
894836,35
895416,19
895996,20
896576,25
897152,22
897724,18
898304,24
898876,20
899456,19
900028,17
900604,15
901184,36
901756,46
902336,46
902908,47
903488,41
904060,35
904640,33
905212,33
905788,37
906368,24
906940,11
907520,12
908092,22
908672,19
909244,15
909820,34
910400,33
910972,36
911552,34
912124,25
912704,25
913276,19
913856,11
914440,10
915012,13
915592,16
916168,20
916744,13
917316,17
917896,34
918476,40
919052,39
919632,37
920208,35
920784,14
921364,19
921944,50
922520,54
923100,27
923680,18
924252,15
924832,13
925400,15
925984,23
926556,35
927136,33
927716,35
928292,36
928872,18
929444,13
930024,11
930596,13
931176,13
931748,34
932324,35
932904,32
933476,21
934056,13
934628,39
935208,48
935780,46
936360,49
936940,46
937516,35
938096,31
938672,33
939248,32
939828,15
940408,10
940988,22
941564,29
942144,17
942716,29
943296,33
943872,34
944448,35
945028,36
945608,26
946192,22
946764,21
947344,16
947916,10
948496,12
949076,26
949656,30
950236,30
950812,17
951392,36
951968,44
952548,49
953124,43
953704,37
954284,37
954860,42
955440,42
956016,36
956592,23
957168,21
957744,11
958324,25
958904,28
959484,30
960064,30
960640,35
961208,35
961792,36
962364,15
962944,19
963524,14
964100,11
964680,11
965252,17
965832,24
966404,26
966984,25
967556,26
968136,32
968720,38
969292,44
969872,38
970444,22
971024,25
971596,50
972176,57
972756,42
973332,20
973912,11
974484,17
975064,21
975636,16
976216,32
976796,35
977372,35
977952,37
978524,37
979104,21
979680,17
980256,13
980828,12
981408,19
981980,25
982556,28
983136,25
983708,23
984288,24
984860,37
985440,45
986012,47
986584,45
987168,39
987740,37
988320,41
988892,37
989472,25
990044,12
990624,11
991196,13
991772,14
992352,12
992924,29
993504,33
994076,36
994656,33
995228,34
995804,17
996384,13
996956,16
997536,28
998108,30
998688,33
999268,43
999848,29
1000420,16
1001040,33
1001668,44
1002288,39
1002916,38
1003544,42
1004160,39
1004788,38
1005412,22
1006040,13
1006672,12
1007288,12
1007916,16
1008540,11
1009164,19
1009792,40
1010416,33
1011044,35
1011668,35
1012292,24
1012920,22
1013544,13
1014172,11
1014804,17
1015424,22
1016052,26
1016676,21
1017304,16
1017936,35
1018552,44
1019184,41
1019808,45
1020432,44
1021060,48
1021680,45
1022308,34
1022932,18
1023560,11
1024188,14
1024804,25
1025432,23
1026060,30
1026676,33
1027304,34
1027928,37
1028556,35
1029184,23
1029800,28
1030428,28
1031048,25
1031676,25
1032304,24
1032920,27
1033548,25
1034172,14
1034796,40
1035424,43
1036048,40
1036676,38
1037300,30
1037920,52
1038548,51
1039172,41
1039800,19
1040428,10
1041044,11
1041672,12
1042296,12
1042924,29
1043552,35
1044168,36
1044796,35
1045420,23
1046044,20
1046672,16
1047288,15
1047916,12
1048540,22
1049160,33
1049792,25
1050408,20
1051036,31
1051664,43
1052280,45
1052908,42
1053532,37
1054160,37
1054788,60
1055408,63
1056036,37
1056656,12
1057284,21
1057912,32
1058528,25
1059160,14
1059780,37
1060404,33
1061032,43
1061656,40
1062284,13
1062908,11
1063536,13
1064164,15
1064788,12
1065416,13
1066044,16
1066660,24
1067292,26
1067912,38
1068544,45
1069172,38
1069792,39
1070420,30
1071040,31
1071664,43
1072292,41
1072912,28
1073540,11
1074164,11
1074788,26
1075416,27
1076036,29
1076668,36
1077296,34
1077912,37
1078540,36
1079164,15
1079792,10
1080420,11
1081036,11
1081668,15
1082288,15
1082912,28
1083540,43
1084160,28
1084788,34
1085412,46
1086036,43
1086664,44
1087280,37
1087912,36
1088540,39
1089160,39
1089788,16
1090408,9
1090984,12
1091612,23
1092232,21
1092860,29
1093484,31
1094112,37
1094740,35
1095360,23
1095988,13
1096612,18
1097236,16
1097864,13
1098480,22
1099112,33
1099736,31
1100360,25
1100988,30
1101608,41
1102236,51
1102864,46
1103488,43
1104116,26
1104740,25
1105368,33
1105996,32
1106616,23
1107244,15
1107864,14
1108488,21
1109116,16
1109736,31
1110364,33
1110992,36
1111616,33
1112244,16
1112864,17
1113492,17
1114124,12
1114744,13
1115372,15
1115996,19
1116628,15
1117256,13
1117880,35
1118508,36
1119132,41
1119756,40
1120388,38
1121008,43
1121636,50
1122260,49
1122880,16
1123512,11
1124128,13
1124756,25
1125388,22
1126008,27
1126636,32
1127260,35
1127888,35
1128516,36
1129136,17
1129764,19
1130384,13
1131012,11
1131644,12
1132264,19
1132892,23
1133516,26
1134140,20
1134768,33
1135384,35
1136016,41
1136636,43
1137264,41
1137892,33
1138516,32
1139148,33
1139776,11
1140400,11
1141028,10
1141652,11
1142280,11
1142908,30
1143528,33
1144156,36
1144780,37
1145404,35
1146036,28
1146656,15
1147284,15
1147916,14
1148536,14
1149164,21
1149788,19
1150416,16
1151048,32
1151664,38
1152296,43
1152916,46
1153540,47
1154168,38
1154792,34
1155420,34
1156044,25
1156664,12
1157296,14
1157912,23
1158540,17
1159164,14
1159792,34
1160420,35
1161044,34
1161672,35
1162300,24
1162920,32
1163548,19
1164172,14
1164800,15
1165428,14
1166048,19
1166676,16
1167300,12
1167924,40
1168556,44
1169176,40
1169804,35
1170428,20
1171056,22
1171684,31
1172308,33
1172940,17
1173568,15
1174184,10
1174816,19
1175440,19
1176068,31
1176700,32
1177320,34
1177948,35
1178572,32
1179196,15
1179828,14
1180448,11
1181076,10
1181708,12
1182328,27
1182956,37
1183580,37
1184212,20
1184840,41
1185456,54
1186088,50
1186712,44
1187336,37
1187964,38
1188584,34
1189212,23
1189836,11
1190460,10
1191088,15
1191704,21
1192336,25
1192960,28
1193584,33
1194212,36
1194836,36
1195468,17
1196100,14
1196720,14
1197352,13
1197976,17
1198600,25
1199228,19
1199848,16
1200476,14
1201100,33
1201724,41
1202356,44
1202976,43
1203604,45
1204236,38
1204856,41
1205484,22
1206108,14
1206736,13
1207364,16
1207984,11
1208612,12
1209236,24
1209860,33
1210492,34
1211112,37
1211740,37
1212364,15
1212988,11
1213620,12
1214240,13
1214868,23
1215500,27
1216120,41
1216748,48
1217372,28
1218000,41
1218632,53
1219248,42
1219876,37
1220500,39
1221128,44
1221756,39
1222376,36
1223008,15
1223632,12
1224256,15
1224884,20
1225504,23
1226136,33
1226764,32
1227384,36
1228016,37
1228640,26
1229268,15
1229896,16
1230520,15
1231148,15
1231772,26
1232396,23
1233024,18
1233640,15
1234268,25
1234892,38
1235516,45
1236144,47
1236760,42
1237392,28
1238016,31
1238640,34
1239268,28
1239892,17
1240520,11
1241152,17
1241768,21
1242396,15
1243020,33
1243648,34
1244280,35
1244896,35
1245524,15
1246148,14
1246772,11
1247400,10
1248020,15
1248648,22
1249268,28
1249892,25
1250524,22
1251144,37
1251776,45
1252404,50
1253024,59
1253652,42
1254276,17
1254908,15
1255536,23
1256156,17
1256784,17
1257408,25
1258032,13
1258660,10
1259280,27
1259908,40
1260532,41
1261156,34
1261788,34
1262412,18
1263040,17
1263668,16
1264288,17
1264916,18
1265540,12
1266172,21
1266800,29
1267424,13
1268052,40
1268676,38
1269300,37
1269932,34
1270552,23
1271180,27
1271804,40
1272432,47
1273060,35
1273684,27
1274316,12
1274944,18
1275568,20
1276196,30
1276820,32
1277448,35
1278076,34
1278696,26
1279328,16
1279952,11
1280576,12
1281204,24
1281820,33
1282448,26
1283076,20
1283696,28
1284324,31
1284944,41
1285572,48
1286204,46
1286824,44
1287452,34
1288072,29
1288700,35
1289332,39
1289952,21
1290580,10
1291200,28
1291824,33
1292452,17
1293072,33
1293700,34
1294324,36
1294944,35
1295572,14
1296196,17
1296824,15
1297452,12
1298072,16
1298700,21
1299324,30
1299952,29
1300580,23
1301200,35
1301828,45
1302452,46
1303072,42
1303704,34
1304320,34
1304948,43
1305572,41
1306196,29
1306828,18
1307448,15
1308076,11
1308708,14
1309328,31
1309956,34
1310580,35
1311212,37
1311840,33
1312456,26
1313084,31
1313708,21
1314328,11
1314956,25
1315576,24
1316204,21
1316824,17
1317448,17
1318076,32
1318696,37
1319324,39
1319952,41
1320568,30
1321196,25
1321820,26
1322448,33
1323076,22
1323696,13
1324324,12
1324944,21
1325572,29
1326200,28
1326824,33
1327452,35
1328072,34
1328696,20
1329324,10
1329944,15
1330572,11
1331196,17
1331820,37
1332448,36
1333068,22
1333700,19
1334328,30
1334944,42
1335572,46
1336196,46
1336824,42
1337452,32
1338072,35
1338700,34
1339324,29
1339944,12
1340576,12
1341192,28
1341820,29
1342444,15
1343068,33
1343696,33
1344312,36
1344940,33
1345568,14
1346184,12
1346812,11
1347436,10
1348064,18
1348692,27
1349312,29
1349940,24
1350564,19
1351184,34
1351816,40
1352432,44
1353060,46
1353684,46
1354304,41
1354932,36
1355552,36
1356180,25
1356808,17
1357424,13
1358052,16
1358676,28
1359304,30
1359932,33
1360552,37
1361180,41
1361804,39
1362432,21
1363060,11
1363680,11
1364308,13
1364928,14
1365552,13
1366180,32
1366800,52
1367428,42
1368052,31
1368672,54
1369304,51
1369928,46
1370556,31
1371184,30
1371800,44
1372432,46
1373056,28
1373684,17
1374312,12
1374928,22
1375560,19
1376184,31
1376804,35
1377432,35
1378056,37
1378684,31
1379308,32
1379928,21
1380560,15
1381176,10
1381804,17
1382436,40
1383052,39
1383684,24
1384304,32
1384936,43
1385564,42
1386184,44
1386812,42
1387436,31
1388060,36
1388688,51
1389312,45
1389940,27
1390564,14
1391188,24
1391820,37
1392440,25
1393068,32
1393700,34
1394320,37
1394948,37
1395572,15
1396200,23
1396828,25
1397448,20
1398076,19
1398700,21
1399324,29
1399952,30
1400576,23
1401204,35
1401828,45
1402452,50
1403080,43
1403696,38
1404328,31
1404956,30
1405576,50
1406204,52
1406828,25
1407460,14
1408088,42
1408704,32
1409332,31
1409956,33
1410576,34
1411204,36
1411824,35
1412452,16
1413076,12
1413700,14
1414328,18
1414948,23
1415576,22
1416204,14
1416824,14
1417452,13
1418076,35
1418704,41
1419332,36
1419952,39
1420580,25
1421204,25
1421828,29
1422460,32
1423080,22
1423708,19
1424332,11
1424956,15
1425584,13
1426204,31
1426832,34
1427464,35
1428080,37
1428708,18
1429332,11
1429964,17
1430592,15
1431216,11
1431844,16
1432468,24
1433096,27
1433724,32
1434340,33
1434972,40
1435592,45
1436216,52
1436844,50
1437464,32
1438092,27
1438716,32
1439344,26
1439972,15
1440596,10
1441228,19
1441856,24
1442472,16
1443100,33
1443724,33
1444352,37
1444984,38
1445600,27
1446228,21
1446852,18
1447476,11
1448104,21
1448720,34
1449348,35
1449972,26
1450596,16
1451224,41
1451848,57
1452476,47
1453104,38
1453728,33
1454356,47
1454980,56
1455608,45
1456240,27
1456856,16
1457484,9
1458056,18
1458684,20
1459316,32
1459936,31
1460564,36
1461188,37
1461808,34
1462440,15
1463056,18
1463684,19
1464308,18
1464932,24
1465560,24
1466184,25
1466816,24
1467444,14
1468064,47
1468692,47
1469316,41
1469948,39
1470580,30
1471200,35
1471828,40
1472456,39
1473080,17
1473708,10
1474328,25
1474956,44
1475580,28
1476208,29
1476836,34
1477460,36
1478088,36
1478716,20
1479336,25
1479964,23
1480588,16
1481216,10
1481848,12
1482464,16
1483092,23
1483716,31
1484340,33
1484968,37
1485588,39
1486220,46
1486840,58
1487464,53
1488092,58
1488712,49
1489344,27
1489972,10
1490592,14
1491220,24
1491844,19
1492472,18
1493100,35
1493720,36
1494348,36
1494976,36
1495600,24
1496228,26
1496848,19
1497476,15
1498100,18
1498724,19
1499352,35
1499976,45
1500608,24
1501236,44
1501856,57
1502484,63
1503108,57
1503740,43
1504372,36
1504992,35
1505620,33
1506244,18
1506868,10
1507496,16
1508120,35
1508748,26
1509372,30
1510000,33
1510632,35
1511256,35
1511884,30
1512516,12
1513136,15
1513764,23
1514388,34
1515016,25
1515644,15
1516264,22
1516892,25
1517516,21
1518140,41
1518772,50
1519392,44
1520020,39
1520652,18
1521272,19
1521900,31
1522524,34
1523156,27
1523788,15
1524408,26
1525036,35
1525660,20
1526284,32
1526916,34
1527536,35
1528164,33
1528788,15
1529416,13
1530044,11
1530664,14
1531292,24
1531924,26
1532544,29
1533176,30
1533800,31
1534428,35
1535060,54
1535680,52
1536312,43
1536932,33
1537556,23
1538184,34
1538808,42
1539436,29
1540060,12
1540680,11
1541312,27
1541928,26
1542556,26
1543188,34
1543808,35
1544436,35
1545060,35
1545688,18
1546320,14
1546936,15
1547564,13
1548188,21
1548812,26
1549440,18
1550056,14
1550688,14
1551312,51
1551936,53
1552568,42
1553184,40
1553812,37
1554444,40
1555064,47
1555696,29
1556320,10
1556948,11
1557576,18
1558200,30
1558828,23
1559452,29
1560076,33
1560708,36
1561328,37
1561956,25
1562580,21
1563204,18
1563832,13
1564448,12
1565080,18
1565708,22
1566328,19
1566956,15
1567580,30
1568212,45
1568840,48
1569456,39
1570088,37
1570712,34
1571336,40
1571964,41
1572584,35
1573212,18
1573836,11
1574460,25
1575092,19
1575712,14
1576340,29
1576972,34
1577592,37
1578220,36
1578844,31
1579476,29
1580108,24
1580728,19
1581356,15
1581984,13
1582608,15
1583236,15
1583856,15
1584488,39
1585112,44
1585736,47
1586364,38
1586984,29
1587616,41
1588244,56
1588864,54
1589492,19
1590116,17
1590748,21
1591376,24
1592000,19
1592628,32
1593256,34
1593880,35
1594508,35
1595128,35
1595760,21
1596384,26
1597008,27
1597640,19
1598256,26
1598884,30
1599516,26
1600136,17
1600764,15
1601384,39
1602016,40
1602644,41
1603260,49
1603888,57
1604512,46
1605136,29
1605764,24
1606384,15
1607012,11
1607636,12
1608260,25
1608888,20
1609504,30
1610136,33
1610764,34
1611384,34
1612012,20
1612636,15
1613268,13
1613896,11
1614512,11
1615144,16
1615768,23
1616388,17
1617020,14
1617640,33
1618268,37
1618892,50
1619516,55
1620144,39
1620760,11
1621388,16
1622012,25
1622640,21
1623268,22
1623892,16
1624520,19
1625152,25
1625768,17
1626396,33
1627020,36
1627652,35
1628280,35
1628896,14
1629528,13
1630152,11
1630776,10
1631404,14
1632024,19
1632652,34
1633276,42
1633904,24
1634532,40
1635156,46
1635788,43
1636420,41
1637040,44
1637668,43
1638296,43
1638920,33
1639548,14
1640164,10
1640792,10
1641416,17
1642036,23
1642664,32
1643284,32
1643912,34
1644536,37
1645156,32
1645784,18
1646408,19
1647036,14
1647664,11
1648280,15
1648908,21
1649532,18
1650160,16
1650788,14
1651408,35
1652036,35
1652656,38
1653276,45
1653908,49
1654528,39
1655156,35
1655776,39
1656400,27
1657028,17
1657648,11
1658276,21
1658904,23
1659520,27
1660148,34
1660772,34
1661400,37
1662028,29
1662648,25
1663276,12
1663900,10
1664524,11
1665152,24
1665768,29
1666396,13
1667016,12
1667640,37
1668268,46
1668884,41
1669516,38
1670136,36
1670760,25
1671388,35
1672012,37
1672640,30
1673268,20
1673888,13
1674516,21
1675140,29
1675768,17
1676396,34
1677016,33
1677644,35
1678268,35
1678888,19
1679520,24
1680136,21
1680764,17
1681384,23
1682004,17
1682632,22
1683256,27
1683880,20
1684512,35
1685128,45
1685756,47
1686380,43
1687008,41
1687636,38
1688256,44
1688884,39
1689508,24
1690132,15
1690760,11
1691376,25
1692004,29
1692624,33
1693248,34
1693876,34
1694496,36
1695124,33
1695752,30
1696372,26
1697000,13
1697620,10
1698248,15
1698880,22
1699496,29
1700124,31
1700748,21
1701376,42
1702004,50
1702624,47
1703252,44
1703872,31
1704496,30
1705124,27
1705744,19
1706372,11
1706996,10
1707616,13
1708248,23
1708868,13
1709500,31
1710128,31
1710744,36
1711376,35
1712000,17
1712628,10
1713256,11
1713872,12
1714504,13
1715128,26
1715752,37
1716380,39
1717000,35
1717628,35
1718252,49
1718876,48
1719504,38
1720128,38
1720756,33
1721388,40
1722008,33
1722636,11
1723260,19
1723888,21
1724516,11
1725136,11
1725764,19
1726388,34
1727012,36
1727640,38
1728264,36
1728892,25
1729516,30
1730136,18
1730768,13
1731384,20
1732012,19
1732640,25
1733256,27
1733888,21
1734512,36
1735140,39
1735768,42
1736392,47
1737020,39
1737644,25
1738268,26
1738896,26
1739512,16
1740144,11
1740768,10
1741392,13
1742020,10
1742640,33
1743268,34
1743896,34
1744520,37
1745148,37
1745772,25
1746400,21
1747028,14
1747648,12
1748276,11
1748900,15
1749524,21
1750152,31
1750772,19
1751400,37
1752024,44
1752644,47
1753276,45
1753896,41
1754524,39
1755156,44
1755776,41
1756404,20
1757028,14
1757660,10
1758288,13
1758908,22
1759536,32
1760160,36
1760784,36
1761412,36
1762032,17
1762660,13
1763280,17
1763904,12
1764532,12
1765152,24
1765780,37
1766408,32
1767028,25
1767660,32
1768284,43
1768912,44
1769540,41
1770160,40
1770788,34
1771412,32
1772040,27
1772668,15
1773288,11
1773916,11
1774540,19
1775164,20
1775792,22
1776416,37
1777044,36
1777676,34
1778296,36
1778924,13
1779548,11
1780180,10
1780808,16
1781424,26
1782052,24
1782676,33
1783300,33
1783932,27
1784552,36
1785180,43
1785804,52
1786428,47
1787060,34
1787680,43
1788308,54
1788940,40
1789560,13
1790188,11
1790816,11
1791444,22
1792076,19
1792692,27
1793324,31
1793944,38
1794568,35
1795196,26
1795816,12
1796444,11
1797068,13
1797692,15
1798320,26
1798944,25
1799572,21
1800204,20
1800824,24
1801452,43
1802076,43
1802704,38
1803336,38
1803952,31
1804580,42
1805204,47
1805828,45
1806456,26
1807080,19
1807708,14
1808332,30
1808952,28
1809584,30
1810200,34
1810828,36
1811452,36
1812080,17
1812708,15
1813332,11
1813960,11
1814588,14
1815208,21
1815836,30
1816460,33
1817088,27
1817720,35
1818336,45
1818964,45
1819588,47
1820212,46
1820840,43
1821464,49
1822092,48
1822716,26
1823344,11
1823972,14
1824596,36
1825228,30
1825856,27
1826472,33
1827104,35
1827728,37
1828356,37
1828988,14
1829608,11
1830236,10
1830860,10
1831484,13
1832112,23
1832736,32
1833364,31
1833996,16
1834616,41
1835244,59
1835868,54
1836500,39
1837128,18
1837752,37
1838384,52
1839008,40
1839632,11
1840260,11
1840880,12
1841508,12
1842132,13
1842756,32
1843388,30
1844004,35
1844632,33
1845264,23
1845880,18
1846508,14
1847132,11
1847760,13
1848388,34
1849008,47
1849636,30
1850256,14
1850884,37
1851516,49
1852136,42
1852764,40
1853388,42
1854012,43
1854644,37
1855264,31
1855892,17
1856524,10
1857144,11
1857772,21
1858396,21
1859024,14
1859656,32
1860272,36
1860900,36
1861524,35
1862148,15
1862780,12
1863400,12
1864028,12
1864652,15
1865276,15
1865904,23
1866524,22
1867152,21
1867780,34
1868400,43
1869028,44
1869652,43
1870280,41
1870912,38
1871528,35
1872160,31
1872784,15
1873412,11
1874044,9
1874612,26
1875244,27
1875868,27
1876492,32
1877120,34
1877744,37
1878372,38
1879000,16
1879624,12
1880252,12
1880872,14
1881500,12
1882132,22
1882752,33
1883384,31
1884008,18
1884636,35
1885268,48
1885888,57
1886516,47
1887140,26
1887764,23
1888396,26
1889016,29
1889644,13
1890268,10
1890892,10
1891520,13
1892140,12
1892768,31
1893396,35
1894016,36
1894648,35
1895268,19
1895900,13
1896528,19
1897144,16
1897776,11
1898400,12
1899020,25
1899652,27
1900272,17
1900900,31
1901524,39
1902148,42
1902780,38
1903400,36
1904028,32
1904660,54
1905280,48
1905908,31
1906532,16
1907164,11
1907796,28
1908416,31
1909044,16
1909668,31
1910292,36
1910924,37
1911544,37
1912176,13
1912800,11
1913424,11
1914056,12
1914672,19
1915304,19
1915932,21
1916552,21
1917184,17
1917808,37
1918440,48
1919068,45
1919688,44
1920320,37
1920940,29
1921564,33
1922192,34
1922816,22
1923444,21
1924068,21
1924692,10
1925320,18
1925944,33
1926572,35
1927200,36
1927816,38
1928448,35
1929068,11
1929700,10
1930328,14
1930944,22
1931572,32
1932196,25
1932820,25
1933448,26
1934072,17
1934700,40
1935324,51
1935952,50
1936580,48
1937200,41
1937828,39
1938460,34
1939080,29
1939708,17
1940332,10
1940964,24
1941592,36
1942216,16
1942848,35
1943472,38
1944096,36
1944724,48
1945344,45
1945976,34
1946596,11
1947220,23
1947848,18
1948472,12
1949100,25
1949732,28
1950352,29
1950984,34
1951608,40
1952236,47
1952864,44
1953488,39
1954116,35
1954740,41
1955364,34
1955992,24
1956616,14
1957244,12
1957868,21
1958492,28
1959124,23
1959748,35
1960376,35
1961008,34
1961624,36
1962252,21
1962876,17
1963508,13
1964140,10
1964760,15
1965392,17
1966016,27
1966640,25
1967268,18
1967888,34
1968516,47
1969140,49
1969764,41
1970392,33
1971016,28
1971644,35
1972276,34
1972896,14
1973524,10
1974148,12
1974776,14
1975408,19
1976024,33
1976652,34
1977276,37
1977900,37
1978528,24
1979152,19
1979780,17
1980404,13
1981028,13
1981660,20
1982284,24
1982912,19
1983540,14
1984160,29
1984788,45
1985412,48
1986040,41
1986672,38
1987288,28
1987916,39
1988540,34
1989164,23
1989792,13
1990408,10
1991036,19
1991660,24
1992284,18
1992916,31
1993540,34
1994168,35
1994800,35
1995416,23
1996048,22
1996672,11
1997304,13
1997932,10
1998552,17
1999180,33
1999808,28
2000432,21
2001060,35
2001680,46
2002308,45
2002932,48
2003556,43
2004184,40
2004808,32
2005436,19
2006064,10
2006688,14
2007316,14
2007940,13
2008572,13
2009200,28
2009816,34
2010448,40
2011068,38
2011692,35
2012324,14
2012944,17
2013572,12
2014196,10
2014820,15
2015452,26
2016076,41
2016704,36
2017332,14
2017952,46
2018580,59
2019204,56
2019832,45
2020464,31
2021080,29
2021708,23
2022332,23
2022960,13
2023588,10
2024208,11
2024836,19
2025460,18
2026084,35
2026716,35
2027340,38
2027968,37
2028600,23
2029216,20
2029844,14
2030468,11
2031100,10
2031728,14
2032352,21
2032980,19
2033604,23
2034228,33
2034860,38
2035480,44
2036108,43
2036732,42
2037360,37
2037992,38
2038616,36
2039244,22
2039876,10
2040496,10
2041124,18
2041748,13
2042376,15
2043004,30
2043624,37
2044252,37
2044880,35
2045504,12
2046132,10
2046752,11
2047384,11
2048016,10
2048628,13
2049256,27
2049876,25
2050504,30
2051132,32
2051752,39
2052380,38
2053000,45
2053632,49
2054260,50
2054880,47
2055508,29
2056128,12
2056752,19
2057380,18
2058000,25
2058628,16
2059248,33
2059868,34
2060500,37
2061120,35
2061748,36
2062380,28
2063000,33
2063628,18
2064252,13
2064880,11
2065508,16
2066128,32
2066756,32
2067380,16
2068000,38
2068632,38
2069248,38
2069876,40
2070500,43
2071120,53
2071748,51
2072368,37
2072996,11
2073624,11
2074240,19
2074868,21
2075492,13
2076120,30
2076748,34
2077368,35
2077996,34
2078620,17
2079244,14
2079872,17
2080496,21
2081124,18
2081744,29
2082368,36
2082996,30
2083616,21
2084244,33
2084872,45
2085488,49
2086116,49
2086740,51
2087368,41
2087996,46
2088616,45
2089244,34
2089868,18
2090496,11
2091124,24
2091744,27
2092372,17
2092996,34
2093616,35
2094248,36
2094864,35
2095492,17
2096116,24
2096740,20
2097368,13
2097988,15
2098620,18
2099248,23
2099864,21
2100492,16
2101112,35
2101744,42
2102372,44
2102992,40
2103620,28
2104244,27
2104868,51
2105496,59
2106116,31
2106744,12
2107368,15
2107992,25
2108620,17
2109240,33
2109868,33
2110500,34
2111120,37
2111748,39
2112372,24
2113004,16
2113632,10
2114248,11
2114876,17
2115500,25
2116124,30
2116752,28
2117372,16
2118000,47
2118624,57
2119248,54
2119876,42
2120496,24
2121124,29
2121752,34
2122376,32
2123004,13
2123628,10
2124260,16
2124888,30
2125504,34
2126132,32
2126756,31
2127380,37
2128008,36
2128632,17
2129260,10
2129884,16
2130508,23
2131136,19
2131756,22
2132384,33
2133012,32
2133632,25
2134260,35
2134884,51
2135512,49
2136144,43
2136760,38
2137388,21
2138012,28
2138636,35
2139264,30
2139888,18
2140516,11
2141140,19
2141764,21
2142392,17
2143012,34
2143640,37
2144272,37
2144888,35
2145520,13
2146140,10
2146772,14
2147400,10
2148020,25
2148648,33
2149272,48
2149896,41
2150524,20
2151144,37
2151772,47
2152396,45
2153020,46
2153648,52
2154264,49
2154892,46
2155516,32
2156144,12
2156772,16
2157396,15
2158028,25
2158656,23
2159280,32
2159908,35
2160532,35
2161156,35
2161788,30
2162408,15
2163036,11
2163660,12
2164284,14
2164912,20
2165528,29
2166160,29
2166788,18
2167408,22
2168036,49
2168660,47
2169288,42
2169920,40
2170536,32
2171168,33
2171788,28
2172420,24
2173048,10
2173672,11
2174300,11
2174924,12
2175548,14
2176180,30
2176796,33
2177428,34
2178056,36
2178672,15
2179300,10
2179924,13
2180552,11
2181180,27
2181800,32
2182428,25
2183052,16
2183680,14
2184308,39
2184928,39
2185556,37
2186184,37
2186804,39
2187436,36
2188056,39
2188684,36
2189308,28
2189936,25
2190564,22
2191188,17
2191820,21
2192452,24
2193072,34
2193700,37
2194324,38
2194952,39
2195580,11
2196200,11
2196828,10
2197452,11
2198076,29
2198708,28
2199328,27
2199956,19
2200588,13
2201208,38
2201836,39
2202460,40
2203092,42
2203720,36
2204340,26
2204968,33
2205592,36
2206216,21
2206844,13
2207464,11
2208092,21
2208716,19
2209340,29
2209968,32
2210592,37
2211220,35
2211852,24
2212472,11
2213100,10
2213724,17
2214356,15
2214988,22
2215608,31
2216236,26
2216860,28
2217484,31
2218116,40
2218736,48
2219364,45
2219988,44
2220612,37
2221244,38
2221864,41
2222492,35
2223124,14
2223744,11
2224376,27
2224996,33
2225628,20
2226256,33
2226880,35
2227508,35
2228132,35
2228756,16
2229388,14
2230008,12
2230636,11
2231264,15
2231888,24
2232516,41
2233136,47
2233764,17
2234396,41
2235016,53
2235648,46
2236272,40
2236900,31
2237532,34
2238152,43
2238784,37
2239408,24
2240032,15
2240660,15
2241280,12
2241908,14
2242532,31
2243156,36
2243784,35
2244408,38
2245036,35
2245668,13
2246288,12
2246916,11
2247540,11
2248172,17
2248800,16
2249424,21
2250052,23
2250676,20
2251304,34
2251932,42
2252552,52
2253184,51
2253804,38
2254428,25
2255056,17
2255676,15
2256304,11
2256932,10
2257552,11
2258180,13
2258804,11
2259432,28
2260064,33
2260680,38
2261308,34
2261932,18
2262556,11
2263188,12
2263808,17
2264436,23
2265060,24
2265684,25
2266312,20
2266936,15
2267564,33
2268196,42
2268816,43
2269444,42
2270068,42
2270696,32
2271328,35
2271952,31
2272584,22
2273208,13
2273832,10
2274460,20
2275080,23
2275708,20
2276332,32
2276956,33
2277588,37
2278212,35
2278844,16
2279472,13
2280096,13
2280724,10
2281348,15
2281980,19
2282608,25
2283228,23
2283856,13
2284480,39
2285104,45
2285732,43
2286352,44
2286984,48
2287608,46
2288232,42
2288860,36
2289484,13
2290112,16
2290744,27
2291364,34
2291992,26
2292616,32
2293248,30
2293876,35
2294496,37
2295124,27
2295748,16
2296372,15
2297000,11
2297616,21
2298248,35
2298872,17
2299496,15
2300124,29
2300748,29
2301380,37
2302012,58
2302632,65
2303264,55
2303888,46
2304520,41
2305148,35
2305768,26
2306396,11
2307020,10
2307644,21
2308272,21
2308888,14
2309520,35
2310140,32
2310768,35
2311396,35
2312020,23
2312648,22
2313280,18
2313896,13
2314524,15
2315148,29
2315780,34
2316408,24
2317032,19
2317660,35
2318284,47
2318908,53
2319540,46
2320160,33
2320788,23
2321416,23
2322040,29
2322668,25
2323292,16
2323920,11
2324552,26
2325168,24
2325796,28
2326420,33
2327044,35
2327676,35
2328296,37
2328924,17
2329548,14
2330176,13
2330804,10
2331424,18
2332052,21
2332684,12
2333304,17
2333932,30
2334560,29
2335188,39
2335820,43
2336440,47
2337068,37
2337692,35
2338316,36
2338944,32
2339568,17
2340196,11
2340820,11
2341444,15
2342076,15
2342696,31
2343324,35
2343956,36
2344576,34
2345204,20
2345828,10
2346460,11
2347088,16
2347712,17
2348340,25
2348964,27
2349588,24
2350220,20
2350840,33
2351468,46
2352096,48
2352720,41
2353348,42
2353968,36
2354600,31
2355228,24
2355848,16
2356476,10
2357100,11
2357732,19
2358360,14
2358980,18
2359608,31
2360232,36
2360860,35
2361488,37
2362108,11
2362736,16
2363360,23
2363984,17
2364616,17
2365232,28
2365864,39
2366492,28
2367112,13
2367744,43
2368368,53
2368996,51
2369628,50
2370248,45
2370876,35
2371500,32
2372128,33
2372756,18
2373376,13
2374004,9
2374580,22
2375208,22
2375836,30
2376456,34
2377084,34
2377708,36
2378332,34
2378964,11
2379588,11
2380216,12
2380848,18
2381464,32
2382092,33
2382716,24
2383348,13
2383980,14
2384600,41
2385228,43
2385852,43
2386480,37
2387108,33
2387728,30
2388356,28
2388984,21
2389608,11
2390236,11
2390860,11
2391492,11
2392124,11
2392744,32
2393376,34
2394000,37
2394628,35
2395260,20
2395880,16
2396512,13
2397136,15
2397760,24
2398388,25
2399008,27
2399640,21
2400272,19
2400888,36
2401516,47
2402140,47
2402768,47
2403400,41
2404016,27
2404648,31
2405272,28
2405896,21
2406528,11
2407144,11
2407772,21
2408396,19
2409020,19
2409648,34
2410268,36
2410896,37
2411524,36
2412144,11
2412772,17
2413400,25
2414028,26
2414660,23
2415280,23
2415908,29
2416536,25
2417160,16
2417788,39
2418408,56
2419036,53
2419660,50
2420284,53
2420916,47
2421536,35
2422168,31
2422796,18
2423416,11
2424044,11
2424668,21
2425300,20
2425928,30
2426552,33
2427184,36
2427808,34
2428432,31
2429060,16
2429680,12
2430308,13
2430936,16
2431560,26
2432192,21
2432808,13
2433436,15
2434068,27
2434688,38
2435316,41
2435940,47
2436572,59
2437204,48
2437824,37
2438452,26
2439076,17
2439700,10
2440332,10
2440952,25
2441580,32
2442208,21
2442832,34
2443460,34
2444080,37
2444708,36
2445340,13
2445960,11
2446588,12
2447216,17
2447844,21
2448476,18
2449096,17
2449724,17
2450352,15
2450976,36
2451608,47
2452224,54
2452856,49
2453480,37
2454104,45
2454736,49
2455352,27
2455984,11
2456616,17
2457236,28
2457864,36
2458488,31
2459116,29
2459744,29
2460368,35
2460996,37
2461620,42
2462240,31
2462872,11
2463488,15
2464116,10
2464740,22
2465364,18
2465992,22
2466608,24
2467240,16
2467868,42
2468488,47
2469116,50
2469740,46
2470368,27
2471000,22
2471616,29
2472248,33
2472872,18
2473496,13
2474124,10
2474744,22
2475372,19
2475996,29
2476624,31
2477252,36
2477872,33
2478504,21
2479132,16
2479752,17
2480384,13
2481004,11
2481636,19
2482264,31
2482880,29
2483512,22
2484136,33
2484760,46
2485388,48
2486008,55
2486636,47
2487260,31
2487884,32
2488516,35
2489136,33
2489764,13
2490392,16
2491016,33
2491644,29
2492268,15
2492900,35
2493528,36
2494152,34
2494784,38
2495408,16
2496032,11
2496660,10
2497280,16
2497908,29
2498532,25
2499156,31
2499788,38
2500408,29
2501036,33
2501668,48
2502288,51
2502920,46
2503540,30
2504172,29
2504800,52
2505424,56
2506052,33
2506680,15
2507304,15
2507932,30
2508552,23
2509184,29
2509808,29
2510432,34
2511060,37
2511684,39
2512316,20
2512944,14
2513568,11
2514200,11
2514824,13
2515452,23
2516084,32
2516704,21
2517332,18
2517960,37
2518584,41
2519216,39
2519832,37
2520464,19
2521084,28
2521712,32
2522340,29
2522964,14
2523596,12
2524228,10
2524848,11
2525476,16
2526100,33
2526728,33
2527356,34
2527976,37
2528608,26
2529232,16
2529856,10
2530484,10
2531104,11
2531736,18
2532364,29
2532984,27
2533616,17
2534240,40
2534872,45
2535500,46
2536120,46
2536748,36
2537376,28
2538000,30
2538632,30
2539248,19
2539880,12
2540504,11
2541128,18
2541756,18
2542376,23
2543008,35
2543636,34
2544256,37
2544888,35
2545508,15
2546140,17
2546772,20
2547392,17
2548020,15
2548644,13
2549272,23
2549900,34
2550520,30
2551152,33
2551776,41
2552400,58
2553032,57
2553648,53
2554280,44
2554912,39
2555528,28
2556160,12
2556784,15
2557416,14
2558048,15
2558668,11
2559300,31
2559924,35
2560552,37
2561180,36
2561800,23
2562424,14
2563048,13
2563668,11
2564300,11
2564920,18
2565548,28
2566176,25
2566792,18
2567420,29
2568044,41
2568672,40
2569300,40
2569920,45
2570548,42
2571172,46
2571792,51
2572424,47
2573040,23
2573668,11
2574292,27
2574916,47
2575544,32
2576168,32
2576796,35
2577424,35
2578044,37
2578672,15
2579296,20
2579924,25
2580552,16
2581168,11
2581800,19
2582420,37
2583044,37
2583672,20
2584296,37
2584924,45
2585548,46
2586172,43
2586800,40
2587424,37
2588052,36
2588680,34
2589304,23
2589932,11
2590556,10
2591188,23
2591816,21
2592440,31
2593068,34
2593692,35
2594316,34
2594944,35
2595568,11
2596196,11
2596820,16
2597444,17
2598072,20
2598696,28
2599324,31
2599956,24
2600576,12
2601204,41
2601828,48
2602456,43
2603088,45
2603704,33
2604332,11
2604956,11
2605580,43
2606212,44
2606832,22
2607460,12
2608084,17
2608708,20
2609336,28
2609960,34
2610588,36
2611220,36
2611840,20
2612468,12
2613092,13
2613720,11
2614352,10
2614972,19
2615600,33
2616224,31
2616848,26
2617476,33
2618096,47
2618724,48
2619348,42
2619972,46
2620604,40
2621224,39
2621856,25
2622484,11
2623104,11
2623732,12
2624356,29
2624984,32
2625612,17
2626228,35
2626860,35
2627480,40
2628104,37
2628732,12
2629352,22
2629980,40
2630604,26
2631224,12
2631856,11
2632472,19
2633100,20
2633724,20
2634352,35
2634980,47
2635604,49
2636232,42
2636860,27
2637476,24
2638108,35
2638728,34
2639360,19
2639988,10
2640608,11
2641236,19
2641860,17
2642484,31
2643112,34
2643728,37
2644356,37
2644980,34
2645600,16
2646232,14
2646852,12
2647484,10
2648112,13
2648728,20
2649360,25
2649980,30
2650612,20
2651240,38
2651856,41
2652488,43
2653108,40
2653732,29
2654364,30
2654984,37
2655612,33
2656236,19
2656860,12
2657488,16
2658112,25
2658740,17
2659368,31
2659992,36
2660620,34
2661244,37
2661876,16
2662504,10
2663120,15
2663748,20
2664368,21
2664992,25
2665620,28
2666236,33
2666868,28
2667488,34
2668112,44
2668740,48
2669360,42
2669988,40
2670616,38
2671240,48
2671868,37
2672492,19
2673120,10
2673752,10
2674368,13
2674996,13
2675620,16
2676244,31
2676872,37
2677488,34
2678116,34
2678740,16
2679364,18
2679992,11
2680612,13
2681240,27
2681868,31
2682488,28
2683116,20
2683740,17
2684368,35
2685000,49
2685616,54
2686244,53
2686868,50
2687492,37
2688124,26
2688740,22
2689368,12
2689992,10
2690616,10
2691244,20
2691860,18
2692492,31
2693112,35
2693736,36
2694368,35
2694992,35
2695620,19
2696252,23
2696872,21
2697500,12
2698124,15
2698752,15
2699384,15
2700000,22
2700628,19
2701252,39
2701876,39
2702508,42
2703128,42
2703756,32
2704380,32
2705008,34
2705636,35
2706260,13
2706888,17
2707516,30
2708136,29
2708764,14
2709388,40
2710016,34
2710648,36
2711264,38
2711892,24
2712516,21
2713140,17
2713772,10
2714392,10
2715020,13
2715644,26
2716272,25
2716900,26
2717524,32
2718152,35
2718784,42
2719400,44
2720032,43
2720652,40
2721284,36
2721912,35
2722528,23
2723156,17
2723780,38
2724404,30
2725032,19
2725656,49
2726284,44
2726908,36
2727536,36
2728164,37
2728788,21
2729416,15
2730044,11
2730664,13
2731292,21
2731916,21
2732548,26
2733176,31
2733792,34
2734424,34
2735048,40
2735672,55
2736300,55
2736920,53
2737548,41
2738172,38
2738800,33
2739428,25
2740052,11
2740680,26
2741312,31
2741928,21
2742556,29
2743180,30
2743812,37
2744440,36
2745064,27
2745692,17
2746316,15
2746936,12
2747568,14
2748184,17
2748812,19
2749436,21
2750064,24
2750692,29
2751320,39
2751948,44
2752580,42
2753200,44
2753828,41
2754452,41
2755080,37
2755708,24
2756328,11
2756956,11
2757580,19
2758204,19
2758836,12
2759456,35
2760088,32
2760716,32
2761336,36
2761964,27
2762588,21
2763220,12
2763848,10
2764472,14
2765104,19
2765724,23
2766348,21
2766980,20
2767600,37
2768228,45
2768852,50
2769476,42
2770104,34
2770720,31
2771352,34
2771980,32
2772600,18
2773228,12
2773852,10
2774484,17
2775112,12
2775732,31
2776360,32
2776984,33
2777608,37
2778236,36
2778856,17
2779484,15
2780112,14
2780736,11
2781364,15
2781984,14
2782616,21
2783244,24
2783864,21
2784496,35
2785120,43
2785748,43
2786380,36
2787000,29
2787628,29
2788252,26
2788876,14
2789508,10
2790128,16
2790756,15
2791380,10
2792004,11
2792632,33
2793256,31
2793884,34
2794516,32
2795136,19
2795768,10
2796388,11
2797020,12
2797648,18
2798272,27
2798900,32
2799524,32
2800148,25
2800780,34
2801400,49
2802028,47
2802652,43
2803276,39
2803904,32
2804528,43
2805156,41
2805788,32
2806408,17
2807036,10
2807660,41
2808292,60
2808920,43
2809536,31
2810168,40
2810792,37
2811416,35
2812044,11
2812664,11
2813292,11
2813920,13
2814544,13
2815172,18
2815792,28
2816424,32
2817052,24
2817672,31
2818300,36
2818924,39
2819552,41
2820180,41
2820800,37
2821428,42
2822052,34
2822676,22
2823304,19
2823924,13
2824552,17
2825176,23
2825800,33
2826428,34
2827048,36
2827676,33
2828304,34
2828928,17
2829556,12
2830180,10
2830808,13
2831440,24
2832056,24
2832684,26
2833308,22
2833932,16
2834560,39
2835180,42
2835808,46
2836432,44
2837056,32
2837684,37
2838304,44
2838932,37
2839564,14
2840184,11
2840812,23
2841436,32
2842068,22
2842696,31
2843320,37
2843948,37
2844572,36
2845196,22
2845828,20
2846448,17
2847076,15
2847700,15
2848324,18
2848956,24
2849576,21
2850204,15
2850836,38
2851456,41
2852084,36
2852708,41
2853340,41
2853968,37
2854592,43
2855220,48
2855844,34
2856468,17
2857100,12
2857720,41
2858348,47
2858972,27
2859596,33
2860228,34
2860848,36
2861476,36
2862108,10
2862728,13
2863356,17
2863984,13
2864616,20
2865244,23
2865864,26
2866496,24
2867120,18
2867744,35
2868372,39
2868992,45
2869620,44
2870244,38
2870868,37
2871496,38
2872116,30
2872744,15
2873372,11
2873992,11
2874620,16
2875244,21
2875876,33
2876504,35
2877124,33
2877752,37
2878376,27
2879000,23
2879628,18
2880248,15
2880876,12
2881496,16
2882120,16
2882748,14
2883368,24
2883996,31
2884624,39
2885240,44
2885868,41
2886492,39
2887124,30
2887752,33
2888368,36
2888996,26
2889620,12
2890244,10
2890872,19
2891496,23
2892124,15
2892748,32
2893372,36
2894004,35
2894624,35
2895252,17
2895884,12
2896504,11
2897132,10
2897756,13
2898388,21
2899016,23
2899632,21
2900264,20
2900888,34
2901508,39
2902140,46
2902760,54
2903388,50
2904012,31
2904636,30
2905268,28
2905888,19
2906516,10
2907148,14
2907768,19
2908396,14
2909020,29
2909652,33
2910280,35
2910900,34
2911528,37
2912152,15
2912776,20
2913404,23
2914024,27
2914652,49
2915276,42
2915900,23
2916532,22
2917152,16
2917780,48
2918412,62
2919032,65
2919660,57
2920284,48
2920912,36
2921544,41
2922160,31
2922788,11
2923412,13
2924040,15
2924668,28
2925288,23
2925916,30
2926540,32
2927164,37
2927796,34
2928416,21
2929044,19
2929676,26
2930296,29
2930924,23
2931548,19
2932180,21
2932808,18
2933432,14
2934060,31
2934688,43
2935308,40
2935940,44
2936560,43
2937188,37
2937816,47
2938440,45
2939068,26
2939688,11
2940316,16
2940948,25
2941568,22
2942200,15
2942824,32
2943452,36
2944084,34
2944704,36
2945332,13
2945956,11
2946580,14
2947208,10
2947832,11
2948460,11
2949088,28
2949712,38
2950340,35
2950960,33
2951588,43
2952220,50
2952840,43
2953468,33
2954092,31
2954724,36
2955352,28
2955968,17
2956600,14
2957224,11
2957848,23
2958476,19
2959096,32
2959728,38
2960352,38
2960972,35
2961604,34
2962224,25
2962852,23
2963484,28
2964104,27
2964732,26
2965356,29
2965988,25
2966616,25
2967240,19
2967868,41
2968492,47
2969116,46
2969748,43
2970368,34
2970996,40
2971620,39
2972244,31
2972872,12
2973488,11
2974116,18
2974748,24
2975368,17
2975996,31
2976620,35
2977252,36
2977880,34
2978504,17
2979132,15
2979760,15
2980384,13
2981012,13
2981632,17
2982260,22
2982884,17
2983508,18
2984140,36
2984760,45
2985388,48
2986020,44
2986640,37
2987268,18
2987892,23
2988524,28
2989156,34
2989776,29
2990404,11
2991028,24
2991652,26
2992284,24
2992904,33
2993532,35
2994160,36
2994784,35
2995412,30
2996036,22
2996664,14
2997296,10
2997912,14
2998540,15
2999168,20
2999796,25
3000428,16
3001048,39
3001676,45
3002300,47
3002924,42
3003556,28
3004176,36
3004804,45
3005428,34
3006056,14
3006684,11
3007312,11
3007940,13
3008572,13
3009192,33
3009824,35
3010448,35
3011076,39
3011708,24
3012328,18
3012956,15
3013584,15
3014208,14
3014840,18
3015456,26
3016088,32
3016716,30
3017336,32
3017968,37
3018592,49
3019220,53
3019852,44
3020472,38
3021104,41
3021728,39
3022352,29
3022984,10
3023600,10
3024232,17
3024856,23
3025480,17
3026112,29
3026728,34
3027360,35
3027988,36
3028608,16
3029236,11
3029864,12
3030492,10
3031124,14
3031744,19
3032376,26
3033000,21
3033624,16
3034252,38
3034872,45
3035504,37
3036128,37
3036752,32
3037384,41
3038000,48
3038632,46
3039264,30
3039884,13
3040512,11
3041140,25
3041768,25
3042400,31
3043016,34
3043648,35
3044272,34
3044896,35
3045524,11
3046144,14
3046776,13
3047400,15
3048024,26
3048652,30
3049272,30
3049904,25
3050532,16
3051152,39
3051784,45
3052408,44
3053036,49
3053668,50
3054288,48
3054920,27
3055544,20
3056168,14
3056796,12
3057416,14
3058048,21
3058672,18
3059296,32
3059924,35
3060552,35
3061180,37
3061812,16
3062432,17
3063060,21
3063688,16
3064316,27
3064948,34
3065568,29
3066200,20
3066824,24
3067448,35
3068080,45
3068696,53
3069328,44
3069960,36
3070584,31
3071216,39
3071844,47
3072476,22
3073104,13
3073720,11
3074352,14
3074976,13
3075596,21
3076228,34
3076848,36
3077476,35
3078100,36
3078724,25
3079352,26
3079976,19
3080604,17
3081236,25
3081856,35
3082484,33
3083108,19
3083740,13
3084368,36
3084988,47
3085616,46
3086240,45
3086864,41
3087492,39
3088112,40
3088740,37
3089364,19
3089988,11
3090620,15
3091240,23
3091868,18
3092500,32
3093120,37
3093748,35
3094372,35
3095004,26
3095636,19
3096256,14
3096884,11
3097508,16
3098136,28
3098764,30
3099384,19
3100012,15
3100640,29
3101264,48
3101892,50
3102512,47
3103144,38
3103772,23
3104392,35
3105020,39
3105648,32
3106276,14
3106908,9
3107476,14
3108112,23
3108736,21
3109364,29
3109996,36
3110616,34
3111248,35
3111872,27
3112496,27
3113128,23
3113744,19
3114372,27
3114996,33
3115624,37
3116252,29
3116876,24
3117508,34
3118136,46
3118760,53
3119388,53
3120016,45
3120644,39
3121272,44
3121892,40
3122520,26
3123148,15
3123772,10
3124400,16
3125024,17
3125652,30
3126284,34
3126904,35
3127532,36
3128160,37
3128788,29
3129420,21
3130040,14
3130668,11
3131296,11
3131920,14
3132548,22
3133168,28
3133800,28
3134424,32
3135048,38
3135676,42
3136296,41
3136928,39
3137556,37
3138176,38
3138804,37
3139428,16
3140060,10
3140692,11
3141312,17
3141940,16
3142568,31
3143192,34
3143820,37
3144440,35
3145068,19
3145692,14
3146316,17
3146948,14
3147568,15
3148200,20
3148828,28
3149448,23
3150076,19
3150704,32
3151332,44
3151964,43
3152584,44
3153216,46
3153840,42
3154464,44
3155092,28
3155712,22
3156344,12
3156968,11
3157592,23
3158224,27
3158840,19
3159472,32
3160104,35
3160720,36
3161352,36
3161976,11
3162608,11
3163236,10
3163856,13
3164488,22
3165112,22
3165736,39
3166368,51
3166988,34
3167616,38
3168244,47
3168868,41
3169496,40
3170124,37
3170752,38
3171384,39
3172004,37
3172632,20
3173260,12
3173892,10
3174524,20
3175144,19
3175772,29
3176400,33
3177024,35
3177652,37
3178272,32
3178904,15
3179532,14
3180152,11
3180784,11
3181408,16
3182040,25
3182668,22
3183288,17
3183920,21
3184544,43
3185168,40
3185800,45
3186416,43
3187048,35
3187672,34
3188296,33
3188928,31
3189544,20
3190176,19
3190808,14
3191428,27
3192056,33
3192684,32
3193316,36
3193948,37
3194568,36
3195200,17
3195824,14
3196448,11
3197080,10
3197696,11
3198328,25
3198952,36
3199580,29
3200212,13
3200832,41
3201460,50
3202092,56
3202712,45
3203340,36
3203964,31
3204592,30
3205220,28
3205840,20
3206468,11
3207088,12
3207712,29
3208340,19
3208960,28
3209588,36
3210212,37
3210836,36
3211464,34
3212088,22
3212716,18
3213348,12
3213968,12
3214596,17
3215220,16
3215852,21
3216480,29
3217104,22
3217732,33
3218356,42
3218980,47
3219612,46
3220232,39
3220860,33
3221484,33
3222108,35
3222740,23
3223364,22
3223992,12
3224624,17
3225240,29
3225868,37
3226492,35
3227124,36
3227752,36
3228372,20
3229000,24
3229624,25
3230248,17
3230876,14
3231496,23
3232124,27
3232748,33
3233372,30
3234004,31
3234628,47
3235256,53
3235884,50
3236504,51
3237132,43
3237756,41
3238388,39
3239016,25
3239640,14
3240268,11
3240892,15
3241516,14
3242148,15
3242768,33
3243396,35
3244024,37
3244648,38
3245276,20
3245900,13
3246532,11
3247160,12
3247784,23
3248416,29
3249036,29
3249668,22
3250296,15
3250920,39
3251552,53
3252176,48
3252796,42
3253428,34
3254048,36
3254676,42
3255308,36
3255928,12
3256560,20
3257184,13
3257812,11
3258444,12
3259064,34
3259692,33
3260320,45
3260944,41
3261572,36
3262192,16
3262824,11
3263448,11
3264072,12
3264700,14
3265320,25
3265948,37
3266580,36
3267200,19
3267828,46
3268452,47
3269084,48
3269716,46
3270336,16
3270968,12
3271592,21
3272216,33
3272848,17
3273464,11
3274096,12
3274720,13
3275344,13
3275976,30
3276596,36
3277228,37
3277856,35
3278472,16
3279100,15
3279724,12
3280352,11
3280980,16
3281596,28
3282228,26
3282848,19
3283468,18
3284096,34
3284716,47
3285348,43
3285968,46
3286588,42
3287220,29
3287836,32
3288468,27
3289096,12
3289712,11
3290340,10
3290964,15
3291592,17
3292220,20
3292840,36
3293468,35
3294088,38
3294716,37
3295344,21
3295968,21
3296596,17
3297220,15
3297844,22
3298472,24
3299088,25
3299716,20
3300340,18
3300964,32
3301592,45
3302216,52
3302844,53
3303472,49
3304096,33
3304724,37
3305348,38
3305976,26
3306604,16
3307224,10
3307852,31
3308476,25
3309100,32
3309728,34
3310344,36
3310976,38
3311600,29
3312224,10
3312852,13
3313476,16
3314104,11
3314736,13
3315352,38
3315980,32
3316604,15
3317236,25
3317864,45
3318480,43
3319112,37
3319736,36
3320360,32
3320988,38
3321608,36
3322236,31
3322860,17
3323484,16
3324112,11
3324728,24
3325360,32
3325988,29
3326608,36
3327236,35
3327860,37
3328492,21
3329120,16
3329736,14
3330364,10
3330988,11
3331608,20
3332240,33
3332856,25
3333484,15
3334108,37
3334728,44
3335360,44
3335976,44
3336604,42
3337236,38
3337856,33
3338484,21
3339108,11
3339736,11
3340364,10
3340984,11
3341612,14
3342236,24
3342860,34
3343488,35
3344104,37
3344732,36
3345356,13
3345980,19
3346608,16
3347232,13
3347860,19
3348488,18
3349104,22
3349736,26
3350360,15
3350988,41
3351620,44
3352240,50
3352868,41
3353492,32
3354120,28
3354748,30
3355368,32
3355996,18
3356620,11
3357244,10
3357876,18
3358496,22
3359124,33
3359756,34
3360376,38
3361004,36
3361628,29
3362256,22
3362884,14
3363500,11
3364132,13
3364756,14
3365380,15
3366012,16
3366632,20
3367260,26
3367884,44
3368504,50
3369136,47
3369752,45
3370380,39
3371004,33
3371632,23
3372260,18
3372884,10
3373512,10
3374140,18
3374760,20
3375388,16
3376012,27
3376640,33
3377268,36
3377888,37
3378516,14
3379140,15
3379768,17
3380396,10
3381016,11
3381644,23
3382268,41
3382888,43
3383520,21
3384140,42
3384772,54
3385400,46
3386024,41
3386652,43
3387276,39
3387904,41
3388536,39
3389152,26
3389780,11
3390404,11
3391028,23
3391660,28
3392280,29
3392908,33
3393532,34
3394160,37
3394788,36
3395412,18
3396040,14
3396672,13
3397288,12
3397916,22
3398540,24
3399172,25
3399800,18
3400416,13
3401048,31
3401668,40
3402292,45
3402920,52
3403540,40
3404168,24
3404792,19
3405416,25
3406044,14
3406668,16
3407296,19
3407924,10
3408544,15
3409172,32
3409796,34
3410428,35
3411056,36
3411676,21
3412304,15
3412928,15
3413552,13
3414180,12
3414800,15
3415428,25
3416052,28
3416676,20
3417308,31
3417932,43
3418560,41
3419188,42
3419808,41
3420436,31
3421060,42
3421692,44
3422320,40
3422944,22
3423572,11
3424200,18
3424820,24
3425452,14
3426072,31
3426700,37
3427324,38
3427952,37
3428580,13
3429204,11
3429836,17
3430468,14
3431088,12
3431716,12
3432340,26
3432964,32
3433596,20
3434216,40
3434844,47
3435472,43
3436096,37
3436724,37
3437344,44
3437972,50
3438604,33
3439224,11
3439856,11
3440480,12
3441108,15
3441740,14
3442360,33
3442988,35
3443612,36
3444236,37
3444864,36
3445488,18
3446116,13
3446740,11
3447364,11
3447992,19
3448612,19
3449240,20
3449868,28
3450488,26
3451116,35
3451740,49
3452372,47
3453000,42
3453624,44
3454252,43
3454876,37
3455504,29
3456132,18
3456752,11
3457380,22
3458004,28
3458624,18
3459256,29
3459872,33
3460500,36
3461132,36
3461752,21
3462380,17
3463004,12
3463636,11
3464264,16
3464884,22
3465512,28
3466136,25
3466760,19
3467388,35
3468008,48
3468636,49
3469260,55
3469884,49
3470516,38
3471136,38
3471768,26
3472396,10
3473016,14
3473644,17
3474268,27
3474900,24
3475528,20
3476152,32
3476784,36
3477408,35
3478032,34
3478664,17
3479280,19
3479908,13
3480536,11
3481160,15
3481792,14
3482408,21
3483036,25
3483664,18
3484284,35
3484912,50
3485536,55
3486164,45
3486796,26
3487416,25
3488044,22
3488668,11
3489292,10
3489920,20
3490536,15
3491164,19
3491788,16
3492416,35
3493044,36
3493664,37
3494292,37
3494924,35
3495544,34
3496172,36
3496796,20
3497428,11
3498060,11
3498680,21
3499308,17
3499936,20
3500560,26
3501188,44
3501808,49
3502436,48
3503060,50
3503688,37
3504316,25
3504936,26
3505564,26
3506196,16
3506816,15
3507448,13
3508068,28
3508700,22
3509332,29
3509952,35
3510584,35
3511208,36
3511832,19
3512460,16
3513080,11
3513708,11
3514336,13
3514960,22
3515588,33
3516208,33
3516840,20
3517468,38
3518088,49
3518720,43
3519344,40
3519976,33
3520608,30
3521224,37
3521852,32
3522476,18
3523100,17
3523732,12
3524352,20
3524980,20
3525604,31
3526228,31
3526856,34
3527480,36
3528108,38
3528740,46
3529360,31
3529988,11
3530612,12
3531244,12
3531872,12
3532496,14
3533124,20
3533748,14
3534372,35
3535004,43
3535624,40
3536252,41
3536876,44
3537500,42
3538132,39
3538756,38
3539384,21
3540012,12
3540632,15
3541260,31
3541884,26
3542516,29
3543148,34
3543768,37
3544396,35
3545020,19
3545644,13
3546276,18
3546896,23
3547524,20
3548148,22
3548772,25
3549404,21
3550028,20
3550660,35
3551288,44
3551912,43
3552544,43
3553168,42
3553800,39
3554428,40
3555048,37
3555680,21
3556304,11
3556928,12
3557556,21
3558176,17
3558808,17
3559436,36
3560056,35
3560684,37
3561308,35
3561940,17
3562572,14
3563192,12
3563824,11
3564448,21
3565072,39
3565700,39
3566320,27
3566948,16
3567576,37
3568200,44
3568828,50
3569448,51
3570076,48
3570708,36
3571328,27
3571956,22
3572584,16
3573212,14
3573844,10
3574464,24
3575092,22
3575720,33
3576344,35
3576976,34
3577592,40
3578224,33
3578848,15
3579472,13
3580104,11
3580724,11
3581352,15
3581984,23
3582608,24
3583240,24
3583864,21
3584496,44
3585128,51
3585744,50
3586372,43
3586996,30
3587620,32
3588252,36
3588872,24
3589500,10
3590124,15
3590748,24
3591380,17
3592004,17
3592632,33
3593264,37
3593880,48
3594508,41
3595132,14
3595764,11
3596396,12
3597016,13
3597644,15
3598268,24
3598892,30
3599524,24
3600144,18
3600772,39
3601396,56
3602020,52
3602648,50
3603272,40
3603904,25
3604532,25
3605152,28
3605780,20
3606404,10
3607032,10
3607660,18
3608280,20
3608908,29
3609532,33
3610156,34
3610784,36
3611408,35
3612036,22
3612660,12
3613284,11
3613912,11
3614536,20
3615164,21
3615796,24
3616416,27
3617044,15
3617668,38
3618296,44
3618924,47
3619544,46
3620172,43
3620796,38
3621420,37
3622052,26
3622672,11
3623300,10
3623924,13
3624548,19
3625180,16
3625804,31
3626432,34
3627060,35
3627680,35
3628308,22
3628932,14
3629564,13
3630192,11
3630812,13
3631440,19
3632064,40
3632688,38
3633316,20
3633936,32
3634564,46
3635188,47
3635816,49
3636444,38
3637068,25
3637700,31
3638328,26
3638952,19
3639580,11
3640208,12
3640836,11
3641468,11
3642088,17
3642716,31
3643344,36
3643968,36
3644596,35
3645216,17
3645844,16
3646476,16
3647096,16
3647724,13
3648352,14
3648980,26
3649608,35
3650224,34
3650852,31
3651476,42
3652104,49
3652732,56
3653352,47
3653980,31
3654608,35
3655228,35
3655860,21
3656480,13
3657108,10
3657740,23
3658360,23
3658988,29
3659612,35
3660244,35
3660876,35
3661496,33
3662124,27
3662748,22
3663372,17
3664004,13
3664624,19
3665252,23
3665880,28
3666504,31
3667132,20
3667752,37
3668384,51
3669012,54
3669632,56
3670264,42
3670888,34
3671516,31
3672148,23
3672768,11
3673400,13
3674024,10
3674648,13
3675276,18
3675896,30
3676528,36
3677152,35
3677776,33
3678408,15
3679024,23
3679656,26
3680288,17
3680904,13
3681532,11
3682156,13
3682788,20
3683420,27
3684040,32
3684668,43
3685296,45
3685920,44
3686548,34
3687168,32
3687796,34
3688416,31
3689040,22
3689668,11
3690288,10
3690916,16
3691544,20
3692160,24
3692792,29
3693416,37
3694044,35
3694676,36
3695296,29
3695924,17
3696552,12
3697176,13
3697804,10
3698424,13
3699052,16
3699676,23
3700300,25
3700932,32
3701552,45
3702184,48
3702812,42
3703432,35
3704064,33
3704688,38
3705316,35
3705948,18
3706568,11
3707196,10
3707824,20
3708448,16
3709076,33
3709696,39
3710324,37
3710952,37
3711576,29
3712208,15
3712824,13
3713452,15
3714084,20
3714704,26
3715332,35
3715956,36
3716588,25
3717216,28
3717836,38
3718464,44
3719088,48
3719712,46
3720340,38
3720960,37
3721588,33
3722216,28
3722840,19
3723468,10
3724088,25
3724716,23
3725348,13
3725968,31
3726600,35
3727224,37
3727852,38
3728484,20
3729104,18
3729732,15
3730356,14
3730980,13
3731612,14
3732232,21
3732860,23
3733484,18
3734108,37
3734740,50
3735364,49
3735996,44
3736628,31
3737248,35
3737880,45
3738500,41
3739132,21
3739764,12
3740384,11
3741012,36
3741640,36
3742264,31
3742892,33
3743512,33
3744144,37
3744772,32
3745392,12
3746020,12
3746644,15
3747276,19
3747908,27
3748528,36
3749156,39
3749780,25
3750408,15
3751036,36
3751656,38
3752288,40
3752912,46
3753536,38
3754168,45
3754784,57
3755416,50
3756048,27
3756664,14
3757296,15
3757920,25
3758552,23
3759184,30
3759800,34
3760432,35
3761056,36
3761684,18
3762312,15
3762932,11
3763564,10
3764188,27
3764812,31
3765440,32
3766064,33
3766696,23
3767324,34
3767944,44
3768576,43
3769200,45
3769828,37
3770460,32
3771080,40
3771708,33
3772336,22
3772960,11
3773588,10
3774208,22
3774840,22
3775464,17
3776088,35
3776716,36
3777336,36
3777964,37
3778596,11
3779216,12
3779844,13
3780468,26
3781100,32
3781732,30
3782352,28
3782984,27
3783608,23
3784232,36
3784864,42
3785480,51
3786112,45
3786736,37
3787360,33
3787992,33
3788616,37
3789248,21
3789876,12
3790496,10
3791124,21
3791752,17
3792380,35
3793012,36
3793632,36
3794260,37
3794888,31
3795512,23
3796140,14
3796760,11
3797392,12
3798020,19
3798640,21
3799272,19
3799896,17
3800528,29
3801156,52
3801776,42
3802404,38
3803028,35
3803656,12
3804284,28
3804904,35
3805532,29
3806160,16
3806784,13
3807416,16
3808032,22
3808664,15
3809292,28
3809912,35
3810544,36
3811168,35
3811800,16
3812428,11
3813048,11
3813680,11
3814304,12
3814928,18
3815560,27
3816180,23
3816808,22
3817432,37
3818056,45
3818688,41
3819304,39
3819936,30
3820568,32
3821184,40
3821816,39
3822440,19
3823068,13
3823700,14
3824320,13
3824952,11
3825576,33
3826200,35
3826832,37
3827452,36
3828084,36
3828708,13
3829332,17
3829964,17
3830584,13
3831216,16
3831844,19
3832464,34
3833096,39
3833720,20
3834352,41
3834984,43
3835604,53
3836236,49
3836860,34
3837484,33
3838116,32
3838736,25
3839368,12
3839996,12
3840628,11
3841256,20
3841880,19
3842508,29
3843140,34
3843760,35
3844388,37
3845012,17
3845640,11
3846268,12
3846888,11
3847516,14
3848140,35
3848764,41
3849396,21
3850016,16
3850644,37
3851276,47
3851896,45
3852524,41
3853148,47
3853780,46
3854408,27
3855024,13
3855656,11
3856280,11
3856904,11
3857532,18
3858152,20
3858780,18
3859408,32
3860032,35
3860660,35
3861280,35
3861908,15
3862540,10
3863160,13
3863788,14
3864416,14
3865044,16
3865676,26
3866296,22
3866924,15
3867548,35
3868172,37
3868804,39
3869424,39
3870056,37
3870680,35
3871304,38
3871936,37
3872552,21
3873184,17
3873812,16
3874432,15
3875060,20
3875688,32
3876316,34
3876948,37
3877568,36
3878200,27
3878824,16
3879448,15
3880076,13
3880696,11
3881328,21
3881952,29
3882576,33
3883204,26
3883824,24
3884456,45
3885084,47
3885704,49
3886336,46
3886960,33
3887592,36
3888220,33
3888840,31
3889468,10
3890096,15
3890720,23
3891352,21
3891968,14
3892596,28
3893220,33
3893844,38
3894476,35
3895096,28
3895724,25
3896356,14
3896976,11
3897604,16
3898228,24
3898860,30
3899492,26
3900112,19
3900744,37
3901368,46
3901992,52
3902624,54
3903240,48
3903872,41
3904496,40
3905120,31
3905748,19
3906372,11
3907004,11
3907636,22
3908256,28
3908884,32
3909512,31
3910140,33
3910772,34
3911392,35
3912024,12
3912648,11
3913272,14
3913900,12
3914520,22
3915152,27
3915784,32
3916400,31
3917032,18
3917656,41
3918284,49
3918916,42
3919536,37
3920168,21
3920792,28
3921416,47
3922048,44
3922664,20
3923292,15
3923916,13
3924544,12
3925172,12
3925792,34
3926424,35
3927052,38
3927672,37
3928304,25
3928928,22
3929560,22
3930192,17
3930808,13
3931440,19
3932068,30
3932692,31
3933320,30
3933944,35
3934572,54
3935196,52
3935824,44
3936452,42
3937072,41
3937700,47
3938332,31
3938952,13
3939580,11
3940204,11
3940836,18
3941464,24
3942088,17
3942716,29
3943340,35
3943964,36
3944596,34
3945216,14
3945844,16
3946468,19
3947092,17
3947724,21
3948344,21
3948972,27
3949604,26
3950224,19
3950852,38
3951480,47
3952108,51
3952740,48
3953360,35
3953988,29
3954612,34
3955240,37
3955868,20
3956488,17
3957116,11
3957744,21
3958368,19
3958996,32
3959624,33
3960252,37
3960884,38
3961504,37
3962136,29
3962760,12
3963392,16
3964020,10
3964640,24
3965268,21
3965896,12
3966520,14
3967152,25
3967768,45
3968400,46
3969032,45
3969648,41
3970276,18
3970900,23
3971532,34
3972160,26
3972784,13
3973416,10
3974040,17
3974664,17
3975292,14
3975912,29
3976544,36
3977168,36
3977792,36
3978420,17
3979040,17
3979668,17
3980300,20
3980920,38
3981548,50
3982176,23
3982804,12
3983436,12
3984056,41
3984684,52
3985308,49
3985932,47
3986564,37
3987184,38
3987816,54
3988440,52
3989064,14
3989696,22
3990312,21
3990944,25
3991576,17
3992196,27
3992828,35
3993452,35
3994084,34
3994716,35
3995336,25
3995968,16
3996592,11
3997216,13
3997844,21
3998464,24
3999096,23
3999720,21
4000344,15
4000972,39
4001592,43
4002220,44
4002852,41
4003472,36
4004100,32
4004724,35
4005356,36
4005984,18
4006600,14
4007232,11
4007856,21
4008476,27
4009108,33
4009728,35
4010356,35
4010980,36
4011604,21
4012236,12
4012856,11
4013484,11
4014116,12
4014736,19
4015364,29
4015988,30
4016620,18
4017248,31
4017868,42
4018496,44
4019120,41
4019744,40
4020372,33
4020992,44
4021620,47
4022244,30
4022868,11
4023500,28
4024120,32
4024748,12
4025380,26
4026000,33
4026628,34
4027252,39
4027884,35
4028512,13
4029132,21
4029760,20
4030384,18
4031008,14
4031640,12
4032256,18
4032888,19
4033512,18
4034136,37
4034764,43
4035384,45
4036012,46
4036640,47
4037264,57
4037892,60
4038520,32
4039148,11
4039780,21
4040400,19
4041028,31
4041652,21
4042276,31
4042908,34
4043528,35
4044156,36
4044784,33
4045408,16
4046036,13
4046660,12
4047292,11
4047924,26
4048544,33
4049172,23
4049796,13
4050428,17
4051060,37
4051680,42
4052308,41
4052932,43
4053560,36
4054188,43
4054808,49
4055436,45
4056064,19
4056688,11
4057316,24
4057940,29
4058572,19
4059200,30
4059824,35
4060456,38
4061080,37
4061704,17
4062332,12
4062952,18
4063584,24
4064208,19
4064832,10
4065460,11
4066080,15
4066708,17
4067340,36
4067960,41
4068592,38
4069216,41
4069844,37
4070476,28
4071096,33
4071728,40
4072352,34
4072976,17
4073604,14
4074224,32
4074856,30
4075480,27
4076104,34
4076736,35
4077352,35
4077984,36
4078616,17
4079232,14
4079864,11
4080488,11
4081116,21
4081748,19
4082368,19
4083000,18
4083624,17
4084248,35
4084876,44
4085496,42
4086128,38
4086752,25
4087376,33
4088008,36
4088624,31
4089256,13
4089884,14
4090504,20
4091136,11
4091760,14
4092392,29
4093024,32
4093640,36
4094272,36
4094900,21
4095524,15
4096156,18
4096772,17
4097400,13
4098020,20
4098644,25
4099272,21
4099888,21
4100516,30
4101144,37
4101760,40
4102388,47
4103012,43
4103640,33
4104268,26
4104884,19
4105516,16
4106140,10
4106760,10
4107392,20
4108008,27
4108636,17
4109260,38
4109880,33
4110512,35
4111128,37
4111756,14
4112380,11
4113008,13
4113636,15
4114260,25
4114888,20
4115516,18
4116136,15
4116764,13
4117388,42
4118016,47
4118648,41
4119264,41
4119892,45
4120516,41
4121140,24
4121768,10
4122388,11
4123020,23
4123644,16
4124264,22
4124892,17
4125516,29
4126148,33
4126776,36
4127392,38
4128020,34
4128644,13
4129272,11
4129900,11
4130520,12
4131148,19
4131772,25
4132396,27
4133028,24
4133648,16
4134276,40
4134900,48
4135524,48
4136156,43
4136776,38
4137408,37
4138036,39
4138656,36
4139284,14
4139908,10
4140536,14
4141168,21
4141784,17
4142412,32
4143036,36
4143660,37
4144292,36
4144912,24
4145540,17
4146164,16
4146788,11
4147420,11
4148040,14
4148672,22
4149300,32
4149920,41
4150548,34
4151172,49
4151804,57
4152432,47
4153048,40
4153680,34
4154304,36
4154928,39
4155556,26
4156176,11
4156804,10
4157428,15
4158052,25
4158684,18
4159308,30
4159940,35
4160568,34
4161192,35
4161820,24
4162440,21
4163072,12
4163700,10
4164320,13
4164948,18
4165572,24
4166196,19
4166824,12
4167440,32
4168072,40
4168692,46
4169316,45
4169948,39
4170568,32
4171200,40
4171828,38
4172448,22
4173076,12
4173700,10
4174332,25
4174960,32
4175576,31
4176208,35
4176832,35
4177452,35
4178084,34
4178700,18
4179332,28
4179956,18
4180576,12
4181208,17
4181828,17
4182460,22
4183088,25
4183704,17
4184332,35
4184956,40
4185588,39
4186216,47
4186840,40
4187468,40
4188092,51
4188716,45
4189348,20
4189968,13
4190596,17
4191220,25
4191844,16
4192476,33
4193100,34
4193728,36
4194360,36
4194976,17
4195604,21
4196228,18
4196860,11
4197488,11
4198108,11
4198736,22
4199360,36
4199984,29
4200612,34
4201232,40
4201860,46
4202484,48
4203104,42
4203736,34
4204360,37
4204988,36
4205616,20
4206240,13
4206868,11
4207492,15
4208124,20
4208752,20
4209368,34
4209996,39
4210620,38
4211244,37
4211872,16
4212488,10
4213120,11
4213744,17
4214368,42
4214996,35
4215624,21
4216252,14
4216884,14
4217504,35
4218136,41
4218760,45
4219388,48
4220020,40
4220640,37
4221268,38
4221892,35
4222516,21
4223148,16
4223768,11
4224400,22
4225020,23
4225648,32
4226276,34
4226900,36
4227528,37
4228156,26
4228776,34
4229404,25
4230028,18
4230660,25
4231288,31
4231904,28
4232536,26
4233160,20
4233784,24
4234412,47
4235032,47
4235660,45
4236284,41
4236912,32
4237540,30
4238164,32
4238796,37
4239428,26
4240048,14
4240676,20
4241300,35
4241924,24
4242556,30
4243176,35
4243808,36
4244432,36
4245056,16
4245684,12
4246304,11
4246932,15
4247564,30
4248184,40
4248812,24
4249436,15
4250068,14
4250696,38
4251320,42
4251948,44
4252572,44
4253196,35
4253828,30
4254448,35
4255076,33
4255700,20
4256328,11
4256956,10
4257576,17
4258204,14
4258836,28
4259456,34
4260084,37
4260708,36
4261336,35
4261968,11
4262584,13
4263212,16
4263836,18
4264460,26
4265088,25
4265704,28
4266332,29
4266956,15
4267580,43
4268208,48
4268828,44
4269456,44
4270084,38
4270704,37
4271332,47
4271956,46
4272588,32
4273216,32
4273840,15
4274468,40
4275092,63
4275720,41
4276348,33
4276968,37
4277596,37
4278220,21
4278844,13
4279476,11
4280096,11
4280724,12
4281356,33
4281976,47
4282604,41
4283228,30
4283860,32
4284488,45
4285104,46
4285736,40
4286360,41
4286984,48
4287612,53
4288232,49
4288860,33
4289484,17
4290108,15
4290736,12
4291360,19
4291988,15
4292620,30
4293240,34
4293868,36
4294492,37
4295124,18
4295752,23
4296372,21
4297000,12
4297624,11
4298248,13
4298876,23
4299496,23
4300128,18
4300752,34
4301376,43
4302008,45
4302624,44
4303252,35
4303884,28
4304504,27
4305132,20
4305756,11
4306388,11
4307016,11
4307636,22
4308264,23
4308888,30
4309512,35
4310140,35
4310760,35
4311388,35
4312012,13
4312636,12
4313268,10
4313888,10
4314516,11
4315148,16
4315768,25
4316400,31
4317024,19
4317652,39
4318284,43
4318904,48
4319532,44
4320160,35
4320784,22
4321412,12
4322032,15
4322660,13
4323284,15
4323908,10
4324536,12
4325156,19
4325784,32
4326412,36
4327032,36
4327660,37
4328284,19
4328916,12
4329544,19
4330164,19
4330792,18
4331416,18
4332040,24
4332668,21
4333288,16
4333916,35
4334544,46
4335168,50
4335796,38
4336416,35
4337048,27
4337676,34
4338296,31
4338928,19
4339552,14
4340180,13
4340812,12
4341432,17
4342064,21
4342688,32
4343312,36
4343940,34
4344560,35
4345188,12
4345812,13
4346436,15
4347068,11
4347688,10
4348316,12
4348948,24
4349568,29
4350200,23
4350824,33
4351452,45
4352084,46
4352700,39
4353332,22
4353952,22
4354576,37
4355208,39
4355824,23
4356452,11
4357076,11
4357700,21
4358332,14
4358952,33
4359580,35
4360212,34
4360832,35
4361460,33
4362084,20
4362716,20
4363344,14
4363968,13
4364596,19
4365220,21
4365844,19
4366476,18
4367096,24
4367724,40
4368352,42
4368972,45
4369604,38
4370224,24
4370852,24
4371484,26
4372104,31
4372732,21
4373360,20
4373988,11
4374620,16
4375240,17
4375868,29
4376496,36
4377120,37
4377748,35
4378368,25
4378996,18
4379620,11
4380248,11
4380876,14
4381496,19
4382124,21
4382756,20
4383376,18
4384004,33
4384628,38
4385260,44
4385888,45
4386508,34
4387136,29
4387760,33
4388384,34
4389012,19
4389632,11
4390264,9
4390836,19
4391464,21
4392096,23
4392712,28
4393344,37
4393968,40
4394592,38
4395224,22
4395848,19
4396476,11
4397108,18
4397728,13
4398360,23
4398984,37
4399616,25
4400244,13
4400864,46
4401492,46
4402120,49
4402744,47
4403372,47
4403992,41
4404620,37
4405244,33
4405872,17
4406500,11
4407124,11
4407756,25
4408384,30
4409008,33
4409636,35
4410260,35
4410888,35
4411516,26
4412136,26
4412768,17
4413392,13
4414016,12
4414648,19
4415264,25
4415896,31
4416524,23
4417144,30
4417772,39
4418396,37
4419028,45
4419660,48
4420280,41
4420908,31
4421532,34
4422160,40
4422788,25
4423408,14
4424040,22
4424660,32
4425284,18
4425912,31
4426536,38
4427164,44
4427796,40
4428416,15
4429044,21
4429668,17
4430300,11
4430928,11
4431548,10
4432176,14
4432800,19
4433424,22
4434052,33
4434672,37
4435300,41
4435924,41
4436548,36
4437180,32
4437800,34
4438432,34
4439060,23
4439680,15
4440308,10
4440936,19
4441564,20
4442196,31
4442816,35
4443448,35
4444072,35
4444696,34
4445324,13
4445944,11
4446576,13
4447200,15
4447824,16
4448452,23
4449072,31
4449704,29
4450332,16
4450952,37
4451584,44
4452208,43
4452836,41
4453468,30
4454088,27
4454720,33
4455344,40
4455968,27
4456596,15
4457216,17
4457844,26
4458472,23
4459096,31
4459724,34
4460344,34
4460976,37
4461604,16
4462224,16
4462856,21
4463480,13
4464112,11
4464740,14
4465360,27
4465988,29
4466616,28
4467240,33
4467868,40
4468488,45
4469116,49
4469744,52
4470368,47
4471000,40
4471624,29
4472256,19
4472884,11
4473504,10
4474136,22
4474760,20
4475392,21
4476020,32
4476640,33
4477272,35
4477896,36
4478520,15
4479152,14
4479772,13
4480404,11
4481032,18
4481652,23
4482280,29
4482904,28
4483532,15
4484164,40
4484784,55
4485412,52
4486036,41
4486664,24
4487292,30
4487912,45
4488540,44
4489164,11
4489788,14
4490420,24
4491040,31
4491668,17
4492300,34
4492920,38
4493548,35
4494172,35
4494804,29
4495436,26
4496056,23
4496684,23
4497308,24
4497932,33
4498564,42
4499184,32
4499816,16
4500440,34
4501064,64
4501696,60
4502312,49
4502944,42
4503576,27
4504196,29
4504824,35
4505452,34
4506084,17
4506712,13
4507328,11
4507956,19
4508580,19
4509204,34
4509836,33
4510456,35
4511084,37
4511708,14
4512332,11
4512964,12
4513584,16
4514212,39
4514844,49
4515464,56
4516092,31
4516716,13
4517348,43
4517976,57
4518600,55
4519228,47
4519852,38
4520476,37
4521108,30
4521728,22
4522356,17
4522980,26
4523604,19
4524236,16
4524856,28
4525484,30
4526116,34
4526736,34
4527364,35
4527988,36
4528620,11
4529252,10
4529872,11
4530500,17
4531128,37
4531752,33
4532384,31
4533000,27
4533628,20
4534256,38
4534880,52
4535508,45
4536132,40
4536764,25
4537396,38
4538016,40
4538644,32
4539272,11
4539900,11
4540532,15
4541152,15
4541784,13
4542408,34
4543032,37
4543664,36
4544284,34
4544912,20
4545540,19
4546160,16
4546792,12
4547416,16
4548044,21
4548676,24
4549296,21
4549924,24
4550548,32
4551176,41
4551804,40
4552424,43
4553052,43
4553680,40
4554300,45
4554932,44
4555552,38
4556184,19
4556812,10
4557432,29
4558060,33
4558688,24
4559316,32
4559948,38
4560568,36
4561196,38
4561824,14
4562448,11
4563076,10
4563696,11
4564324,17
4564948,19
4565576,27
4566204,24
4566824,17
4567456,38
4568084,44
4568704,45
4569332,41
4569960,44
4570588,41
4571220,34
4571840,33
4572472,18
4573096,12
4573720,11
4574352,31
4574972,31
4575600,32
4576224,34
4576848,35
4577480,35
4578096,32
4578728,14
4579356,14
4579976,11
4580608,13
4581232,25
4581864,29
4582492,22
4583112,13
4583744,25
4584368,47
4584992,42
4585620,35
4586240,35
4586872,31
4587496,38
4588120,41
4588752,44
4589368,27
4590000,13
4590628,37
4591248,37
4591880,17
4592504,32
4593132,36
4593764,35
4594384,37
4595016,17
4595640,19
4596264,16
4596892,14
4597512,13
4598144,20
4598768,29
4599392,27
4600024,21
4600648,35
4601276,43
4601908,50
4602528,46
4603160,37
4603784,32
4604416,28
4605044,20
4605664,11
4606296,10
4606920,11
4607544,17
4608176,16
4608792,29
4609420,32
4610044,36
4610672,35
4611300,36
4611924,17
4612552,14
4613180,17
4613800,28
4614428,37
4615052,24
4615680,16
4616308,13
4616928,15
4617556,44
4618180,49
4618808,46
4619436,40
4620056,30
4620684,37
4621308,44
4621936,36
4622564,13
4623188,11
4623820,14
4624452,23
4625072,25
4625700,31
4626324,34
4626952,36
4627580,35
4628200,23
4628828,18
4629452,17
4630076,13
4630708,10
4631328,15
4631956,31
4632588,38
4633208,27
4633836,34
4634464,44
4635092,43
4635724,42
4636344,43
4636972,36
4637596,41
4638224,36
4638852,31
4639472,17
4640104,12
4640724,29
4641348,17
4641976,16
4642600,32
4643228,35
4643856,34
4644480,34
4645108,12
4645732,12
4646364,17
4646992,17
4647616,24
4648244,25
4648868,27
4649492,25
4650124,20
4650744,33
4651376,39
4652000,49
4652624,46
4653252,43
4653872,44
4654504,44
4655132,36
4655752,19
4656384,9
4656956,11
4657592,21
4658220,17
4658840,32
4659472,34
4660092,35
4660724,40
4661352,36
4661976,16
4662604,11
4663228,11
4663856,11
4664484,17
4665104,25
4665732,25
4666356,17
4666984,15
4667612,38
4668240,44
4668868,41
4669500,45
4670120,47
4670748,50
4671376,40
4672004,17
4672632,14
4673256,19
4673884,27
4674508,31
4675136,31
4675764,30
4676384,35
4677012,38
4677644,38
4678264,18
4678896,13
4679520,16
4680148,17
4680780,16
4681400,15
4682028,16
4682652,21
4683280,19
4683908,36
4684528,45
4685160,47
4685784,50
4686408,49
4687036,18
4687656,15
4688288,23
4688916,22
4689536,18
4690168,14
4690792,15
4691420,21
4692052,24
4692672,32
4693300,36
4693928,36
4694552,36
4695180,19
4695800,15
4696432,10
4697056,11
4697680,24
4698308,25
4698928,26
4699556,14
4700188,15
4700808,31
4701436,39
4702064,53
4702696,52
4703324,40
4703944,36
4704576,33
4705204,28
4705828,15
4706460,11
4707080,15
4707712,25
4708336,18
4708960,34
4709592,34
4710216,36
4710848,37
4711476,26
4712096,22
4712724,24
4713348,21
4713980,14
4714612,11
4715232,19
4715864,37
4716488,27
4717112,30
4717740,43
4718360,47
4718992,43
4719620,46
4720240,39
4720872,42
4721496,37
4722124,25
4722756,11
4723376,10
4724004,15
4724628,16
4725256,14
4725884,29
4726504,35
4727132,36
4727760,37
4728384,21
4729016,12
4729632,13
4730260,13
4730892,11
4731512,15
4732144,27
4732768,26
4733400,19
4734032,34
4734652,44
4735280,46
4735908,45
4736532,41
4737164,38
4737784,34
4738412,23
4739036,10
4739664,11
4740292,9
4740860,17
4741492,21
4742120,29
4742744,34
4743372,33
4743992,35
4744624,35
4745256,11
4745872,11
4746504,13
4747128,17
4747760,21
4748392,22
4749008,25
4749640,22
4750264,15
4750888,43
4751520,42
4752136,43
4752764,41
4753388,35
4754016,33
4754644,30
4755268,21
4755900,11
4756532,12
4757152,12
4757784,17
4758408,16
4759036,33
4759668,34
4760288,36
4760920,35
4761544,19
4762168,15
4762800,11
4763416,11
4764048,17
4764672,28
4765296,33
4765928,27
4766552,21
4767184,34
4767812,43
4768432,50
4769064,52
4769688,49
4770312,37
4770944,35
4771564,30
4772192,19
4772816,12
4773440,13
4774072,24
4774688,26
4775320,19
4775952,31
4776568,34
4777200,35
4777824,36
4778456,11
4779084,10
4779704,11
4780336,15
4780960,32
4781584,48
4782216,34
4782832,12
4783464,12
4784088,37
4784712,41
4785344,42
4785960,46
4786592,40
4787224,28
4787840,27
4788472,25
4789096,15
4789728,11
4790360,11
4790980,11
4791612,12
4792236,32
4792864,36
4793492,35
4794112,34
4794744,29
4795368,23
4795992,25
4796624,18
4797244,17
4797876,23
4798508,22
4799128,16
4799760,19
4800388,25
4801016,37
4801644,42
4802264,52
4802892,54
4803516,36
4804140,23
4804772,33
4805392,37
4806024,15
4806644,10
4807268,15
4807900,15
4808524,13
4809156,29
4809784,35
4810408,37
4811036,37
4811664,21
4812292,15
4812924,11
4813544,14
4814172,19
4814796,24
4815420,23
4816052,18
4816672,21
4817300,35
4817932,44
4818552,49
4819180,44
4819808,34
4820436,34
4821068,30
4821688,32
4822320,18
4822944,9
4823516,10
4824152,18
4824768,21
4825396,25
4826024,33
4826648,36
4827276,34
4827896,36
4828528,15
4829152,11
4829776,12
4830404,14
4831024,20
4831656,19
4832288,21
4832904,28
4833536,23
4834160,38
4834788,44
4835420,46
4836040,44
4836668,40
4837292,47
4837920,50
4838548,25
4839168,10
4839796,10
4840424,16
4841048,22
4841676,14
4842296,32
4842924,35
4843556,40
4844176,37
4844804,24
4845428,11
4846060,11
4846692,12
4847312,11
4847944,21
4848568,31
4849192,32
4849824,31
4850440,33
4851072,54
4851696,46
4852320,41
4852952,37
4853576,27
4854208,38
4854840,39
4855456,24
4856088,11
4856712,18
4857340,49
4857972,40
4858592,16
4859224,33
4859848,35
4860472,36
4861104,37
4861724,12
4862352,11
4862984,12
4863608,14
4864240,16
4864864,18
4865492,18
4866124,20
4866744,25
4867372,30
4867996,36
4868624,41
4869252,40
4869872,35
4870504,33
4871128,36
4871752,31
4872380,16
4873000,13
4873628,10
4874260,23
4874880,31
4875508,31
4876136,36
4876764,37
4877396,35
4878016,35
4878648,11
4879272,11
4879896,12
4880528,19
4881144,35
4881776,28
4882400,25
4883024,20
4883652,18
4884272,40
4884904,46
4885532,48
4886152,43
4886784,29
4887408,35
4888040,32
4888668,12
4889288,17
4889920,11
4890544,13
4891168,14
4891796,16
4892416,32
4893048,37
4893672,37
4894296,37
4894928,17
4895544,20
4896176,24
4896804,24
4897424,22
4898052,22
4898680,24
4899308,21
4899940,20
4900560,36
4901192,43
4901816,47
4902440,43
4903068,38
4903688,38
4904320,45
4904944,45
4905568,32
4906200,11
4906824,19
4907456,35
4908088,22
4908704,25
4909336,34
4909964,35
4910596,36
4911228,36
4911848,12
4912480,11
4913108,12
4913732,16
4914364,27
4914984,23
4915620,22
4916248,24
4916864,18
4917492,38
4918116,42
4918748,41
4919376,44
4919992,47
4920624,43
4921248,35
4921872,30
4922500,14
4923120,13
4923748,15
4924372,30
4925000,31
4925628,30
4926248,34
4926876,37
4927508,36
4928128,35
4928756,25
4929380,11
4930008,14
4930636,17
4931256,11
4931884,26
4932508,41
4933132,31
4933760,30
4934384,43
4935016,46
4935640,47
4936264,47
4936892,37
4937512,30
4938144,29
4938772,23
4939392,15
4940020,13
4940648,13
4941276,19
4941908,16
4942528,30
4943156,36
4943784,36
4944408,37
4945036,16
4945656,20
4946284,15
4946908,22
4947532,34
4948164,32
4948784,28
4949412,24
4950044,15
4950664,39
4951296,50
4951920,49
4952548,46
4953180,36
4953800,33
4954432,41
4955056,43
4955680,32
4956312,17
4956928,11
4957556,26
4958184,31
4958808,35
4959436,34
4960056,37
4960684,35
4961312,33
4961936,15
4962564,13
4963188,13
4963820,11
4964452,19
4965072,29
4965704,36
4966328,31
4966952,17
4967580,40
4968200,49
4968828,50
4969452,45
4970076,36
4970708,40
4971332,38
4971960,34
4972592,16
4973212,10
4973840,13
4974464,17
4975092,13
4975724,30
4976344,33
4976972,37
4977596,40
4978224,20
4978852,14
4979472,23
4980100,10
4980724,21
4981348,34
4981980,35
4982604,29
4983236,27
4983864,34
4984488,43
4985116,50
4985744,45
4986372,42
4987004,33
4987624,38
4988256,31
4988880,16
4989504,15
4990132,26
4990752,11
4991384,15
4992016,31
4992632,37
4993260,36
4993888,39
4994516,35
4995148,12
4995768,14
4996400,11
4997024,11
4997648,27
4998276,31
4998896,30
4999524,25
5000148,14
5000772,37
5001404,43
5002024,47
5002652,43
5003284,32
5003904,30
5004536,35
5005160,37
5005788,19
5006420,11
5007040,10
5007672,17
5008296,22
5008920,33
5009548,31
5010168,36
5010800,37
5011424,25
5012048,15
5012676,14
5013296,13
5013928,13
5014556,18
5015176,29
5015808,32
5016432,33
5017064,29
5017696,46
5018312,57
5018940,49
5019564,43
5020192,28
5020820,30
5021440,27
5022068,15
5022696,13
5023320,15
5023952,18
5024568,18
5025200,15
5025828,32
5026448,38
5027080,36
5027704,37
5028336,14
5028964,12
5029584,19
5030216,15
5030840,16
5031464,16
5032096,23
5032712,29
5033344,21
5033968,37
5034592,46
5035224,45
5035848,40
5036480,34
5037108,35
5037728,39
5038360,35
5038984,20
5039616,11
5040248,13
5040864,25
5041492,26
5042120,29
5042744,35
5043376,36
5043992,33
5044624,35
5045252,24
5045872,17
5046504,12
5047128,11
5047756,20
5048388,27
5049008,28
5049636,26
5050264,14
5050888,43
5051516,47
5052136,44
5052768,45
5053396,38
5054020,39
5054652,40
5055272,33
5055904,12
5056540,10
5057160,15
5057792,24
5058416,25
5059048,33
5059676,34
5060296,37
5060928,37
5061552,20
5062176,12
5062808,11
5063424,11
5064056,14
5064680,25
5065304,31
5065936,30
5066556,23
5067184,36
5067816,40
5068440,44
5069072,44
5069700,35
5070328,25
5070960,21
5071580,19
5072212,23
5072836,28
5073460,26
5074092,12
5074712,21
5075344,21
5075976,30
5076596,36
5077228,37
5077852,35
5078484,29
5079116,20
5079736,11
5080368,11
5080992,14
5081616,18
5082244,25
5082864,22
5083496,14
5084120,37
5084744,41
5085376,42
5085992,47
5086624,36
5087256,30
5087880,32
5088512,28
5089140,11
5089768,10
5090400,12
5091020,23
5091648,21
5092276,32
5092900,35
5093532,36
5094152,37
5094788,22
5095412,10
5096036,11
5096668,11
5097292,11
5097924,15
5098556,22
5099176,27
5099812,30
5100436,32
5101064,43
5101696,49
5102312,45
5102948,39
5103572,26
5104200,35
5104828,35
5105448,28
5106080,10
5106712,12
5107332,20
5107964,13
5108588,18
5109220,29
5109852,40
5110472,39
5111104,37
5111728,13
5112356,12
5112988,11
5113608,12
5114240,18
5114864,23
5115492,27
5116124,23
5116752,15
5117384,36
5118016,43
5118636,49
5119272,53
5119900,35
5120524,16
5121152,24
5121776,30
5122404,17
5123024,11
5123648,11
5124276,13
5124896,12
5125524,31
5126152,36
5126772,37
5127400,37
5128024,32
5128652,10
5129280,14
5129896,17
5130528,21
5131152,26
5131780,25
5132408,25
5133032,24
5133660,21
5134284,42
5134908,48
5135536,45
5136156,48
5136784,38
5137412,38
5138032,39
5138660,37
5139284,19
5139916,17
5140544,11
5141160,26
5141792,26
5142416,32
5143044,36
5143676,36
5144296,36
5144924,16
5145548,11
5146176,14
5146804,13
5147424,18
5148052,23
5148684,24
5149304,22
5149932,17
5150556,36
5151188,43
5151820,46
5152440,47
5153068,44
5153692,49
5154316,46
5154948,26
5155568,11
5156196,16
5156820,13
5157444,19
5158076,24
5158696,26
5159324,33
5159956,36
5160576,38
5161204,38
5161828,19
5162460,28
5163088,25
5163704,22
5164336,38
5164960,32
5165584,19
5166212,14
5166832,13
5167460,46
5168084,53
5168708,48
5169340,46
5169960,43
5170588,22
5171220,22
5171840,32
5172468,18
5173092,12
5173720,12
5174352,28
5174972,20
5175600,33
5176224,35
5176852,36
5177480,37
5178100,25
5178728,21
5179352,15
5179976,12
5180608,10
5181224,24
5181856,38
5182484,27
5183104,14
5183736,31
5184360,45
5184988,46
5185620,46
5186240,47
5186868,36
5187492,31
5188116,32
5188748,26
5189368,11
5189996,18
5190624,20
5191248,17
5191876,16
5192496,29
5193124,34
5193756,34
5194376,37
5195008,17
5195632,12
5196264,11
5196892,11
5197512,16
5198140,15
5198768,22
5199392,25
5200020,16
5200640,37
5201268,44
5201892,45
5202516,39
5203148,27
5203768,24
5204396,30
5205028,28
5205648,17
5206276,13
5206900,12
5207532,13
5208164,15
5208784,32
5209416,34
5210040,35
5210664,37
5211292,32
5211912,13
5212544,25
5213168,28
5213792,15
5214420,16
5215048,25
5215676,36
5216308,24
5216928,17
5217556,48
5218184,45
5218812,41
5219444,42
5220064,34
5220696,27
5221320,28
5221944,29
5222576,24
5223192,29
5223820,15
5224444,40
5225072,32
5225700,30
5226324,33
5226956,35
5227584,36
5228208,16
5228836,15
5229460,15
5230088,12
5230716,12
5231336,17
5231968,25
5232592,31
5233216,31
5233848,34
5234464,38
5235096,43
5235724,50
5236344,51
5236976,48
5237600,35
5238228,22
5238860,20
5239480,12
5240112,12
5240736,24
5241360,22
5241992,23
5242608,34
5243240,35
5243864,37
5244484,36
5245116,17
5245736,12
5246364,11
5246996,10
5247616,24
5248244,47
5248868,49
5249496,30
5250124,14
5250744,41
5251372,39
5251996,49
5252616,52
5253248,50
5253864,35
5254492,27
5255116,21
5255736,12
5256368,10
5256984,14
5257612,14
5258236,17
5258864,32
5259492,33
5260116,37
5260748,37
5261376,28
5262000,16
5262628,17
5263252,18
5263880,13
5264508,10
5265128,13
5265756,11
5266380,14
5267004,22
5267632,46
5268256,45
5268884,39
5269512,38
5270136,24
5270764,30
5271388,33
5272020,19
5272648,11
5273268,16
5273896,19
5274520,15
5275144,13
5275772,32
5276392,36
5277020,36
5277644,33
5278268,17
5278900,15
5279520,13
5280148,11
5280780,18
5281400,27
5282028,31
5282652,27
5283280,25
5283908,34
5284528,37
5285156,41
5285780,51
5286404,50
5287032,40
5287656,40
5288284,35
5288908,22
5289532,11
5290160,10
5290776,18
5291408,20
5292036,27
5292656,31
5293284,35
5293908,36
5294540,34
5295168,12
5295788,11
5296416,11
5297040,11
5297668,15
5298300,21
5298920,36
5299548,36
5300172,25
5300796,36
5301428,48
5302048,47
5302676,41
5303308,26
5303928,27
5304560,43
5305180,42
5305812,13
5306440,10
5307064,11
5307692,10
5308316,10
5308940,32
5309572,32
5310192,33
5310824,36
5311448,21
5312072,13
5312700,11
5313320,13
5313948,16
5314580,30
5315200,27
5315828,21
5316452,27
5317084,37
5317712,36
5318336,43
5318968,48
5319592,46
5320216,37
5320844,45
5321464,50
5322096,35
5322720,11
5323344,11
5323972,30
5324592,29
5325224,14
5325852,28
5326472,35
5327100,33
5327724,36
5328352,24
5328980,24
5329600,18
5330228,10
5330852,10
5331472,17
5332104,26
5332720,26
5333348,17
5333972,34
5334596,44
5335228,38
5335848,35
5336476,33
5337108,46
5337728,53
5338356,46
5338980,28
5339608,17
5340240,12
5340856,17
5341484,33
5342108,35
5342732,33
5343360,35
5343984,35
5344616,37
5345240,19
5345864,13
5346492,12
5347112,11
5347740,17
5348372,18
5348992,20
5349620,22
5350244,15
5350876,43
5351504,46
5352128,44
5352756,39
5353380,31
5354004,35
5354636,31
5355256,27
5355884,15
5356508,12
5357132,13
5357764,18
5358384,18
5359016,33
5359644,35
5360264,37
5360892,35
5361516,17
5362148,10
5362776,11
5363396,11
5364024,14
5364648,26
5365272,34
5365900,25
5366520,17
5367148,34
5367772,39
5368396,38
5369028,40
5369648,40
5370276,33
5370908,34
5371528,29
5372156,18
5372784,10
5373412,10
5374044,12
5374664,11
5375296,27
5375920,32
5376544,36
5377172,38
5377792,37
5378420,17
5379044,20
5379668,16
5380296,11
5380916,14
5381544,18
5382172,33
5382792,36
5383420,24
5384044,34
5384676,49
5385304,50
5385920,44
5386552,40
5387176,41
5387800,44
5388428,37
5389048,24
5389676,11
5390300,17
5390924,48
5391556,34
5392176,37
5392804,40
5393436,38
5394056,35
5394684,30
5395308,31
5395940,28
5396568,16
5397192,13
5397820,25
5398444,28
5399068,25
5399700,22
5400320,24
5400948,40
5401572,41
5402200,47
5402828,48
5403448,37
5404076,32
5404708,30
5405328,28
5405956,14
5406584,11
5407212,14
5407844,16
5408464,13
5409092,33
5409716,35
5410340,38
5410968,38
5411592,21
5412220,13
5412844,11
5413468,11
5414100,16
5414724,19
5415352,25
5415980,27
5416600,29
5417228,32
5417852,42
5418484,45
5419112,41
5419736,39
5420364,40
5420988,43
5421612,33
5422244,24
5422864,14
5423492,10
5424120,16
5424744,16
5425372,27
5425996,33
5426628,37
5427260,46
5427880,45
5428508,25
5429132,16
5429760,15
5430388,14
5431008,20
5431636,15
5432264,12
5432888,16
5433516,14
5434136,41
5434764,48
5435392,45
5436016,42
5436644,28
5437272,34
5437900,51
5438532,58
5439152,24
5439784,13
5440408,25
5441028,30
5441660,24
5442280,32
5442908,36
5443532,37
5444156,36
5444784,20
5445404,13
5446032,20
5446660,18
5447280,20
5447908,29
5448532,32
5449164,28
5449792,16
5450408,33
5451040,44
5451660,45
5452292,45
5452920,40
5453544,33
5454172,33
5454796,39
5455420,31
5456048,13
5456664,10
5457296,21
5457920,17
5458544,15
5459172,31
5459796,35
5460428,36
5461056,36
5461680,23
5462308,15
5462936,11
5463560,11
5464188,11
5464808,19
5465436,19
5466064,23
5466684,19
5467316,30
5467936,39
5468568,39
5469196,44
5469816,42
5470444,40
5471068,39
5471700,30
5472332,16
5472952,12
5473584,9
5474156,17
5474792,15
5475420,30
5476040,33
5476668,36
5477296,38
5477920,35
5478548,20
5479168,12
5479796,22
5480420,16
5481044,21
5481676,23
5482296,17
5482924,27
5483556,30
5484176,35
5484804,40
5485428,42
5486060,46
5486692,42
5487312,32
5487944,28
5488568,34
5489192,18
5489820,10
5490440,14
5491068,19
5491696,16
5492316,29
5492948,32
5493572,34
5494204,37
5494832,16
5495456,12
5496088,11
5496708,23
5497340,20
5497972,15
5498592,19
5499224,24
5499844,33
5500472,30
5501100,38
5501720,47
5502352,50
5502984,45
5503600,24
5504232,28
5504856,37
5505484,31
5506116,14
5506736,12
5507364,39
5507988,39
5508616,20
5509244,35
5509864,36
5510492,35
5511116,35
5511744,16
5512372,18
5512992,14
5513620,11
5514252,11
5514872,19
5515504,35
5516128,41
5516760,18
5517392,42
5518008,49
5518640,47
5519264,43
5519888,42
5520520,39
5521136,47
5521768,41
5522392,16
5523016,10
5523648,17
5524264,39
5524896,44
5525524,30
5526144,35
5526776,35
5527400,35
5528032,27
5528660,10
5529280,11
5529912,11
5530536,10
5531160,20
5531788,28
5532408,33
5533036,32
5533660,29
5534284,40
5534916,46
5535536,44
5536168,43
5536796,38
5537416,33
5538044,23
5538668,27
5539300,22
5539928,23
5540552,11
5541180,16
5541804,17
5542432,33
5543060,34
5543680,36
5544308,35
5544936,19
5545560,21
5546192,18
5546808,11
5547440,16
5548072,35
5548688,41
5549320,31
5549944,21
5550576,33
5551204,44
5551824,48
5552456,45
5553080,41
5553704,34
5554336,29
5554952,28
5555584,23
5556208,16
5556836,10
5557464,27
5558088,24
5558720,29
5559348,32
5559968,34
5560600,35
5561224,35
5561856,16
5562484,14
5563104,11
5563736,11
5564360,23
5564984,36
5565616,33
5566232,29
5566864,21
5567496,41
5568116,48
5568744,47
5569368,40
5569996,29
5570628,31
5571248,36
5571876,35
5572500,20
5573128,15
5573756,11
5574376,23
5575008,18
5575632,32
5576256,34
5576884,35
5577504,35
5578136,19
5578764,12
5579384,11
5580016,11
5580640,15
5581268,25
5581900,28
5582520,31
5583148,28
5583776,30
5584400,44
5585028,50
5585648,50
5586276,38
5586904,19
5587528,26
5588156,36
5588776,35
5589408,19
5590036,12
5590656,14
5591288,15
5591912,20
5592540,33
5593172,36
5593792,38
5594424,47
5595048,14
5595672,15
5596304,26
5596920,28
5597552,19
5598176,15
5598800,24
5599432,23
5600048,19
5600680,35
5601308,46
5601928,50
5602556,40
5603180,25
5603812,31
5604444,36
5605064,35
5605696,14
5606320,11
5606944,13
5607572,31
5608192,37
5608820,32
5609444,35
5610068,35
5610700,34
5611320,32
5611952,13
5612580,11
5613200,10
5613828,11
5614452,18
5615084,29
5615716,28
5616336,25
5616964,21
5617588,40
5618212,48
5618844,43
5619464,43
5620092,31
5620716,29
5621344,29
5621972,24
5622600,16
5623228,13
5623860,22
5624480,26
5625108,14
5625736,40
5626364,41
5626996,39
5627616,35
5628248,23
5628872,29
5629496,24
5630128,25
5630744,27
5631376,32
5632008,36
5632624,30
5633252,30
5633876,31
5634504,43
5635136,50
5635752,49
5636384,45
5637008,35
5637636,32
5638268,26
5638888,13
5639516,11
5640140,11
5640764,20
5641396,18
5642016,27
5642644,34
5643276,34
5643896,36
5644524,37
5645152,16
5645780,13
5646408,12
5647032,11
5647660,18
5648288,20
5648912,25
5649540,24
5650160,18
5650788,38
5651416,43
5652040,43
5652668,38
5653288,28
5653916,27
5654548,34
5655168,37
5655796,18
5656424,13
5657052,11
5657684,12
5658304,11
5658932,37
5659556,39
5660180,37
5660808,38
5661432,37
5662060,23
5662688,11
5663312,11
5663940,14
5664560,25
5665188,35
5665820,27
5666440,22
5667068,30
5667696,45
5668324,51
5668956,48
5669576,41
5670208,36
5670832,45
5671456,38
5672088,20
5672704,12
5673336,11
5673960,20
5674584,27
5675212,16
5675832,33
5676464,33
5677092,36
5677712,37
5678344,12
5678968,19
5679600,27
5680228,13
5680848,11
5681476,19
5682100,29
5682728,25
5683356,15
5683976,41
5684604,43
5685228,52
5685852,53
5686484,54
5687108,30
5687736,18
5688368,12
5688984,11
5689616,11
5690240,13
5690868,23
5691500,24
5692120,29
5692752,31
5693376,39
5694000,36
5694632,33
5695252,20
5695880,19
5696508,22
5697128,24
5697760,43
5698384,39
5699016,29
5699644,22
5700264,19
5700892,46
5701520,55
5702148,49
5702780,39
5703400,25
5704032,37
5704656,41
5705280,28
5705908,11
5706528,11
5707160,19
5707788,20
5708408,14
5709040,35
5709664,34
5710292,37
5710924,38
5711544,28
5712176,30
5712800,23
5713424,16
5714056,18
5714672,19
5715304,25
5715928,20
5716552,15
5717184,37
5717800,40
5718432,45
5719064,45
5719680,41
5720312,39
5720936,41
5721568,41
5722200,21
5722820,14
5723448,11
5724076,14
5724700,18
5725332,27
5725952,33
5726584,35
5727212,36
5727836,38
5728468,21
5729092,19
5729724,14
5730356,14
5730976,34
5731608,36
5732236,38
5732868,26
5733496,14
5734120,44
5734756,54
5735376,52
5736000,44
5736628,35
5737248,38
5737876,40
5738508,34
5739128,17
5739756,11
5740384,11
5741012,14
5741644,10
5742264,33
5742892,35
5743516,37
5744144,35
5744772,20
5745392,13
5746020,12
5746644,11
5747268,15
5747900,28
5748520,33
5749148,27
5749780,20
5750400,32
5751028,41
5751656,48
5752284,46
5752916,47
5753536,28
5754168,24
5754792,35
5755416,31
5756048,18
5756668,11
5757296,16
5757924,22
5758548,17
5759180,30
5759800,34
5760432,36
5761064,34
5761680,18
5762308,20
5762932,19
5763560,11
5764192,10
5764808,14
5765436,29
5766060,44
5766684,42
5767312,32
5767936,55
5768564,75
5769188,58
5769812,37
5770444,16
5771064,25
5771692,36
5772324,24
5772944,26
5773572,22
5774196,11
5774828,16
5775456,32
5776080,35
5776708,35
5777332,37
5777956,41
5778584,33
5779204,26
5779832,14
5780456,11
5781080,21
5781708,22
5782328,20
5782960,22
5783588,18
5784208,45
5784836,53
5785464,56
5786092,50
5786724,40
5787344,37
5787972,27
5788596,21
5789220,10
5789852,11
5790472,24
5791104,31
5791728,21
5792352,32
5792980,34
5793604,35
5794236,36
5794864,15
5795488,10
5796116,11
5796740,12
5797372,14
5798004,10
5798624,27
5799252,43
5799876,44
5800500,31
5801132,38
5801752,45
5802380,43
5803004,30
5803632,27
5804260,39
5804888,42
5805516,33
5806148,20
5806768,12
5807396,23
5808024,25
5808644,26
5809276,32
5809896,35
5810528,37
5811152,35
5811776,11
5812408,11
5813028,15
5813656,15
5814288,13
5814904,18
5815536,31
5816160,32
5816792,20
5817420,38
5818040,43
5818668,43
5819292,39
5819920,35
5820548,35
5821168,39
5821800,35
5822424,21
5823048,19
5823676,11
5824296,22
5824928,25
5825556,32
5826176,36
5826808,36
5827432,35
5828060,21
5828692,21
5829312,25
5829940,21
5830568,13
5831192,11
5831824,17
5832440,22
5833072,34
5833696,31
5834320,39
5834952,49
5835568,45
5836200,40
5836832,32
5837448,48
5838076,50
5838700,34
5839332,17
5839964,10
5840584,22
5841212,26
5841836,15
5842464,40
5843092,34
5843712,35
5844340,37
5844964,25
5845588,33
5846220,40
5846840,31
5847472,16
5848100,10
5848720,15
5849348,20
5849976,19
5850604,36
5851236,46
5851856,53
5852488,48
5853112,35
5853736,29
5854368,34
5854984,43
5855616,22
5856240,13
5856864,15
5857496,16
5858120,11
5858748,32
5859380,35
5860000,40
5860628,44
5861252,39
5861884,15
5862516,18
5863136,21
5863764,15
5864392,16
5865016,20
5865644,16
5866264,21
5866892,19
5867520,39
5868144,41
5868776,42
5869400,43
5870032,29
5870660,34
5871280,35
5871912,37
5872536,20
5873164,13
5873792,11
5874416,19
5875048,17
5875672,29
5876296,33
5876928,37
5877548,40
5878176,30
5878808,18
5879432,12
5880064,12
5880688,11
5881320,15
5881948,22
5882568,26
5883200,24
5883824,36
5884448,53
5885080,46
5885700,41
5886328,31
5886956,27
5887580,32
5888216,33
5888836,28
5889468,16
5890096,14
5890720,15
5891348,20
5891976,29
5892604,33
5893236,34
5893856,35
5894488,36
5895112,21
5895736,13
5896368,15
5896984,12
5897612,25
5898240,35
5898864,29
5899492,34
5900116,27
5900748,36
5901380,44
5902000,48
5902628,44
5903252,40
5903880,41
5904508,40
5905128,33
5905756,11
5906384,15
5907008,18
5907636,20
5908256,18
5908888,32
5909516,32
5910136,36
5910768,36
5911392,21
5912024,10
5912652,10
5913272,11
5913904,19
5914528,29
5915152,32
5915784,24
5916400,20
5917032,33
5917656,42
5918280,46
5918912,46
5919528,44
5920160,30
5920788,34
5921408,37
5922036,31
5922660,19
5923292,12
5923920,15
5924540,23
5925168,16
5925792,31
5926416,36
5927044,34
5927664,36
5928296,17
5928920,14
5929544,11
5930176,13
5930792,12
5931424,28
5932056,48
5932672,42
5933304,23
5933928,36
5934560,43
5935188,44
5935808,37
5936440,27
5937064,41
5937688,59
5938320,48
5938936,13
5939568,13
5940192,11
5940816,13
5941444,14
5942064,32
5942692,34
5943324,35
5943944,39
5944576,35
5945200,12
5945828,10
5946460,10
5947080,11
5947708,16
5948336,21
5948960,24
5949588,34
5950208,27
5950840,41
5951464,53
5952088,55
5952716,50
5953336,37
5953964,29
5954596,32
5955216,29
5955844,11
5956468,15
5957100,18
5957732,14
5958352,13
5958984,34
5959608,40
5960232,36
5960860,35
5961480,24
5962108,24
5962736,22
5963360,17
5963988,13
5964616,32
5965244,49
5965876,49
5966496,31
5967124,37
5967752,56
5968380,55
5969012,54
5969632,45
5970264,29
5970888,30
5971512,34
5972144,30
5972760,19
5973392,11
5974020,21
5974640,16
5975272,23
5975896,33
5976528,37
5977156,36
5977776,36
5978408,15
5979032,15
5979656,12
5980288,11
5980904,16
5981536,17
5982160,21
5982784,23
5983416,24
5984032,33
5984660,47
5985292,46
5985912,44
5986544,36
5987168,19
5987800,32
5988432,57
5989048,40
5989680,26
5990304,13
5990928,33
5991560,31
5992180,33
5992808,34
5993432,35
5994060,36
5994692,26
5995312,40
5995944,32
5996576,14
5997192,13
5997824,11
5998448,18
5999080,20
5999708,27
6000328,29
6000960,38
6001584,49
6002208,50
6002840,41
6003456,18
6004084,25
6004708,36
6005332,26
6005964,15
6006584,12
6007212,19
6007844,18
6008464,15
6009096,34
6009720,35
6010348,33
6010980,36
6011600,15
6012232,16
6012856,17
6013480,15
6014112,17
6014732,19
6015360,26
6015988,26
6016612,21
6017244,33
6017868,40
6018500,42
6019128,43
6019752,45
6020384,45
6021008,41
6021640,29
6022268,18
6022888,15
6023516,11
6024144,21
6024768,19
6025396,31
6026016,34
6026648,36
6027276,37
6027896,34
6028528,13
6029152,16
6029784,10
6030412,20
6031032,36
6031664,39
6032288,32
6032912,30
6033544,18
6034160,44
6034792,46
6035416,48
6036044,44
6036672,26
6037296,28
6037928,38
6038556,34
6039176,15
6039808,11
6040432,16
6041064,28
6041696,20
6042312,33
6042944,36
6043568,35
6044192,38
6044820,16
6045440,13
6046068,11
6046696,11
6047320,17
6047952,23
6048572,27
6049200,21
6049832,20
6050452,34
6051084,41
6051708,45
6052340,43
6052972,38
6053592,45
6054224,48
6054848,41
6055472,29
6056104,18
6056720,11
6057352,34
6057980,37
6058604,25
6059236,35
6059860,35
6060492,36
6061124,34
6061744,18
6062376,11
6063000,10
6063624,11
6064256,28
6064872,33
6065504,44
6066128,54
6066752,41
6067384,38
6068000,75
6068628,73
6069260,56
6069880,49
6070512,40
6071136,41
6071768,34
6072400,14
6073016,10
6073648,15
6074272,24
6074896,15
6075528,34
6076144,34
6076776,35
6077404,35
6078028,26
6078660,18
6079280,13
6079912,13
6080548,10
6081168,20
6081796,40
6082424,45
6083052,38
6083684,30
6084304,43
6084932,55
6085560,52
6086184,44
6086816,34
6087432,34
6088064,36
6088688,30
6089312,12
6089940,13
6090568,27
6091196,26
6091828,16
6092448,31
6093080,34
6093704,36
6094336,38
6094968,17
6095584,15
6096216,12
6096840,12
6097464,20
6098096,29
6098712,30
6099344,16
6099976,13
6100592,35
6101224,48
6101848,53
6102480,41
6103108,19
6103728,18
6104360,40
6104984,47
6105608,23
6106236,10
6106856,11
6107488,11
6108112,21
6108736,34
6109368,38
6109992,37
6110624,37
6111256,33
6111876,23
6112508,17
6113132,11
6113764,10
6114396,18
6115016,25
6115648,22
6116276,19
6116900,19
6117532,42
6118152,44
6118784,41
6119412,42
6120036,38
6120668,47
6121292,52
6121924,47
6122552,27
6123176,14
6123808,17
6124436,31
6125064,23
6125696,29
6126312,34
6126944,34
6127572,41
6128196,33
6128828,24
6129448,14
6130080,11
6130708,11
6131332,14
6131960,22
6132588,20
6133220,26
6133852,32
6134472,38
6135104,45
6135728,41
6136356,34
6136988,31
6137608,43
6138240,47
6138864,29
6139492,13
6140124,16
6140752,36
6141384,25
6142016,31
6142636,32
6143272,36
6143896,37
6144524,36
6145152,23
6145768,15
6146400,11
6147020,11
6147644,17
6148276,12
6148896,15
6149524,23
6150156,30
6150776,35
6151404,39
6152028,42
6152660,39
6153288,28
6153908,37
6154536,41
6155160,37
6155788,13
6156416,10
6157036,12
6157664,25
6158288,22
6158912,32
6159544,35
6160160,37
6160788,35
6161420,20
6162040,17
6162668,19
6163292,15
6163924,11
6164552,15
6165176,29
6165804,36
6166428,32
6167052,36
6167684,53
6168304,57
6168936,54
6169560,47
6170184,37
6170812,18
6171432,11
6172064,14
6172692,29
6173312,33
6173944,11
6174568,14
6175196,16
6175828,29
6176448,34
6177076,35
6177700,35
6178324,16
6178956,10
6179576,14
6180208,15
6180832,19
6181456,27
6182084,32
6182704,32
6183336,22
6183964,33
6184584,40
6185216,45
6185840,46
6186468,39
6187100,36
6187720,36
6188352,33
6188976,20
6189600,12
6190228,10
6190848,15
6191480,17
6192104,33
6192728,37
6193360,38
6193976,36
6194608,34
6195240,31
6195856,19
6196484,13
6197108,11
6197740,26
6198372,42
6198992,27
6199624,14
6200248,19
6200872,37
6201504,41
6202120,42
6202752,45
6203376,43
6204000,36
6204632,39
6205256,39
6205888,17
6206516,10
6207136,20
6207768,27
6208392,25
6209020,29
6209652,35
6210272,37
6210904,35
6211528,16
6212152,11
6212784,11
6213400,11
6214032,21
6214664,28
6215280,30
6215912,26
6216536,21
6217168,39
6217796,50
6218416,47
6219048,44
6219672,35
6220296,25
6220928,34
6221548,27
6222176,20
6222804,30
6223428,22
6224060,10
6224680,23
6225312,31
6225944,33
6226560,36
6227188,37
6227816,37
6228444,13
6229076,19
6229696,23
6230328,15
6230952,17
6231576,14
6232208,20
6232824,26
6233456,16
6234080,34
6234704,37
6235336,43
6235952,42
6236584,21
6237216,23
6237836,40
6238468,36
6239092,11
6239724,11
6240356,15
6240976,19
6241604,13
6242228,33
6242856,35
6243484,35
6244104,35
6244736,19
6245360,13
6245984,11
6246616,14
6247240,17
6247868,23
6248500,31
6249120,27
6249748,20
6250372,31
6251004,44
6251636,47
6252256,45
6252884,42
6253508,37
6254136,42
6254764,34
6255384,26
6256016,9
6256588,13
6257216,19
6257844,16
6258464,13
6259096,31
6259724,36
6260344,37
6260976,36
6261600,16
6262228,14
6262860,16
