tempo_arduino_micro_s,valor_ADC
500,10
1004,16
1504,16
2000,14
2508,33
3000,36
3508,37
4000,54
4508,77
5000,52
5500,30
6000,16
6500,14
7000,13
7500,22
8000,27
8500,49
9000,48
9500,34
10000,16
10508,34
11028,55
11556,96
12076,75
12604,65
13124,53
13652,21
14172,34
14700,70
15220,44
15748,21
16268,26
16796,42
17316,14
17836,26
18356,36
18876,34
19396,39
19916,68
20436,71
20956,92
21476,145
22048,157
22632,97
23148,32
23676,20
24196,46
24724,86
25244,108
25824,112
26392,73
26924,67
27444,82
27972,47
28492,41
29020,43
29540,44
30068,42
30588,20
31116,12
31636,16
32156,16
32676,12
33196,10
33716,11
34236,13
34756,19
35276,23
35796,40
36316,41
36836,39
37356,41
37876,43
38396,14
38924,11
39444,23
39972,22
40492,11
41020,30
41540,32
42068,52
42588,70
43116,56
43636,16
44164,73
44684,96
45212,99
45732,84
46260,69
46780,66
47308,44
47828,40
48356,48
48876,48
49404,27
49924,14
50452,12
50972,37
51500,40
52020,23
52548,36
53068,52
53596,64
54116,69
54644,69
55164,72
55692,65
56212,51
56732,32
57252,14
57772,21
58292,25
58812,31
59332,21
59852,13
60372,23
60892,57
61412,66
61936,75
62452,61
62972,57
63500,54
64024,62
64544,58
65068,50
65596,40
66116,32
66644,22
67164,12
67692,13
68212,11
68740,32
69260,33
69788,41
70308,43
70836,45
71356,43
71884,12
72404,31
72932,23
73452,15
73980,15
74500,11
75028,21
75552,29
76076,30
76600,33
77124,32
77644,47
78172,54
78692,62
79220,64
79744,57
80268,54
80788,50
81308,26
81828,21
82348,16
82868,31
83388,34
83908,19
84428,27
84948,45
85468,77
85988,93
86508,71
87028,45
87548,70
88076,200
88652,269
89232,190
89804,111
90384,103
90956,121
91536,104
92108,96
92632,120
93208,109
93780,37
94308,79
94832,102
95408,93
95924,114
96504,120
97076,128
97656,174
98228,157
98804,40
99324,54
99852,61
100380,22
100944,11
101528,25
102096,76
102680,100
103300,85
103876,56
104456,40
105024,20
105600,33
106168,65
106744,105
107364,97
107940,55
108512,20
109088,22
109672,27
110240,14
110824,41
111392,52
111976,70
112548,64
113120,62
113704,71
114272,74
114856,47
115424,50
116008,51
116576,53
117152,21
117720,38
118300,57
118880,53
119448,53
120032,47
120600,42
121184,42
121752,27
122328,15
122912,18
123480,20
124056,12
124624,58
125208,67
125776,36
126360,21
126928,19
127504,37
128088,41
128656,41
129228,43
129800,40
130376,46
130944,61
131528,91
132104,102
132724,78
133300,21
133872,36
134448,16
135016,15
135592,39
136164,43
136736,56
137312,74
137884,70
138464,33
139032,25
139616,46
140184,29
140760,11
141344,12
141912,14
142496,41
143064,96
143648,104
144268,57
144844,40
145424,50
145992,64
146576,79
147144,96
147728,107
148348,115
148980,102
149604,77
150172,50
150752,22
151324,111
151956,126
152584,114
153208,120
153836,111
154452,46
155028,36
155604,50
156176,27
156760,46
157332,47
157912,35
158484,23
159064,12
159636,11
160212,14
160792,46
161360,46
161944,49
162512,56
163096,93
163668,138
164300,148
164928,97
165488,52
166072,23
166640,19
167224,59
167792,63
168368,55
168936,40
169504,42
170088,43
170656,41
171232,37
171800,30
172384,34
172952,25
173528,13
174112,11
174680,28
175264,70
175836,96
176416,55
176984,20
177568,76
178140,113
178764,92
179344,53
179912,21
180488,10
181056,25
181632,39
182200,26
182776,12
183360,11
183928,14
184512,17
185080,15
185664,46
186232,63
186808,66
187376,51
187952,39
188536,30
189108,14
189688,21
190256,27
190840,13
191408,21
191988,42
192568,36
193140,49
193720,48
194288,32
194872,41
195440,42
196024,46
196592,19
197168,35
197752,46
198324,38
198904,29
199472,38
200056,52
200624,20
201200,10
201784,24
202352,55
202936,59
203508,45
204088,39
204660,41
205240,89
205808,136
206428,97
207004,28
207572,33
208152,61
208720,33
209304,18
209872,40
210448,37
211032,35
211604,43
212184,40
212752,46
213336,91
213908,97
214484,86
215064,65
215632,13
216216,43
216784,69
217368,148
217988,147
218616,37
219192,42
219764,40
220344,43
220912,40
221496,25
222064,16
222648,11
223220,12
223796,11
224376,23
224948,15
225528,18
226096,22
226680,22
227248,62
227824,67
228408,69
228976,54
229560,43
230132,19
230712,11
231280,14
231864,43
232432,107
233060,59
233636,17
234208,28
234784,28
235356,43
235936,42
236508,43
237084,43
237664,40
238236,16
238816,16
239384,36
239968,19
240540,10
241116,11
241696,13
242264,25
242848,31
243420,16
244000,40
244568,46
245152,39
245724,42
246300,38
246880,17
247448,20
248032,21
248600,51
249184,58
249756,30
250328,10
250912,10
251480,21
252064,35
252636,42
253216,41
253788,45
254368,43
254940,16
255516,46
256096,106
256720,108
257344,53
257916,17
258496,37
259064,49
259640,58
260224,41
260792,51
261376,92
261944,102
262580,88
263148,60
263720,24
264304,37
264872,45
265456,37
266028,12
266608,36
267176,59
267756,57
268336,35
268904,35
269488,43
270056,45
270632,48
271204,56
271784,17
272356,32
272928,51
273512,43
274084,12
274664,69
275236,111
275868,120
276496,99
277060,51
277640,34
278208,40
278792,41
279364,41
279944,73
280516,118
281144,130
281772,91
282336,35
282920,13
283488,26
284072,63
284644,46
285220,16
285800,33
286372,43
286952,41
287520,43
288104,41
288672,65
289240,93
289824,107
290444,89
291020,47
291596,20
292176,15
292744,35
293328,65
293904,106
294528,85
295104,88
295672,126
296308,91
296880,15
297452,57
298032,58
298604,30
299184,14
299756,30
300336,25
300908,15
301488,34
302060,70
302636,67
303216,39
303788,50
304368,51
304948,46
305528,103
306152,126
306776,96
307352,19
307920,37
308504,75
309076,146
309708,187
310336,178
310960,91
311536,41
312108,65
312688,86
313256,98
313836,108
314468,124
315088,98
315664,20
316236,61
316816,128
317452,122
318072,54
318648,30
319220,35
319800,42
320380,46
320960,43
321528,16
322104,15
322688,26
323256,22
323840,11
324408,26
324992,32
325564,27
326140,23
326720,22
327288,66
327872,78
328440,85
329024,72
329592,62
330176,28
330744,23
331320,30
331904,35
332476,16
333056,15
333624,17
334208,22
334776,17
335352,34
335936,44
336508,51
337088,50
337656,42
338240,16
338808,11
339384,12
339952,27
340528,59
341112,85
341684,80
342264,80
342836,86
343416,60
343988,34
344564,47
345144,82
345716,96
346296,99
346864,67
347448,41
348020,44
348600,39
349168,21
349744,11
350328,16
350900,26
351480,13
352052,47
352632,53
353204,39
353780,44
354360,46
354932,18
355512,12
356084,22
356664,20
357236,11
357816,39
358388,66
358964,53
359544,44
360116,16
360696,48
361264,67
361848,79
362416,61
362992,29
363576,27
364148,13
364728,45
365300,58
365880,20
366452,42
367032,47
367604,35
368180,38
368760,36
369328,42
369912,42
370484,47
371064,57
371636,68
372212,28
372792,59
373364,51
373944,31
374516,22
375096,21
375668,13
376248,28
376820,15
377392,62
377976,74
378548,61
379128,59
379708,27
380288,17
380860,85
381436,101
382068,14
382636,102
383268,150
383892,133
384520,65
385096,25
385664,48
386248,43
386816,51
387400,40
387972,31
388552,12
389128,11
389696,41
390280,62
390852,15
391432,31
392004,49
392584,40
393156,18
393732,51
394312,98
394884,118
395516,90
396084,54
396664,21
397236,48
397812,55
398392,42
398964,29
399544,12
400116,15
400696,15
401264,30
401848,32
402420,40
402992,40
403576,42
404148,43
404728,26
405300,18
405880,12
406452,24
407024,26
407608,12
408180,19
408760,21
409332,15
409912,15
410488,38
411072,42
411640,42
412216,43
412800,39
413368,51
413944,25
414512,54
415096,87
415664,68
416244,22
416824,14
417392,13
417968,43
418536,80
419120,57
419692,43
420272,49
420840,43
421416,19
421992,44
422564,82
423144,105
423764,130
424392,104
425020,75
425584,18
426168,19
426736,25
427320,45
427892,40
428472,39
429044,41
429616,38
430200,39
430768,50
431352,59
431924,50
432504,15
433072,19
433652,45
434232,50
434804,55
435384,62
435952,45
436536,47
437104,41
437688,41
438256,27
438836,35
439416,67
439988,87
440568,75
441148,58
441728,60
442296,51
442876,27
443456,22
444028,72
444608,86
445180,74
445760,49
446336,23
446920,22
447496,14
448068,46
448648,51
449216,49
449800,38
450368,13
450952,29
451520,31
452096,39
452680,58
453248,80
453832,54
454404,42
454984,40
455556,50
456136,20
456720,12
457292,16
457872,19
458444,13
459024,19
459596,60
460176,106
460800,50
461368,39
461944,45
462516,55
463096,62
463668,51
464248,25
464816,25
465392,54
465976,42
466544,12
467128,28
467700,42
468280,44
468852,53
469432,50
470004,55
470580,46
471160,41
471732,19
472312,11
472884,12
473464,13
474036,11
474612,11
475192,12
475764,18
476344,13
476916,39
477496,54
478068,69
478648,60
479228,45
479804,21
480384,41
480956,70
481536,75
482108,56
482688,60
483260,59
483836,15
484416,33
484988,19
485568,35
486140,44
486720,63
487296,83
487880,83
488456,130
489080,137
489708,61
490276,33
490856,84
491428,108
492056,91
492632,75
493204,71
493784,95
494356,106
494988,83
495560,70
496132,81
496712,71
497284,47
497864,18
498436,22
499016,60
499588,79
500168,106
500796,120
501416,76
501992,51
502572,39
503152,39
503724,40
504300,40
504880,13
505452,13
506032,11
506604,13
507184,9
507704,12
508280,13
508852,13
509428,13
510008,19
510580,47
511160,51
511736,46
512316,39
512888,32
513472,10
514040,32
514616,39
515200,31
515768,9
516292,11
516864,11
517448,21
518016,12
518600,50
519176,83
519748,92
520328,75
520896,61
521480,19
522052,12
522632,35
523204,107
523828,207
524456,163
525080,45
525656,45
526224,73
526804,62
527384,70
527956,54
528536,40
529108,39
529688,41
530256,43
530840,13
531412,19
531988,11
532568,10
533136,11
533720,15
534292,13
534872,13
535444,36
536020,39
536600,40
537172,40
537752,40
538320,16
538904,11
539472,11
540056,11
540628,11
541204,10
541784,11
542356,12
542936,13
543516,36
544096,64
544672,70
545252,74
545832,69
546404,58
546984,40
547556,17
548136,17
548708,34
549288,46
549860,52
550436,51
551016,27
551588,14
552168,43
552748,55
553328,62
553908,62
554484,49
555064,26
555636,24
556216,16
556788,71
557372,90
557948,51
558528,35
559112,16
559684,19
560264,47
560836,62
561416,44
561988,41
562568,38
563140,37
563716,51
564296,54
564868,24
565448,51
566020,119
566652,128
567276,67
567844,19
568424,61
568996,91
569576,72
570148,50
570728,45
571308,21
571884,11
572464,34
573036,46
573616,32
574188,12
574768,49
575340,83
575920,91
576500,96
577072,48
577656,40
578224,50
578808,56
579380,56
579960,51
580532,56
581108,75
581688,75
582260,23
582840,29
583412,53
583992,43
584564,17
585144,28
585716,38
586292,38
586872,39
587444,52
588024,65
588604,51
589184,47
589764,49
590340,60
590920,39
591492,17
592072,73
592644,157
593276,219
593900,199
594524,95
595100,43
595672,68
596256,86
596836,91
597416,85
597988,74
598564,51
599144,31
599716,11
600296,58
600876,99
601456,46
602036,58
602612,124
603244,150
603864,89
604440,37
605012,24
605592,20
606164,11
606740,15
607320,30
607892,40
608472,46
609052,35
609632,25
610212,35
610788,37
611368,40
611940,40
612520,48
613096,52
613676,51
614252,61
614836,35
615412,21
615988,40
616568,13
617140,18
617720,10
618292,14
618872,33
619444,39
620020,40
620600,53
621172,40
621752,26
622324,12
622904,71
623476,107
624108,86
624688,38
625256,27
625840,23
626412,19
626992,37
627564,52
628144,71
628716,91
629292,92
629872,78
630444,58
631024,50
631596,39
632180,11
632756,17
633332,34
633912,56
634488,27
635064,27
635636,50
636216,43
636796,41
637380,42
637960,34
638536,36
639116,17
639688,13
640268,14
640840,25
641416,34
641984,50
642560,54
643144,47
643716,37
644296,46
644864,59
645448,59
646016,48
646600,56
647176,78
647748,96
648328,76
648896,27
649480,11
650052,33
650632,51
651204,39
651780,32
652360,49
652932,67
653512,57
654084,40
654664,17
655236,22
655816,63
656400,77
656968,47
657552,25
658124,13
658704,19
659272,47
659856,69
660424,35
661004,45
661584,55
662156,53
662736,40
663304,28
663888,21
664460,29
665040,63
665616,67
666184,38
666760,22
667328,12
667912,10
668484,38
669064,41
669632,40
670208,41
670792,47
671360,59
671944,56
672516,43
673096,12
673668,46
674248,45
674824,19
675396,23
675976,55
676548,52
677128,37
677696,51
678280,57
678852,47
679424,44
680008,49
680576,49
681160,51
681728,65
682312,51
682884,41
683464,20
684040,23
684608,25
685192,42
685764,54
686344,44
686916,45
687496,44
688068,14
688640,24
689224,42
689796,49
690376,43
690948,63
691528,93
692104,99
692688,90
693264,56
693836,65
694416,118
695040,102
695668,87
696240,74
696812,91
697392,117
698016,133
698644,99
699212,41
699792,13
700364,78
700940,156
701572,193
702192,145
702820,97
703392,65
703964,46
704548,23
705116,11
705696,11
706268,11
706848,10
707420,14
708000,17
708568,22
709148,14
709728,22
710300,41
710880,44
711460,46
712040,62
712620,62
713196,24
713776,34
714348,60
714928,88
715500,81
716080,72
716660,64
717240,14
717816,64
718396,80
718976,67
719548,59
720128,45
720696,40
721280,17
721848,26
722428,32
723008,29
723580,22
724160,22
724728,32
725312,45
725884,47
726464,27
727036,50
727612,68
728192,91
728764,95
729344,86
729924,88
730504,79
731076,41
731652,11
732232,18
732804,44
733384,45
733956,43
734536,31
735116,36
735696,42
736280,52
736852,45
737432,46
738004,15
738584,71
739156,102
739788,115
740420,62
740988,14
741568,28
742140,53
742720,71
743300,66
743880,44
744456,48
745028,68
745608,78
746180,38
746760,47
747340,102
747972,89
748552,53
749124,17
749704,15
750276,34
750856,30
751436,15
752016,40
752596,42
753172,44
753752,47
754328,55
754904,32
755484,33
756064,27
756644,41
757220,32
757800,11
758372,41
758952,55
759528,69
760104,51
760684,55
761264,82
761836,61
762412,45
762992,59
763564,40
764144,34
764724,61
765304,52
765884,26
766460,34
767040,128
767668,124
768296,40
768868,35
769448,41
770016,41
770596,46
771176,38
771748,26
772328,27
772900,22
773480,21
774052,32
774628,38
775208,58
775780,64
776360,40
776932,59
777512,130
778144,137
778768,105
779396,70
779964,68
780544,84
781124,101
781756,101
782384,56
782952,16
783528,37
784100,85
784680,99
785252,84
785832,59
786404,43
786980,42
787560,46
788132,28
788712,11
789292,25
789872,28
790444,14
791020,11
791604,12
792176,15
792752,20
793328,33
793908,38
794484,41
795064,41
795636,42
796212,24
796792,46
797368,67
797944,74
798524,67
799108,50
799684,36
800260,13
800840,14
801408,15
801992,41
802564,59
803144,73
803716,64
804296,50
804880,24
805452,19
806032,55
806604,54
807184,17
807756,32
808336,58
808916,53
809492,43
810072,41
810644,39
811224,43
811804,40
812384,44
812964,42
813540,65
814120,92
814692,79
815272,67
815848,87
816424,113
817056,116
817680,87
818256,46
818828,37
819408,79
819984,79
820560,67
821128,49
821704,49
822280,48
822848,61
823432,67
824004,80
824584,58
825152,54
825736,56
826304,41
826880,43
827464,59
828032,47
828616,40
829188,46
829768,72
830336,101
830972,111
831600,38
832172,54
832752,89
833320,72
833904,39
834476,12
835052,38
835632,40
836204,42
836784,41
837356,43
837936,21
838508,24
839088,30
839660,18
840236,11
840816,16
841384,13
841968,28
842536,69
843120,96
843692,82
844264,67
844848,43
845416,49
845992,48
846564,18
847144,63
847716,72
848296,72
848868,60
849440,25
850024,34
850592,38
851176,52
851748,61
852328,71
852900,67
853476,46
854056,41
854628,14
855208,16
855776,14
856360,25
856932,11
857512,63
858084,141
858712,150
859340,103
859960,40
860536,57
861108,81
861684,68
862264,48
862836,34
863416,40
863988,55
864568,59
865148,53
865728,60
866296,73
866876,51
867456,25
868028,20
868608,44
869180,42
869760,41
870332,45
870908,42
871488,47
872060,62
872640,72
873212,63
873792,43
874364,23
874944,21
875516,14
876092,13
876672,40
877244,73
877824,77
878396,65
878976,64
879556,56
880132,31
880712,12
881280,15
881864,30
882436,38
883016,34
883588,14
884168,13
884744,35
885316,56
885896,48
886468,45
887048,43
887620,38
888200,42
888780,48
889356,30
889936,16
890508,28
891088,55
891668,53
892248,24
892828,13
893404,41
893984,44
894560,53
895136,53
895712,45
896292,19
896864,35
897448,54
898016,60
898596,38
899176,29
899748,31
900328,26
900900,22
901480,33
902052,44
902628,40
903208,41
903776,40
904360,42
904928,48
905512,47
906084,55
906664,91
907236,82
907812,28
908392,16
908964,12
909544,13
910116,35
910696,38
911276,49
911852,69
912432,99
913004,124
913636,114
914256,79
914832,44
915404,11
915980,11
916560,25
917132,24
917712,11
918284,29
918864,41
919444,52
920020,51
920600,50
921172,41
921752,39
922324,22
922904,11
923472,11
924056,21
924628,54
925204,72
925784,79
926356,72
926936,46
927516,42
928096,43
928672,83
929252,123
929884,131
930504,127
931132,104
931756,45
932328,10
932904,26
933476,46
934056,65
934628,22
935208,58
935780,80
936360,67
936940,47
937516,40
938096,23
938668,25
939248,58
939828,56
940408,18
940988,72
941564,112
942196,107
942816,89
943392,80
943964,50
944544,41
945124,42
945700,67
946280,67
946852,15
947432,57
948012,70
948592,51
949164,13
949740,12
950320,18
950896,12
951472,29
952048,39
952624,42
953204,54
953784,56
954364,39
954940,18
955520,11
956092,14
956672,26
957252,27
957836,27
958412,12
958988,18
959572,15
960144,48
960720,79
961292,86
961872,91
962444,88
963024,95
963600,96
964172,75
964752,39
965324,23
965904,33
966476,11
967056,59
967628,86
968204,51
968784,43
969356,46
969936,56
970516,54
971096,20
971676,11
972252,21
972832,41
973404,39
973984,54
974556,46
975136,31
975716,41
976296,47
976876,47
977452,43
978032,44
978604,42
979184,57
979756,73
980336,73
980916,70
981492,84
982072,80
982648,77
983224,76
983796,63
984376,37
984948,43
985528,41
986100,42
986676,47
987256,54
987828,58
988408,65
988988,94
989568,102
990192,88
990764,65
991344,53
991916,38
992500,46
993076,41
993656,35
994236,46
994812,57
995392,79
995964,89
996544,103
997168,107
997796,97
998368,120
998992,128
999620,111
1000240,49
1000860,13
1001488,28
1002104,41
1002736,41
1003360,48
1003988,156
1004668,128
1005340,57
1005964,37
1006588,37
1007216,40
1007844,37
1008468,71
1009096,96
1009724,86
1010344,40
1010972,43
1011596,49
1012228,51
1012856,68
1013472,98
1014100,127
1014776,117
1015444,79
1016068,72
1016692,31
1017324,14
1017952,20
1018568,33
1019200,42
1019824,45
1020448,46
1021076,18
1021696,16
1022324,17
1022948,16
1023576,14
1024204,54
1024820,68
1025448,60
1026076,46
1026692,42
1027320,70
1027944,56
1028572,41
1029200,35
1029816,56
1030444,73
1031064,63
1031684,40
1032312,10
1032936,19
1033564,38
1034188,29
1034808,35
1035436,61
1036056,51
1036684,42
1037308,41
1037928,25
1038556,24
1039180,22
1039808,46
1040440,78
1041056,152
1041736,236
1042404,264
1043072,160
1043752,57
1044368,176
1045048,192
1045728,161
1046396,93
1047020,75
1047652,95
1048272,113
1048952,87
1049568,48
1050192,44
1050820,42
1051440,19
1052068,72
1052696,125
1053364,128
1054040,99
1054656,97
1055280,83
1055908,40
1056528,11
1057156,15
1057780,29
1058400,43
1059028,15
1059652,48
1060280,89
1060908,94
1061528,91
1062156,80
1062780,90
1063408,86
1064036,66
1064656,20
1065284,55
1065904,63
1066528,54
1067156,28
1067776,24
1068404,77
1069028,109
1069700,78
1070324,43
1070948,44
1071576,58
1072208,36
1072824,17
1073452,19
1074076,16
1074700,21
1075328,23
1075944,13
1076572,35
1077196,63
1077816,101
1078500,144
1079172,136
1079848,85
1080476,66
1081096,64
1081724,25
1082344,19
1082968,51
1083596,126
1084268,176
1084944,101
1085620,55
1086240,60
1086868,57
1087496,50
1088112,49
1088740,25
1089364,13
1089992,36
1090620,34
1091240,27
1091868,41
1092488,43
1093120,66
1093748,82
1094368,72
1094996,68
1095620,45
1096244,12
1096872,31
1097492,80
1098120,105
1098800,94
1099416,63
1100044,25
1100668,10
1101300,29
1101928,65
1102544,87
1103172,88
1103796,79
1104420,35
1105052,16
1105672,29
1106300,17
1106924,33
1107548,78
1108176,54
1108792,31
1109424,40
1110052,38
1110672,62
1111300,85
1111924,71
1112556,54
1113184,53
1113808,62
1114436,29
1115060,46
1115684,66
1116312,82
1116936,117
1117616,98
1118244,51
1118864,43
1119492,44
1120116,40
1120748,42
1121376,13
1121992,29
1122620,29
1123244,44
1123868,40
1124496,43
1125112,30
1125744,39
1126368,80
1126992,113
1127672,98
1128288,83
1128916,57
1129544,22
1130168,18
1130796,22
1131420,55
1132044,105
1132724,56
1133344,21
1133972,13
1134604,18
1135224,44
1135852,40
1136476,41
1137108,66
1137736,24
1138360,39
1138988,39
1139612,18
1140236,12
1140864,10
1141488,12
1142116,38
1142740,125
1143416,131
1144092,70
1144712,39
1145340,85
1145972,112
1146644,100
1147320,92
1147948,82
1148568,27
1149196,23
1149820,43
1150448,36
1151080,52
1151696,57
1152328,74
1152948,46
1153572,64
1154200,82
1154824,67
1155452,22
1156076,19
1156696,49
1157328,133
1157996,128
1158672,49
1159300,14
1159920,48
1160548,56
1161172,39
1161796,41
1162424,39
1163040,10
1163672,22
1164300,31
1164920,24
1165548,41
1166172,84
1166800,89
1167428,68
1168048,63
1168676,68
1169296,43
1169924,41
1170552,41
1171176,31
1171808,53
1172428,117
1173104,131
1173784,82
1174408,14
1175036,13
1175668,20
1176288,31
1176916,63
1177540,56
1178168,51
1178796,44
1179416,73
1180044,87
1180668,81
1181296,27
1181924,73
1182548,53
1183180,24
1183808,19
1184428,11
1185056,34
1185680,37
1186308,40
1186936,46
1187560,36
1188188,24
1188812,26
1189436,28
1190064,16
1190684,52
1191312,66
1191940,29
1192560,17
1193188,37
1193812,45
1194444,38
1195072,42
1195692,42
1196320,26
1196944,12
1197572,10
1198204,14
1198824,46
1199452,68
1200076,40
1200700,27
1201332,48
1201952,41
1202580,39
1203212,42
1203832,41
1204460,51
1205084,56
1205712,36
1206344,24
1206960,31
1207588,11
1208212,16
1208840,23
1209468,22
1210088,40
1210716,56
1211340,52
1211964,47
1212596,48
1213216,68
1213844,112
1214528,68
1215144,64
1215776,70
1216400,56
1217028,24
1217656,21
1218280,41
1218908,82
1219532,97
1220156,92
1220788,88
1221408,103
1222088,92
1222716,35
1223336,15
1223964,27
1224592,14
1225220,13
1225852,22
1226472,33
1227100,51
1227728,45
1228352,39
1228980,47
1229596,27
1230228,38
1230856,100
1231524,102
1232200,21
1232816,19
1233436,33
1234068,22
1234688,38
1235316,42
1235940,39
1236560,41
1237192,41
1237808,53
1238436,100
1239116,113
1239788,64
1240412,15
1241036,29
1241660,88
1242288,136
1242956,82
1243580,38
1244212,38
1244832,39
1245460,40
1246084,44
1246712,58
1247344,54
1247960,67
1248592,79
1249212,51
1249836,55
1250468,174
1251140,154
1251820,66
1252444,39
1253064,42
1253692,47
1254316,32
1254944,16
1255572,26
1256192,44
1256820,35
1257444,25
1258068,40
1258696,28
1259320,44
1259948,56
1260580,62
1261200,92
1261828,119
1262504,78
1263128,18
1263756,82
1264376,109
1265056,73
1265684,43
1266304,38
1266932,67
1267560,73
1268188,42
1268816,38
1269440,39
1270068,42
1270692,43
1271316,12
1271948,10
1272568,12
1273196,10
1273820,23
1274444,21
1275076,23
1275696,18
1276324,25
1276956,65
1277576,80
1278208,78
1278832,67
1279460,41
1280092,14
1280708,13
1281336,24
1281956,11
1282580,16
1283208,38
1283824,47
1284452,36
1285076,31
1285696,39
1286328,39
1286944,41
1287572,18
1288200,13
1288816,12
1289444,10
1290068,10
1290696,28
1291324,43
1291944,32
1292572,17
1293196,56
1293824,83
1294452,86
1295072,85
1295700,91
1296324,85
1296944,61
1297572,22
1298192,21
1298820,64
1299444,87
1300068,119
1300748,108
1301420,89
1302040,43
1302668,119
1303340,122
1304016,59
1304644,40
1305264,134
1305944,116
1306620,30
1307240,12
1307868,15
1308492,19
1309120,23
1309748,40
1310368,51
1311000,51
1311620,48
1312248,46
1312876,30
1313492,37
1314120,33
1314744,14
1315364,11
1315996,25
1316616,24
1317244,11
1317864,14
1318488,37
1319116,42
1319736,43
1320364,41
1320992,20
1321608,33
1322236,38
1322856,41
1323488,46
1324116,20
1324736,13
1325364,22
1325988,22
1326608,50
1327240,57
1327856,49
1328484,37
1329108,54
1329732,43
1330360,26
1330976,25
1331608,13
1332236,23
1332852,25
1333484,12
1334104,16
1334732,38
1335360,41
1335976,40
1336604,41
1337228,42
1337856,19
1338484,18
1339104,11
1339732,30
1340356,58
1340980,58
1341608,47
1342224,29
1342852,14
1343476,44
1344100,49
1344728,69
1345348,92
1345980,88
1346608,70
1347224,98
1347852,107
1348524,84
1349144,47
1349772,40
1350392,51
1351020,50
1351644,38
1352268,61
1352896,90
1353520,129
1354200,183
1354872,267
1355548,209
1356224,96
1356848,22
1357464,14
1358092,13
1358712,27
1359344,20
1359972,46
1360592,59
1361220,60
1361844,53
1362468,42
1363096,59
1363712,91
1364340,97
1364964,95
1365584,104
1366268,74
1366888,35
1367516,21
1368144,49
1368760,57
1369392,48
1370016,41
1370636,35
1371268,48
1371888,83
1372516,45
1373140,12
1373764,17
1374392,18
1375008,18
1375636,74
1376268,116
1376940,83
1377564,54
1378188,41
1378816,55
1379448,83
1380064,79
1380692,61
1381316,79
1381940,72
1382572,43
1383188,16
1383820,12
1384444,30
1385064,37
1385696,38
1386316,45
1386948,41
1387576,39
1388192,74
1388820,115
1389496,127
1390164,96
1390788,24
1391408,15
1392036,13
1392668,18
1393284,43
1393916,124
1394588,168
1395260,146
1395936,150
1396604,143
1397280,127
1397956,82
1398576,34
1399204,72
1399832,189
1400508,149
1401184,75
1401800,123
1402476,150
1403152,80
1403776,40
1404404,26
1405036,10
1405656,12
1406284,13
1406908,11
1407532,35
1408164,40
1408780,24
1409412,15
1410032,42
1410656,60
1411284,75
1411908,59
1412536,36
1413164,22
1413784,55
1414412,72
1415032,65
1415664,25
1416292,12
1416912,16
1417540,12
1418164,36
1418788,38
1419416,39
1420036,40
1420664,32
1421288,28
1421912,33
1422540,28
1423160,12
1423788,11
1424420,24
1425040,23
1425668,25
1426292,38
1426920,43
1427552,44
1428168,52
1428796,115
1429472,168
1430148,145
1430828,68
1431448,14
1432072,44
1432700,38
1433320,53
1433952,67
1434572,47
1435196,55
1435824,47
1436448,41
1437076,43
1437704,34
1438328,38
1438956,27
1439580,21
1440208,17
1440840,60
1441456,59
1442084,25
1442704,14
1443332,58
1443960,68
1444584,60
1445212,40
1445832,26
1446456,16
1447084,16
1447704,20
1448332,29
1448952,37
1449576,41
1450208,24
1450828,11
1451460,40
1452088,43
1452712,45
1453340,43
1453964,54
1454596,101
1455276,138
1455948,91
1456572,18
1457204,27
1457824,24
1458452,16
1459076,22
1459708,69
1460336,76
1460952,45
1461584,41
1462208,46
1462832,27
1463460,13
1464080,13
1464708,33
1465332,27
1465956,28
1466584,35
1467208,31
1467836,33
1468468,42
1469088,48
1469716,46
1470340,39
1470972,20
1471600,52
1472224,85
1472852,75
1473476,46
1474100,13
1474728,123
1475400,230
1476080,175
1476752,40
1477376,40
1478004,84
1478628,68
1479252,29
1479880,71
1480496,56
1481124,48
1481756,12
1482376,17
1483004,23
1483628,26
1484256,19
1484888,39
1485504,47
1486132,42
1486756,40
1487376,25
1488008,20
1488624,41
1489252,46
1489876,46
1490500,38
1491128,15
1491744,33
1492376,52
1493004,58
1493624,67
1494252,62
1494876,66
1495508,71
1496136,77
1496756,86
1497384,58
1498008,32
1498632,36
1499260,32
1499880,19
1500508,33
1501132,29
1501756,44
1502388,72
1503008,89
1503636,103
1504320,54
1504936,17
1505564,33
1506188,47
1506820,19
1507448,17
1508068,29
1508696,19
1509320,21
1509944,40
1510572,59
1511192,71
1511820,45
1512444,24
1513072,38
1513700,29
1514324,11
1514956,19
1515584,33
1516208,43
1516836,14
1517460,10
1518084,36
1518716,40
1519336,39
1519968,41
1520592,34
1521216,10
1521844,12
1522464,32
1523092,62
1523724,95
1524344,85
1524972,43
1525596,29
1526228,38
1526860,38
1527480,41
1528108,45
1528732,50
1529356,52
1529988,73
1530608,89
1531236,89
1531860,59
1532488,48
1533116,12
1533736,28
1534368,27
1534996,36
1535616,50
1536248,46
1536868,42
1537496,18
1538128,17
1538744,22
1539372,18
1539996,15
1540620,11
1541248,17
1541864,13
1542492,22
1543116,38
1543740,53
1544368,53
1544984,68
1545616,63
1546236,41
1546864,47
1547492,51
1548116,39
1548748,20
1549376,18
1550000,69
1550628,110
1551304,109
1551976,106
1552652,62
1553272,39
1553900,60
1554532,66
1555152,66
1555784,52
1556408,43
1557032,14
1557660,33
1558280,36
1558908,27
1559532,28
1560156,48
1560788,47
1561412,40
1562040,42
1562672,21
1563288,15
1563916,33
1564540,50
1565168,36
1565800,14
1566416,22
1567044,13
1567668,26
1568292,35
1568920,38
1569544,40
1570172,40
1570796,15
1571420,13
1572052,22
1572672,24
1573304,11
1573932,32
1574552,55
1575180,32
1575804,17
1576436,40
1577064,44
1577688,50
1578316,44
1578940,51
1579564,76
1580192,70
1580816,39
1581444,23
1582068,32
1582692,27
1583324,13
1583948,10
1584580,39
1585212,49
1585832,49
1586464,44
1587088,44
1587716,88
1588348,114
1589020,174
1589696,142
1590376,88
1591000,59
1591632,27
1592256,14
1592880,47
1593508,78
1594128,65
1594760,59
1595384,53
1596008,57
1596636,51
1597264,29
1597896,26
1598524,22
1599144,11
1599776,20
1600400,29
1601028,30
1601656,34
1602272,42
1602900,50
1603524,60
1604144,54
1604776,42
1605392,11
1606020,32
1606644,68
1607268,78
1607896,56
1608520,28
1609148,27
1609776,48
1610392,82
1611020,81
1611644,43
1612276,38
1612904,36
1613520,17
1614148,27
1614772,59
1615396,60
1616024,37
1616640,17
1617268,36
1617892,38
1618516,37
1619144,41
1619768,42
1620396,42
1621028,25
1621648,35
1622276,40
1622900,50
1623532,23
1624160,20
1624776,28
1625408,24
1626032,36
1626656,37
1627284,42
1627904,46
1628532,64
1629156,51
1629780,21
1630412,30
1631032,15
1631664,23
1632292,80
1632912,128
1633592,91
1634216,26
1634840,104
1635520,101
1636196,84
1636820,69
1637452,32
1638072,17
1638704,39
1639324,70
1639948,97
1640576,79
1641192,70
1641816,58
1642440,41
1643060,38
1643688,44
1644304,46
1644932,45
1645552,52
1646176,67
1646804,76
1647424,78
1648052,50
1648680,46
1649300,46
1649928,12
1650548,14
1651176,43
1651808,44
1652424,40
1653052,47
1653676,57
1654296,13
1654928,40
1655544,33
1656172,38
1656796,63
1657416,48
1658048,39
1658664,25
1659292,14
1659920,39
1660536,50
1661168,43
1661788,43
1662416,18
1663048,55
1663664,15
1664292,90
1664916,71
1665540,15
1666168,26
1666784,38
1667412,53
1668036,62
1668656,63
1669284,42
1669900,72
1670532,117
1671212,125
1671884,107
1672560,76
1673176,13
1673796,75
1674428,115
1675096,92
1675724,53
1676356,50
1676976,50
1677604,44
1678224,45
1678852,44
1679484,38
1680104,65
1680732,52
1681352,26
1681972,13
1682600,20
1683220,44
1683848,38
1684472,34
1685096,41
1685724,39
1686348,39
1686976,42
1687604,11
1688224,30
1688852,11
1689476,24
1690104,26
1690732,34
1691352,105
1692032,116
1692704,54
1693320,44
1693948,64
1694572,49
1695200,47
1695828,46
1696448,53
1697076,62
1697700,72
1698320,81
1698948,117
1699620,110
1700296,61
1700920,35
1701536,36
1702164,113
1702840,99
1703456,79
1704084,104
1704752,96
1705380,75
1706012,32
1706632,16
1707260,36
1707884,29
1708512,13
1709140,12
1709760,44
1710388,55
1711012,88
1711636,100
1712316,93
1712936,95
1713564,89
1714196,64
1714816,17
1715444,29
1716068,22
1716696,16
1717324,16
1717944,45
1718572,73
1719196,64
1719820,43
1720452,36
1721072,14
1721700,17
1722320,16
1722944,38
1723572,44
1724192,38
1724820,23
1725448,30
1726064,31
1726696,40
1727320,41
1727948,49
1728580,53
1729200,31
1729828,11
1730452,30
1731076,57
1731708,56
1732328,50
1732956,18
1733580,11
1734204,28
1734832,36
1735456,41
1736084,40
1736712,43
1737336,32
1737964,41
1738588,29
1739216,15
1739848,51
1740464,42
1741096,15
1741720,25
1742340,44
1742972,70
1743592,61
1744220,40
1744844,42
1745464,30
1746096,11
1746712,40
1747340,60
1747964,70
1748592,64
1749220,20
1749844,56
1750472,29
1751104,31
1751720,45
1752348,43
1752972,43
1753600,55
1754232,63
1754848,70
1755476,43
1756100,25
1756724,30
1757356,40
1757976,51
1758604,49
1759228,36
1759856,35
1760488,45
1761108,53
1761740,63
1762368,90
1762984,109
1763664,113
1764332,108
1765004,51
1765628,21
1766252,42
1766880,83
1767512,81
1768128,48
1768756,42
1769380,43
1770004,47
1770632,34
1771248,11
1771876,34
1772500,74
1773124,41
1773752,18
1774372,31
1775000,31
1775628,62
1776248,47
1776876,54
1777500,74
1778132,95
1778760,111
1779432,99
1780052,91
1780676,81
1781300,22
1781932,80
1782552,156
1783232,97
1783856,22
1784472,35
1785100,45
1785724,40
1786356,44
1786984,41
1787600,21
1788232,31
1788856,41
1789480,38
1790108,39
1790728,29
1791356,26
1791984,23
1792608,20
1793236,53
1793860,86
1794492,95
1795120,67
1795736,16
1796364,32
1796988,38
1797620,22
1798248,22
1798864,13
1799492,26
1800116,11
1800740,41
1801368,59
1801992,45
1802620,43
1803244,85
1803864,80
1804496,56
1805112,29
1805740,53
1806368,125
1807036,135
1807712,89
1808336,73
1808956,44
1809588,40
1810208,47
1810836,45
1811468,54
1812088,64
1812716,65
1813340,76
1813968,93
1814596,48
1815216,40
1815844,41
1816468,12
1817092,17
1817724,32
1818344,40
1818972,42
1819596,43
1820220,43
1820848,20
1821464,21
1822092,25
1822716,19
1823344,29
1823972,32
1824600,50
1825228,50
1825856,55
1826472,49
1827104,42
1827728,42
1828356,50
1828988,68
1829608,58
1830236,42
1830860,75
1831484,99
1832116,76
1832736,35
1833364,27
1833996,38
1834616,39
1835244,52
1835868,46
1836500,42
1837128,39
1837752,39
1838384,24
1839008,15
1839632,43
1840260,43
1840880,14
1841508,40
1842132,91
1842756,91
1843388,60
1844004,45
1844632,42
1845264,55
1845880,70
1846508,77
1847132,60
1847760,43
1848388,26
1849008,38
1849636,58
1850256,25
1850884,13
1851512,36
1852136,45
1852764,42
1853388,41
1854012,33
1854644,40
1855264,31
1855892,65
1856524,81
1857144,50
1857772,46
1858396,48
1859024,35
1859652,41
1860272,49
1860900,48
1861524,63
1862152,110
1862832,120
1863500,101
1864176,106
1864856,75
1865472,54
1866100,17
1866724,29
1867348,31
1867976,88
1868600,121
1869280,88
1869908,44
1870528,25
1871156,21
1871780,17
1872404,10
1873036,10
1873656,18
1874284,41
1874908,57
1875532,59
1876164,40
1876784,51
1877412,67
1878044,82
1878664,65
1879292,14
1879916,11
1880548,41
1881180,34
1881800,62
1882428,81
1883052,55
1883676,21
1884308,26
1884928,38
1885556,39
1886180,45
1886804,50
1887432,31
1888056,15
1888684,17
1889312,11
1889928,13
1890560,47
1891184,72
1891812,60
1892444,22
1893064,38
1893692,42
1894320,43
1894944,42
1895572,16
1896192,59
1896820,92
1897444,89
1898068,24
1898696,16
1899320,23
1899948,38
1900580,65
1901200,47
1901828,40
1902452,65
1903084,89
1903712,95
1904336,49
1904964,14
1905588,11
1906212,18
1906844,11
1907464,94
1908092,170
1908776,170
1909444,86
1910068,38
1910696,54
1911320,56
1911948,42
1912568,19
1913196,57
1913824,120
1914500,114
1915180,68
1915800,68
1916424,58
1917056,43
1917672,49
1918304,41
1918928,49
1919552,67
1920184,68
1920800,69
1921428,46
1922056,36
1922676,21
1923304,13
1923928,14
1924556,34
1925188,71
1925808,46
1926436,35
1927056,50
1927684,50
1928312,45
1928936,22
1929564,10
1930188,27
1930812,71
1931444,62
1932064,51
1932692,31
1933324,26
1933944,26
1934572,37
1935196,38
1935828,43
1936456,40
1937080,24
1937708,34
1938332,46
1938956,42
1939588,30
1940208,35
1940836,58
1941460,76
1942084,68
1942712,43
1943336,49
1943968,73
1944596,90
1945216,88
1945848,88
1946468,85
1947100,93
1947728,84
1948344,34
1948976,22
1949600,63
1950220,37
1950852,55
1951472,82
1952100,43
1952724,59
1953348,87
1953976,66
1954600,37
1955228,18
1955860,31
1956480,21
1957108,43
1957732,42
1958364,46
1958992,54
1959616,41
1960244,41
1960868,41
1961492,46
1962124,70
1962744,83
1963372,81
1964000,77
1964624,55
1965252,27
1965872,10
1966504,20
1967132,28
1967752,51
1968380,59
1969004,61
1969632,62
1970260,46
1970880,12
1971508,47
1972132,110
1972808,138
1973480,72
1974096,21
1974724,61
1975352,90
1975976,101
1976660,60
1977280,46
1977904,53
1978532,44
1979152,27
1979780,51
1980408,56
1981028,39
1981660,32
1982284,44
1982912,28
1983540,17
1984160,34
1984788,43
1985412,42
1986040,42
1986668,52
1987288,48
1987916,13
1988540,42
1989160,52
1989792,41
1990408,24
1991036,14
1991660,27
1992284,92
1992916,110
1993592,87
1994216,71
1994848,48
1995464,20
1996092,17
1996720,24
1997344,60
1997972,48
1998592,19
1999220,16
1999844,25
2000468,23
2001100,42
2001720,51
2002348,46
2002976,44
2003600,65
2004228,29
2004852,12
2005480,15
2006108,14
2006728,18
2007356,49
2007980,69
2008604,105
2009284,99
2009904,40
2010532,56
2011160,64
2011784,73
2012412,107
2013088,126
2013756,128
2014432,113
2015108,86
2015732,59
2016364,14
2016984,11
2017612,65
2018236,46
2018860,50
2019488,87
2020108,99
2020736,100
2021416,87
2022040,64
2022672,31
2023292,15
2023924,23
2024552,31
2025172,77
2025800,77
2026424,40
2027048,43
2027676,46
2028296,59
2028924,75
2029548,67
2030172,73
2030804,80
2031428,60
2032056,47
2032684,32
2033304,14
2033932,23
2034556,40
2035188,43
2035820,42
2036440,51
2037068,31
2037696,17
2038320,17
2038948,28
2039568,38
2040200,48
2040824,84
2041448,113
2042128,143
2042800,152
2043468,106
2044148,51
2044768,45
2045400,40
2046028,136
2046700,225
2047380,238
2048060,167
2048728,115
2049400,24
2050016,57
2050636,109
2051316,77
2051932,46
2052564,43
2053192,50
2053808,33
2054436,13
2055056,49
2055684,49
2056312,35
2056928,29
2057556,40
2058180,34
2058804,28
2059432,40
2060048,52
2060680,60
2061300,83
2061924,72
2062552,42
2063176,15
2063804,11
2064432,14
2065048,15
2065676,25
2066300,18
2066928,13
2067556,30
2068176,42
2068804,57
2069424,48
2070048,43
2070676,16
2071296,16
2071924,11
2072548,12
2073172,14
2073800,19
2074416,55
2075044,76
2075672,62
2076296,37
2076924,44
2077548,53
2078176,54
2078808,74
2079424,82
2080052,51
2080672,46
2081296,69
2081924,63
2082540,47
2083172,15
2083796,17
2084416,40
2085044,45
2085664,90
2086292,98
2086920,87
2087544,46
2088172,18
2088796,13
2089424,29
2090052,60
2090672,79
2091300,72
2091924,45
2092548,33
2093180,70
2093800,106
2094480,69
2095096,56
2095720,61
2096348,77
2096972,130
2097652,150
2098328,117
2098996,116
2099672,78
2100300,16
2100920,35
2101548,76
2102172,157
2102848,129
2103520,90
2104136,65
2104764,66
2105392,85
2106016,65
2106644,70
2107268,95
2107896,124
2108576,130
2109252,86
2109876,43
2110508,78
2111128,146
2111808,204
2112484,210
2113156,184
2113832,142
2114500,84
2115120,75
2115748,37
2116368,45
2116996,85
2117620,93
2118244,86
2118872,44
2119496,43
2120128,42
2120756,38
2121376,59
2122004,50
2122628,19
2123256,39
2123888,65
2124504,101
2125184,114
2125864,78
2126480,47
2127108,41
2127732,41
2128360,44
2128992,41
2129608,49
2130236,58
2130860,39
2131484,25
2132112,22
2132728,13
2133360,11
2133980,13
2134604,39
2135232,42
2135856,42
2136484,41
2137112,16
2137736,16
2138364,17
2138988,11
2139616,12
2140248,33
2140864,59
2141492,56
2142116,65
2142740,49
2143368,42
2143988,59
2144616,72
2145240,87
2145864,101
2146544,103
2147212,72
2147836,45
2148468,44
2149088,24
2149716,49
2150344,56
2150968,50
2151596,40
2152216,43
2152844,43
2153468,39
2154096,35
2154724,26
2155348,12
2155976,19
2156608,10
2157224,24
2157852,36
2158476,60
2159108,81
2159736,37
2160356,45
2160984,41
2161604,43
2162228,45
2162860,56
2163480,65
2164108,79
2164732,56
2165360,46
2165988,43
2166612,38
2167244,23
2167872,39
2168488,52
2169120,49
2169744,42
2170372,21
2171004,23
2171624,45
2172252,28
2172876,20
2173500,26
2174128,28
2174748,19
2175376,14
2176008,75
2176620,68
2177252,43
2177872,45
2178500,39
2179132,47
2179752,91
2180380,108
2181056,124
2181724,64
2182348,59
2182968,107
2183648,58
2184272,38
2184888,46
2185516,61
2186140,97
2186764,146
2187448,148
2188116,76
2188744,20
2189372,16
2189992,41
2190620,48
2191244,35
2191876,25
2192508,35
2193128,62
2193756,127
2194440,158
2195108,148
2195788,132
2196460,116
2197132,102
2197808,48
2198432,24
2199056,58
2199684,111
2200356,87
2200980,39
2201612,58
2202232,49
2202860,43
2203484,33
2204112,13
2204744,23
2205360,31
2205992,19
2206616,19
2207240,42
2207868,65
2208488,69
2209116,55
2209740,37
2210364,43
2210996,50
2211616,50
2212244,55
2212876,78
2213496,101
2214176,89
2214796,52
2215424,21
2216052,39
2216672,96
2217300,92
2217924,36
2218548,59
2219180,83
2219800,64
2220428,25
2221052,30
2221680,18
2222308,43
2222932,24
2223564,10
2224196,61
2224816,120
2225496,133
2226168,83
2226784,48
2227416,51
2228036,48
2228668,34
2229296,75
2229916,87
2230544,72
2231168,28
2231800,25
2232428,12
2233048,19
2233676,21
2234300,38
2234924,43
2235556,44
2236176,45
2236804,29
2237428,15
2238056,11
2238684,44
2239312,41
2239940,33
2240572,33
2241192,40
2241820,29
2242444,35
2243076,52
2243704,51
2244320,49
2244952,47
2245576,20
2246200,65
2246828,92
2247448,80
2248076,63
2248700,65
2249328,35
2249956,22
2250580,33
2251212,47
2251840,53
2252464,44
2253096,40
2253716,67
2254340,104
2255024,69
2255640,16
2256268,18
2256892,48
2257520,79
2258148,65
2258772,19
2259400,47
2260028,42
2260648,43
2261276,60
2261900,69
2262528,75
2263160,105
2263828,139
2264504,113
2265184,86
2265808,82
2266436,54
2267060,15
2267684,40
2268312,39
2268936,58
2269564,151
2270248,186
2270916,130
2271596,74
2272216,29
2272840,12
2273468,14
2274088,32
2274716,58
2275348,53
2275968,39
2276596,54
2277220,51
2277852,60
2278484,48
2279104,42
2279732,76
2280356,91
2280980,73
2281608,28
2282224,27
2282856,46
2283480,45
2284104,47
2284732,39
2285352,44
2285980,43
2286612,42
2287232,13
2287860,56
2288488,152
2289168,158
2289852,74
2290472,18
2291104,13
2291732,12
2292352,27
2292984,58
2293608,158
2294288,346
2294968,338
2295644,192
2296320,24
2296948,94
2297568,102
2298248,79
2298872,33
2299496,12
2300124,10
2300748,41
2301380,59
2302012,48
2302632,44
2303264,44
2303888,13
2304520,11
2305148,34
2305768,71
2306396,43
2307020,16
2307644,48
2308272,56
2308888,36
2309520,35
2310144,44
2310768,49
2311396,47
2312020,43
2312648,45
2313280,75
2313896,46
2314528,15
2315152,27
2315780,12
2316412,30
2317032,21
2317660,37
2318284,43
2318908,62
2319540,54
2320160,33
2320788,23
2321416,20
2322040,15
2322668,12
2323292,19
2323920,53
2324552,90
2325168,114
2325852,71
2326472,41
2327096,41
2327724,41
2328344,41
2328972,40
2329596,64
2330224,73
2330852,76
2331476,63
2332108,51
2332740,12
2333360,26
2333988,24
2334616,49
2335240,53
2335868,50
2336488,49
2337116,13
2337740,11
2338364,14
2338992,10
2339616,35
2340244,83
2340876,121
2341548,130
2342228,91
2342848,34
2343472,51
2344100,66
2344720,68
2345348,77
2345972,89
2346596,68
2347228,81
2347852,121
2348532,102
2349212,61
2349832,41
2350464,35
2351088,37
2351712,41
2352344,43
2352968,50
2353596,122
2354280,182
2354948,219
2355628,122
2356304,16
2356920,41
2357548,61
2358172,123
2358848,57
2359476,49
2360096,83
2360724,67
2361356,51
2361976,23
2362604,24
2363228,62
2363860,78
2364492,44
2365112,21
2365744,11
2366368,13
2366992,27
2367624,43
2368240,42
2368868,42
2369492,41
2370116,27
2370748,33
2371368,30
2371996,19
2372628,18
2373248,11
2373876,30
2374504,36
2375132,32
2375764,38
2376384,47
2377012,45
2377636,48
2378260,48
2378888,59
2379512,106
2380196,106
2380872,41
2381496,28
2382124,29
2382748,11
2383372,11
2384004,26
2384624,40
2385252,47
2385876,47
2386504,47
2387132,16
2387752,49
2388380,71
2389012,71
2389632,61
2390264,41
2390888,40
2391520,27
2392148,17
2392768,54
2393400,100
2394076,106
2394748,74
2395376,44
2396000,24
2396632,32
2397260,50
2397880,27
2398512,38
2399136,112
2399812,85
2400440,17
2401056,53
2401684,67
2402316,47
2402936,53
2403564,45
2404188,17
2404820,37
2405448,14
2406068,34
2406696,34
2407320,26
2407944,19
2408572,28
2409192,40
2409820,46
2410444,65
2411068,55
2411700,30
2412320,26
2412948,35
2413580,38
2414200,41
2414828,37
2415452,39
2416084,21
2416712,11
2417336,29
2417964,40
2418588,41
2419212,42
2419840,44
2420464,25
2421092,25
2421716,19
2422340,17
2422972,31
2423592,44
2424224,60
2424852,54
2425472,35
2426104,44
2426728,64
2427356,64
2427988,62
2428608,95
2429240,92
2429864,64
2430488,62
2431116,25
2431736,10
2432368,10
2432992,11
2433616,26
2434244,40
2434864,42
2435492,49
2436124,62
2436744,40
2437376,18
2438000,20
2438628,24
2439256,14
2439880,24
2440508,69
2441132,95
2441756,87
2442388,42
2443008,56
2443636,59
2444264,61
2444888,67
2445516,94
2446136,81
2446764,65
2447396,54
2448016,47
2448644,40
2449268,11
2449900,11
2450528,46
2451152,59
2451784,42
2452408,49
2453032,44
2453664,16
2454280,14
2454912,38
2455536,43
2456160,61
2456792,53
2457416,57
2458048,55
2458676,73
2459296,41
2459924,46
2460548,44
2461176,43
2461804,24
2462424,43
2463052,36
2463676,26
2464300,20
2464928,34
2465544,41
2466176,16
2466800,13
2467420,39
2468052,43
2468672,42
2469304,57
2469932,46
2470552,21
2471180,19
2471804,21
2472436,26
2473064,38
2473684,21
2474312,16
2474936,23
2475560,49
2476188,84
2476808,63
2477436,46
2478060,43
2478688,23
2479316,25
2479940,29
2480572,68
2481200,52
2481824,12
2482452,52
2483076,41
2483708,33
2484336,47
2484960,41
2485588,40
2486212,47
2486836,44
2487464,60
2488088,47
2488716,21
2489340,18
2489968,13
2490596,22
2491220,41
2491852,37
2492480,43
2493100,54
2493728,60
2494352,86
2494984,63
2495612,56
2496232,36
2496860,16
2497484,25
2498108,12
2498740,19
2499360,16
2499988,22
2500616,32
2501240,40
2501868,45
2502492,49
2503124,44
2503752,20
2504372,49
2505000,42
2505624,32
2506248,13
2506876,51
2507496,58
2508128,43
2508752,16
2509376,55
2510004,67
2510624,61
2511252,57
2511884,62
2512504,47
2513132,39
2513756,39
2514388,33
2515020,32
2515640,13
2516268,61
2516896,69
2517520,49
2518148,44
2518768,42
2519400,42
2520024,27
2520648,11
2521276,15
2521896,22
2522524,15
2523156,14
2523776,14
2524408,23
2525032,24
2525660,56
2526292,87
2526912,86
2527544,53
2528168,41
2528792,20
2529420,49
2530040,103
2530720,117
2531400,31
2532024,18
2532652,30
2533280,51
2533904,42
2534536,39
2535152,44
2535784,41
2536408,44
2537032,18
2537664,14
2538280,51
2538912,53
2539540,16
2540160,44
2540788,51
2541416,44
2542044,56
2542676,34
2543296,46
2543928,55
2544552,60
2545176,48
2545808,44
2546424,73
2547056,86
2547680,64
2548304,36
2548936,20
2549552,16
2550184,15
2550812,38
2551432,38
2552064,40
2552688,40
2553320,33
2553948,36
2554568,28
2555200,11
2555824,13
2556448,16
2557080,24
2557700,22
2558328,30
2558956,37
2559584,54
2560216,75
2560836,70
2561464,51
2562092,28
2562708,10
2563340,13
2563960,55
2564588,40
2565216,11
2565832,14
2566460,34
2567084,58
2567704,46
2568332,41
2568952,50
2569580,44
2570204,24
2570828,31
2571456,21
2572072,16
2572704,25
2573332,48
2573952,77
2574580,97
2575204,100
2575884,60
2576508,45
2577128,67
2577756,64
2578380,63
2579004,59
2579632,106
2580308,134
2580984,90
2581612,73
2582232,53
2582860,26
2583484,84
2584108,81
2584736,42
2585356,52
2585984,68
2586608,61
2587228,52
2587856,46
2588480,41
2589108,21
2589736,16
2590360,36
2590988,65
2591612,92
2592244,149
2592924,115
2593596,44
2594220,77
2594852,64
2595472,20
2596100,21
2596724,82
2597356,118
2598036,137
2598708,156
2599384,138
2600064,107
2600740,82
2601364,41
2601996,52
2602616,124
2603296,162
2603964,126
2604636,112
2605316,57
2605936,12
2606564,35
2607196,39
2607816,117
2608500,145
2609176,121
2609852,91
2610476,49
2611104,49
2611728,46
2612356,46
2612976,91
2613604,108
2614288,126
2614956,146
2615632,88
2616256,37
2616880,19
2617508,36
2618128,47
2618756,50
2619380,41
2620004,83
2620636,175
2621312,138
2621988,70
2622612,27
2623232,12
2623860,13
2624484,41
2625104,55
2625736,41
2626352,61
2626980,58
2627608,45
2628224,39
2628852,59
2629476,105
2630156,104
2630832,75
2631456,97
2632084,109
2632764,79
2633384,45
2634012,36
2634636,96
2635264,179
2635944,184
2636612,91
2637236,38
2637868,12
2638488,39
2639116,51
2639740,25
2640368,14
2640996,20
2641616,63
2642244,42
2642864,127
2643540,108
2644216,63
2644832,59
2645460,51
2646088,16
2646704,26
2647332,35
2647956,56
2648584,153
2649264,99
2649880,54
2650508,30
2651132,70
2651760,117
2652440,59
2653064,41
2653692,12
2654320,20
2654944,19
2655572,10
2656196,15
2656820,34
2657448,60
2658072,51
2658700,33
2659324,40
2659952,71
2660580,73
2661204,56
2661836,34
2662464,71
2663080,111
2663760,135
2664428,144
2665096,151
2665776,98
2666392,33
2667016,13
2667644,34
2668264,45
2668892,47
2669512,52
2670136,37
2670764,32
2671384,30
2672012,37
2672636,68
2673260,95
2673888,111
2674564,88
2675188,63
2675820,38
2676440,61
2677068,91
2677692,106
2678368,101
2679044,88
2679664,73
2680292,35
2680924,23
2681544,28
2682172,41
2682796,41
2683420,31
2684048,36
2684672,38
2685300,40
2685924,40
2686548,26
2687176,30
2687796,73
2688428,95
2689056,79
2689672,51
2690300,20
2690924,12
2691552,14
2692180,50
2692800,57
2693428,110
2694104,203
2694772,150
2695448,102
2696116,16
2696736,75
2697364,103
2698036,96
2698660,75
2699292,34
2699912,13
2700540,34
2701168,39
2701796,43
2702424,43
2703048,40
2703676,21
2704300,29
2704924,33
2705552,21
2706172,16
2706800,31
2707424,56
2708044,93
2708676,90
2709296,45
2709924,43
2710552,58
2711176,73
2711804,96
2712428,124
2713112,147
2713788,153
2714460,142
2715136,116
2715812,64
2716432,17
2717060,35
2717684,57
2718308,114
2718992,98
2719608,49
2720236,53
2720868,64
2721488,89
2722116,109
2722792,101
2723460,44
2724084,63
2724708,121
2725388,44
2726012,74
2726632,113
2727312,128
2727988,140
2728660,106
2729336,77
2729952,65
2730576,54
2731204,85
2731824,128
2732504,113
2733180,121
2733852,135
2734528,97
2735156,42
2735776,104
2736456,204
2737132,164
2737804,172
2738480,180
2739156,172
2739828,172
2740504,135
2741180,50
2741800,19
2742428,68
2743048,85
2743676,67
2744300,54
2744924,39
2745556,38
2746180,73
2746808,85
2747440,59
2748056,57
2748684,59
2749308,23
2749940,11
2750568,47
2751192,46
2751824,39
2752448,42
2753072,41
2753700,50
2754320,61
2754948,42
2755572,33
2756196,43
2756824,41
2757448,38
2758080,62
2758708,60
2759328,38
2759956,41
2760584,43
2761212,59
2761844,85
2762464,111
2763144,145
2763828,136
2764500,104
2765180,91
2765800,75
2766420,37
2767052,39
2767672,41
2768300,66
2768932,56
2769552,45
2770180,56
2770804,65
2771436,57
2772064,26
2772680,39
2773312,33
2773936,75
2774560,89
2775188,71
2775808,36
2776436,55
2777060,52
2777684,47
2778316,105
2778988,118
2779664,88
2780292,50
2780912,24
2781540,25
2782164,17
2782788,14
2783420,39
2784040,75
2784668,69
2785300,42
2785920,45
2786548,36
2787172,115
2787852,130
2788528,102
2789196,70
2789824,21
2790452,28
2791072,41
2791700,45
2792324,85
2792952,137
2793632,146
2794308,133
2794984,142
2795664,85
2796288,15
2796916,26
2797540,13
2798164,131
2798848,229
2799516,195
2800188,132
2800864,79
2801480,56
2802108,41
2802736,74
2803360,147
2804040,177
2804708,170
2805380,114
2806056,49
2806680,52
2807304,23
2807932,146
2808604,234
2809280,265
2809960,183
2810636,46
2811264,88
2811888,117
2812564,138
2813240,116
2813916,64
2814536,20
2815168,10
2815784,26
2816416,22
2817044,30
2817664,54
2818292,50
2818916,41
2819544,51
2820172,26
2820792,13
2821420,31
2822044,29
2822668,22
2823296,16
2823920,47
2824548,42
2825172,25
2825796,38
2826428,46
2827048,41
2827676,83
2828304,112
2828980,91
2829604,95
2830228,116
2830908,112
2831584,83
2832208,38
2832836,117
2833516,70
2834136,40
2834764,45
2835388,43
2836012,49
2836640,81
2837264,54
2837892,12
2838516,22
2839140,33
2839772,28
2840396,23
2841024,12
2841652,17
2842272,61
2842900,71
2843524,54
2844152,44
2844784,30
2845400,21
2846032,21
2846656,49
2847280,14
2847908,21
2848528,24
2849156,21
2849780,41
2850404,34
2851032,45
2851656,39
2852288,66
2852916,107
2853588,75
2854216,30
2854840,13
2855464,12
2856092,12
2856712,17
2857340,17
2857964,21
2858588,22
2859220,35
2859844,45
2860476,42
2861104,66
2861728,93
2862360,118
2863036,170
2863708,156
2864388,109
2865060,72
2865680,31
2866308,126
2866980,190
2867660,120
2868336,48
2868952,43
2869580,41
2870204,11
2870828,20
2871456,31
2872076,19
2872704,39
2873328,69
2873952,67
2874580,43
2875204,46
2875832,37
2876464,45
2877080,46
2877708,46
2878332,15
2878964,22
2879596,50
2880216,93
2880844,73
2881464,60
2882088,37
2882716,26
2883336,32
2883964,38
2884588,42
2885208,40
2885840,46
2886456,41
2887084,31
2887712,20
2888336,12
2888964,19
2889584,13
2890212,16
2890844,19
2891464,16
2892092,39
2892716,45
2893340,67
2893972,56
2894592,40
2895220,62
2895844,89
2896468,81
2897096,53
2897716,14
2898344,20
2898972,30
2899592,55
2900220,77
2900844,81
2901472,70
2902104,59
2902720,47
2903348,81
2903972,176
2904648,101
2905328,15
2905952,48
2906580,25
2907212,46
2907832,108
2908516,88
2909136,61
2909760,119
2910440,114
2911108,89
2911736,56
2912364,19
2912984,56
2913612,13
2914236,31
2914860,95
2915492,97
2916112,69
2916740,52
2917368,67
2917992,53
2918620,47
2919244,98
2919876,153
2920556,162
2921228,155
2921904,128
2922584,91
2923208,72
2923836,74
2924460,56
2925084,19
2925716,42
2926336,46
2926964,41
2927592,44
2928216,64
2928844,84
2929464,99
2930092,94
2930724,70
2931344,68
2931972,47
2932596,23
2933228,39
2933856,39
2934480,62
2935108,60
2935732,59
2936360,63
2936988,66
2937608,21
2938236,76
2938864,96
2939488,33
2940116,23
2940744,33
2941372,90
2942004,105
2942676,50
2943304,43
2943928,47
2944552,59
2945184,84
2945800,107
2946484,101
2947160,78
2947784,45
2948416,15
2949040,37
2949664,64
2950292,46
2950912,41
2951540,41
2952164,53
2952788,59
2953416,32
2954040,17
2954668,34
2955300,20
2955920,29
2956548,39
2957176,45
2957804,66
2958432,84
2959056,44
2959684,43
2960308,48
2960932,47
2961560,64
2962184,65
2962812,43
2963436,12
2964060,16
2964688,10
2965312,16
2965940,12
2966572,16
2967192,38
2967824,41
2968448,43
2969076,44
2969708,23
2970328,21
2970956,16
2971580,15
2972200,20
2972832,31
2973448,45
2974076,47
2974700,53
2975324,48
2975956,38
2976580,41
2977208,41
2977840,58
2978456,74
2979088,64
2979712,84
2980340,79
2980972,48
2981592,25
2982220,12
2982848,11
2983468,20
2984100,36
2984720,42
2985348,42
2985972,41
2986596,15
2987228,13
2987852,36
2988480,52
2989112,45
2989728,33
2990360,41
2990984,63
2991612,56
2992244,40
2992864,59
2993492,47
2994116,40
2994740,21
2995372,26
2995992,62
2996620,60
2997244,36
2997872,41
2998500,73
2999124,93
2999756,94
3000388,100
3001060,80
3001684,49
3002308,50
3002932,127
3003616,124
3004284,72
3004912,28
3005540,40
3006160,47
3006788,26
3007416,17
3008040,29
3008668,44
3009288,40
3009916,44
3010540,71
3011168,141
3011848,122
3012524,46
3013144,20
3013772,48
3014392,52
3015024,56
3015648,46
3016272,45
3016900,59
3017520,57
3018152,57
3018780,51
3019400,42
3020032,15
3020656,33
3021288,45
3021916,10
3022536,53
3023168,106
3023844,135
3024516,96
3025144,64
3025768,42
3026396,44
3027028,50
3027648,56
3028280,19
3028904,26
3029528,32
3030160,50
3030776,51
3031408,54
3032032,71
3032656,88
3033284,83
3033904,65
3034536,48
3035164,45
3035784,47
3036416,22
3037040,105
3037720,195
3038404,48
3039024,24
3039656,52
3040288,135
3040956,130
3041636,107
3042312,50
3042936,43
3043564,41
3044188,46
3044820,87
3045448,168
3046124,214
3046804,171
3047480,75
3048104,13
3048732,32
3049356,23
3049988,23
3050620,38
3051240,43
3051872,40
3052496,45
3053120,19
3053748,15
3054368,35
3055000,44
3055628,43
3056248,51
3056880,65
3057500,61
3058132,57
3058764,44
3059384,44
3060012,51
3060640,60
3061264,88
3061892,123
3062564,117
3063244,79
3063872,82
3064488,48
3065120,22
3065744,63
3066376,69
3067008,40
3067624,39
3068256,41
3068880,41
3069504,40
3070136,22
3070756,19
3071388,11
3072020,12
3072636,52
3073268,75
3073892,75
3074520,53
3075148,27
3075768,45
3076396,62
3077020,79
3077644,86
3078276,110
3078948,114
3079624,92
3080256,36
3080872,12
3081500,43
3082124,82
3082756,64
3083384,24
3084008,51
3084636,49
3085260,47
3085884,61
3086516,36
3087136,19
3087764,41
3088396,26
3089016,15
3089644,29
3090268,112
3090952,189
3091628,161
3092300,64
3092928,42
3093556,42
3094176,44
3094804,63
3095432,139
3096112,194
3096788,179
3097460,128
3098140,106
3098816,57
3099440,34
3100068,19
3100700,40
3101320,57
3101952,51
3102576,81
3103208,120
3103888,88
3104504,32
3105132,15
3105760,17
3106380,12
3107012,38
3107632,34
3108264,36
3108892,47
3109512,91
3110144,109
3110820,80
3111440,32
3112072,40
3112688,79
3113320,89
3113944,26
3114568,44
3115196,104
3115868,185
3116544,122
3117228,40
3117848,43
3118480,53
3119104,66
3119728,70
3120360,99
3120984,118
3121664,87
3122288,31
3122904,102
3123588,94
3124208,43
3124832,32
3125460,39
3126084,39
3126712,45
3127344,42
3127964,49
3128592,138
3129268,82
3129888,14
3130516,30
3131136,13
3131768,11
3132392,11
3133016,41
3133648,115
3134316,142
3134996,46
3135624,40
3136240,29
3136872,19
3137496,11
3138120,13
3138748,10
3139368,28
3139996,53
3140628,68
3141248,62
3141876,39
3142504,62
3143132,59
3143764,40
3144384,42
3145012,11
3145640,52
3146264,81
3146892,82
3147512,66
3148144,53
3148768,17
3149392,20
3150024,16
3150640,35
3151272,40
3151900,47
3152520,56
3153152,52
3153776,29
3154408,14
3155036,10
3155656,21
3156288,44
3156912,63
3157536,46
3158168,25
3158784,39
3159416,41
3160040,51
3160664,68
3161296,87
3161912,100
3162596,100
3163276,77
3163896,35
3164528,13
3165152,16
3165776,47
3166408,46
3167024,37
3167656,38
3168288,43
3168904,39
3169536,29
3170160,22
3170792,35
3171424,39
3172040,13
3172672,13
3173296,56
3173920,111
3174604,109
3175276,90
3175904,69
3176532,41
3177152,59
3177784,73
3178408,83
3179032,93
3179664,89
3180280,50
3180912,21
3181536,53
3182160,32
3182792,13
3183408,50
3184040,63
3184672,47
3185288,39
3185916,40
3186544,17
3187176,22
3187808,34
3188424,22
3189056,18
3189680,15
3190304,36
3190936,68
3191556,107
3192240,58
3192864,46
3193484,86
3194116,96
3194740,89
3195372,67
3196004,70
3196624,73
3197256,47
3197880,47
3198504,52
3199136,11
3199756,15
3200388,40
3201012,39
3201632,47
3202260,96
3202884,75
3203512,16
3204140,95
3204760,160
3205440,160
3206108,88
3206728,67
3207356,64
3207976,85
3208604,89
3209236,44
3209856,59
3210484,46
3211108,34
3211740,60
3212368,94
3212984,104
3213668,70
3214288,71
3214912,34
3215540,43
3216160,42
3216788,38
3217416,49
3218040,44
3218668,47
3219292,62
3219920,55
3220552,31
3221168,11
3221800,26
3222424,61
3223044,93
3223676,168
3224348,188
3225024,107
3225708,37
3226328,62
3226956,66
3227580,42
3228204,35
3228832,36
3229448,105
3230132,121
3230812,153
3231484,106
3232160,16
3232788,40
3233408,29
3234036,43
3234660,44
3235292,43
3235920,63
3236544,77
3237172,32
3237796,81
3238420,109
3239100,65
3239720,54
3240348,96
3240980,90
3241600,55
3242228,35
3242852,46
3243484,46
3244112,49
3244732,80
3245364,106
3246040,129
3246708,121
3247384,86
3248008,45
3248636,26
3249268,72
3249888,96
3250520,67
3251144,41
3251768,40
3252396,43
3253016,23
3253644,13
3254272,26
3254896,13
3255524,47
3256152,104
3256832,115
3257512,93
3258136,55
3258768,40
3259392,50
3260016,58
3260644,73
3261272,85
3261900,85
3262532,84
3263152,83
3263784,51
3264408,23
3265032,11
3265660,33
3266280,25
3266908,37
3267532,41
3268156,42
3268788,40
3269408,45
3270036,37
3270668,11
3271288,43
3271920,33
3272544,45
3273172,67
3273804,75
3274424,80
3275056,60
3275680,37
3276304,45
3276936,50
3277552,61
3278180,76
3278800,93
3279424,104
3280104,112
3280768,105
3281448,93
3282068,60
3282684,14
3283312,27
3283936,36
3284556,39
3285184,57
3285808,123
3286488,129
3287160,104
3287824,48
3288452,11
3289076,10
3289696,40
3290324,125
3291000,157
3291672,109
3292352,39
3292968,43
3293596,48
3294224,56
3294840,62
3295472,52
3296092,60
3296720,80
3297352,80
3297968,75
3298596,82
3299216,69
3299844,75
3300472,69
3301096,68
3301724,91
3302348,99
3302972,83
3303600,66
3304224,51
3304852,30
3305480,22
3306096,112
3306780,220
3307452,296
3308124,286
3308800,180
3309472,113
3310148,62
3310772,54
3311392,153
3312072,224
3312752,194
3313420,170
3314096,140
3314776,84
3315400,14
3316028,16
3316652,44
3317276,41
3317908,46
3318528,73
3319156,55
3319780,12
3320404,37
3321032,60
3321652,24
3322280,104
3322960,172
3323628,134
3324304,134
3324984,103
3325660,43
3326284,46
3326908,61
3327532,54
3328164,70
3328780,123
3329460,147
3330136,124
3330804,71
3331428,40
3332052,12
3332672,17
3333304,26
3333920,40
3334548,51
3335176,44
3335800,40
3336428,18
3337052,11
3337680,32
3338308,33
3338928,13
3339556,37
3340180,59
3340804,81
3341432,96
3342056,67
3342684,44
3343308,55
3343932,69
3344564,66
3345184,47
3345812,51
3346440,50
3347064,39
3347692,56
3348316,28
3348948,39
3349576,32
3350192,37
3350824,40
3351448,41
3352072,43
3352700,39
3353320,35
3353948,39
3354572,30
3355196,12
3355828,10
3356448,17
3357076,19
3357708,24
3358328,32
3358960,42
3359580,59
3360212,59
3360840,44
3361456,44
3362084,92
3362708,79
3363332,40
3363964,32
3364584,45
3365212,31
3365836,21
3366456,68
3367088,89
3367704,57
3368332,40
3368956,49
3369576,80
3370208,61
3370832,23
3371460,21
3372092,95
3372712,126
3373392,90
3374016,65
3374640,49
3375268,37
3375888,42
3376516,44
3377140,41
3377764,23
3378396,13
3379020,29
3379648,72
3380280,64
3380896,45
3381524,39
3382148,23
3382776,29
3383404,55
3384024,47
3384652,41
3385276,39
3385900,42
3386528,34
3387144,27
3387776,21
3388400,20
3389020,28
3389652,30
3390276,39
3390904,56
3391536,70
3392152,43
3392780,40
3393404,41
3394036,43
3394664,46
3395280,56
3395912,78
3396536,82
3397156,55
3397788,34
3398408,15
3399036,22
3399660,15
3400284,37
3400912,40
3401536,41
3402164,38
3402796,17
3403416,20
3404044,23
3404668,26
3405300,18
3405928,30
3406544,47
3407172,62
3407796,84
3408420,49
3409052,42
3409672,59
3410300,53
3410924,52
3411548,55
3412176,79
3412800,84
3413428,65
3414060,66
3414680,75
3415308,47
3415932,25
3416564,31
3417192,38
3417816,40
3418444,40
3419068,40
3419692,46
3420324,72
3420944,101
3421624,128
3422300,88
3422920,47
3423548,46
3424176,54
3424796,51
3425428,32
3426048,44
3426676,49
3427300,63
3427924,61
3428556,60
3429176,68
3429808,83
3430436,76
3431056,83
3431684,76
3432308,35
3432936,44
3433568,55
3434188,54
3434816,40
3435440,44
3436064,88
3436692,139
3437364,122
3438044,51
3438672,11
3439288,14
3439920,15
3440544,27
3441168,50
3441796,45
3442416,52
3443044,46
3443668,42
3444292,47
3444920,76
3445544,86
3446172,91
3446804,76
3447424,60
3448052,48
3448676,15
3449304,19
3449936,31
3450552,38
3451184,39
3451808,41
3452432,41
3453060,20
3453680,29
3454308,16
3454932,13
3455560,12
3456188,34
3456808,70
3457436,95
3458064,84
3458680,38
3459312,47
3459932,58
3460564,52
3461192,73
3461816,77
3462444,65
3463068,57
3463692,35
3464320,19
3464936,17
3465564,16
3466188,15
3466816,37
3467444,42
3468064,42
3468692,41
3469324,56
3469944,59
3470572,39
3471196,21
3471828,24
3472460,39
3473080,55
3473708,68
3474332,73
3474960,48
3475588,39
3476208,51
3476836,56
3477460,73
3478084,97
3478716,134
3479388,139
3480068,90
3480692,16
3481312,37
3481944,53
3482564,47
3483188,23
3483816,42
3484440,43
3485068,41
3485692,43
3486320,33
3486948,26
3487572,16
3488204,16
3488832,31
3489448,36
3490076,33
3490700,33
3491332,29
3491960,36
3492576,41
3493208,40
3493832,43
3494456,35
3495084,51
3495704,62
3496332,56
3496956,32
3497584,28
3498216,23
3498840,13
3499468,16
3500100,36
3500720,40
3501352,39
3501976,41
3502600,28
3503228,13
3503848,11
3504480,11
3505100,18
3505728,43
3506356,52
3506976,55
3507608,59
3508236,42
3508856,40
3509484,50
3510108,56
3510740,53
3511372,64
3511992,97
3512624,109
3513300,70
3513920,21
3514548,19
3515168,42
3515800,35
3516428,15
3517048,35
3517680,41
3518304,41
3518936,43
3519564,20
3520184,29
3520816,29
3521436,29
3522060,56
3522692,78
3523312,90
3523940,61
3524564,42
3525188,39
3525816,47
3526432,59
3527064,60
3527692,62
3528312,63
3528940,73
3529564,81
3530196,68
3530824,48
3531448,32
3532076,11
3532704,13
3533328,40
3533956,43
3534576,41
3535204,39
3535828,41
3536452,36
3537084,42
3537704,34
3538332,33
3538964,43
3539584,49
3540212,51
3540836,43
3541468,30
3542096,43
3542720,44
3543348,44
3543972,43
3544600,27
3545228,43
3545848,56
3546476,41
3547100,23
3547724,32
3548356,34
3548976,30
3549604,48
3550236,48
3550856,45
3551488,41
3552112,40
3552740,20
3553372,36
3553992,37
3554620,35
3555248,38
3555872,50
3556500,72
3557120,62
3557752,46
3558376,39
3559000,41
3559632,45
3560252,44
3560880,39
3561508,56
3562128,81
3562756,94
3563384,75
3564012,42
3564644,13
3565264,35
3565892,31
3566520,35
3567144,45
3567772,43
3568392,41
3569020,44
3569644,30
3570272,23
3570900,12
3571524,11
3572156,20
3572788,31
3573408,45
3574040,62
3574664,76
3575292,39
3575924,43
3576544,53
3577176,57
3577800,83
3578424,97
3579056,105
3579724,92
3580352,73
3580984,20
3581600,18
3582232,26
3582856,17
3583488,37
3584120,40
3584736,42
3585364,41
3585988,31
3586612,64
3587240,61
3587856,38
3588484,29
3589108,42
3589732,59
3590364,79
3590988,73
3591620,48
3592248,42
3592868,48
3593496,50
3594120,53
3594752,54
3595380,70
3596000,78
3596628,68
3597256,55
3597880,47
3598508,14
3599128,16
3599760,27
3600388,44
3601008,45
3601636,43
3602260,45
3602892,12
3603520,14
3604136,25
3604768,20
3605392,17
3606020,15
3606648,48
3607272,68
3607900,85
3608524,51
3609148,41
3609776,43
3610392,43
3611024,21
3611648,24
3612272,89
3612900,87
3613524,48
3614152,33
3614784,31
3615400,13
3616028,18
3616652,38
3617280,45
3617908,43
3618528,42
3619156,30
3619780,13
3620404,10
3621036,13
3621656,31
3622284,57
3622908,89
3623536,101
3624216,96
3624840,72
3625468,38
3626100,42
3626720,50
3627348,69
3627972,83
3628596,96
3629228,101
3629900,74
3630528,32
3631156,12
3631776,17
3632408,27
3633032,15
3633660,38
3634292,42
3634912,41
3635544,41
3636164,40
3636788,49
3637420,23
3638040,15
3638668,18
3639292,21
3639920,43
3640552,34
3641176,27
3641804,40
3642436,59
3643056,72
3643684,69
3644308,59
3644936,57
3645564,93
3646184,106
3646864,88
3647492,53
3648112,28
3648740,34
3649364,61
3649992,51
3650624,48
3651240,64
3651868,85
3652492,90
3653124,85
3653752,51
3654372,19
3655000,15
3655628,51
3656252,67
3656880,70
3657500,70
3658128,50
3658760,37
3659376,50
3660008,61
3660632,69
3661260,84
3661892,102
3662564,112
3663240,92
3663864,85
3664488,88
3665116,48
3665740,11
3666372,22
3667004,34
3667624,47
3668252,55
3668876,58
3669508,43
3670140,28
3670760,28
3671392,41
3672016,37
3672640,27
3673268,51
3673888,62
3674520,45
3675148,41
3675768,63
3676400,57
3677024,54
3677656,56
3678284,54
3678904,85
3679536,86
3680160,26
3680784,11
3681412,15
3682032,14
3682660,52
3683288,62
3683912,53
3684540,50
3685160,53
3685792,59
3686420,66
3687036,55
3687668,41
3688292,21
3688920,12
3689548,20
3690168,15
3690796,16
3691420,30
3692044,41
3692672,39
3693296,48
3693924,42
3694548,45
3695172,93
3695804,106
3696476,90
3697100,72
3697732,58
3698352,33
3698980,15
3699604,21
3700228,35
3700860,38
3701480,41
3702108,47
3702732,49
3703356,40
3703988,10
3704608,17
3705236,32
3705868,42
3706488,66
3707116,74
3707744,86
3708372,50
3709004,42
3709624,47
3710252,46
3710880,33
3711504,45
3712136,59
3712752,57
3713380,34
3714004,21
3714628,12
3715256,33
3715880,41
3716508,35
3717140,40
3717760,41
3718388,42
3719012,40
3719644,22
3720276,20
3720896,19
3721524,21
3722152,46
3722776,65
3723404,65
3724024,63
3724652,41
3725280,45
3725904,60
3726532,47
3727152,49
3727784,55
3728412,81
3729032,109
3729712,99
3730332,79
3730956,65
3731584,36
3732208,19
3732836,22
3733460,33
3734084,41
3734716,56
3735336,64
3735968,62
3736600,49
3737216,43
3737848,35
3738472,29
3739100,41
3739732,72
3740352,93
3740980,109
3741656,61
3742280,43
3742912,53
3743528,62
3744160,61
3744788,75
3745408,103
3746088,114
3746764,65
3747384,50
3748016,48
3748632,20
3749260,19
3749888,38
3750512,41
3751140,42
3751768,41
3752396,31
3753028,23
3753648,27
3754276,28
3754904,24
3755528,43
3756156,54
3756776,59
3757408,59
3758032,55
3758656,38
3759288,42
3759908,48
3760540,50
3761168,54
3761792,76
3762424,97
3763048,96
3763680,75
3764308,58
3764928,25
3765556,11
3766184,15
3766808,34
3767440,42
3768056,52
3768688,64
3769312,63
3769936,53
3770564,35
3771184,19
3771816,18
3772444,28
3773064,58
3773696,83
3774320,92
3774948,56
3775580,38
3776200,47
3776832,56
3777456,75
3778080,89
3778708,99
3779328,104
3780008,67
3780636,55
3781256,56
3781884,35
3782512,18
3783140,39
3783772,39
3784392,41
3785020,45
3785648,73
3786272,103
3786952,89
3787576,45
3788208,12
3788836,30
3789456,17
3790084,25
3790708,42
3791340,40
3791968,36
3792592,41
3793220,55
3793848,57
3794472,51
3795100,41
3795720,41
3796348,59
3796976,89
3797600,95
3798228,41
3798856,11
3799484,19
3800116,36
3800736,40
3801368,43
3801992,59
3802620,78
3803252,62
3803872,29
3804504,17
3805128,40
3805752,64
3806384,88
3807004,95
3807632,93
3808264,42
3808884,75
3809512,88
3810136,47
3810768,26
3811400,45
3812016,65
3812644,76
3813272,66
3813896,53
3814528,29
3815144,25
3815776,31
3816400,32
3817024,39
3817652,38
3818272,41
3818904,43
3819532,22
3820152,32
3820784,30
3821408,14
3822040,11
3822668,13
3823288,26
3823920,19
3824544,15
3825168,77
3825800,104
3826468,92
3827096,54
3827728,40
3828348,35
3828976,48
3829604,34
3830232,28
3830864,75
3831484,99
3832116,95
3832740,44
3833368,45
3834000,44
3834616,42
3835248,57
3835872,24
3836496,14
3837128,28
3837748,23
3838380,15
3839012,25
3839636,59
3840268,75
3840892,67
3841520,41
3842148,45
3842768,58
3843396,60
3844020,62
3844644,76
3845272,92
3845896,97
3846524,73
3847148,55
3847772,55
3848404,30
3849028,13
3849656,31
3850284,36
3850904,39
3851532,39
3852156,43
3852784,52
3853416,40
3854036,12
3854664,11
3855288,27
3855912,37
3856544,57
3857160,82
3857788,75
3858412,42
3859036,43
3859668,42
3860292,41
3860924,52
3861552,62
3862176,93
3862804,99
3863428,73
3864060,59
3864692,45
3865312,15
3865944,16
3866564,34
3867188,39
3867820,38
3868440,39
3869068,21
3869696,12
3870320,18
3870952,15
3871576,24
3872204,52
3872836,84
3873456,91
3874084,93
3874708,57
3875336,40
3875964,61
3876584,86
3877212,57
3877840,44
3878464,61
3879092,71
3879712,76
3880344,61
3880972,44
3881592,13
3882224,29
3882848,19
3883476,34
3884108,39
3884728,40
3885360,40
3885984,26
3886608,33
3887240,32
3887856,29
3888488,33
3889112,39
3889736,77
3890368,73
3890988,52
3891616,36
3892248,44
3892864,48
3893492,44
3894116,36
3894748,65
3895376,113
3896052,131
3896728,86
3897356,57
3897976,13
3898604,47
3899228,43
3899860,39
3900492,40
3901112,41
3901744,43
3902368,33
3902992,28
3903624,12
3904240,42
3904872,25
3905496,37
3906120,68
3906752,64
3907368,51
3907996,35
3908628,58
3909248,62
3909876,51
3910504,45
3911132,44
3911764,67
3912384,98
3913012,91
3913640,57
3914264,16
3914892,69
3915512,136
3916196,88
3916824,39
3917440,39
3918068,40
3918696,43
3919324,49
3919956,43
3920576,29
3921208,24
3921832,29
3922456,29
3923084,51
3923704,41
3924332,24
3924960,44
3925584,53
3926216,45
3926832,54
3927464,71
3928096,86
3928712,107
3929396,80
3930016,73
3930644,63
3931272,56
3931896,16
3932528,19
3933152,37
3933776,41
3934404,40
3935024,43
3935652,47
3936284,63
3936904,52
3937532,21
3938156,13
3938788,39
3939416,85
3940040,83
3940668,70
3941292,39
3941920,45
3942548,52
3943168,59
3943796,80
3944420,99
3945044,98
3945672,89
3946292,76
3946920,36
3947548,23
3948168,18
3948796,15
3949424,14
3950052,41
3950684,50
3951304,56
3951936,70
3952560,59
3953184,52
3953812,28
3954432,33
3955064,39
3955688,28
3956312,38
3956940,49
3957560,59
3958192,36
3958820,46
3959440,61
3960072,63
3960696,74
3961324,89
3961956,104
3962628,101
3963308,72
3963936,29
3964552,11
3965184,26
3965808,15
3966436,35
3967068,38
3967688,44
3968320,45
3968944,27
3969568,11
3970196,10
3970816,15
3971444,16
3972068,36
3972692,51
3973324,72
3973944,77
3974572,52
3975204,36
3975824,51
3976452,70
3977076,61
3977708,35
3978340,64
3978960,76
3979588,50
3980216,23
3980840,11
3981468,10
3982088,11
3982716,35
3983344,45
3983968,39
3984600,38
3985224,41
3985852,13
3986484,25
3987104,13
3987736,30
3988360,85
3988992,99
3989620,80
3990240,55
3990872,49
3991496,35
3992120,56
3992752,63
3993372,44
3994000,37
3994632,50
3995248,45
3995880,29
3996504,11
3997132,14
3997764,14
3998384,11
3999016,22
3999640,52
4000264,45
4000892,45
4001512,41
4002140,36
4002764,36
4003388,16
4004016,10
4004640,12
4005268,43
4005896,71
4006520,85
4007148,102
4007824,71
4008448,36
4009076,40
4009696,42
4010324,64
4010948,79
4011572,91
4012204,107
4012876,105
4013552,58
4014184,15
4014800,17
4015428,21
4016052,18
4016676,35
4017304,39
4017924,39
4018552,39
4019176,16
4019800,38
4020428,48
4021048,39
4021676,32
4022308,42
4022928,53
4023556,73
4024184,89
4024812,47
4025440,41
4026064,64
4026692,75
4027316,84
4027940,93
4028572,110
4029244,104
4029924,62
4030552,58
4031168,68
4031800,22
4032424,29
4033048,47
4033676,50
4034296,45
4034924,37
4035548,35
4036172,23
4036804,10
4037424,13
4038052,42
4038684,60
4039304,87
4039936,89
4040560,87
4041188,60
4041820,45
4042440,75
4043068,65
4043692,45
4044316,61
4044948,91
4045568,97
4046196,90
4046820,71
4047444,48
4048072,14
4048696,53
4049324,23
4049956,34
4050576,41
4051204,48
4051828,40
4052460,14
4053092,11
4053712,21
4054344,17
4054968,29
4055592,47
4056224,65
4056840,63
4057468,51
4058092,38
4058716,53
4059348,65
4059972,68
4060604,73
4061236,82
4061856,87
4062488,92
4063112,59
4063740,36
4064372,30
4064992,17
4065620,45
4066244,54
4066868,49
4067500,42
4068120,41
4068748,37
4069380,22
4070000,16
4070632,10
4071256,12
4071884,16
4072516,40
4073136,60
4073768,83
4074392,73
4075016,36
4075648,40
4076264,43
4076896,41
4077520,47
4078144,56
4078776,66
4079392,75
4080024,46
4080652,22
4081272,16
4081904,25
4082528,29
4083160,33
4083792,37
4084408,41
4085040,38
4085664,19
4086288,15
4086920,10
4087536,19
4088168,35
4088792,39
4089416,49
4090048,51
4090664,64
4091296,49
4091928,39
4092548,42
4093180,53
4093804,62
4094436,75
4095068,80
4095688,110
4096372,88
4096988,38
4097612,13
4098236,14
4098852,11
4099480,35
4100112,43
4100728,43
4101356,46
4101980,43
4102608,35
4103236,44
4103856,23
4104484,25
4105104,60
4105732,75
4106364,88
4106984,75
4107612,59
4108232,33
4108856,40
4109484,40
4110104,39
4110732,49
4111356,79
4111980,97
4112608,79
4113232,50
4113860,55
4114488,63
4115112,41
4115740,13
4116364,49
4116996,36
4117624,39
4118240,40
4118868,20
4119492,29
4120116,41
4120744,22
4121360,32
4121992,66
4122616,103
4123288,107
4123964,77
4124584,41
4125208,43
4125836,48
4126456,49
4127084,44
4127708,50
4128332,71
4128960,80
4129576,65
4130204,42
4130836,45
4131456,37
4132084,42
4132708,51
4133336,44
4133968,40
4134584,40
4135216,44
4135836,46
4136460,41
4137092,30
4137712,24
4138340,17
4138964,30
4139584,78
4140216,79
4140832,56
4141460,37
4142092,52
4142712,61
4143340,68
4143964,59
4144596,50
4145224,31
4145848,36
4146476,23
4147100,28
4147724,37
4148356,14
4148976,17
4149604,38
4150228,37
4150852,36
4151480,41
4152100,42
4152728,36
4153356,18
4153976,19
4154604,28
4155228,50
4155860,49
4156488,40
4157112,52
4157744,55
4158368,35
4158992,46
4159620,43
4160240,48
4160868,70
4161488,85
4162112,112
4162792,87
4163408,28
4164036,21
4164664,18
4165280,13
4165908,17
4166532,43
4167160,41
4167788,38
4168408,41
4169036,27
4169656,41
4170280,32
4170908,14
4171528,34
4172156,58
4172780,95
4173404,108
4174088,86
4174704,40
4175332,40
4175964,51
4176584,63
4177212,83
4177836,100
4178512,117
4179188,113
4179860,84
4180480,64
4181112,41
4181728,19
4182356,14
4182980,33
4183608,37
4184236,47
4184856,83
4185484,85
4186108,66
4186736,32
4187364,16
4187988,20
4188616,55
4189248,67
4189864,49
4190492,50
4191116,45
4191748,38
4192380,39
4193000,41
4193628,47
4194252,56
4194876,62
4195504,78
4196124,99
4196752,91
4197384,45
4198000,10
4198632,15
4199256,27
4199884,45
4200512,37
4201128,39
4201760,39
4202380,27
4203012,22
4203640,24
4204256,40
4204888,54
4205508,54
4206132,58
4206764,63
4207384,48
4208012,36
4208636,56
4209264,52
4209892,38
4210516,42
4211148,60
4211776,63
4212400,68
4213028,55
4213652,40
4214280,38
4214908,24
4215528,20
4216156,35
4216784,35
4217408,55
4218036,48
4218656,39
4219288,41
4219916,44
4220536,31
4221164,12
4221788,11
4222420,35
4223048,59
4223672,87
4224304,56
4224928,36
4225548,39
4226180,39
4226800,51
4227428,64
4228052,71
4228676,94
4229304,91
4229924,44
4230552,23
4231180,12
4231800,32
4232428,15
4233052,45
4233684,44
4234312,40
4234928,39
4235560,33
4236184,56
4236808,42
4237436,12
4238056,13
4238688,16
4239312,37
4239936,26
4240564,42
4241184,37
4241812,47
4242440,57
4243064,72
4243692,63
4244316,45
4244948,11
4245576,30
4246196,45
4246824,32
4247448,17
4248072,10
4248704,11
4249320,33
4249952,37
4250572,38
4251196,41
4251828,42
4252448,47
4253076,58
4253708,42
4254328,25
4254956,24
4255584,41
4256212,81
4256844,78
4257464,47
4258092,42
4258716,78
4259340,57
4259972,38
4260592,23
4261220,53
4261844,78
4262468,98
4263096,69
4263712,35
4264340,29
4264968,13
4265588,19
4266220,40
4266844,39
4267476,39
4268104,41
4268720,41
4269352,47
4269976,49
4270600,47
4271228,26
4271848,22
4272476,40
4273100,57
4273724,67
4274356,60
4274976,36
4275608,60
4276236,80
4276856,63
4277484,41
4278108,62
4278740,79
4279368,68
4279988,53
4280616,64
4281240,51
4281864,23
4282496,22
4283112,33
4283744,40
4284368,41
4284988,41
4285620,32
4286240,29
4286868,42
4287500,54
4288120,63
4288748,45
4289372,58
4290000,69
4290632,85
4291248,49
4291876,46
4292500,64
4293128,75
4293756,62
4294376,68
4295008,99
4295632,97
4296256,67
4296884,27
4297504,17
4298136,27
4298764,58
4299384,54
4300016,44
4300640,38
4301272,40
4301900,38
4302520,31
4303148,30
4303772,36
4304396,47
4305028,52
4305648,53
4306276,52
4306900,48
4307524,38
4308152,30
4308776,41
4309404,56
4310036,58
4310656,62
4311288,77
4311912,82
4312540,78
4313172,56
4313792,51
4314420,31
4315044,11
4315668,15
4316300,32
4316920,36
4317548,40
4318172,39
4318800,15
4319428,12
4320048,29
4320676,39
4321308,33
4321928,44
4322556,67
4323180,69
4323812,88
4324440,67
4325060,37
4325688,40
4326312,43
4326940,58
4327568,98
4328184,102
4328868,87
4329492,66
4330112,52
4330744,22
4331364,23
4331996,13
4332628,41
4333248,41
4333876,38
4334500,37
4335124,39
4335756,25
4336376,21
4337004,10
4337628,16
4338252,16
4338884,16
4339504,53
4340136,91
4340764,85
4341384,37
4342016,38
4342640,48
4343268,67
4343896,79
4344520,72
4345148,80
4345772,87
4346396,42
4347028,16
4347648,11
4348276,27
4348904,40
4349528,74
4350156,67
4350776,44
4351408,37
4352036,18
4352652,13
4353284,25
4353904,22
4354536,35
4355164,27
4355784,33
4356412,51
4357036,53
4357664,37
4358292,45
4358912,50
4359540,40
4360164,41
4360788,71
4361420,72
4362040,69
4362668,68
4363300,54
4363920,25
4364548,13
4365172,19
4365804,24
4366432,35
4367052,36
4367680,45
4368304,48
4368928,30
4369556,11
4370176,16
4370804,25
4371428,32
4372056,27
4372684,45
4373304,63
4373932,66
4374564,38
4375184,37
4375816,48
4376440,59
4377068,62
4377700,72
4378320,91
4378948,103
4379624,90
4380248,78
4380876,64
4381496,34
4382128,37
4382756,41
4383376,36
4384004,42
4384628,57
4385260,74
4385888,92
4386508,78
4387136,41
4387760,18
4388384,15
4389012,42
4389632,67
4390264,61
4390888,39
4391512,42
4392144,55
4392760,43
4393392,40
4394024,37
4394640,51
4395272,56
4395896,57
4396528,39
4397156,30
4397776,18
4398408,12
4399032,38
4399656,53
4400288,36
4400904,59
4401532,60
4402160,39
4402784,33
4403416,36
4404036,37
4404668,32
4405296,27
4405912,51
4406544,68
4407168,72
4407796,37
4408428,46
4409048,54
4409676,49
4410300,73
4410924,92
4411556,77
4412176,61
4412804,48
4413428,45
4414056,42
4414684,19
4415308,11
4415940,35
4416572,34
4417192,39
4417824,38
4418448,36
4419076,11
4419708,14
4420328,38
4420956,50
4421584,51
4422208,47
4422840,64
4423456,71
4424088,53
4424716,36
4425336,60
4425964,59
4426588,45
4427220,25
4427848,54
4428468,86
4429096,74
4429720,37
4430344,37
4430972,24
4431592,13
4432224,20
4432848,35
4433468,40
4434100,50
4434720,57
4435348,63
4435980,58
4436600,47
4437228,40
4437852,40
4438484,33
4439116,30
4439736,27
4440368,27
4440992,37
4441616,45
4442244,44
4442864,57
4443496,65
4444120,70
4444744,63
4445376,68
4445992,63
4446624,41
4447252,28
4447872,16
4448504,43
4449128,25
4449756,47
4450388,40
4451008,38
4451640,38
4452264,49
4452888,21
4453516,12
4454136,23
4454768,43
4455392,54
4456016,43
4456644,43
4457264,51
4457896,34
4458524,38
4459144,43
4459776,48
4460400,51
4461032,57
4461660,66
4462280,73
4462912,65
4463536,64
4464160,23
4464788,35
4465408,19
4466036,35
4466664,36
4467288,40
4467916,46
4468536,47
4469164,32
4469796,28
4470416,29
4471044,22
4471672,28
4472300,44
4472932,39
4473552,37
4474184,37
4474812,37
4475436,39
4476068,47
4476688,59
4477320,67
4477944,69
4478568,75
4479200,72
4479824,41
4480456,43
4481088,23
4481704,10
4482332,19
4482956,33
4483588,37
4484216,38
4484836,41
4485464,30
4486088,40
4486712,47
4487340,52
4487960,49
4488588,40
4489212,54
4489840,65
4490468,69
4491092,46
4491724,36
4492356,44
4492976,61
4493604,73
4494228,70
4494856,67
4495484,75
4496104,70
4496732,61
4497356,47
4497980,12
4498612,16
4499232,35
4499860,36
4500492,36
4501112,39
4501744,39
4502368,37
4503000,33
4503632,28
4504248,30
4504880,37
4505504,47
4506128,52
4506760,48
4507376,39
4508004,33
4508628,37
4509252,40
4509880,39
4510504,69
4511132,98
4511764,110
4512436,114
4513112,80
4513736,37
4514360,15
4514988,11
4515608,37
4516236,40
4516860,38
4517488,41
4518116,43
4518740,25
4519372,19
4520000,29
4520624,39
4521252,43
4521876,71
4522504,109
4523184,114
4523852,84
4524476,36
4525108,44
4525728,51
4526360,47
4526980,53
4527612,73
4528244,88
4528864,85
4529492,62
4530116,44
4530740,36
4531372,26
4531992,33
4532620,49
4533244,41
4533872,37
4534504,39
4535124,42
4535756,67
4536388,66
4537008,56
4537636,21
4538260,15
4538888,32
4539516,66
4540136,117
4540820,86
4541444,37
4542064,56
4542696,67
4543320,57
4543952,57
4544584,76
4545200,88
4545832,91
4546456,77
4547080,33
4547708,21
4548328,27
4548956,17
4549580,34
4550208,37
4550836,38
4551456,40
4552088,14
4552716,14
4553336,15
4553968,36
4554592,56
4555224,53
4555852,64
4556472,71
4557104,61
4557728,35
4558352,41
4558984,49
4559600,53
4560232,59
4560852,71
4561476,80
4562108,82
4562728,66
4563356,47
4563988,32
4564608,12
4565236,13
4565864,41
4566492,53
4567124,49
4567744,39
4568376,68
4569000,59
4569624,29
4570252,42
4570872,49
4571504,69
4572128,72
4572752,73
4573384,91
4574000,74
4574632,32
4575264,53
4575884,60
4576516,55
4577140,55
4577768,76
4578400,96
4579020,97
4579652,63
4580276,33
4580900,12
4581532,19
4582152,13
4582784,33
4583408,35
4584032,37
4584660,39
4585288,19
4585916,13
4586548,17
4587168,30
4587800,17
4588424,22
4589052,60
4589684,95
4590304,89
4590932,45
4591560,40
4592184,48
4592812,47
4593432,45
4594064,64
4594688,81
4595312,79
4595940,59
4596568,56
4597196,51
4597828,10
4598448,21
4599076,30
4599700,35
4600328,40
4600956,40
4601576,41
4602208,19
4602832,44
4603456,40
4604088,25
4604704,40
4605336,54
4605964,58
4606584,62
4607216,49
4607840,32
4608472,46
4609100,60
4609720,83
4610348,91
4610972,74
4611596,78
4612224,67
4612840,40
4613472,21
4614096,13
4614716,47
4615348,37
4615968,33
4616596,37
4617228,38
4617848,40
4618476,23
4619100,21
4619732,11
4620360,12
4620984,13
4621612,13
4622236,40
4622860,84
4623492,90
4624112,59
4624740,42
4625364,54
4625988,60
4626620,52
4627240,65
4627868,74
4628500,47
4629120,20
4629748,15
4630372,22
4631004,15
4631636,14
4632256,19
4632884,41
4633508,38
4634136,39
4634764,44
4635384,27
4636012,11
4636640,10
4637264,31
4637892,54
4638512,65
4639144,88
4639772,79
4640392,56
4641020,33
4641644,42
4642272,47
4642900,47
4643520,61
4644148,79
4644772,99
4645396,96
4646028,72
4646648,51
4647276,35
4647900,19
4648524,14
4649156,32
4649776,36
4650404,39
4651036,40
4651656,36
4652284,15
4652908,47
4653540,49
4654172,24
4654792,41
4655420,59
4656048,79
4656672,103
4657352,61
4657968,35
4658600,43
4659228,40
4659848,39
4660476,53
4661100,85
4661732,94
4662364,92
4662984,67
4663616,13
4664240,10
4664864,11
4665492,35
4666112,51
4666744,37
4667368,40
4667992,40
4668624,31
4669244,34
4669872,32
4670500,23
4671120,25
4671752,49
4672376,72
4673004,78
4673636,65
4674256,37
4674884,49
4675508,69
4676132,61
4676764,44
4677384,56
4678012,91
4678640,101
4679312,51
4679944,12
4680568,13
4681196,28
4681828,17
4682448,35
4683076,37
4683700,38
4684328,39
4684956,34
4685576,21
4686204,24
4686828,26
4687456,28
4688084,37
4688708,47
4689336,69
4689968,94
4690584,95
4691216,43
4691840,39
4692468,49
4693100,59
4693720,73
4694352,87
4694976,97
4695600,84
4696232,56
4696848,43
4697480,24
4698104,11
4698728,20
4699360,32
4699984,35
4700616,38
4701244,42
4701864,47
4702496,54
4703120,37
4703752,27
4704384,18
4705004,26
4705632,64
4706260,65
4706884,50
4707512,34
4708136,43
4708768,42
4709400,46
4710020,47
4710652,55
4711276,64
4711904,74
4712536,49
4713152,20
4713784,20
4714408,13
4715032,11
4715664,35
4716280,39
4716912,37
4717536,39
4718160,43
4718792,30
4719408,21
4720040,17
4720668,10
4721288,16
4721916,38
4722544,71
4723172,74
4723804,59
4724424,33
4725056,50
4725680,49
4726304,45
4726936,47
4727552,61
4728184,83
4728808,86
4729432,54
4730064,25
4730684,11
4731312,22
4731944,16
4732564,33
4733196,34
4733820,40
4734452,38
4735084,20
4735704,17
4736336,13
4736960,12
4737584,10
4738212,11
4738832,25
4739464,41
4740088,82
4740712,99
4741340,44
4741968,47
4742596,64
4743228,60
4743848,59
4744480,68
4745104,75
4745732,59
4746364,42
4746984,35
4747616,11
4748240,21
4748864,25
4749492,42
4750112,39
4750744,41
4751376,48
4751992,45
4752624,32
4753248,35
4753880,31
4754508,49
4755128,59
4755760,67
4756384,59
4757008,55
4757640,33
4758256,51
4758888,57
4759512,47
4760136,51
4760768,74
4761384,85
4762016,84
4762648,68
4763264,56
4763896,33
4764520,22
4765148,19
4765780,36
4766400,40
4767028,39
4767656,40
4768280,30
4768908,19
4769528,17
4770156,29
4770784,40
4771408,49
4772040,44
4772656,63
4773288,89
4773916,66
4774536,34
4775168,45
4775792,51
4776424,52
4777052,64
4777672,84
4778304,103
4778980,95
4779600,65
4780232,44
4780848,16
4781480,14
4782112,16
4782728,35
4783360,37
4783984,37
4784616,45
4785248,51
4785868,41
4786500,29
4787124,26
4787748,26
4788380,28
4789000,47
4789632,91
4790256,101
4790932,36
4791560,38
4792184,42
4792816,42
4793448,58
4794068,78
4794700,80
4795324,73
4795952,35
4796580,27
4797200,28
4797832,12
4798456,17
4799084,35
4799716,36
4800340,38
4800972,40
4801600,33
4802216,16
4802848,17
4803472,25
4804100,66
4804732,98
4805352,97
4805980,86
4806608,87
4807228,64
4807860,35
4808480,50
4809108,52
4809740,42
4810360,45
4810992,80
4811616,99
4812244,109
4812928,94
4813544,66
4814172,37
4814796,32
4815420,47
4816052,42
4816672,37
4817300,44
4817932,54
4818552,93
4819180,121
4819860,92
4820484,54
4821112,51
4821732,57
4822360,74
4822988,68
4823612,49
4824240,35
4824864,51
4825492,61
4826124,67
4826744,65
4827376,58
4828000,78
4828628,85
4829260,63
4829880,51
4830512,39
4831136,12
4831760,14
4832392,32
4833008,35
4833640,41
4834264,44
4834888,43
4835516,44
4836136,34
4836764,25
4837396,21
4838016,27
4838648,31
4839268,43
4839900,56
4840532,48
4841152,33
4841784,46
4842404,47
4843028,53
4843660,61
4844280,79
4844908,85
4845532,77
4846160,55
4846788,39
4847408,15
4848040,17
4848668,18
4849288,41
4849916,38
4850544,37
4851172,39
4851804,19
4852424,24
4853056,24
4853680,33
4854304,45
4854936,52
4855552,71
4856184,74
4856812,68
4857436,40
4858068,40
4858692,47
4859324,53
4859952,60
4860576,74
4861208,90
4861832,83
4862464,53
4863096,45
4863716,36
4864348,11
4864968,17
4865592,34
4866224,38
4866840,39
4867468,38
4868096,34
4868720,24
4869348,26
4869976,37
4870604,41
4871236,42
4871856,53
4872488,76
4873112,85
4873736,79
4874368,34
4874984,38
4875612,57
4876236,74
4876864,81
4877492,82
4878112,79
4878744,74
4879372,55
4879992,43
4880624,27
4881248,10
4881876,13
4882508,30
4883128,38
4883760,39
4884384,40
4885008,29
4885636,36
4886256,28
4886888,16
4887512,18
4888136,37
4888768,63
4889384,75
4890016,64
4890644,34
4891264,50
4891896,59
4892520,59
4893148,67
4893780,68
4894400,87
4895032,89
4895656,69
4896280,43
4896908,24
4897528,13
4898160,34
4898784,37
4899408,43
4900040,42
4900656,46
4901288,57
4901916,50
4902536,34
4903168,23
4903792,20
4904424,36
4905056,41
4905672,56
4906304,62
4906928,48
4907552,34
4908184,51
4908800,55
4909432,59
4910056,69
4910684,77
4911316,86
4911940,75
4912576,35
4913204,16
4913824,13
4914456,12
4915084,21
4915716,39
4916344,35
4916968,40
4917596,41
4918220,25
4918844,12
4919472,10
4920096,17
4920724,20
4921356,12
4921976,23
4922604,58
4923228,108
4923912,64
4924536,46
4925152,37
4925784,41
4926404,42
4927028,51
4927660,78
4928280,82
4928908,82
4929532,70
4930160,56
4930788,22
4931412,11
4932044,28
4932672,40
4933292,39
4933920,37
4934544,41
4935172,40
4935804,47
4936424,45
4937052,27
4937676,24
4938300,27
4938932,54
4939552,73
4940184,89
4940812,44
4941432,40
4942060,52
4942684,54
4943316,68
4943948,78
4944568,81
4945196,72
4945824,47
4946448,30
4947076,25
4947696,11
4948324,15
4948948,35
4949572,34
4950204,38
4950824,38
4951456,29
4952084,22
4952704,24
4953336,27
4953960,24
4954588,37
4955220,60
4955840,78
4956472,68
4957096,49
4957720,35
4958348,43
4958968,52
4959600,55
4960224,63
4960848,75
4961476,84
4962096,80
4962724,48
4963356,25
4963976,11
4964604,11
4965228,38
4965860,51
4966492,42
4967112,39
4967740,44
4968364,39
4968988,28
4969616,18
4970232,21
4970864,29
4971488,75
4972112,98
4972744,82
4973360,62
4973988,37
4974620,60
4975240,73
4975872,61
4976496,39
4977124,36
4977756,58
4978376,66
4979008,40
4979632,28
4980256,25
4980884,10
4981504,15
4982136,35
4982760,37
4983384,39
4984016,40
4984632,44
4985264,29
4985892,16
4986512,17
4987144,29
4987768,52
4988400,46
4989028,41
4989648,52
4990280,42
4990904,35
4991528,57
4992160,85
4992776,84
4993404,77
4994032,63
4994656,65
4995284,57
4995908,35
4996540,34
4997168,12
4997792,48
4998420,37
4999044,33
4999676,41
5000304,42
5000924,39
5001552,34
5002180,30
5002804,23
5003432,29
5004056,31
5004688,43
5005316,59
5005936,61
5006568,50
5007192,39
5007824,36
5008452,39
5009072,45
5009704,49
5010328,58
5010952,74
5011584,85
5012200,70
5012832,58
5013456,63
5014080,41
5014712,11
5015328,30
5015960,50
5016592,50
5017216,37
5017848,40
5018472,38
5019100,36
5019732,30
5020352,46
5020980,68
5021608,80
5022232,88
5022860,71
5023480,58
5024112,43
5024736,41
5025360,38
5025988,54
5026608,64
5027240,72
5027868,85
5028488,98
5029116,70
5029744,37
5030376,31
5031008,11
5031624,18
5032256,34
5032880,35
5033504,42
5034136,39
5034756,28
5035388,20
5036012,19
5036636,15
5037268,19
5037892,43
5038524,55
5039156,60
5039776,58
5040408,43
5041032,38
5041664,43
5042292,54
5042912,58
5043544,61
5044168,75
5044792,67
5045420,51
5046040,49
5046672,40
5047300,11
5047920,12
5048552,23
5049176,36
5049808,37
5050436,42
5051056,40
5051688,19
5052312,23
5052936,20
5053568,17
5054188,23
5054820,28
5055444,49
5056068,60
5056700,48
5057320,38
5057952,37
5058580,38
5059200,49
5059828,69
5060456,84
5061088,65
5061716,54
5062336,35
5062968,48
5063592,74
5064220,37
5064852,22
5065472,36
5066104,45
5066728,48
5067352,43
5067984,34
5068604,16
5069236,12
5069868,14
5070488,28
5071120,58
5071744,85
5072376,99
5073008,99
5073624,81
5074256,37
5074880,46
5075504,65
5076136,77
5076756,82
5077388,72
5078012,76
5078640,81
5079272,64
5079900,49
5080528,19
5081160,11
5081780,16
5082408,36
5083032,37
5083660,38
5084292,37
5084912,25
5085544,41
5086168,43
5086792,24
5087424,29
5088044,39
5088672,56
5089304,58
5089920,56
5090548,36
5091176,51
5091808,51
5092440,43
5093056,32
5093688,53
5094316,73
5094944,80
5095572,63
5096192,43
5096824,26
5097448,11
5098072,16
5098704,32
5099324,40
5099956,37
5100588,38
5101208,42
5101840,57
5102464,35
5103096,21
5103728,22
5104348,64
5104980,68
5105604,74
5106228,72
5106860,49
5107480,35
5108112,45
5108744,46
5109368,64
5110000,88
5110628,102
5111312,96
5111936,72
5112556,33
5113188,13
5113816,13
5114440,12
5115072,18
5115700,33
5116332,39
5116964,36
5117584,38
5118220,23
5118844,27
5119476,32
5120112,22
5120728,19
5121356,35
5121980,55
5122600,72
5123228,81
5123844,51
5124476,39
5125096,53
5125720,68
5126352,73
5126968,73
5127596,78
5128228,82
5128848,54
5129476,37
5130100,25
5130728,12
5131360,19
5131976,31
5132604,40
5133228,41
5133852,41
5134484,38
5135104,27
5135732,34
5136356,59
5136980,57
5137608,58
5138232,60
5138860,61
5139492,60
5140112,53
5140740,32
5141364,49
5141996,50
5142624,56
5143248,78
5143876,82
5144500,73
5145124,77
5145756,62
5146376,45
5147004,25
5147628,30
5148252,24
5148884,31
5149504,38
5150136,39
5150768,36
5151384,24
5152012,24
5152636,22
5153268,34
5153896,40
5154516,39
5155144,58
5155772,69
5156396,74
5157024,44
5157648,40
5158276,46
5158904,50
5159528,55
5160156,59
5160780,69
5161412,65
5162044,39
5162664,30
5163292,43
5163916,42
5164548,30
5165176,42
5165800,43
5166428,38
5167052,40
5167676,41
5168308,38
5168928,45
5169556,55
5170188,56
5170808,41
5171440,29
5172060,39
5172692,46
5173320,34
5173940,33
5174568,41
5175192,45
5175816,42
5176448,29
5177064,31
5177692,65
5178316,76
5178944,41
5179572,30
5180192,30
5180820,15
5181452,14
5182072,41
5182704,54
5183328,50
5183960,40
5184592,47
5185208,47
5185836,21
5186460,10
5187084,20
5187716,61
5188336,69
5188964,73
5189588,93
5190216,81
5190844,34
5191464,45
5192096,50
5192724,48
5193344,41
5193976,63
5194600,85
5195228,85
5195860,69
5196480,58
5197112,29
5197736,15
5198360,14
5198992,33
5199608,36
5200240,37
5200864,38
5201488,31
5202116,48
5202736,33
5203364,21
5203996,36
5204616,62
5205244,59
5205868,70
5206500,74
5207128,40
5207752,42
5208384,52
5209008,60
5209632,69
5210260,87
5210880,93
5211508,91
5212136,67
5212760,48
5213388,35
5214008,11
5214636,11
5215268,34
5215888,38
5216520,49
5217144,42
5217772,40
5218404,14
5219024,14
5219656,31
5220280,36
5220904,37
5221536,49
5222152,78
5222784,83
5223408,75
5224032,36
5224660,44
5225284,63
5225916,70
5226544,53
5227168,54
5227800,94
5228424,119
5229104,61
5229736,31
5230352,13
5230984,17
5231608,14
5232232,33
5232864,40
5233488,38
5234116,42
5234748,44
5235368,45
5235996,40
5236624,41
5237252,43
5237884,52
5238504,66
5239136,64
5239760,56
5240384,39
5241016,37
5241632,50
5242264,68
5242896,61
5243512,47
5244140,64
5244764,74
5245396,66
5246024,62
5246640,45
5247272,17
5247896,12
5248520,30
5249148,36
5249768,36
5250396,39
5251020,41
5251640,37
5252272,27
5252888,20
5253516,17
5254140,39
5254768,47
5255396,69
5256020,84
5256648,73
5257276,34
5257896,44
5258524,55
5259148,48
5259776,31
5260408,67
5261024,107
5261708,92
5262328,46
5262952,33
5263580,37
5264204,11
5264832,14
5265460,35
5266080,37
5266708,37
5267332,41
5267960,29
5268592,28
5269208,28
5269836,29
5270460,38
5271084,47
5271716,60
5272336,71
5272964,67
5273588,47
5274216,35
5274844,44
5275468,56
5276096,60
5276728,82
5277344,101
5278028,102
5278700,74
5279320,53
5279948,47
5280568,11
5281196,22
5281824,30
5282448,44
5283076,37
5283700,38
5284328,45
5284956,48
5285576,34
5286204,31
5286828,27
5287452,59
5288080,59
5288696,69
5289324,77
5289948,69
5290572,38
5291200,37
5291816,46
5292448,47
5293076,55
5293696,65
5294324,85
5294948,88
5295580,62
5296208,47
5296824,36
5297456,11
5298080,14
5298704,33
5299332,36
5299952,37
5300580,38
5301204,25
5301828,12
5302460,16
5303080,10
5303708,41
5304340,78
5304960,84
5305588,69
5306212,79
5306844,71
5307472,36
5308096,40
5308724,55
5309352,72
5309976,80
5310604,78
5311224,77
5311856,72
5312480,43
5313104,25
5313732,14
5314352,25
5314984,13
5315612,34
5316232,37
5316860,39
5317484,39
5318116,16
5318748,18
5319368,11
5319996,10
5320624,26
5321248,52
5321876,80
5322496,73
5323124,57
5323752,35
5324376,42
5325008,53
5325624,61
5326252,67
5326880,71
5327496,79
5328124,71
5328748,40
5329376,13
5330004,10
5330624,13
5331252,17
5331876,34
5332500,35
5333128,41
5333744,46
5334376,40
5335000,33
5335624,26
5336252,14
5336872,13
5337500,25
5338132,50
5338752,61
5339380,63
5340004,54
5340636,31
5341264,41
5341884,45
5342512,43
5343136,60
5343760,89
5344392,107
5345060,96
5345684,43
5346316,36
5346936,31
5347564,11
5348188,18
5348820,31
5349448,36
5350064,41
5350696,46
5351320,37
5351944,35
5352572,25
5353192,15
5353820,21
5354444,31
5355068,68
5355700,90
5356320,88
5356948,49
5357580,38
5358200,46
5358828,56
5359452,59
5360084,71
5360712,87
5361336,88
5361964,65
5362588,49
5363212,37
5363844,10
5364464,15
5365092,34
5365720,39
5366344,37
5366972,39
5367592,39
5368220,26
5368852,30
5369472,35
5370104,37
5370728,46
5371356,47
5371988,67
5372608,69
5373240,54
5373864,36
5374488,40
5375116,46
5375736,71
5376368,95
5376992,97
5377616,85
5378244,78
5378864,60
5379492,56
5380120,34
5380744,13
5381372,15
5381996,35
5382628,36
5383256,39
5383876,42
5384504,36
5385128,43
5385752,37
5386380,28
5387000,21
5387628,29
5388252,54
5388876,68
5389504,81
5390128,65
5390756,37
5391388,38
5392008,47
5392636,50
5393260,66
5393892,79
5394524,84
5395144,80
5395776,63
5396400,45
5397024,21
5397652,14
5398272,37
5398904,39
5399528,43
5400152,49
5400780,44
5401400,31
5402032,32
5402660,32
5403280,22
5403908,29
5404532,54
5405164,75
5405796,78
5406416,70
5407048,38
5407668,43
5408292,56
5408924,64
5409544,66
5410172,73
5410796,93
5411420,90
5412048,60
5412672,37
5413300,19
5413932,18
5414552,20
5415180,33
5415804,37
5416436,37
5417064,37
5417688,36
5418316,33
5418940,28
5419564,24
5420196,24
5420816,39
5421444,53
5422068,65
5422692,71
5423324,51
5423948,39
5424580,47
5425212,55
5425832,52
5426464,65
5427088,78
5427720,86
5428348,77
5428968,53
5429596,39
5430220,17
5430844,13
5431476,16
5432096,37
5432724,37
5433356,40
5433976,41
5434604,31
5435228,30
5435860,29
5436492,27
5437112,36
5437744,51
5438368,71
5438992,76
5439624,70
5440240,36
5440868,39
5441492,51
5442116,54
5442744,54
5443360,70
5443992,85
5444620,89
5445240,73
5445868,52
5446492,35
5447120,11
5447752,14
5448368,32
5448996,37
5449620,37
5450244,40
5450872,37
5451496,28
5452124,35
5452752,40
5453376,40
5454004,44
5454624,47
5455252,61
5455884,72
5456504,67
5457132,40
5457756,37
5458388,46
5459016,53
5459636,65
5460264,81
5460888,93
5461512,94
5462140,64
5462760,43
5463388,21
5464012,14
5464636,13
5465268,36
5465888,35
5466516,37
5467148,39
5467768,30
5468400,41
5469020,44
5469652,42
5470280,34
5470904,46
5471532,71
5472160,81
5472784,73
5473412,46
5474032,34
5474660,46
5475288,68
5475912,72
5476540,59
5477160,49
5477792,59
5478420,78
5479040,79
5479668,61
5480292,13
5480924,16
5481552,26
5482176,38
5482804,35
5483432,40
5484056,41
5484684,36
5485304,33
5485936,26
5486560,18
5487184,17
5487816,19
5488436,52
5489064,90
5489696,97
5490312,50
5490944,38
5491568,41
5492196,45
5492828,52
5493448,68
5494076,85
5494700,96
5495328,75
5495956,42
5496576,30
5497204,11
5497832,15
5498456,37
5499084,38
5499704,38
5500336,38
5500964,38
5501584,27
5502216,30
5502840,50
5503472,61
5504104,67
5504720,75
5505348,72
5505972,70
5506596,64
5507228,36
5507848,51
5508476,68
5509104,71
5509728,78
5510360,89
5510984,97
5511612,94
5512244,66
5512864,46
5513492,15
5514120,19
5514752,14
5515380,35
5516000,35
5516632,45
5517256,45
5517880,48
5518512,45
5519128,35
5519760,23
5520392,23
5521012,31
5521640,53
5522264,61
5522892,62
5523524,34
5524144,41
5524776,48
5525400,57
5526024,59
5526656,69
5527272,82
5527904,90
5528528,68
5529152,51
5529784,36
5530408,14
5531036,22
5531668,36
5532288,36
5532916,36
5533540,37
5534172,39
5534800,34
5535424,37
5536056,37
5536676,29
5537300,33
5537932,50
5538552,80
5539184,83
5539808,66
5540432,32
5541064,49
5541680,70
5542312,75
5542940,74
5543560,80
5544192,84
5544816,79
5545444,58
5546076,43
5546696,16
5547328,25
5547952,15
5548576,33
5549208,36
5549824,41
5550456,42
5551080,27
5551704,24
5552336,26
5552952,27
5553584,23
5554216,27
5554836,58
5555464,74
5556092,80
5556720,52
5557352,37
5557968,40
5558600,51
5559224,59
5559848,72
5560480,82
5561096,82
5561728,71
5562352,64
5562976,56
5563608,17
5564232,12
5564864,22
5565492,35
5566112,44
5566744,47
5567368,39
5568000,17
5568628,16
5569248,24
5569880,31
5570504,36
5571128,43
5571756,60
5572376,71
5573008,55
5573632,30
5574256,45
5574888,53
5575512,56
5576140,73
5576772,72
5577392,67
5578024,47
5578648,35
5579272,28
5579904,12
5580520,22
5581152,15
5581776,36
5582400,37
5583028,38
5583648,38
5584280,32
5584908,38
5585528,34
5586160,26
5586784,19
5587412,33
5588044,50
5588664,66
5589296,74
5589920,57
5590544,37
5591172,50
5591792,56
5592424,57
5593048,76
5593672,100
5594352,91
5594976,57
5595608,33
5596236,33
5596856,19
5597484,11
5598112,16
5598736,33
5599368,38
5599984,39
5600620,39
5601244,19
5601868,30
5602496,29
5603116,17
5603744,32
5604376,54
5604996,89
5605624,100
5606300,68
5606920,34
5607548,43
5608168,47
5608796,55
5609420,55
5610048,67
5610676,86
5611296,83
5611928,57
5612556,46
5613176,38
5613804,11
5614428,14
5615060,34
5615692,40
5616312,38
5616944,39
5617568,48
5618192,47
5618820,33
5619440,27
5620072,29
5620696,45
5621320,62
5621952,61
5622568,69
5623196,56
5623828,34
5624448,49
5625076,60
5625704,46
5626332,59
5626964,90
5627584,97
5628216,75
5628840,53
5629464,33
5630096,11
5630712,15
5631344,14
5631972,30
5632600,35
5633228,36
5633848,37
5634476,21
5635104,23
5635728,28
5636356,25
5636980,28
5637612,44
5638240,72
5638860,86
5639488,79
5640112,42
5640736,38
5641364,44
5641984,54
5642612,61
5643236,71
5643860,79
5644492,79
5645112,72
5645740,54
5646372,36
5646992,12
5647620,15
5648244,35
5648876,38
5649504,40
5650128,41
5650756,47
5651384,36
5652008,33
5652636,24
5653256,22
5653884,35
5654508,57
5655132,70
5655764,76
5656388,57
5657016,31
5657648,46
5658264,58
5658892,61
5659516,64
5660148,73
5660780,87
5661400,97
5662032,75
5662656,58
5663280,33
5663908,11
5664528,14
5665156,33
5665780,38
5666404,44
5667036,43
5667660,29
5668292,29
5668920,27
5669540,28
5670168,38
5670796,66
5671424,103
5672108,96
5672728,81
5673360,41
5673984,40
5674608,51
5675240,58
5675864,61
5676492,74
5677124,92
5677744,94
5678376,72
5679000,53
5679624,37
5680256,11
5680872,17
5681500,30
5682128,35
5682752,39
5683384,38
5684000,39
5684628,33
5685260,31
5685880,27
5686508,26
5687132,36
5687764,52
5688396,69
5689016,76
5689648,60
5690268,31
5690896,45
5691524,53
5692144,57
5692776,66
5693400,72
5694024,90
5694656,88
5695276,65
5695904,61
5696536,48
5697160,13
5697788,17
5698412,33
5699044,36
5699676,38
5700296,39
5700928,20
5701552,17
5702176,27
5702808,39
5703424,61
5704056,74
5704680,86
5705304,97
5705932,91
5706552,55
5707184,39
5707816,48
5708432,45
5709064,45
5709688,57
5710320,88
5710952,94
5711572,85
5712200,70
5712828,49
5713452,18
5714080,13
5714704,23
5715336,39
5715960,39
5716584,44
5717216,45
5717840,41
5718472,32
5719100,22
5719720,20
5720352,27
5720976,40
5721608,55
5722236,54
5722856,35
5723488,41
5724112,57
5724736,60
5725368,47
5725988,35
5726620,42
5727252,78
5727872,97
5728504,66
5729132,42
5729760,23
5730392,26
5731012,45
5731644,59
5732272,51
5732896,44
5733528,40
5734148,29
5734780,35
5735404,33
5736024,26
5736656,20
5737272,36
5737900,57
5738532,58
5739152,57
5739784,40
5740408,40
5741036,59
5741668,56
5742288,67
5742916,81
5743544,73
5744168,67
5744796,74
5745416,68
5746048,53
5746668,16
5747292,18
5747924,18
5748548,33
5749180,37
5749808,36
5750428,38
5751056,26
5751680,36
5752312,37
5752940,29
5753560,35
5754192,45
5754816,67
5755440,74
5756072,65
5756688,37
5757320,41
5757944,44
5758568,51
5759200,59
5759824,75
5760456,89
5761084,89
5761704,62
5762332,44
5762956,33
5763584,11
5764212,13
5764832,36
5765460,39
5766084,36
5766708,38
5767336,38
5767956,44
5768584,38
5769208,35
5769832,28
5770460,31
5771084,31
5771716,49
5772344,70
5772964,71
5773592,34
5774216,45
5774844,55
5775476,62
5776096,78
5776724,89
5777348,91
5777972,80
5778600,60
5779224,41
5779852,16
5780476,19
5781104,22
5781732,32
5782360,37
5782988,37
5783620,40
5784240,35
5784868,30
5785492,22
5786120,27
5786748,33
5787368,31
5787996,38
5788620,42
5789244,49
5789876,36
5790496,37
5791124,37
5791756,38
5792376,35
5793004,56
5793628,119
5794312,128
5794988,66
5795608,32
5796236,23
5796860,10
5797488,13
5798116,41
5798744,38
5799372,37
5800004,40
5800624,57
5801252,76
5801876,64
5802504,45
5803132,28
5803752,44
5804384,57
5805008,83
5805632,102
5806312,72
5806936,33
5807568,45
5808196,52
5808816,58
5809444,73
5810068,96
5810696,104
5811376,87
5812000,67
5812628,54
5813260,31
5813880,14
5814508,13
5815136,31
5815764,37
5816396,36
5817016,36
5817644,16
5818268,27
5818892,51
5819524,54
5820144,38
5820776,39
5821400,59
5822024,70
5822656,63
5823272,37
5823904,41
5824536,52
5825152,50
5825784,57
5826408,72
5827036,88
5827668,94
5828288,76
5828916,53
5829544,37
5830168,13
5830800,14
5831416,34
5832048,36
5832672,39
5833296,41
5833924,43
5834544,45
5835176,37
5835808,30
5836424,29
5837056,45
5837680,60
5838308,75
5838940,82
5839560,60
5840192,33
5840812,47
5841436,59
5842068,62
5842688,74
5843316,83
5843940,95
5844564,92
5845196,68
5845816,50
5846448,29
5847076,10
5847696,13
5848324,32
5848948,37
5849580,39
5850212,40
5850832,27
5851464,23
5852088,21
5852712,21
5853344,21
5853960,36
5854592,56
5855216,57
5855840,53
5856472,37
5857096,41
5857728,47
5858356,45
5858976,37
5859608,36
5860232,59
5860860,79
5861492,63
5862112,35
5862744,13
5863368,21
5863992,23
5864624,30
5865240,42
5865868,39
5866500,36
5867120,39
5867752,33
5868376,39
5869008,50
5869636,38
5870256,43
5870888,49
5871512,67
5872136,73
5872768,55
5873388,31
5874016,46
5874644,50
5875268,54
5875896,79
5876520,96
5877152,105
5877832,96
5878456,71
5879088,48
5879712,22
5880336,37
5880968,42
5881584,39
5882216,37
5882840,37
5883464,38
5884096,26
5884716,23
5885348,28
5885980,30
5886600,39
5887232,53
5887860,70
5888492,69
5889120,62
5889744,45
5890372,36
5891000,46
5891624,63
5892252,73
5892872,79
5893504,89
5894128,98
5894752,91
5895384,73
5896008,58
5896636,26
5897268,10
5897888,29
5898520,35
5899144,41
5899772,47
5900404,54
5901024,62
5901652,42
5902276,26
5902900,18
5903532,14
5904152,11
5904780,14
5905404,36
5906032,57
5906660,32
5907288,41
5907916,39
5908548,38
5909168,27
5909796,52
5910420,58
5911048,40
5911676,24
5912296,40
5912928,44
5913552,18
5914176,28
5914808,34
5915428,37
5916056,38
5916688,39
5917308,29
5917936,23
5918564,33
5919196,44
5919824,39
5920448,39
5921080,49
5921704,61
5922324,89
5922956,92
5923576,61
5924208,39
5924828,39
5925452,43
5926084,62
5926704,95
5927332,108
5928016,76
5928632,49
5929264,51
5929888,35
5930512,15
5931140,19
5931760,37
5932392,35
5933016,37
5933640,39
5934272,27
5934888,25
5935520,24
5936152,19
5936768,22
5937400,33
5938024,65
5938656,75
5939288,65
5939904,37
5940532,40
5941156,47
5941780,54
5942412,50
5943032,55
5943664,78
5944288,86
5944912,62
5945544,43
5946160,34
5946788,11
5947420,12
5948040,37
5948668,37
5949296,39
5949924,39
5950556,33
5951176,28
5951808,24
5952432,22
5953056,21
5953684,40
5954304,58
5954936,69
5955560,73
5956184,57
5956812,34
5957432,45
5958064,51
5958692,50
5959312,47
5959944,56
5960568,74
5961196,78
5961828,63
5962448,52
5963076,28
5963704,11
5964328,19
5964956,33
5965576,35
5966208,39
5966832,39
5967456,29
5968084,39
5968708,43
5969340,26
5969972,28
5970592,48
5971220,76
5971848,75
5972476,64
5973108,34
5973728,40
5974360,47
5974984,50
5975608,54
5976240,70
5976860,89
5977488,97
5978120,70
5978744,51
5979376,39
5980000,11
5980632,19
5981260,31
5981880,39
5982512,39
5983136,38
5983760,39
5984392,25
5985008,25
5985640,22
5986264,20
5986888,38
5987516,51
5988136,68
5988768,74
5989400,63
5990020,35
5990648,38
5991272,45
5991904,54
5992536,66
5993152,81
5993784,86
5994408,88
5995032,65
5995664,49
5996280,31
5996912,11
5997536,15
5998160,35
5998792,36
5999408,36
6000040,40
6000672,21
6001288,17
6001916,15
6002544,12
6003172,16
6003804,27
6004424,53
6005056,67
6005680,74
6006304,57
6006936,42
6007552,47
6008184,37
6008808,43
6009432,63
6010064,90
6010684,95
6011312,85
6011944,68
6012568,53
6013200,25
6013824,11
6014456,25
6015084,36
6015704,38
6016336,41
6016960,44
6017584,41
6018216,39
6018836,36
6019464,22
6020092,29
6020716,35
6021348,55
6021972,69
6022600,53
6023232,33
6023848,56
6024480,78
6025104,69
6025736,85
6026364,94
6026984,106
6027668,107
6028348,67
6028968,21
6029596,11
6030224,25
6030852,35
6031484,58
6032104,57
6032736,43
6033360,43
6033984,59
6034616,65
6035232,61
6035864,45
6036496,32
6037112,39
6037744,53
6038372,51
6039004,49
6039636,38
6040256,36
6040888,43
6041516,47
6042140,51
6042772,58
6043392,81
6044024,93
6044648,81
6045272,61
6045904,47
6046520,22
6047152,12
6047784,31
6048404,36
6049032,38
6049656,37
6050284,37
6050916,17
6051536,24
6052168,37
6052792,41
6053416,55
6054048,60
6054668,70
6055296,66
6055924,48
6056548,32
6057180,39
6057804,44
6058436,52
6059068,54
6059688,69
6060320,91
6060944,89
6061576,57
6062208,23
6062828,11
6063456,27
6064080,15
6064704,35
6065336,36
6065952,36
6066584,39
6067216,26
6067832,25
6068464,25
6069088,27
6069720,31
6070348,44
6070968,56
6071600,66
6072224,67
6072848,47
6073480,34
6074100,47
6074728,51
6075356,56
6075980,64
6076612,67
6077232,48
6077864,49
6078496,40
6079116,32
6079748,16
6080376,11
6081004,21
6081636,36
6082256,41
6082888,37
6083508,37
6084136,20
6084764,12
6085384,11
6086016,21
6086640,12
6087264,44
6087892,82
6088516,67
6089148,48
6089780,36
6090400,38
6091032,43
6091656,44
6092288,47
6092916,59
6093536,70
6094168,54
6094792,19
6095416,11
6096044,15
6096664,11
6097292,15
6097920,32
6098544,40
6099176,36
6099800,37
6100432,34
6101060,32
6101680,27
6102312,29
6102940,28
6103564,45
6104196,58
6104816,70
6105448,71
6106072,56
6106696,36
6107328,45
6107944,50
6108576,52
6109208,62
6109828,80
6110460,93
6111084,90
6111716,62
6112348,46
6112968,28
6113600,11
6114224,15
6114848,34
6115480,34
6116100,38
6116728,38
6117356,21
6117980,29
6118612,31
6119240,28
6119868,32
6120500,39
6121120,64
6121752,79
6122376,75
6123008,53
6123640,36
6124256,40
6124888,52
6125512,58
6126136,74
6126768,93
6127388,101
6128072,82
6128696,57
6129316,38
6129944,10
6130572,20
6131204,33
6131832,36
6132456,39
6133092,41
6133716,39
6134344,40
6134976,50
6135596,42
6136228,30
6136860,38
6137480,45
6138112,47
6138740,56
6139372,43
6140004,35
6140624,45
6141256,41
6141884,41
6142512,54
6143144,80
6143764,93
6144400,93
6145020,74
6145648,59
6146276,31
6146900,10
6147528,17
6148156,35
6148776,35
6149404,36
6150028,39
6150660,49
6151288,58
6151912,62
6152544,49
6153164,47
6153788,52
6154420,76
6155040,80
6155668,71
6156300,38
6156920,38
6157548,46
6158172,51
6158804,57
6159436,70
6160056,89
6160684,91
6161308,76
6161932,59
6162560,38
6163184,11
6163816,15
6164440,39
6165064,38
6165692,39
6166312,44
6166944,43
6167572,20
6168192,45
6168820,46
6169444,45
6170076,48
6170708,50
6171328,70
6171960,101
6172636,89
6173256,37
6173888,39
6174504,48
6175136,54
6175768,68
6176384,88
6177016,105
6177692,88
6178312,56
6178944,34
6179560,13
6180192,17
6180816,22
6181440,45
6182068,38
6182688,37
6183320,37
6183952,17
6184572,10
6185200,15
6185824,15
6186456,53
6187084,60
6187704,59
6188336,75
6188960,73
6189584,41
6190212,36
6190832,36
6191464,40
6192088,31
6192712,55
6193344,56
6193960,30
6194592,24
6195224,27
6195840,30
6196468,15
6197096,19
6197724,36
6198356,42
6198976,40
6199608,37
6200232,38
6200856,29
6201484,38
6202104,36
6202736,26
6203360,33
6203984,47
6204616,70
6205236,77
6205868,74
6206496,35
6207120,42
6207752,59
6208376,63
6209004,75
6209636,90
6210256,95
6210888,79
6211512,31
6212136,29
6212768,25
6213384,10
6214016,16
6214644,33
6215268,35
6215896,38
6216524,37
6217152,25
6217784,33
6218404,32
6219036,29
6219660,32
6220292,48
6220924,66
6221544,72
6222176,69
6222800,44
6223424,37
6224056,52
6224672,56
6225304,61
6225936,70
6226552,85
6227184,88
6227808,73
6228440,53
6229068,39
6229688,13
6230320,15
6230944,26
6231568,35
6232200,36
6232816,37
6233448,39
6234072,38
6234696,40
6235328,38
6235944,33
6236576,44
6237208,52
6237828,71
6238460,75
6239084,63
6239716,31
6240348,43
6240968,55
6241596,58
6242224,62
6242848,69
6243476,82
6244096,84
6244724,60
6245352,45
6245976,29
6246608,10
6247224,14
6247852,35
6248484,36
6249104,35
6249732,39
6250356,33
6250988,36
6251620,30
6252240,27
6252868,24
6253492,40
6254116,60
6254748,68
6255368,71
6256000,45
6256620,39
6257248,46
6257876,54
6258504,60
6259132,69
6259764,86
6260384,94
6261016,90
