tempo_arduino_micro_s,valor_ADC
500,47
1004,44
1504,58
2000,69
2508,63
3000,40
3508,53
4000,58
4508,67
5000,78
5500,64
6000,38
6500,47
7004,75
7500,50
8000,24
8500,19
9000,26
9500,39
10000,27
10516,12
11036,15
11564,43
12084,79
12612,165
13184,167
13768,106
14344,76
14860,79
15388,64
15908,42
16436,20
16956,13
17484,11
18004,13
18532,23
19052,25
19580,24
20100,74
20628,104
21200,89
21728,52
22252,46
22780,31
23300,50
23828,53
24348,39
24876,14
25396,18
25924,11
26444,12
26972,11
27492,14
28020,38
28540,49
29068,49
29588,49
30108,52
30628,53
31148,22
31668,10
32188,12
32708,18
33228,12
33748,20
34268,45
34788,63
35308,58
35828,67
36348,50
36876,53
37396,79
37924,105
38500,94
39028,73
39548,76
40076,62
40596,13
41124,30
41644,37
42172,32
42692,47
43220,65
43740,69
44268,61
44788,63
45316,57
45836,46
46364,47
46884,50
47412,31
47932,12
48460,13
48980,12
49508,12
50028,15
50556,11
51080,19
51604,21
52124,16
52644,18
53164,50
53684,65
54204,73
54724,72
55244,62
55764,40
56284,34
56804,33
57324,45
57844,32
58364,14
58892,18
59420,13
59940,20
60468,15
60988,22
61516,57
62036,52
62564,47
63084,49
63612,50
64136,30
64660,19
65180,17
65708,34
66228,32
66756,17
67276,11
67804,14
68324,17
68852,14
69372,13
69900,45
70420,49
70948,68
71468,81
71996,52
72520,32
73044,42
73564,76
74092,86
74612,87
75140,75
75664,57
76188,14
76708,59
77232,63
77748,32
78268,44
78788,45
79308,56
79832,70
80352,64
80868,27
81388,12
81908,11
82432,15
82956,29
83476,16
84004,153
84576,262
85160,141
85728,20
86252,61
86772,105
87352,120
87924,120
88504,92
89020,94
89540,96
90064,94
90580,82
91100,57
91624,35
92140,32
92664,21
93180,31
93708,77
94236,98
94760,68
95284,47
95804,49
96332,53
96852,55
97380,38
97900,13
98428,13
98948,32
99476,46
100000,46
100568,59
101136,96
101720,95
102292,68
102868,24
103448,68
104016,85
104592,89
105160,63
105736,35
106304,18
106888,27
107456,88
108024,106
108660,74
109224,63
109808,30
110376,15
110960,15
111528,46
112104,50
112688,49
113256,48
113832,49
114400,38
114984,52
115556,44
116136,29
116704,57
117280,88
117864,72
118432,42
119016,34
119588,30
120168,49
120736,48
121312,54
121896,50
122468,43
123048,45
123616,55
124200,38
124768,15
125352,28
125924,45
126496,44
127080,59
127652,46
128232,44
128800,69
129376,94
129944,105
130564,104
131192,72
131756,34
132336,13
132904,45
133488,70
134056,64
134632,38
135216,28
135784,35
136368,47
136936,46
137520,51
138092,63
138672,61
139240,64
139816,52
140400,54
140968,59
141552,41
142120,14
142704,9
143224,27
143800,59
144368,46
144944,43
145528,48
146096,48
146680,64
147248,67
147832,52
148404,38
148976,11
149560,12
150128,20
150712,23
151284,17
151864,13
152436,29
153016,32
153588,65
154164,63
154744,54
155312,111
155948,95
156520,60
157096,57
157668,145
158292,148
158924,24
159488,45
160072,43
160640,39
161216,56
161784,71
162360,72
162944,64
163512,51
164096,41
164664,48
165240,44
165808,29
166376,23
166952,32
167520,16
168104,26
168672,33
169248,32
169816,45
170392,51
170960,57
171536,56
172120,59
172688,48
173272,50
173840,62
174424,63
174992,45
175568,35
176144,20
176712,11
177296,11
177864,27
178448,43
179016,46
179600,52
180168,52
180744,39
181320,14
181888,17
182472,29
183040,31
183624,12
184196,11
184776,23
185352,43
185920,85
186504,82
187072,75
187656,57
188224,49
188808,53
189376,72
189956,75
190536,23
191108,26
191688,11
192260,24
192840,21
193408,11
193984,19
194552,19
195132,45
195712,57
196284,48
196864,53
197432,46
198016,49
198588,56
199160,56
199744,54
200316,74
200896,74
201468,67
202048,47
202620,15
203200,69
203768,98
204348,109
204980,103
205596,102
206224,106
206844,89
207416,72
208000,44
208568,13
209144,11
209712,13
210296,50
210864,43
211440,49
212024,59
212592,51
213176,50
213744,52
214328,19
214896,16
215480,40
216048,59
216624,61
217208,80
217776,104
218412,95
218980,82
219560,44
220128,51
220708,66
221288,90
221856,104
222492,95
223064,80
223640,78
224212,83
224784,52
225368,11
225936,38
226520,46
227088,83
227672,92
228244,67
228816,54
229400,49
229972,48
230552,50
231120,18
231704,24
232272,27
232856,44
233424,66
234004,66
234584,42
235152,15
235736,25
236304,58
236888,87
237456,65
238036,49
238616,74
239188,123
239820,86
240388,34
240968,21
241536,40
242120,22
242696,11
243268,37
243848,43
244416,26
245000,45
245572,70
246152,73
246732,52
247304,51
247888,18
248456,16
249040,11
249608,18
250192,31
250764,59
251344,112
251972,139
252592,129
253220,66
253788,45
254368,49
254940,58
255516,74
256100,108
256720,142
257344,140
257968,90
258536,41
259112,27
259680,39
260264,46
260832,60
261416,67
261984,48
262568,73
263136,76
263716,71
264296,47
264864,21
265448,10
266016,14
266600,11
267168,21
267744,27
268328,27
268896,27
269480,21
270048,44
270624,47
271192,50
271776,52
272356,77
272928,91
273512,98
274084,77
274664,49
275232,32
275816,12
276388,51
276964,65
277544,16
278116,54
278696,63
279268,51
279848,49
280420,54
281000,48
281572,48
282148,18
282728,22
283296,22
283880,119
284504,136
285132,86
285708,51
286280,22
286856,63
287424,89
288008,89
288576,89
289152,62
289724,54
290296,80
290880,102
291500,72
292080,20
292648,69
293232,52
293804,23
294380,18
294960,53
295532,58
296112,51
296684,52
297264,49
297836,14
298416,23
298984,115
299616,107
300244,67
300812,44
301392,40
301964,32
302544,38
303128,48
303700,52
304280,61
304852,74
305432,83
306004,104
306636,101
307268,105
307884,45
308460,31
309036,32
309616,17
310184,52
310764,62
311344,37
311916,47
312496,47
313068,48
313648,52
314216,40
314800,39
315372,29
315948,11
316528,31
317100,24
317680,15
318260,56
318840,86
319420,66
319996,46
320580,53
321148,58
321728,49
322296,67
322880,83
323448,115
324084,145
324712,123
325328,100
325956,83
326528,67
327104,25
327676,16
328252,43
328832,57
329400,85
329984,78
330552,62
331136,31
331708,12
332280,11
332864,10
333432,17
334008,25
334576,28
335160,16
335732,15
336312,25
336880,65
337456,72
338040,69
338608,56
339192,36
339764,18
340344,29
340912,12
341488,20
342072,22
342644,20
343224,11
343792,14
344376,13
344944,46
345528,45
346100,48
346672,51
347256,54
347828,38
348408,47
348976,36
349560,13
350128,26
350708,37
351288,35
351860,53
352440,73
353012,60
353592,49
354164,53
354744,51
355316,64
355892,111
356524,138
357144,117
357772,105
358392,96
358964,85
359544,40
360112,28
360696,41
361264,22
361848,42
362416,51
362992,54
363576,53
364148,50
364728,37
365300,17
365880,39
366452,25
367032,21
367604,25
368180,54
368760,73
369328,75
369912,53
370484,47
371064,59
371636,69
372212,76
372792,39
373364,12
373944,16
374516,53
375096,72
375668,82
376248,96
376820,96
377396,75
377976,71
378548,60
379128,47
379700,65
380280,143
380904,172
381524,159
382156,116
382776,81
383352,67
383924,52
384500,51
385080,33
385648,19
386232,34
386804,88
387384,121
388004,130
388628,104
389256,106
389872,112
390500,117
391120,101
391744,71
392320,15
392888,62
393472,81
394044,83
394624,65
395196,83
395772,133
396404,112
397024,61
397600,21
398172,18
398752,14
399324,23
399900,22
400480,40
401052,61
401632,55
402204,35
402784,15
403356,58
403932,80
404512,83
405080,75
405664,76
406236,91
406816,88
407396,52
407976,13
408548,19
409124,21
409704,36
410272,53
410848,18
411416,45
412000,55
412568,55
413144,51
413728,52
414296,24
414880,15
415448,25
416024,25
416592,25
417168,50
417736,35
418312,46
418896,88
419464,75
420048,43
420616,55
421192,78
421764,72
422344,61
422920,43
423488,40
424072,54
424640,39
425224,12
425792,10
426376,13
426944,15
427520,22
428104,38
428676,45
429256,47
429824,48
430408,50
430976,25
431560,24
432136,25
432704,25
433288,18
433856,11
434440,13
435012,13
435592,19
436168,39
436744,79
437328,95
437900,58
438480,49
439048,54
439632,56
440204,71
440784,80
441360,62
441932,18
442512,53
443084,65
443664,64
444236,57
444816,53
445384,48
445964,57
446544,89
447116,107
447748,98
448320,83
448896,48
449464,12
450040,25
450624,45
451192,50
451776,41
452348,37
452928,20
453496,43
454080,61
454652,59
455228,51
455808,32
456380,23
456960,19
457528,26
458112,61
458684,42
459260,12
459840,38
460412,74
460992,87
461564,51
462144,45
462716,52
463296,46
463880,49
464452,22
465032,41
465604,63
466184,47
466756,15
467336,37
467908,29
468484,14
469064,28
469636,21
470216,86
470788,87
471368,72
471948,76
472528,79
473112,84
473684,99
474264,109
474888,87
475464,68
476036,55
476616,30
477200,38
477772,136
478404,151
479024,89
479600,94
480172,122
480796,108
481428,82
481992,56
482576,38
483144,20
483728,19
484300,18
484876,44
485456,52
486028,24
486608,55
487176,64
487760,77
488332,88
488912,81
489488,49
490060,42
490640,51
491212,51
491792,29
492364,27
492944,23
493512,10
494092,10
494672,41
495244,54
495824,57
496396,47
496976,49
497544,28
498128,14
498704,20
499276,28
499856,22
500424,14
501008,39
501580,70
502160,75
502740,71
503316,46
503896,57
504468,58
505048,49
505620,54
506200,50
506772,89
507348,75
507928,20
508500,10
509080,28
509652,31
510232,29
510804,67
511384,61
511964,64
512540,63
513120,59
513688,56
514272,42
514840,26
515424,11
515992,25
516572,43
517152,40
517720,34
518304,34
518876,35
519456,44
520028,72
520608,68
521176,50
521756,50
522336,56
522904,16
523488,15
524060,41
524640,54
525212,54
525784,62
526368,51
526940,20
527520,14
528088,35
528672,47
529240,54
529824,52
530396,47
530972,36
531552,59
532124,69
532704,37
533276,16
533856,48
534428,87
535000,138
535636,143
536256,101
536884,45
537452,47
538032,48
538600,53
539176,63
539760,91
540332,126
540964,129
541588,95
542160,61
542744,43
543312,15
543896,23
544468,38
545048,48
545616,49
546200,55
546772,67
547348,72
547928,43
548500,39
549080,15
549652,11
550232,11
550804,11
551380,17
551960,29
552532,27
553112,37
553684,50
554264,59
554836,50
555416,51
555996,46
556572,65
557152,30
557724,36
558304,57
558884,60
559464,84
560036,93
560612,61
561192,30
561764,44
562344,77
562916,137
563548,86
564120,44
564692,19
565272,15
565844,18
566424,14
566992,104
567628,165
568252,120
568876,59
569452,18
570024,47
570600,53
571172,57
571752,73
572332,87
572908,113
573540,124
574160,116
574788,62
575360,14
575936,15
576508,36
577084,53
577664,68
578232,49
578816,51
579388,59
579968,67
580540,75
581116,56
581696,24
582268,11
582848,20
583420,78
584000,105
584628,108
585252,90
585828,68
586400,33
586976,54
587548,74
588128,80
588708,72
589284,77
589864,97
590436,129
591068,114
591688,63
592264,14
592836,60
593412,82
593992,49
594564,20
595144,54
595716,85
596296,96
596868,59
597448,41
598024,16
598596,31
599176,20
599748,12
600328,27
600908,23
601488,75
602068,75
602644,47
603224,47
603796,72
604376,87
604956,89
605536,69
606108,66
606684,67
607264,57
607840,35
608416,29
608988,47
609568,32
610140,54
610720,90
611300,34
611876,44
612456,43
613028,51
613608,57
614188,40
614772,16
615344,22
615924,59
616504,67
617076,82
617656,99
618228,120
618860,91
619432,45
620004,54
620584,127
621208,179
621836,154
622460,87
623036,27
623612,11
624188,18
624768,60
625340,94
625920,63
626492,31
627072,14
627652,30
628228,85
628808,98
629380,86
629960,86
630532,79
631112,61
631692,28
632272,21
632856,47
633432,102
634064,136
634680,93
635256,43
635836,13
636412,28
636992,49
637564,52
638144,49
638720,48
639296,27
639876,30
640460,37
641040,35
641608,21
642192,14
642764,12
643344,12
643912,13
644496,21
645064,55
645644,67
646224,58
646796,51
647376,49
647948,14
648528,16
649096,115
649732,148
650360,79
650932,38
651512,20
652084,13
652664,13
653236,59
653812,98
654392,90
654964,55
655544,61
656112,79
656696,103
657316,93
657888,58
658464,14
659032,14
659616,17
660184,23
660768,12
661336,47
661920,91
662488,84
663064,63
663648,56
664220,27
664800,31
665368,50
665952,72
666520,130
667148,169
667776,118
668400,64
668972,39
669544,48
670128,53
670700,53
671276,47
671856,51
672428,46
673008,16
673576,25
674160,65
674732,136
675360,179
675984,171
676608,111
677236,43
677804,49
678376,48
678960,95
679532,100
680164,51
680728,55
681312,71
681884,67
682460,34
683040,12
683612,13
684192,16
684764,15
685344,36
685924,78
686504,74
687076,46
687652,47
688232,54
688804,49
689384,29
689956,44
690536,66
691108,52
691684,17
692264,17
692836,15
693416,16
693988,14
694568,20
695140,58
695720,67
696292,72
696868,70
697448,50
698020,27
698600,18
699172,54
699752,25
700332,17
700908,12
701488,19
702060,39
702640,33
703212,44
703792,55
704364,100
704996,105
705624,71
706188,14
706768,28
707340,46
707920,40
708492,17
709072,43
709648,83
710220,78
710800,50
711372,49
711952,43
712532,50
713112,50
713692,50
714268,49
714848,106
715472,103
716100,26
716672,27
717260,32
717840,54
718412,114
719044,136
719664,78
720240,45
720808,50
721384,54
721968,64
722536,73
723120,91
723692,104
724324,92
724896,73
725468,56
726048,54
726620,28
727200,11
727768,37
728352,65
728924,67
729504,73
730076,64
730652,56
731232,45
731804,17
732384,29
732964,57
733544,27
734116,33
734692,71
735276,107
735900,97
736476,59
737052,46
737632,51
738200,54
738780,47
739360,51
739932,95
740512,114
741136,91
741712,47
742284,35
742864,35
743448,14
744020,16
744600,28
745172,46
745752,71
746324,83
746904,73
747476,72
748052,70
748632,48
749204,19
749784,15
750356,25
750936,48
751516,41
752092,30
752672,15
753244,48
753824,73
754396,84
754976,71
755556,57
756136,43
756716,39
757292,35
757872,21
758444,32
759024,27
759596,19
760176,10
760756,13
761332,18
761912,38
762488,48
763064,50
763636,51
764216,40
764796,30
765380,15
765960,14
766536,11
767112,11
767688,11
768268,34
768840,32
769424,17
769996,46
770572,48
771152,58
771724,67
772304,57
772876,43
773456,59
774028,81
774608,88
775184,49
775756,35
776336,28
776908,18
777488,55
778060,43
778640,44
779220,51
779796,49
780376,49
780948,31
781528,60
782100,62
782680,49
783252,29
783828,16
784408,13
784980,33
785560,48
786132,45
786712,45
787284,59
787864,59
788436,54
789012,54
789592,67
790164,92
790744,145
791376,161
792004,101
792632,84
793204,76
793788,34
794356,12
794936,43
795516,43
796100,89
796680,199
797308,163
797936,53
798504,23
799080,17
799660,30
800236,76
800816,110
801436,125
802064,157
802688,160
803316,120
803944,59
804508,50
805088,61
805660,73
806240,75
806820,61
807396,100
808028,176
808648,201
809276,162
809896,25
810468,99
811048,81
811620,44
812200,70
812772,84
813352,80
813932,65
814512,23
815092,14
815668,27
816248,34
816820,43
817400,60
817972,66
818552,51
819132,50
819708,38
820288,47
820856,49
821432,51
822004,50
822584,32
823152,33
823736,46
824308,58
824884,51
825464,42
826032,30
826616,13
827184,11
827768,44
828340,73
828916,68
829496,49
830064,50
830648,48
831220,55
831800,84
832372,89
832952,77
833524,68
834096,71
834680,84
835248,72
835832,37
836404,27
836984,101
837604,118
838228,117
838856,116
839472,96
840048,56
840624,21
841192,11
841776,18
842344,12
842928,10
843496,24
844080,42
844648,43
845232,44
845800,45
846376,49
846960,53
847532,40
848112,12
848680,12
849264,13
849836,14
850412,12
850992,31
851564,57
852144,72
852716,78
853296,53
853876,54
854456,84
855032,99
855612,95
856192,101
856816,85
857392,60
857964,33
858544,10
859116,31
859692,116
860324,249
860940,219
861572,83
862140,47
862716,123
863348,169
863968,162
864596,116
865220,77
865788,19
866368,43
866940,30
867520,29
868092,84
868672,130
869296,135
869916,134
870548,120
871164,54
871744,71
872316,105
872948,96
873528,74
874096,83
874680,76
875252,47
875832,37
876404,33
876984,15
877556,38
878132,35
878712,44
879284,54
879864,57
880444,50
881024,29
881592,42
882172,43
882752,32
883324,24
883904,27
884476,31
885056,44
885628,27
886208,14
886780,50
887356,60
887936,62
888508,66
889088,66
889660,51
890240,48
890812,58
891388,66
891968,28
892540,11
893120,10
893692,18
894272,15
894844,39
895424,43
896012,50
896580,54
897160,51
897732,17
898312,20
898884,52
899464,71
900036,38
900612,10
901192,23
901764,55
902344,103
902968,186
903596,128
904224,60
904788,53
905368,55
905940,32
906520,23
907092,29
907672,33
908244,39
908820,47
909400,59
909972,41
910552,27
911124,31
911704,58
912284,74
912860,59
913440,52
914012,50
914592,41
915164,79
915748,88
916324,64
916904,47
917484,39
918060,64
918640,71
919216,67
919792,63
920372,47
920952,48
921532,47
922108,50
922688,22
923260,15
923840,62
924412,131
925044,167
925668,179
926288,156
926920,75
927484,47
928064,45
928632,41
929216,65
929788,110
930416,74
930992,50
931564,59
932144,72
932724,70
933304,54
933884,21
934460,33
935040,24
935612,26
936192,36
936772,68
937352,62
937932,68
938508,88
939088,77
939660,60
940240,47
940820,24
941400,25
941972,17
942548,50
943128,55
943700,70
944280,71
944852,54
945432,40
946004,50
946584,48
947156,49
947732,18
948312,11
948884,15
949464,25
950036,24
950616,14
951196,36
951772,43
952352,42
952924,33
953504,47
954080,74
954656,106
955288,77
955860,78
956440,113
957068,135
957696,66
958268,19
958848,27
959428,20
960004,33
960584,26
961156,18
961736,42
962308,65
962888,96
963464,116
964100,93
964676,114
965300,132
965928,59
966500,23
967080,21
967652,19
968228,29
968808,22
969380,23
969960,79
970540,105
971172,116
971804,130
972424,113
973052,38
973620,14
974200,15
974772,14
975348,55
975928,88
976504,79
977080,60
977652,26
978232,41
978804,47
979384,47
979956,52
980532,51
981112,15
981684,13
982264,12
982844,11
983424,17
984004,29
984576,24
985160,15
985732,36
986312,59
986884,104
987516,99
988088,67
988660,57
989240,38
989812,47
990392,90
990964,84
991544,58
992116,13
992696,32
993268,40
993844,46
994424,16
994996,43
995576,51
996148,59
996728,63
997308,56
997884,56
998464,44
999036,57
999616,56
1000188,77
1000812,86
1001436,49
1002060,13
1002688,15
1003304,50
1003932,65
1004564,62
1005184,68
1005812,71
1006436,55
1007064,29
1007692,28
1008312,15
1008940,33
1009564,56
1010188,33
1010816,12
1011440,31
1012068,60
1012692,54
1013316,51
1013944,50
1014568,37
1015196,75
1015828,64
1016448,36
1017076,27
1017700,25
1018332,43
1018960,36
1019576,15
1020208,68
1020832,51
1021456,50
1022084,59
1022704,106
1023388,119
1024068,92
1024684,80
1025312,59
1025932,57
1026560,18
1027188,144
1027860,156
1028536,93
1029156,90
1029772,67
1030400,51
1031024,23
1031652,20
1032280,36
1032896,65
1033524,54
1034148,17
1034772,13
1035400,15
1036016,18
1036644,53
1037268,63
1037888,54
1038520,54
1039136,89
1039764,102
1040444,80
1041060,32
1041688,15
1042312,21
1042940,27
1043568,21
1044184,29
1044812,27
1045432,48
1046056,50
1046684,48
1047304,50
1047932,28
1048556,27
1049176,29
1049804,22
1050420,33
1051048,47
1051676,52
1052296,64
1052924,57
1053548,45
1054176,48
1054804,51
1055424,64
1056052,96
1056672,93
1057296,76
1057924,70
1058544,56
1059172,80
1059796,84
1060420,48
1061048,43
1061664,69
1062292,73
1062924,59
1063544,51
1064172,45
1064796,31
1065424,52
1066052,50
1066672,70
1067300,141
1067972,142
1068644,90
1069268,49
1069892,41
1070520,57
1071148,66
1071768,70
1072396,62
1073020,48
1073648,35
1074276,14
1074896,17
1075524,15
1076148,55
1076768,60
1077400,51
1078016,80
1078644,91
1079268,65
1079888,48
1080520,50
1081136,65
1081764,91
1082392,115
1083060,118
1083736,90
1084352,59
1084976,57
1085604,39
1086224,33
1086852,42
1087476,48
1088096,51
1088724,51
1089348,43
1089976,49
1090604,74
1091224,85
1091848,77
1092472,45
1093100,28
1093732,18
1094352,35
1094980,54
1095604,46
1096228,70
1096856,79
1097480,55
1098108,16
1098732,11
1099356,10
1099984,31
1100604,17
1101232,16
1101860,13
1102480,24
1103108,44
1103732,79
1104364,68
1104992,51
1105608,51
1106236,22
1106860,142
1107536,213
1108208,119
1108884,25
1109504,73
1110132,36
1110752,12
1111380,18
1112004,40
1112628,50
1113260,54
1113880,52
1114508,14
1115132,20
1115760,29
1116388,19
1117012,18
1117644,12
1118272,15
1118892,13
1119520,19
1120144,55
1120772,75
1121404,82
1122024,83
1122652,64
1123276,58
1123896,80
1124528,56
1125144,15
1125772,34
1126396,46
1127024,16
1127652,39
1128276,48
1128904,53
1129532,50
1130152,55
1130780,73
1131404,93
1132036,55
1132664,26
1133280,13
1133908,33
1134536,61
1135156,59
1135788,64
1136408,57
1137036,48
1137660,54
1138288,66
1138916,72
1139540,89
1140168,113
1140852,116
1141524,103
1142200,52
1142828,23
1143448,11
1144076,10
1144700,17
1145332,40
1145960,51
1146584,53
1147212,48
1147836,14
1148460,12
1149088,18
1149712,23
1150340,32
1150964,32
1151588,78
1152220,68
1152840,38
1153472,45
1154100,64
1154720,49
1155348,49
1155972,50
1156600,73
1157228,21
1157848,83
1158476,93
1159100,90
1159720,83
1160352,60
1160968,44
1161596,54
1162220,53
1162844,55
1163472,148
1164144,217
1164816,115
1165496,22
1166112,13
1166740,18
1167368,13
1167992,45
1168620,50
1169244,34
1169872,44
1170504,58
1171120,51
1171752,78
1172376,109
1173052,110
1173728,95
1174352,106
1175032,26
1175664,41
1176280,58
1176908,93
1177532,83
1178160,37
1178788,60
1179408,86
1180036,61
1180660,54
1181284,14
1181912,14
1182536,25
1183164,33
1183796,76
1184416,107
1185096,37
1185712,118
1186388,84
1187012,62
1187632,49
1188260,61
1188892,52
1189512,21
1190140,38
1190764,55
1191396,29
1192024,14
1192640,38
1193272,27
1193896,14
1194520,20
1195148,44
1195768,51
1196396,45
1197024,52
1197648,33
1198276,12
1198896,13
1199524,11
1200156,10
1200776,17
1201404,30
1202028,31
1202656,15
1203288,60
1203904,99
1204532,81
1205156,51
1205780,49
1206408,11
1207032,42
1207660,64
1208284,56
1208908,42
1209540,10
1210160,53
1210788,90
1211420,90
1212040,129
1212720,116
1213396,74
1214016,62
1214644,51
1215264,37
1215896,16
1216524,18
1217144,17
1217772,22
1218396,13
1219028,16
1219656,22
1220280,64
1220908,75
1221532,74
1222156,71
1222788,78
1223408,85
1224036,93
1224660,76
1225284,23
1225916,26
1226536,36
1227168,85
1227796,96
1228416,45
1229048,77
1229668,107
1230348,80
1230972,39
1231592,22
1232220,17
1232844,41
1233464,78
1234096,159
1234764,151
1235440,68
1236068,22
1236688,70
1237316,53
1237940,49
1238564,48
1239192,53
1239812,46
1240440,59
1241064,63
1241684,51
1242312,20
1242936,13
1243564,30
1244192,17
1244816,32
1245444,52
1246068,49
1246696,54
1247328,55
1247944,18
1248576,26
1249200,57
1249824,73
1250452,56
1251072,28
1251700,26
1252324,50
1252948,52
1253580,43
1254200,46
1254828,56
1255460,64
1256080,73
1256708,79
1257332,16
1257960,93
1258592,74
1259208,54
1259840,42
1260464,39
1261088,12
1261716,43
1262336,47
1262964,48
1263588,57
1264216,49
1264844,29
1265464,40
1266092,43
1266724,18
1267344,31
1267972,49
1268596,44
1269228,58
1269856,60
1270480,56
1271108,49
1271732,59
1272356,69
1272988,91
1273608,96
1274236,117
1274920,92
1275536,24
1276164,57
1276788,95
1277420,100
1278104,37
1278720,40
1279348,47
1279976,50
1280600,50
1281228,14
1281844,35
1282472,43
1283100,22
1283720,23
1284348,43
1284968,53
1285600,29
1286228,16
1286848,53
1287476,57
1288100,63
1288720,52
1289348,65
1289968,73
1290596,71
1291220,50
1291840,14
1292468,59
1293088,70
1293716,58
1294344,26
1294960,43
1295592,51
1296216,59
1296844,53
1297472,53
1298088,19
1298716,63
1299340,89
1299968,43
1300596,23
1301216,51
1301844,42
1302468,14
1303088,15
1303720,48
1304336,52
1304964,54
1305588,51
1306212,14
1306840,16
1307464,42
1308096,50
1308724,29
1309344,11
1309972,22
1310596,34
1311228,16
1311856,46
1312472,49
1313100,49
1313724,48
1314348,26
1314976,13
1315592,12
1316220,16
1316844,20
1317464,30
1318092,28
1318712,29
1319340,47
1319968,45
1320584,56
1321216,64
1321836,67
1322464,61
1323092,53
1323712,65
1324340,62
1324964,27
1325584,27
1326212,12
1326832,12
1327460,11
1328084,16
1328704,41
1329332,50
1329952,50
1330580,50
1331208,22
1331828,11
1332456,19
1333080,21
1333708,39
1334336,39
1334952,14
1335584,37
1336204,73
1336836,97
1337464,59
1338080,51
1338708,54
1339332,26
1339956,14
1340584,76
1341200,124
1341884,113
1342560,61
1343176,26
1343804,13
1344428,25
1345048,46
1345676,51
1346296,72
1346924,103
1347604,117
1348276,84
1348900,34
1349524,13
1350148,14
1350780,20
1351400,27
1352028,27
1352648,25
1353272,46
1353900,60
1354520,61
1355148,70
1355772,93
1356400,89
1357028,62
1357652,48
1358280,46
1358908,34
1359528,35
1360156,15
1360776,12
1361408,16
1362036,41
1362652,88
1363284,155
1363956,68
1364576,49
1365204,56
1365828,17
1366456,11
1367084,32
1367704,82
1368332,106
1369004,92
1369624,51
1370252,43
1370872,66
1371500,116
1372184,122
1372848,114
1373528,98
1374144,87
1374768,81
1375396,64
1376016,45
1376644,17
1377268,78
1377892,100
1378572,78
1379192,51
1379820,49
1380452,54
1381072,29
1381700,20
1382324,18
1382948,35
1383580,90
1384200,88
1384828,17
1385452,81
1386072,58
1386704,54
1387320,61
1387948,57
1388580,58
1389200,52
1389828,13
1390452,32
1391080,37
1391712,71
1392328,81
1392960,96
1393580,126
1394256,75
1394880,35
1395496,53
1396124,47
1396752,47
1397376,49
1398004,14
1398628,10
1399256,17
1399884,11
1400504,11
1401132,13
1401756,17
1402380,19
1403008,16
1403628,62
1404256,70
1404880,68
1405500,49
1406132,16
1406752,13
1407380,12
1408012,46
1408628,52
1409256,62
1409880,51
1410508,15
1411136,21
1411760,59
1412388,47
1413012,50
1413640,47
1414268,46
1414888,56
1415516,13
1416140,11
1416764,14
1417392,16
1418008,77
1418640,176
1419320,128
1419988,49
1420612,57
1421240,74
1421860,75
1422492,70
1423112,61
1423740,84
1424364,93
1424988,74
1425620,52
1426240,51
1426868,32
1427500,26
1428120,32
1428748,47
1429372,77
1430004,115
1430684,81
1431304,28
1431932,11
1432560,29
1433184,32
1433816,18
1434436,70
1435064,65
1435696,29
1436312,20
1436940,47
1437564,57
1438192,62
1438824,49
1439440,33
1440068,13
1440692,28
1441312,14
1441940,14
1442556,35
1443188,47
1443812,33
1444436,20
1445064,50
1445680,51
1446308,49
1446936,50
1447560,45
1448188,13
1448812,28
1449440,63
1450068,38
1450688,27
1451316,26
1451940,79
1452564,111
1453244,49
1453864,57
1454492,71
1455124,48
1455744,50
1456372,21
1456996,15
1457624,19
1458256,26
1458872,11
1459500,15
1460124,40
1460748,35
1461376,37
1462000,109
1462680,118
1463356,64
1463976,52
1464608,24
1465228,42
1465860,36
1466488,31
1467104,48
1467736,61
1468360,49
1468984,38
1469612,45
1470232,44
1470860,60
1471484,64
1472112,57
1472740,54
1473364,59
1473992,70
1474624,87
1475240,91
1475868,64
1476492,11
1477120,69
1477748,56
1478368,46
1478996,55
1479620,59
1480244,180
1480924,109
1481596,26
1482220,67
1482852,72
1483472,45
1484100,26
1484724,44
1485348,21
1485980,24
1486600,43
1487228,65
1487852,63
1488476,55
1489104,60
1489720,77
1490352,21
1490980,46
1491600,137
1492280,142
1492948,40
1493568,11
1494196,27
1494816,39
1495444,39
1496076,54
1496696,52
1497324,46
1497948,31
1498576,16
1499208,27
1499824,13
1500452,23
1501076,15
1501704,27
1502332,27
1502952,20
1503580,48
1504208,63
1504832,68
1505460,64
1506080,69
1506708,49
1507340,33
1507960,31
1508588,13
1509212,21
1509844,31
1510472,13
1511096,19
1511724,55
1512348,55
1512972,46
1513604,54
1514224,48
1514852,46
1515480,71
1516104,50
1516732,39
1517352,35
1517980,35
1518612,16
1519232,15
1519860,27
1520488,53
1521116,49
1521748,50
1522368,50
1522996,16
1523624,53
1524244,72
1524876,66
1525496,45
1526124,29
1526748,12
1527372,21
1528004,18
1528624,42
1529252,46
1529884,51
1530504,50
1531136,32
1531760,25
1532388,11
1533020,12
1533640,15
1534268,27
1534896,65
1535520,88
1536152,88
1536768,45
1537396,65
1538016,78
1538640,53
1539268,66
1539888,53
1540516,35
1541144,40
1541760,45
1542388,17
1543012,16
1543644,19
1544272,12
1544896,45
1545524,53
1546148,49
1546772,54
1547404,60
1548024,50
1548652,33
1549276,29
1549900,20
1550532,40
1551152,43
1551784,45
1552412,49
1553032,37
1553660,51
1554284,65
1554916,79
1555544,70
1556168,45
1556796,41
1557420,55
1558044,60
1558676,33
1559296,24
1559924,24
1560548,17
1561172,13
1561804,54
1562424,57
1563052,56
1563680,51
1564296,33
1564928,14
1565552,25
1566180,36
1566812,71
1567432,108
1568112,135
1568788,171
1569460,153
1570136,61
1570760,51
1571384,75
1572012,142
1572684,249
1573360,301
1574044,264
1574716,163
1575392,82
1576020,63
1576640,24
1577268,101
1577944,226
1578620,220
1579296,161
1579972,92
1580592,56
1581224,118
1581892,151
1582572,75
1583200,33
1583816,16
1584448,19
1585072,13
1585696,20
1586324,48
1586944,86
1587576,70
1588200,79
1588820,119
1589504,154
1590172,178
1590844,147
1591520,94
1592144,62
1592776,26
1593404,30
1594024,21
1594652,15
1595276,52
1595908,113
1596592,156
1597260,146
1597940,119
1598620,79
1599240,53
1599872,17
1600496,12
1601116,19
1601744,35
1602368,62
1602996,77
1603624,97
1604240,83
1604868,53
1605492,50
1606120,26
1606748,11
1607368,14
1607996,10
1608620,10
1609244,12
1609872,12
1610488,36
1611116,40
1611740,45
1612364,47
1612996,48
1613616,58
1614244,97
1614872,103
1615540,70
1616164,23
1616788,12
1617412,47
1618044,72
1618664,78
1619292,75
1619916,48
1620536,50
1621168,49
1621784,60
1622412,52
1623036,28
1623664,50
1624292,68
1624916,73
1625548,46
1626176,28
1626800,19
1627428,21
1628052,57
1628680,62
1629308,48
1629928,64
1630556,60
1631180,41
1631804,20
1632436,21
1633056,16
1633684,34
1634316,36
1634936,19
1635564,17
1636188,14
1636820,59
1637452,58
1638072,55
1638704,51
1639324,44
1639948,33
1640576,64
1641192,45
1641816,23
1642440,14
1643060,39
1643688,53
1644308,32
1644936,41
1645560,73
1646180,67
1646808,50
1647432,49
1648060,58
1648688,81
1649304,43
1649932,14
1650552,33
1651180,51
1651808,50
1652432,50
1653060,24
1653680,47
1654304,52
1654932,52
1655552,67
1656180,101
1656860,125
1657532,111
1658208,95
1658832,46
1659456,38
1660084,17
1660704,13
1661332,29
1661960,103
1662628,112
1663304,58
1663928,50
1664552,34
1665180,50
1665800,65
1666424,72
1667048,38
1667668,27
1668300,64
1668920,143
1669600,77
1670220,40
1670840,55
1671468,58
1672088,49
1672712,58
1673340,96
1673960,95
1674588,76
1675212,30
1675832,17
1676460,54
1677080,102
1677760,101
1678432,59
1679056,45
1679684,50
1680308,50
1680928,43
1681556,14
1682176,13
1682804,16
1683424,39
1684048,30
1684676,16
1685292,25
1685920,31
1686552,48
1687168,49
1687796,49
1688420,67
1689048,92
1689676,82
1690292,86
1690920,104
1691596,96
1692216,61
1692844,44
1693460,13
1694092,43
1694712,32
1695336,43
1695964,49
1696588,56
1697216,56
1697848,31
1698464,21
1699092,17
1699716,13
1700344,15
1700972,22
1701592,49
1702220,66
1702844,46
1703464,41
1704096,58
1704712,65
1705340,69
1705964,50
1706588,54
1707216,59
1707832,18
1708460,15
1709092,16
1709712,21
1710340,16
1710964,29
1711596,46
1712224,50
1712840,54
1713472,50
1714096,50
1714716,17
1715348,19
1715968,24
1716596,25
1717220,45
1717844,64
1718472,62
1719088,53
1719720,53
1720348,127
1721016,146
1721696,77
1722312,54
1722936,57
1723564,44
1724184,36
1724812,32
1725436,14
1726060,16
1726688,23
1727312,30
1727940,70
1728572,90
1729192,49
1729820,56
1730444,87
1731072,90
1731700,65
1732320,49
1732948,16
1733572,44
1734196,44
1734824,33
1735440,17
1736072,25
1736696,64
1737316,71
1737948,64
1738572,57
1739200,51
1739828,22
1740448,37
1741076,45
1741700,41
1742328,19
1742956,10
1743576,27
1744204,36
1744828,23
1745448,41
1746076,56
1746696,57
1747324,49
1747948,23
1748572,25
1749200,18
1749816,19
1750444,29
1751076,20
1751696,33
1752324,38
1752948,17
1753576,78
1754208,130
1754876,104
1755552,76
1756180,102
1756852,113
1757528,120
1758204,95
1758832,22
1759460,172
1760136,216
1760816,123
1761492,57
1762112,64
1762740,65
1763368,57
1763984,47
1764612,53
1765236,106
1765916,136
1766592,109
1767264,52
1767892,19
1768520,63
1769144,144
1769824,201
1770492,104
1771172,57
1771800,73
1772420,86
1773052,37
1773680,23
1774296,67
1774924,78
1775548,49
1776172,44
1776804,54
1777424,56
1778052,46
1778676,53
1779300,52
1779928,51
1780552,49
1781180,24
1781812,18
1782432,12
1783060,14
1783684,12
1784312,34
1784940,39
1785560,17
1786192,16
1786816,50
1787440,49
1788068,52
1788688,57
1789316,40
1789940,57
1790568,86
1791196,61
1791824,27
1792452,23
1793084,42
1793704,13
1794332,27
1794956,40
1795584,45
1796212,64
1796832,61
1797460,54
1798084,25
1798708,58
1799336,50
1799952,19
1800584,11
1801208,13
1801832,15
1802460,41
1803080,57
1803712,45
1804340,56
1804960,51
1805588,52
1806208,31
1806840,32
1807468,32
1808088,26
1808712,20
1809336,29
1809960,40
1810588,38
1811208,57
1811836,74
1812460,51
1813084,46
1813712,53
1814328,56
1814960,35
1815588,10
1816208,11
1816836,15
1817460,44
1818092,69
1818720,74
1819336,70
1819964,50
1820588,47
1821212,59
1821844,70
1822464,73
1823092,76
1823716,73
1824340,65
1824968,47
1825592,45
1826220,23
1826848,40
1827472,48
1828100,37
1828724,41
1829352,48
1829984,48
1830600,48
1831232,49
1831856,34
1832480,17
1833108,38
1833728,34
1834356,48
1834980,48
1835604,49
1836236,46
1836856,65
1837484,49
1838116,55
1838736,65
1839364,49
1839988,52
1840620,67
1841252,16
1841872,28
1842500,12
1843128,11
1843752,24
1844380,22
1845000,44
1845628,59
1846252,58
1846872,50
1847504,50
1848120,17
1848748,28
1849376,32
1850000,17
1850628,59
1851252,149
1851932,193
1852608,101
1853284,64
1853908,190
1854592,179
1855260,116
1855936,101
1856620,87
1857240,26
1857868,111
1858544,139
1859212,55
1859836,18
1860460,25
1861088,14
1861720,50
1862336,58
1862968,48
1863592,51
1864216,49
1864844,20
1865464,23
1866092,46
1866716,54
1867340,48
1867968,44
1868592,35
1869220,25
1869852,23
1870472,81
1871100,97
1871724,81
1872356,52
1872984,23
1873600,38
1874232,86
1874856,91
1875480,61
1876108,55
1876728,18
1877356,59
1877980,54
1878608,43
1879236,53
1879856,147
1880540,149
1881216,82
1881840,17
1882468,61
1883092,107
1883768,91
1884392,56
1885016,16
1885644,49
1886272,65
1886896,41
1887524,48
1888148,52
1888772,51
1889404,41
1890024,45
1890652,59
1891276,74
1891900,56
1892528,37
1893152,22
1893780,27
1894412,66
1895032,59
1895660,44
1896284,63
1896912,90
1897544,83
1898160,58
1898792,44
1899416,19
1900040,18
1900668,81
1901288,121
1901968,161
1902648,152
1903324,97
1903952,51
1904576,89
1905200,128
1905880,123
1906556,76
1907184,28
1907812,13
1908432,47
1909060,61
1909688,60
1910312,58
1910940,31
1911560,43
1912192,73
1912816,75
1913440,58
1914072,50
1914696,13
1915328,20
1915956,34
1916576,23
1917208,13
1917832,27
1918464,63
1919092,93
1919712,74
1920344,46
1920968,51
1921588,55
1922220,52
1922840,41
1923468,51
1924092,61
1924720,61
1925348,45
1925972,53
1926600,47
1927232,15
1927848,17
1928476,45
1929100,51
1929728,68
1930360,60
1930976,41
1931604,13
1932228,13
1932852,43
1933480,70
1934100,27
1934728,29
1935352,48
1935976,71
1936608,53
1937228,49
1937860,49
1938492,50
1939112,60
1939744,32
1940368,22
1940996,45
1941624,44
1942248,24
1942876,11
1943504,20
1944128,21
1944756,18
1945376,43
1946008,47
1946636,48
1947256,53
1947884,18
1948508,17
1949136,11
1949768,14
1950384,41
1951016,50
1951640,48
1952264,36
1952892,27
1953512,47
1954140,55
1954764,59
1955388,66
1956020,84
1956640,107
1957320,124
1957996,128
1958668,100
1959344,72
1959976,51
1960592,39
1961220,52
1961844,53
1962476,199
1963160,175
1963828,72
1964456,40
1965084,40
1965704,86
1966336,123
1967008,138
1967684,77
1968308,66
1968928,46
1969556,49
1970184,126
1970860,128
1971536,86
1972160,52
1972780,21
1973412,16
1974032,31
1974660,48
1975284,29
1975908,11
1976536,16
1977160,18
1977792,11
1978420,46
1979040,49
1979668,49
1980292,52
1980924,45
1981552,12
1982168,27
1982800,19
1983424,13
1984048,38
1984676,96
1985296,111
1985976,80
1986596,40
1987216,65
1987844,72
1988468,64
1989096,63
1989724,56
1990344,72
1990976,74
1991600,48
1992220,24
1992852,12
1993472,32
1994104,35
1994728,17
1995348,43
1995980,47
1996600,47
1997232,51
1997860,20
1998480,15
1999108,11
1999732,11
2000364,17
2000992,24
2001608,36
2002240,21
2002860,31
2003484,45
2004112,54
2004736,52
2005364,54
2005988,44
2006612,49
2007240,44
2007864,35
2008492,37
2009120,24
2009744,14
2010372,52
2010996,74
2011624,45
2012256,44
2012872,47
2013500,51
2014124,59
2014748,75
2015380,74
2016000,65
2016628,57
2017252,14
2017876,52
2018504,82
2019128,107
2019808,116
2020492,61
2021112,49
2021740,54
2022368,51
2022992,17
2023620,27
2024240,42
2024868,52
2025500,21
2026120,23
2026748,68
2027376,60
2028004,43
2028632,44
2029256,51
2029884,51
2030508,49
2031132,45
2031764,90
2032384,101
2033064,44
2033692,36
2034312,65
2034944,48
2035568,21
2036196,17
2036828,41
2037448,47
2038076,51
2038704,53
2039328,53
2039956,56
2040576,54
2041204,46
2041828,27
2042452,26
2043084,32
2043704,30
2044336,32
2044964,66
2045584,64
2046216,47
2046840,55
2047472,50
2048100,11
2048716,12
2049344,18
2049964,21
2050588,79
2051216,132
2051880,148
2052560,93
2053180,53
2053796,79
2054428,85
2055048,52
2055676,74
2056304,106
2056980,78
2057604,62
2058224,51
2058848,22
2059476,11
2060100,13
2060728,11
2061360,20
2061976,45
2062604,46
2063228,50
2063856,49
2064484,42
2065100,63
2065732,66
2066352,59
2066976,46
2067604,22
2068224,16
2068852,19
2069472,21
2070096,49
2070724,53
2071344,51
2071972,51
2072604,52
2073224,72
2073852,113
2074528,103
2075196,49
2075820,11
2076440,11
2077068,25
2077692,34
2078320,47
2078948,46
2079572,48
2080200,52
2080828,53
2081444,44
2082072,58
2082696,68
2083324,26
2083952,17
2084568,29
2085196,22
2085820,13
2086444,22
2087072,49
2087688,47
2088316,81
2088940,87
2089564,66
2090192,18
2090808,26
2091436,46
2092064,35
2092688,25
2093316,11
2093940,29
2094568,24
2095196,48
2095816,61
2096444,61
2097068,57
2097692,35
2098320,36
2098936,46
2099568,37
2100188,14
2100812,11
2101440,16
2102056,18
2102684,13
2103312,38
2103936,55
2104564,57
2105188,80
2105816,81
2106448,52
2107064,37
2107692,59
2108316,52
2108940,17
2109568,13
2110192,32
2110820,41
2111444,42
2112068,41
2112696,46
2113312,47
2113940,49
2114568,22
2115192,42
2115820,62
2116444,53
2117072,28
2117704,13
2118320,20
2118952,19
2119576,19
2120200,77
2120828,94
2121448,105
2122128,89
2122744,51
2123368,13
2123996,31
2124620,19
2125252,15
2125880,11
2126496,11
2127128,15
2127752,13
2128380,44
2129012,46
2129632,53
2130260,57
2130884,50
2131508,45
2132136,43
2132752,38
2133380,28
2134004,43
2134628,39
2135256,36
2135880,21
2136508,21
2137140,72
2137760,80
2138388,64
2139012,61
2139644,61
2140272,66
2140888,75
2141520,60
2142140,18
2142764,21
2143396,15
2144016,38
2144644,49
2145268,46
2145892,47
2146520,58
2147144,51
2147772,29
2148404,20
2149024,27
2149652,23
2150276,37
2150908,42
2151536,16
2152160,40
2152788,39
2153412,65
2154036,81
2154664,77
2155280,71
2155912,61
2156536,35
2157160,16
2157788,127
2158464,144
2159136,66
2159768,13
2160384,37
2161012,74
2161636,95
2162260,71
2162888,54
2163504,48
2164136,49
2164764,38
2165384,43
2166012,19
2166636,18
2167268,17
2167896,15
2168512,20
2169144,29
2169768,16
2170392,49
2171020,51
2171640,62
2172268,50
2172892,27
2173516,61
2174144,89
2174768,79
2175396,44
2176028,24
2176644,14
2177272,27
2177896,33
2178524,46
2179156,54
2179776,66
2180404,59
2181028,33
2181652,19
2182280,24
2182904,15
2183532,11
2184156,17
2184780,34
2185408,40
2186032,45
2186660,48
2187292,49
2187912,50
2188540,51
2189164,55
2189796,94
2190424,123
2191092,90
2191720,32
2192340,13
2192964,12
2193592,21
2194216,24
2194844,52
2195476,44
2196096,61
2196724,66
2197348,48
2197980,73
2198608,94
2199232,56
2199860,134
2200536,181
2201212,115
2201892,74
2202512,61
2203140,39
2203772,51
2204392,57
2205020,76
2205644,67
2206268,38
2206900,36
2207520,50
2208148,43
2208780,27
2209400,41
2210028,26
2210652,10
2211284,18
2211912,48
2212532,47
2213160,57
2213784,51
2214408,40
2215036,42
2215656,24
2216284,11
2216908,17
2217532,12
2218164,16
2218784,25
2219412,50
2220044,61
2220664,59
2221296,58
2221916,64
2222548,56
2223180,13
2223800,12
2224432,36
2225056,48
2225676,15
2226308,52
2226928,97
2227560,106
2228240,72
2228856,40
2229484,51
2230108,65
2230740,64
2231372,46
2231992,56
2232624,54
2233248,22
2233872,18
2234500,19
2235120,29
2235748,38
2236376,25
2237000,47
2237628,55
2238248,55
2238880,55
2239508,54
2240128,50
2240756,32
2241380,12
2242008,13
2242640,16
2243256,56
2243884,118
2244560,95
2245176,57
2245804,51
2246424,55
2247052,51
2247676,34
2248304,12
2248932,18
2249556,24
2250188,13
2250820,12
2251440,17
2252068,16
2252696,16
2253320,37
2253948,64
2254568,66
2255196,68
2255820,81
2256444,92
2257072,83
2257688,80
2258320,63
2258940,13
2259568,38
2260196,51
2260820,57
2261448,25
2262076,42
2262696,49
2263324,57
2263948,53
2264580,18
2265208,24
2265824,18
2266456,24
2267080,44
2267704,61
2268332,71
2268952,33
2269580,36
2270204,108
2270884,153
2271560,100
2272236,63
2272856,24
2273484,10
2274104,17
2274732,46
2275364,116
2276036,111
2276712,62
2277336,49
2277960,46
2278588,45
2279208,46
2279836,51
2280468,66
2281088,66
2281716,41
2282340,27
2282972,24
2283600,11
2284216,25
2284848,41
2285472,51
2286092,54
2286724,48
2287344,46
2287976,54
2288600,70
2289224,72
2289856,99
2290472,127
2291156,138
2291836,128
2292508,93
2293136,67
2293764,25
2294384,14
2295012,52
2295636,91
2296268,100
2296948,73
2297568,71
2298200,74
2298824,53
2299448,25
2300076,10
2300696,11
2301328,16
2301956,16
2302576,50
2303208,69
2303832,81
2304464,68
2305092,48
2305712,50
2306340,32
2306964,11
2307588,13
2308220,36
2308840,41
2309468,40
2310092,25
2310716,28
2311344,27
2311964,43
2312592,47
2313220,50
2313840,48
2314468,22
2315092,15
2315724,12
2316352,10
2316972,11
2317600,12
2318224,15
2318852,15
2319484,14
2320104,53
2320732,71
2321356,72
2321980,62
2322608,60
2323232,53
2323860,58
2324492,42
2325112,20
2325740,22
2326364,53
2326996,68
2327624,45
2328248,26
2328876,43
2329500,49
2330128,53
2330756,50
2331376,14
2332004,15
2332628,14
2333252,20
2333884,46
2334504,46
2335132,55
2335764,25
2336384,33
2337012,71
2337636,75
2338268,58
2338896,50
2339512,39
2340144,32
2340768,52
2341392,67
2342020,43
2342640,28
2343268,18
2343892,16
2344516,19
2345148,44
2345768,50
2346396,54
2347028,74
2347648,87
2348276,64
2348900,39
2349532,20
2350164,18
2350784,31
2351416,33
2352040,25
2352664,20
2353292,34
2353912,59
2354544,65
2355168,75
2355792,69
2356424,63
2357040,59
2357668,57
2358300,46
2358920,24
2359548,18
2360172,13
2360804,15
2361432,16
2362056,42
2362684,49
2363308,50
2363932,49
2364564,20
2365184,14
2365816,12
2366440,10
2367064,19
2367692,36
2368312,45
2368940,31
2369572,16
2370192,45
2370820,53
2371444,51
2372076,48
2372704,48
2373328,75
2373960,91
2374584,51
2375208,15
2375836,30
2376456,33
2377084,51
2377708,35
2378332,41
2378964,66
2379588,55
2380216,49
2380844,49
2381464,12
2382092,11
2382716,15
2383348,27
2383976,42
2384600,41
2385228,37
2385856,21
2386480,16
2387108,48
2387728,58
2388356,59
2388984,67
2389608,71
2390236,50
2390860,25
2391492,10
2392124,19
2392744,14
2393376,18
2394000,25
2394628,17
2395260,46
2395880,49
2396512,49
2397136,52
2397760,29
2398388,11
2399008,11
2399640,15
2400272,11
2400888,27
2401516,37
2402140,34
2402772,30
2403400,44
2404016,47
2404648,49
2405272,49
2405896,49
2406528,27
2407144,37
2407772,37
2408396,33
2409020,25
2409648,21
2410264,15
2410896,30
2411524,17
2412144,44
2412772,49
2413400,49
2414028,49
2414660,18
2415280,13
2415908,11
2416536,11
2417160,17
2417788,15
2418408,53
2419036,76
2419664,69
2420284,44
2420916,48
2421536,52
2422168,53
2422796,36
2423416,33
2424044,46
2424668,62
2425300,46
2425928,30
2426552,22
2427184,10
2427808,15
2428432,42
2429064,48
2429680,47
2430308,52
2430936,51
2431560,16
2432192,11
2432808,12
2433436,17
2434068,47
2434688,51
2435316,42
2435940,37
2436572,25
2437200,54
2437824,70
2438452,78
2439076,71
2439700,72
2440332,82
2440952,80
2441584,65
2442208,22
2442832,11
2443460,19
2444080,20
2444708,16
2445340,42
2445960,50
2446592,51
2447216,79
2447844,83
2448476,78
2449096,68
2449728,59
2450352,80
2450976,75
2451608,67
2452224,38
2452856,15
2453480,58
2454104,108
2454788,124
2455460,90
2456080,51
2456712,33
2457328,46
2457960,18
2458580,11
2459204,27
2459832,38
2460456,21
2461084,12
2461712,64
2462336,85
2462964,82
2463588,54
2464220,58
2464848,29
2465464,12
2466092,13
2466716,73
2467340,146
2468020,178
2468692,158
2469368,51
2469996,38
2470616,53
2471244,49
2471868,48
2472492,59
2473120,64
2473744,79
2474372,76
2474996,55
2475620,12
2476248,24
2476872,57
2477504,80
2478132,35
2478752,45
2479380,52
2480004,49
2480632,49
2481264,16
2481880,11
2482508,13
2483132,19
2483756,27
2484388,88
2485008,87
2485636,47
2486260,25
2486884,57
2487512,76
2488140,70
2488768,63
2489396,46
2490016,18
2490644,26
2491268,31
2491900,22
2492528,20
2493152,21
2493780,47
2494408,55
2495028,51
2495660,50
2496280,54
2496908,54
2497532,48
2498160,48
2498788,99
2499412,81
2500044,44
2500672,31
2501288,37
2501920,101
2502596,147
2503268,84
2503892,46
2504516,63
2505148,91
2505780,98
2506400,98
2507028,103
2507704,105
2508380,92
2509008,57
2509624,32
2510252,12
2510884,29
2511504,20
2512132,41
2512756,57
2513388,64
2514020,57
2514640,25
2515268,13
2515892,12
2516516,13
2517148,11
2517768,23
2518400,27
2519024,13
2519648,15
2520280,41
2520904,55
2521532,57
2522164,49
2522784,27
2523412,35
2524040,24
2524668,16
2525300,30
2525920,81
2526548,72
2527176,14
2527800,24
2528432,44
2529048,45
2529676,49
2530300,48
2530928,50
2531560,30
2532184,32
2532812,33
2533444,39
2534064,35
2534696,45
2535320,29
2535944,39
2536576,63
2537192,83
2537824,55
2538448,51
2539072,59
2539704,56
2540320,59
2540948,29
2541580,24
2542200,38
2542828,32
2543456,39
2544084,41
2544716,18
2545336,50
2545968,53
2546592,52
2547216,55
2547844,42
2548464,29
2549096,24
2549720,19
2550344,15
2550976,10
2551592,42
2552224,65
2552856,42
2553476,51
2554108,79
2554732,77
2555364,84
2555996,65
2556616,21
2557248,13
2557872,26
2558496,29
2559128,21
2559748,33
2560380,14
2561004,30
2561624,34
2562252,44
2562868,60
2563500,55
2564128,67
2564744,109
2565424,75
2566040,71
2566664,65
2567292,42
2567912,27
2568540,34
2569164,101
2569836,124
2570512,48
2571128,77
2571756,57
2572388,74
2573008,114
2573688,124
2574364,114
2575036,95
2575664,79
2576284,57
2576908,12
2577536,24
2578160,23
2578788,43
2579412,59
2580036,47
2580664,50
2581288,19
2581916,33
2582544,73
2583164,69
2583792,65
2584416,85
2585044,113
2585724,55
2586344,19
2586972,91
2587596,102
2588268,87
2588892,70
2589516,33
2590144,14
2590776,23
2591392,11
2592020,24
2592644,12
2593272,16
2593900,17
2594520,34
2595148,80
2595772,70
2596396,54
2597028,52
2597648,48
2598276,35
2598900,16
2599524,11
2600156,34
2600780,81
2601408,135
2602088,118
2602756,61
2603380,41
2604004,81
2604628,80
2605260,71
2605880,63
2606508,60
2607140,58
2607760,15
2608388,43
2609012,15
2609644,49
2610272,61
2610896,86
2611524,98
2612148,85
2612772,58
2613404,46
2614024,83
2614652,146
2615336,157
2616004,118
2616680,63
2617304,55
2617928,22
2618556,25
2619176,28
2619808,17
2620436,50
2621056,57
2621688,61
2622308,55
2622936,38
2623568,25
2624184,20
2624812,41
2625432,48
2626056,64
2626684,77
2627304,83
2627928,93
2628552,104
2629228,96
2629852,94
2630476,73
2631104,31
2631732,54
2632352,101
2633032,122
2633700,134
2634372,116
2635048,105
2635716,92
2636336,79
2636964,50
2637580,48
2638212,55
2638836,63
2639456,81
2640088,102
2640760,67
2641388,31
2642016,10
2642636,21
2643268,11
2643888,27
2644508,17
2645136,61
2645760,65
2646388,47
2647012,48
2647636,56
2648264,16
2648880,30
2649512,52
2650140,43
2650760,28
2651388,39
2652012,49
2652640,38
2653272,40
2653888,50
2654516,55
2655140,65
2655764,109
2656448,130
2657116,117
2657792,110
2658472,74
2659088,40
2659716,20
2660340,138
2661016,134
2661692,76
2662312,53
2662936,47
2663564,49
2664184,53
2664812,31
2665432,29
2666056,31
2666684,14
2667304,61
2667932,70
2668560,78
2669176,63
2669804,29
2670428,63
2671056,94
2671684,78
2672304,47
2672932,18
2673556,34
2674180,64
2674812,69
2675432,17
2676060,26
2676684,58
2677304,71
2677936,26
2678552,45
2679180,49
2679804,50
2680432,47
2681060,56
2681684,37
2682312,43
2682940,61
2683560,36
2684188,29
2684812,17
2685440,31
2686068,79
2686688,93
2687316,79
2687940,133
2688616,99
2689244,51
2689868,66
2690496,99
2691124,114
2691796,80
2692420,43
2693044,60
2693668,43
2694296,11
2694912,21
2695544,49
2696168,63
2696788,56
2697420,47
2698040,22
2698668,14
2699300,10
2699920,25
2700548,15
2701172,81
2701804,159
2702484,125
2703156,48
2703784,48
2704412,50
2705032,95
2705660,139
2706336,142
2707004,83
2707628,48
2708248,30
2708876,29
2709500,67
2710128,73
2710756,41
2711380,16
2712012,55
2712640,54
2713264,51
2713896,47
2714516,20
2715140,13
2715772,12
2716392,11
2717020,14
2717644,57
2718268,73
2718900,48
2719520,20
2720148,49
2720780,61
2721400,67
2722028,82
2722652,81
2723280,91
2723908,120
2724580,110
2725256,95
2725872,82
2726496,77
2727124,39
2727748,16
2728376,58
2729004,142
2729676,219
2730352,165
2731028,92
2731648,61
2732276,38
2732900,33
2733532,40
2734160,61
2734776,57
2735408,49
2736032,40
2736652,37
2737284,86
2737904,111
2738584,131
2739264,119
2739940,116
2740616,84
2741240,27
2741864,89
2742492,67
2743116,22
2743744,10
2744376,34
2744992,35
2745624,49
2746244,55
2746876,49
2747504,50
2748120,44
2748752,29
2749376,16
2750000,15
2750628,18
2751248,48
2751876,71
2752504,32
2753128,56
2753756,125
2754432,133
2755108,104
2755784,51
2756408,34
2757036,11
2757668,36
2758288,17
2758916,21
2759540,14
2760172,16
2760804,30
2761424,22
2762052,42
2762676,60
2763300,81
2763932,66
2764552,27
2765184,15
2765804,52
2766428,83
2767056,91
2767676,45
2768304,20
2768932,34
2769552,66
2770180,49
2770804,47
2771436,51
2772064,50
2772684,65
2773312,82
2773936,87
2774560,92
2775188,78
2775808,71
2776436,95
2777060,88
2777684,56
2778316,39
2778936,43
2779564,85
2780196,103
2780868,93
2781492,114
2782168,168
2782844,141
2783520,100
2784196,110
2784868,93
2785492,45
2786116,17
2786748,56
2787376,99
2787992,92
2788624,80
2789248,82
2789876,93
2790508,114
2791180,111
2791856,81
2792484,53
2793104,22
2793732,28
2794356,15
2794988,35
2795616,41
2796240,60
2796868,81
2797492,75
2798116,43
2798744,46
2799368,35
2799996,11
2800624,21
2801248,14
2801876,21
2802500,13
2803132,14
2803760,41
2804376,48
2805008,51
2805632,84
2806260,137
2806944,119
2807612,108
2808288,36
2808916,49
2809536,164
2810216,164
2810896,96
2811520,49
2812148,42
2812772,56
2813404,99
2814036,84
2814656,31
2815288,41
2815912,17
2816536,10
2817164,19
2817784,31
2818412,47
2819036,41
2819660,20
2820288,56
2820904,69
2821536,69
2822164,62
2822784,62
2823412,78
2824036,70
2824664,71
2825296,71
2825912,62
2826540,42
2827164,29
2827788,28
2828420,50
2829040,45
2829668,47
2830292,59
2830916,94
2831544,120
2832220,130
2832896,117
2833576,68
2834200,49
2834828,43
2835452,14
2836080,28
2836708,64
2837332,102
2838016,109
2838688,101
2839364,46
2839988,11
2840620,39
2841240,13
2841868,22
2842492,21
2843124,46
2843752,23
2844372,13
2845000,41
2845624,49
2846248,60
2846876,55
2847496,51
2848124,97
2848748,131
2849424,97
2850048,58
2850668,49
2851300,35
2851932,42
2852552,50
2853180,34
2853804,47
2854428,64
2855060,79
2855680,96
2856308,100
2856992,91
2857608,73
2858236,63
2858860,21
2859492,11
2860124,54
2860744,83
2861376,50
2862000,49
2862624,60
2863256,61
2863872,49
2864504,33
2865128,23
2865752,16
2866384,15
2867000,14
2867632,39
2868264,76
2868880,71
2869508,32
2870132,47
2870760,86
2871388,91
2872008,55
2872636,48
2873260,21
2873884,97
2874512,131
2875188,134
2875868,90
2876492,19
2877112,14
2877740,18
2878364,44
2878992,48
2879620,62
2880240,49
2880868,46
2881488,43
2882112,99
2882740,171
2883412,141
2884088,95
2884712,80
2885328,72
2885956,37
2886580,25
2887204,80
2887832,92
2888448,74
2889076,72
2889700,63
2890320,47
2890952,33
2891568,37
2892196,22
2892828,10
2893444,14
2894076,21
2894700,17
2895328,49
2895956,53
2896576,49
2897204,53
2897828,66
2898452,55
2899080,14
2899704,24
2900332,23
2900956,11
2901580,41
2902212,44
2902832,23
2903460,44
2904092,52
2904712,52
2905344,49
2905968,46
2906596,31
2907228,62
2907848,95
2908476,87
2909100,42
2909724,12
2910356,34
2910976,22
2911604,25
2912228,43
2912852,47
2913484,50
2914104,50
2914732,19
2915364,22
2915984,48
2916612,43
2917240,25
2917868,16
2918500,12
2919120,17
2919748,33
2920372,43
2920996,53
2921624,60
2922240,63
2922872,29
2923496,12
2924120,52
2924748,85
2925368,100
2926048,118
2926732,108
2927404,82
2928028,73
2928660,72
2929280,56
2929908,48
2930532,48
2931164,68
2931796,120
2932468,157
2933148,110
2933828,44
2934448,22
2935076,41
2935700,52
2936328,60
2936956,44
2937576,63
2938208,80
2938832,67
2939456,48
2940084,40
2940704,65
2941336,117
2942016,150
2942692,129
2943372,50
2943992,25
2944616,51
2945248,51
2945872,58
2946500,61
2947132,60
2947752,45
2948384,25
2949008,30
2949636,22
2950268,10
2950888,12
2951516,25
2952140,49
2952764,55
2953392,47
2954016,50
2954644,55
2955276,62
2955896,103
2956576,86
2957200,32
2957828,43
2958460,42
2959080,17
2959708,55
2960336,22
2960956,29
2961588,72
2962208,76
2962836,100
2963520,92
2964136,74
2964764,42
2965388,36
2966020,48
2966648,16
2967268,54
2967896,189
2968572,225
2969252,134
2969932,81
2970552,48
2971176,49
2971804,48
2972424,57
2973052,14
2973676,61
2974300,90
2974932,81
2975556,57
2976184,55
2976812,43
2977432,37
2978060,45
2978684,56
2979316,45
2979944,53
2980560,52
2981192,24
2981816,11
2982440,12
2983068,44
2983688,80
2984316,74
2984940,53
2985564,20
2986196,17
2986820,61
2987452,69
2988080,66
2988704,81
2989336,98
2989960,87
2990588,52
2991220,16
2991840,44
2992468,51
2993096,59
2993720,71
2994348,62
2994968,31
2995600,51
2996220,56
2996848,55
2997476,51
2998100,36
2998732,47
2999360,39
2999984,13
3000616,35
3001240,55
3001864,106
3002544,140
3003220,82
3003844,44
3004476,52
3005096,54
3005728,53
3006352,79
3006984,118
3007664,116
3008332,86
3008956,47
3009588,55
3010208,55
3010840,14
3011464,22
3012092,44
3012724,77
3013344,75
3013976,55
3014600,25
3015224,33
3015852,36
3016472,54
3017104,48
3017732,31
3018352,49
3018984,44
3019608,20
3020236,55
3020868,76
3021488,106
3022168,65
3022788,36
3023412,34
3024040,66
3024660,50
3025288,13
3025912,14
3026536,11
3027168,21
3027792,17
3028424,47
3029052,68
3029672,59
3030304,48
3030928,54
3031560,44
3032188,35
3032808,12
3033436,29
3034064,67
3034688,94
3035316,78
3035936,63
3036568,54
3037196,47
3037816,50
3038448,51
3039072,49
3039704,53
3040336,76
3040952,100
3041632,114
3042312,91
3042936,81
3043564,53
3044192,15
3044820,29
3045448,67
3046072,107
3046756,163
3047432,186
3048108,78
3048736,37
3049360,53
3049988,47
3050620,32
3051240,13
3051872,74
3052496,130
3053172,80
3053800,45
3054424,49
3055052,49
3055684,50
3056304,70
3056936,111
3057612,112
3058284,96
3058912,59
3059536,89
3060164,61
3060796,24
3061416,30
3062048,45
3062672,61
3063304,67
3063936,58
3064552,23
3065184,22
3065808,14
3066432,44
3067064,31
3067680,11
3068312,15
3068944,22
3069564,16
3070196,48
3070820,49
3071452,52
3072084,64
3072700,49
3073332,56
3073952,59
3074576,59
3075204,38
3075824,11
3076452,34
3077076,78
3077700,93
3078332,57
3078952,43
3079580,51
3080212,52
3080832,66
3081460,22
3082084,23
3082712,16
3083344,10
3083960,14
3084592,16
3085216,32
3085840,26
3086468,14
3087088,57
3087716,66
3088340,59
3088964,56
3089596,75
3090216,98
3090844,117
3091528,79
3092144,33
3092776,14
3093396,45
3094024,55
3094652,25
3095272,47
3095900,53
3096528,51
3097152,59
3097784,57
3098400,45
3099028,49
3099660,80
3100280,125
3100960,102
3101636,80
3102256,59
3102888,41
3103504,48
3104136,64
3104760,77
3105384,91
3106012,115
3106688,125
3107364,122
3108044,96
3108664,59
3109296,41
3109924,38
3110544,15
3111176,26
3111800,43
3112432,48
3113060,69
3113680,74
3114308,81
3114932,86
3115556,91
3116188,28
3116808,91
3117436,183
3118120,208
3118788,112
3119468,70
3120088,58
3120712,46
3121340,57
3121960,65
3122588,55
3123220,18
3123840,23
3124468,19
3125092,12
3125720,10
3126352,24
3126972,39
3127600,39
3128224,63
3128852,59
3129480,50
3130100,50
3130728,51
3131352,19
3131976,30
3132608,58
3133224,103
3133908,94
3134536,67
3135152,22
3135784,55
3136408,44
3137032,41
3137660,48
3138280,51
3138908,49
3139532,39
3140156,55
3140788,62
3141408,59
3142040,59
3142668,76
3143288,61
3143920,20
3144544,27
3145172,61
3145804,48
3146424,51
3147052,67
3147680,114
3148356,111
3149036,36
3149656,21
3150284,13
3150916,24
3151536,45
3152168,26
3152792,25
3153416,88
3154048,117
3154716,82
3155344,77
3155972,99
3156592,81
3157224,41
3157848,34
3158476,54
3159108,72
3159728,58
3160360,35
3160984,31
3161608,26
3162236,43
3162856,75
3163488,102
3164168,89
3164792,93
3165424,103
3166100,75
3166724,19
3167356,73
3167976,60
3168612,23
3169236,31
3169860,49
3170492,102
3171164,93
3171792,59
3172424,78
3173044,88
3173676,14
3174300,28
3174928,49
3175556,60
3176176,83
3176804,79
3177432,53
3178056,61
3178684,95
3179304,99
3179936,75
3180564,70
3181184,38
3181816,14
3182440,14
3183068,57
3183700,100
3184372,113
3185052,138
3185732,133
3186404,96
3187032,43
3187656,53
3188280,56
3188912,72
3189528,86
3190160,59
3190792,83
3191412,87
3192040,16
3192668,79
3193300,103
3193980,110
3194652,20
3195280,56
3195912,55
3196528,59
3197160,55
3197784,32
3198416,37
3199048,23
3199664,13
3200296,14
3200920,15
3201540,18
3202172,44
3202792,69
3203420,115
3204100,160
3204772,141
3205448,83
3206072,53
3206692,47
3207324,42
3207944,46
3208572,73
3209196,84
3209820,153
3210500,245
3211172,226
3211844,121
3212520,50
3213144,51
3213772,47
3214404,48
3215024,82
3215652,108
3216328,129
3217004,102
3217680,46
3218296,114
3218980,77
3219604,56
3220224,47
3220852,57
3221476,75
3222100,54
3222728,34
3223352,35
3223980,67
3224612,55
3225232,24
3225864,21
3226484,12
3227116,39
3227744,48
3228364,42
3228992,46
3229616,47
3230240,57
3230868,82
3231488,120
3232168,104
3232848,48
3233464,13
3234092,41
3234716,53
3235340,60
3235972,72
3236592,65
3237220,43
3237844,57
3238468,59
3239096,58
3239720,54
3240348,94
3240980,109
3241652,102
3242328,30
3242944,54
3243572,76
3244200,43
3244816,41
3245448,44
3246072,121
3246748,154
3247424,63
3248048,29
3248672,23
3249300,79
3249920,95
3250548,98
3251176,84
3251800,40
3252428,16
3253048,16
3253676,42
3254308,168
3254980,218
3255660,96
3256280,21
3256904,63
3257532,80
3258152,19
3258780,10
3259412,24
3260032,12
3260664,13
3261288,65
3261916,63
3262548,53
3263168,52
3263800,51
3264424,80
3265048,55
3265676,13
3266296,16
3266928,40
3267548,88
3268176,121
3268856,83
3269472,30
3270104,51
3270732,137
3271404,199
3272084,204
3272760,155
3273436,78
3274064,61
3274688,17
3275312,49
3275944,81
3276564,94
3277192,113
3277872,97
3278496,77
3279124,48
3279744,50
3280372,54
3281000,48
3281616,15
3282244,79
3282864,130
3283540,120
3284216,65
3284832,31
3285460,13
3286088,82
3286704,147
3287384,140
3288052,120
3288720,66
3289348,44
3289972,14
3290600,76
3291228,145
3291900,158
3292576,125
3293256,91
3293872,47
3294500,27
3295124,45
3295748,152
3296432,287
3297100,170
3297776,37
3298400,81
3299016,105
3299696,123
3300368,81
3300984,63
3301612,34
3302236,26
3302864,61
3303492,54
3304112,49
3304740,50
3305364,49
3305988,54
3306620,37
3307240,13
3307868,26
3308492,10
3309116,10
3309744,16
3310364,20
3310992,23
3311620,51
3312240,64
3312868,55
3313492,51
3314120,49
3314752,14
3315368,27
3316000,60
3316620,17
3317252,14
3317880,12
3318504,49
3319132,70
3319756,66
3320380,47
3321008,45
3321624,51
3322252,73
3322876,63
3323504,41
3324132,17
3324756,22
3325388,13
3326016,21
3326640,32
3327268,15
3327892,24
3328520,60
3329148,92
3329768,100
3330444,93
3331064,42
3331684,13
3332312,22
3332936,22
3333568,39
3334196,56
3334816,71
3335444,72
3336068,71
3336696,59
3337324,46
3337944,50
3338572,53
3339196,67
3339820,83
3340448,98
3341068,104
3341748,116
3342424,92
3343048,92
3343676,73
3344300,25
3344924,62
3345552,93
3346168,61
3346800,51
3347424,97
3348044,182
3348728,92
3349344,14
3349972,13
3350604,24
3351224,23
3351852,27
3352476,25
3353100,32
3353732,40
3354352,88
3354980,94
3355604,49
3356228,64
3356856,32
3357480,105
3358160,100
3358836,24
3359456,96
3360084,136
3360756,80
3361376,20
3362004,73
3362624,58
3363252,57
3363884,47
3364500,26
3365132,15
3365752,11
3366384,17
3367012,10
3367632,11
3368260,28
3368884,30
3369508,21
3370136,50
3370752,52
3371384,58
3372008,48
3372628,47
3373260,12
3373880,29
3374508,57
3375140,76
3375760,93
3376388,123
3377064,92
3377680,71
3378312,75
3378928,56
3379556,49
3380180,86
3380804,158
3381484,222
3382156,147
3382832,99
3383460,64
3384080,53
3384708,30
3385332,24
3385956,53
3386584,54
3387208,83
3387836,69
3388464,56
3389088,60
3389716,76
3390340,93
3390972,104
3391652,63
3392272,12
3392900,49
3393524,22
3394148,17
3394776,35
3395400,109
3396080,141
3396756,105
3397428,70
3398056,36
3398684,26
3399304,88
3399932,79
3400556,56
3401188,65
3401816,38
3402432,18
3403060,31
3403684,41
3404308,49
3404936,51
3405560,51
3406188,63
3406812,79
3407436,22
3408064,105
3408732,128
3409408,134
3410084,112
3410756,42
3411380,14
3412012,42
3412632,49
3413260,46
3413884,53
3414516,42
3415144,44
3415764,50
3416392,18
3417016,57
3417640,84
3418268,102
3418940,81
3419564,79
3420196,76
3420816,67
3421444,54
3422068,48
3422696,60
3423328,95
3423948,141
3424628,153
3425304,105
3425980,41
3426604,45
3427228,27
3427852,106
3428536,171
3429204,155
3429880,78
3430512,47
3431128,39
3431756,16
3432380,22
3433004,30
3433636,16
3434256,11
3434884,40
3435508,36
3436136,25
3436764,47
3437388,53
3438020,55
3438652,62
3439272,52
3439904,36
3440528,38
3441156,50
3441788,56
3442408,64
3443036,62
3443660,35
3444284,15
3444912,39
3445536,71
3446164,100
3446848,66
3447464,49
3448092,105
3448768,61
3449384,17
3450012,17
3450632,56
3451260,124
3451944,104
3452612,138
3453288,161
3453968,67
3454592,49
3455224,59
3455848,54
3456480,13
3457108,27
3457728,50
3458356,67
3458980,74
3459604,87
3460232,67
3460856,13
3461484,39
3462108,79
3462732,67
3463360,48
3463984,69
3464612,97
3465244,84
3465864,75
3466492,55
3467116,29
3467748,19
3468376,74
3469000,150
3469680,156
3470360,49
3470984,64
3471616,114
3472292,114
3472964,76
3473588,18
3474208,19
3474836,54
3475468,42
3476088,15
3476716,23
3477344,36
3477972,28
3478604,42
3479224,45
3479852,46
3480480,49
3481104,35
3481732,73
3482352,96
3482980,59
3483604,28
3484224,15
3484852,14
3485472,17
3486100,43
3486728,96
3487352,153
3488032,155
3488708,117
3489380,74
3490004,16
3490628,26
3491256,14
3491888,37
3492504,61
3493132,65
3493756,104
3494440,125
3495112,63
3495728,51
3496356,55
3496988,70
3497608,77
3498236,60
3498860,84
3499492,77
3500124,28
3500744,66
3501376,134
3502052,184
3502724,241
3503400,83
3504024,62
3504648,101
3505328,92
3505944,51
3506572,21
3507196,10
3507824,52
3508456,78
3509080,68
3509712,41
3510340,15
3510960,10
3511592,57
3512216,72
3512840,58
3513468,54
3514088,52
3514716,56
3515344,55
3515968,26
3516600,29
3517216,19
3517848,11
3518480,81
3519096,114
3519780,68
3520400,43
3521028,65
3521660,82
3522280,59
3522908,49
3523532,75
3524156,94
3524784,99
3525408,74
3526036,45
3526668,11
3527288,57
3527916,64
3528540,44
3529172,54
3529800,47
3530416,53
3531048,43
3531672,14
3532296,41
3532924,40
3533544,25
3534172,42
3534796,72
3535420,85
3536048,41
3536672,35
3537300,46
3537928,50
3538552,49
3539180,59
3539808,79
3540436,74
3541068,63
3541688,45
3542320,31
3542944,33
3543568,12
3544196,34
3544816,66
3545444,87
3546068,56
3546692,47
3547324,46
3547944,22
3548576,12
3549204,19
3549824,18
3550452,15
3551080,22
3551708,33
3552340,28
3552960,17
3553588,63
3554216,86
3554840,128
3555520,141
3556188,140
3556864,147
3557548,120
3558220,71
3558848,15
3559476,62
3560096,128
3560776,200
3561452,202
3562124,152
3562804,54
3563424,50
3564048,53
3564676,70
3565296,74
3565924,13
3566548,50
3567176,86
3567804,94
3568424,130
3569104,111
3569788,41
3570408,54
3571036,62
3571664,53
3572288,50
3572920,38
3573536,64
3574168,115
3574848,127
3575524,88
3576152,67
3576776,37
3577400,24
3578032,40
3578648,62
3579280,51
3579912,52
3580528,52
3581160,32
3581784,50
3582416,73
3583044,76
3583664,63
3584300,68
3584920,68
3585544,40
3586172,16
3586792,43
3587420,52
3588044,72
3588668,100
3589348,99
3589968,95
3590596,91
3591228,76
3591848,43
3592476,16
3593100,10
3593732,13
3594364,36
3594984,75
3595612,69
3596236,57
3596860,51
3597492,52
3598112,35
3598740,16
3599372,10
3599992,21
3600624,31
3601248,15
3601876,29
3602508,60
3603128,80
3603760,122
3604436,123
3605108,111
3605784,115
3606460,128
3607132,78
3607756,13
3608376,27
3609004,55
3609636,96
3610256,101
3610936,109
3611604,206
3612276,275
3612952,198
3613628,78
3614248,47
3614876,32
3615496,51
3616124,72
3616748,104
3617424,103
3618096,71
3618720,28
3619340,23
3619972,46
3620592,49
3621220,47
3621844,51
3622468,48
3623096,14
3623720,17
3624348,44
3624980,68
3625600,40
3626228,12
3626852,16
3627480,11
3628112,22
3628732,45
3629360,46
3629984,51
3630608,59
3631236,43
3631856,31
3632488,16
3633112,13
3633736,23
3634364,27
3634984,21
3635616,13
3636244,24
3636864,47
3637492,57
3638116,62
3638748,61
3639376,55
3640000,42
3640628,55
3641252,65
3641876,56
3642508,42
3643128,29
3643756,11
3644384,21
3645008,49
3645636,45
3646256,47
3646884,47
3647516,48
3648136,15
3648764,40
3649388,55
3650016,52
3650644,66
3651264,66
3651892,29
3652516,15
3653140,52
3653772,105
3654444,133
3655120,102
3655800,60
3656424,40
3657052,41
3657676,28
3658300,11
3658932,56
3659552,65
3660184,85
3660812,89
3661432,39
3662060,44
3662688,55
3663316,47
3663948,58
3664568,150
3665248,144
3665932,119
3666604,110
3667280,55
3667904,15
3668528,30
3669156,48
3669776,53
3670408,80
3671032,74
3671656,60
3672288,59
3672912,66
3673544,60
3674176,51
3674792,53
3675424,24
3676048,11
3676680,22
3677308,16
3677928,16
3678560,74
3679184,77
3679808,53
3680440,58
3681060,148
3681740,96
3682364,26
3682984,13
3683616,13
3684240,24
3684868,53
3685500,46
3686120,25
3686752,49
3687372,67
3687996,62
3688624,56
3689248,66
3689876,72
3690508,52
3691128,36
3691756,39
3692380,21
3693012,13
3693640,26
3694256,11
3694884,47
3695508,55
3696136,49
3696764,51
3697384,51
3698012,30
3698636,36
3699260,24
3699888,16
3700512,12
3701140,11
3701772,16
3702392,17
3703020,33
3703648,113
3704328,112
3705008,62
3705632,56
3706260,81
3706892,122
3707564,55
3708188,23
3708812,13
3709444,18
3710072,38
3710692,49
3711324,88
3711948,99
3712576,54
3713204,52
3713824,54
3714452,29
3715084,12
3715704,11
3716332,13
3716956,11
3717588,18
3718220,46
3718840,139
3719520,170
3720200,69
3720824,46
3721452,53
3722076,52
3722708,46
3723340,54
3723960,69
3724592,73
3725216,41
3725840,25
3726468,56
3727088,57
3727720,35
3728344,38
3728964,69
3729596,68
3730216,60
3730844,57
3731476,42
3732096,62
3732724,81
3733348,66
3733980,49
3734612,30
3735232,13
3735864,46
3736488,56
3737112,51
3737744,117
3738412,145
3739088,101
3739768,18
3740392,39
3741024,32
3741648,11
3742272,11
3742900,31
3743520,37
3744152,35
3744780,56
3745400,70
3746032,67
3746656,75
3747284,87
3747916,49
3748536,13
3749164,18
3749788,18
3750412,53
3751044,104
3751716,94
3752344,109
3753024,28
3753648,91
3754276,134
3754952,126
3755628,66
3756256,31
3756880,117
3757560,100
3758244,51
3758864,88
3759496,43
3760120,31
3760744,80
3761372,46
3762000,47
3762628,50
3763260,48
3763880,51
3764508,21
3765132,14
3765764,24
3766396,12
3767016,37
3767648,37
3768272,15
3768896,15
3769524,34
3770144,47
3770772,51
3771404,51
3772024,59
3772656,79
3773280,71
3773908,75
3774540,84
3775160,72
3775792,52
3776416,33
3777040,111
3777720,73
3778344,38
3778976,47
3779604,58
3780224,56
3780852,50
3781476,21
3782108,29
3782740,30
3783360,19
3783988,45
3784616,65
3785240,71
3785872,51
3786488,17
3787120,59
3787744,59
3788368,66
3789000,78
3789616,92
3790244,89
3790876,84
3791496,70
3792128,31
3792748,13
3793380,37
3794012,50
3794632,33
3795264,44
3795884,49
3796512,50
3797140,51
3797760,32
3798392,12
3799016,31
3799640,33
3800272,12
3800892,29
3801520,28
3802152,20
3802772,42
3803400,46
3804028,47
3804656,53
3805288,54
3805908,50
3806540,72
3807164,18
3807788,57
3808420,72
3809040,61
3809672,70
3810296,45
3810920,32
3811548,33
3812172,42
3812804,46
3813432,48
3814056,49
3814688,13
3815312,13
3815944,17
3816572,20
3817192,19
3817824,93
3818448,265
3819124,282
3819804,136
3820476,42
3821096,55
3821728,52
3822344,48
3822976,43
3823600,67
3824224,77
3824856,101
3825532,84
3826160,48
3826788,21
3827408,14
3828040,18
3828664,43
3829288,44
3829920,49
3830536,49
3831168,30
3831792,28
3832420,24
3833052,12
3833676,12
3834308,47
3834940,132
3835612,130
3836292,60
3836912,47
3837540,64
3838172,80
3838796,85
3839428,96
3840060,84
3840676,75
3841308,70
3841932,33
3842560,12
3843188,44
3843808,92
3844436,60
3845060,42
3845684,48
3846316,54
3846936,54
3847564,53
3848192,55
3848816,49
3849444,12
3850068,18
3850700,21
3851332,30
3851952,65
3852580,90
3853208,70
3853828,42
3854460,55
3855080,51
3855708,52
3856336,54
3856956,52
3857588,56
3858208,34
3858836,13
3859468,18
3860088,16
3860716,55
3861340,30
3861972,44
3862604,48
3863224,47
3863852,48
3864476,23
3865100,24
3865732,35
3866352,15
3866980,42
3867604,80
3868228,65
3868860,34
3869480,16
3870108,58
3870740,85
3871360,123
3872040,118
3872716,66
3873336,22
3873964,33
3874584,25
3875212,39
3875836,82
3876464,88
3877096,118
3877772,106
3878452,56
3879076,49
3879696,52
3880324,48
3880948,48
3881576,23
3882204,17
3882828,22
3883460,16
3884092,14
3884712,37
3885344,54
3885968,33
3886600,41
3887228,97
3887848,123
3888532,114
3889212,57
3889832,55
3890464,25
3891088,93
3891720,71
3892348,38
3892968,37
3893596,12
3894220,59
3894844,124
3895528,130
3896196,66
3896824,53
3897452,76
3898072,67
3898700,29
3899328,13
3899952,37
3900584,39
3901200,52
3901832,127
3902516,176
3903188,86
3903816,50
3904440,85
3905064,88
3905692,70
3906312,49
3906944,36
3907568,52
3908192,50
3908820,31
3909444,25
3910076,17
3910708,14
3911328,17
3911960,55
3912584,62
3913216,52
3913844,48
3914464,25
3915092,11
3915720,56
3916344,47
3916976,18
3917592,35
3918224,29
3918856,44
3919472,21
3920104,46
3920728,67
3921356,71
3921988,87
3922608,71
3923236,41
3923860,14
3924488,90
3925116,87
3925736,32
3926368,12
3926992,27
3927616,50
3928248,40
3928864,41
3929496,47
3930128,49
3930744,47
3931376,19
3932000,24
3932632,25
3933260,21
3933880,39
3934508,53
3935132,38
3935760,16
3936388,15
3937008,47
3937636,79
3938260,129
3938936,150
3939612,136
3940284,106
3940956,88
3941584,70
3942200,14
3942832,112
3943512,128
3944180,76
3944804,25
3945428,43
3946052,51
3946684,50
3947304,49
3947932,27
3948564,24
3949184,13
3949812,18
3950440,15
3951068,58
3951700,118
3952372,98
3953000,31
3953624,75
3954248,95
3954876,104
3955548,128
3956224,121
3956904,92
3957528,70
3958160,35
3958784,26
3959408,34
3960040,72
3960664,152
3961344,85
3961968,40
3962584,44
3963216,51
3963840,51
3964464,28
3965096,14
3965712,15
3966344,14
3966968,36
3967592,47
3968224,60
3968848,30
3969476,24
3970104,48
3970728,49
3971356,50
3971980,59
3972612,55
3973244,50
3973864,42
3974492,25
3975116,13
3975740,20
3976372,36
3976992,20
3977620,12
3978252,25
3978872,52
3979504,76
3980128,98
3980760,72
3981388,37
3982008,30
3982640,12
3983264,12
3983888,13
3984516,44
3985136,154
3985820,243
3986500,133
3987172,48
3987800,49
3988424,49
3989048,50
3989680,43
3990296,72
3990928,67
3991560,62
3992180,38
3992808,42
3993436,27
3994068,13
3994696,24
3995316,50
3995944,49
3996572,49
3997196,57
3997824,42
3998448,40
3999080,11
3999704,12
4000328,27
4000956,76
4001576,89
4002204,42
4002836,18
4003456,54
4004084,76
4004708,71
4005336,67
4005968,64
4006584,63
4007212,66
4007836,48
4008460,20
4009092,10
4009712,11
4010340,17
4010964,12
4011588,48
4012220,74
4012840,71
4013468,80
4014100,89
4014720,73
4015348,58
4015972,40
4016604,99
4017232,90
4017856,158
4018536,238
4019220,249
4019892,155
4020568,50
4021192,53
4021816,56
4022444,67
4023064,88
4023692,110
4024376,106
4025044,92
4025668,75
4026292,47
4026916,13
4027548,10
4028168,32
4028796,46
4029420,47
4030048,49
4030676,61
4031304,45
4031932,22
4032564,39
4033184,43
4033812,28
4034436,21
4035068,18
4035700,45
4036320,103
4037000,156
4037684,160
4038356,94
4038984,49
4039608,54
4040232,79
4040860,106
4041532,114
4042212,85
4042840,61
4043456,48
4044088,37
4044712,36
4045336,49
4045964,48
4046584,80
4047212,95
4047836,80
4048464,53
4049092,54
4049712,60
4050344,53
4050972,32
4051592,19
4052220,16
4052848,22
4053476,55
4054108,62
4054728,64
4055360,76
4055984,67
4056608,65
4057236,76
4057856,93
4058484,64
4059108,37
4059732,55
4060364,56
4060984,68
4061612,52
4062244,54
4062864,77
4063496,74
4064120,48
4064748,58
4065380,58
4066000,69
4066628,123
4067304,151
4067980,202
4068660,284
4069332,188
4070004,60
4070632,47
4071256,69
4071884,89
4072516,96
4073136,111
4073820,105
4074492,97
4075120,77
4075752,47
4076376,25
4077008,16
4077636,16
4078256,23
4078888,41
4079512,56
4080136,73
4080768,64
4081384,66
4082016,30
4082640,25
4083264,57
4083892,42
4084512,13
4085144,21
4085772,32
4086392,47
4087024,63
4087648,51
4088280,51
4088908,49
4089528,38
4090160,23
4090784,17
4091408,58
4092040,48
4092660,24
4093292,39
4093916,35
4094544,42
4095176,62
4095796,57
4096428,51
4097052,50
4097668,39
4098296,18
4098920,29
4099548,43
4100176,54
4100792,47
4101420,29
4102044,18
4102664,26
4103296,31
4103912,56
4104540,51
4105164,62
4105784,61
4106416,33
4107032,20
4107660,56
4108284,84
4108904,79
4109532,25
4110156,23
4110784,37
4111416,26
4112032,42
4112660,54
4113284,62
4113912,50
4114540,30
4115160,20
4115788,11
4116412,11
4117036,21
4117668,43
4118288,26
4118916,39
4119540,58
4120164,89
4120792,114
4121468,64
4122092,72
4122724,168
4123396,98
4124020,24
4124644,87
4125268,63
4125896,26
4126512,37
4127144,40
4127772,30
4128392,41
4129020,49
4129644,51
4130272,73
4130900,60
4131520,12
4132148,25
4132772,52
4133396,62
4134024,105
4134700,150
4135376,111
4136056,43
4136680,64
4137308,141
4137988,186
4138660,148
4139336,104
4140012,86
4140632,79
4141260,37
4141880,11
4142508,13
4143136,11
4143760,26
4144388,31
4145012,40
4145644,43
4146272,48
4146888,48
4147520,61
4148144,40
4148764,18
4149396,40
4150016,84
4150644,69
4151268,45
4151892,33
4152524,15
4153144,15
4153772,61
4154404,86
4155024,70
4155652,54
4156276,37
4156908,37
4157536,14
4158160,54
4158788,34
4159412,21
4160036,43
4160664,12
4161280,17
4161908,47
4162532,48
4163156,52
4163784,53
4164400,30
4165032,19
4165660,50
4166280,51
4166908,64
4167532,95
4168164,81
4168792,26
4169408,17
4170036,56
4170660,78
4171284,88
4171912,91
4172536,69
4173164,40
4173788,55
4174412,77
4175040,112
4175716,71
4176340,21
4176972,26
4177592,21
4178220,21
4178844,44
4179468,51
4180096,62
4180712,74
4181344,57
4181964,33
4182588,15
4183220,10
4183840,14
4184468,59
4185096,69
4185720,31
4186348,19
4186972,44
4187600,49
4188232,48
4188848,51
4189476,40
4190100,34
4190724,16
4191356,63
4191976,18
4192608,29
4193232,35
4193856,16
4194484,26
4195104,51
4195732,56
4196364,46
4196984,58
4197612,78
4198236,59
4198868,20
4199496,65
4200116,138
4200796,90
4201416,53
4202040,28
4202668,14
4203288,34
4203916,53
4204540,59
4205168,50
4205796,68
4206420,41
4207048,27
4207676,89
4208296,104
4208976,39
4209600,11
4210220,41
4210852,64
4211472,60
4212100,50
4212724,59
4213348,52
4213980,47
4214600,17
4215232,29
4215860,21
4216480,27
4217108,76
4217732,77
4218364,50
4218992,33
4219616,27
4220244,52
4220868,73
4221492,81
4222120,75
4222744,57
4223372,60
4223996,56
4224624,31
4225256,13
4225876,15
4226508,11
4227136,54
4227756,39
4228384,47
4229008,53
4229636,46
4230268,50
4230888,49
4231516,37
4232140,20
4232764,12
4233396,32
4234016,68
4234644,53
4235276,28
4235896,13
4236524,29
4237152,84
4237780,117
4238464,125
4239132,116
4239812,67
4240440,13
4241056,23
4241684,21
4242308,10
4242936,28
4243568,58
4244184,101
4244864,110
4245544,99
4246168,113
4246848,83
4247472,48
4248096,51
4248724,95
4249344,34
4249976,24
4250596,28
4251220,13
4251852,14
4252472,49
4253100,85
4253732,103
4254404,106
4255080,75
4255704,59
4256328,51
4256956,35
4257576,34
4258208,41
4258836,12
4259456,12
4260084,13
4260708,11
4261336,15
4261968,45
4262584,48
4263212,53
4263836,53
4264460,55
4265088,99
4265704,119
4266388,112
4267064,103
4267740,59
4268364,21
4268988,23
4269612,37
4270244,104
4270916,138
4271592,134
4272276,113
4272948,48
4273572,21
4274204,30
4274824,17
4275452,29
4276076,21
4276708,11
4277336,18
4277956,14
4278584,42
4279208,45
4279832,52
4280460,61
4281080,73
4281708,28
4282332,40
4282956,28
4283584,10
4284208,11
4284836,14
4285468,12
4286088,14
4286716,38
4287340,39
4287972,49
4288604,59
4289224,99
4289852,77
4290476,41
4291100,49
4291732,40
4292352,28
4292980,17
4293604,23
4294228,43
4294860,37
4295480,56
4296112,66
4296740,51
4297360,56
4297992,45
4298616,49
4299244,63
4299876,32
4300496,12
4301128,15
4301748,18
4302372,18
4303004,59
4303624,48
4304252,52
4304876,75
4305500,89
4306132,106
4306808,109
4307480,60
4308108,26
4308728,124
4309408,129
4310092,65
4310712,18
4311344,25
4311968,104
4312644,111
4313320,53
4313944,51
4314572,19
4315204,28
4315824,28
4316456,11
4317080,11
4317704,24
4318332,53
4318952,69
4319584,57
4320208,54
4320832,82
4321460,64
4322080,69
4322708,68
4323340,59
4323960,61
4324588,67
4325212,43
4325844,19
4326472,26
4327088,19
4327720,30
4328344,60
4328964,48
4329596,49
4330216,72
4330848,84
4331472,47
4332096,33
4332724,74
4333344,41
4333972,28
4334604,59
4335224,51
4335856,34
4336480,20
4337108,84
4337740,80
4338360,52
4338992,50
4339616,35
4340240,42
4340868,37
4341488,39
4342120,25
4342744,27
4343364,13
4343996,30
4344616,23
4345244,58
4345876,46
4346496,51
4347124,51
4347752,28
4348380,24
4349012,22
4349632,15
4350260,17
4350888,11
4351512,17
4352144,14
4352760,16
4353388,48
4354012,56
4354636,49
4355264,48
4355880,50
4356508,74
4357140,24
4357760,131
4358440,193
4359108,122
4359780,42
4360404,23
4361028,21
4361660,42
4362288,45
4362904,48
4363536,48
4364160,53
4364788,59
4365420,44
4366040,17
4366668,15
4367292,26
4367916,33
4368548,34
4369168,22
4369796,37
4370420,91
4371044,91
4371676,57
4372300,71
4372932,46
4373560,25
4374180,54
4374808,46
4375432,10
4376064,13
4376692,22
4377312,17
4377944,73
4378568,104
4379244,56
4379868,50
4380496,49
4381124,23
4381756,17
4382376,13
4383008,13
4383632,29
4384264,47
4384892,48
4385512,32
4386140,16
4386764,45
4387388,51
4388020,55
4388640,64
4389268,75
4389900,87
4390520,91
4391148,42
4391772,22
4392404,21
4393036,10
4393656,26
4394284,25
4394908,38
4395536,47
4396164,53
4396784,62
4397416,56
4398040,85
4398664,106
4399348,104
4400020,94
4400644,108
4401324,63
4401944,19
4402572,17
4403200,27
4403824,79
4404452,96
4405076,90
4405708,72
4406336,55
4406956,69
4407584,72
4408208,35
4408836,39
4409468,72
4410088,50
4410716,34
4411344,28
4411968,41
4412596,46
4413216,46
4413848,49
4414476,27
4415096,25
4415728,13
4416352,17
4416980,19
4417612,16
4418232,26
4418864,15
4419488,21
4420112,51
4420740,51
4421360,53
4421988,67
4422616,77
4423240,69
4423868,55
4424488,30
4425116,16
4425744,14
4426368,35
4426996,91
4427620,67
4428252,33
4428880,54
4429504,49
4430132,47
4430756,49
4431380,29
4432012,20
4432632,17
4433260,12
4433884,15
4434512,32
4435140,58
4435760,39
4436388,15
4437020,52
4437640,51
4438272,63
4438896,63
4439524,22
4440156,39
4440776,111
4441460,159
4442140,123
4442812,103
4443492,26
4444112,41
4444736,33
4445368,50
4445984,83
4446616,116
4447296,99
4447920,73
4448552,37
4449176,21
4449800,47
4450428,35
4451048,12
4451680,14
4452304,31
4452928,39
4453560,103
4454228,157
4454908,143
4455584,121
4456260,94
4456884,18
4457516,81
4458136,173
4458820,242
4459492,193
4460164,94
4460792,19
4461416,29
4462048,51
4462680,53
4463296,53
4463928,81
4464552,70
4465176,22
4465808,29
4466424,76
4467056,70
4467680,17
4468304,31
4468936,73
4469552,83
4470184,56
4470816,42
4471432,47
4472064,55
4472688,48
4473316,42
4473948,27
4474568,25
4475200,49
4475824,38
4476448,14
4477080,22
4477700,29
4478328,67
4478956,72
4479580,63
4480212,51
4480836,46
4481464,14
4482096,20
4482712,26
4483340,42
4483964,69
4484596,64
4485224,94
4485848,163
4486528,101
4487204,49
4487824,70
4488452,94
4489076,94
4489708,120
4490388,116
4491060,56
4491688,12
4492316,10
4492936,10
4493564,27
4494188,23
4494820,23
4495452,46
4496072,45
4496700,47
4497324,53
4497948,45
4498580,34
4499200,22
4499828,14
4500456,29
4501080,43
4501708,55
4502328,36
4502960,15
4503588,62
4504208,74
4504840,74
4505464,75
4506096,84
4506724,72
4507344,62
4507972,59
4508596,41
4509220,15
4509848,12
4510472,24
4511100,24
4511724,39
4512352,39
4512980,51
4513604,57
4514232,70
4514864,59
4515480,50
4516108,28
4516732,14
4517364,13
4517992,32
4518616,53
4519244,42
4519868,24
4520492,77
4521124,102
4521796,76
4522420,50
4523052,36
4523672,68
4524300,100
4524980,60
4525600,13
4526228,13
4526848,23
4527476,13
4528100,19
4528724,55
4529356,51
4529976,47
4530604,47
4531236,24
4531856,31
4532484,17
4533108,21
4533740,25
4534368,36
4534992,67
4535624,63
4536248,51
4536872,43
4537500,61
4538120,71
4538752,69
4539376,84
4540000,92
4540632,95
4541256,104
4541940,68
4542568,18
4543184,33
4543816,66
4544444,64
4545068,58
4545696,78
4546320,71
4546952,51
4547576,49
4548200,13
4548828,11
4549452,25
4550084,21
4550712,30
4551336,37
4551968,68
4552592,96
4553224,60
4553852,45
4554472,62
4555104,97
4555728,88
4556352,67
4556984,82
4557600,91
4558228,83
4558860,48
4559480,35
4560112,21
4560732,84
4561364,93
4561996,67
4562616,52
4563244,48
4563868,52
4564492,39
4565124,48
4565744,47
4566376,40
4567000,14
4567624,73
4568256,76
4568872,63
4569504,46
4570132,77
4570752,98
4571384,100
4572060,75
4572680,30
4573312,49
4573928,23
4574560,17
4575184,16
4575808,46
4576440,55
4577060,67
4577688,27
4578320,40
4578940,43
4579568,47
4580196,51
4580824,49
4581456,18
4582076,11
4582704,21
4583332,16
4583956,13
4584588,17
4585208,25
4585840,34
4586464,17
4587088,53
4587720,96
4588336,107
4589016,92
4589644,86
4590264,64
4590892,35
4591516,15
4592144,40
4592772,36
4593392,36
4594024,55
4594648,25
4595272,43
4595900,45
4596520,49
4597148,52
4597780,25
4598400,23
4599028,13
4599652,37
4600284,69
4600916,120
4601588,119
4602268,64
4602896,16
4603512,85
4604144,94
4604768,83
4605400,64
4606032,46
4606648,31
4607280,41
4607904,45
4608528,20
4609160,55
4609776,40
4610404,38
4611028,25
4611652,44
4612280,50
4612904,51
4613532,49
4614164,50
4614784,13
4615412,13
4616036,18
4616664,31
4617296,36
4617912,33
4618544,50
4619168,40
4619792,17
4620420,67
4621040,85
4621668,69
4622292,48
4622916,43
4623548,55
4624168,42
4624796,30
4625428,20
4626048,15
4626676,39
4627300,43
4627932,27
4628560,58
4629184,44
4629812,51
4630436,63
4631060,64
4631692,80
4632312,73
4632944,61
4633568,72
4634192,29
4634824,33
4635440,73
4636072,119
4636756,176
4637428,191
4638108,154
4638788,105
4639460,34
4640088,81
4640708,60
4641332,37
4641960,100
4642636,73
4643260,12
4643892,10
4644512,13
4645140,43
4645764,42
4646396,49
4647028,49
4647648,38
4648276,104
4648956,116
4649628,64
4650252,21
4650876,18
4651508,29
4652140,19
4652760,19
4653392,44
4654016,49
4654640,63
4655268,67
4655888,56
4656520,66
4657144,93
4657768,88
4658396,43
4659024,13
4659652,22
4660284,35
4660904,19
4661532,39
4662156,50
4662788,52
4663420,49
4664040,51
4664668,37
4665292,19
4665916,27
4666548,58
4667168,65
4667800,67
4668428,81
4669048,87
4669680,52
4670300,45
4670932,46
4671564,47
4672184,50
4672812,17
4673436,11
4674060,22
4674692,62
4675312,80
4675940,46
4676564,34
4677188,13
4677820,24
4678440,41
4679068,44
4679700,47
4680320,49
4680948,43
4681572,25
4682204,17
4682836,22
4683456,27
4684088,40
4684712,31
4685336,16
4685964,18
4686584,34
4687212,57
4687840,61
4688464,58
4689092,64
4689712,56
4690344,22
4690972,12
4691592,45
4692220,57
4692848,43
4693476,13
4694108,28
4694728,28
4695356,50
4695984,56
4696608,48
4697240,50
4697856,27
4698488,11
4699112,16
4699736,21
4700368,24
4700984,37
4701616,34
4702248,14
4702864,15
4703496,54
4704120,79
4704752,85
4705384,74
4706000,41
4706632,30
4707256,23
4707880,12
4708512,56
4709128,87
4709760,81
4710384,71
4711012,19
4711640,91
4712264,89
4712892,66
4713524,88
4714144,90
4714776,36
4715400,13
4716028,33
4716660,63
4717280,129
4717960,172
4718644,136
4719316,69
4719944,46
4720568,50
4721196,62
4721824,66
4722444,62
4723072,43
4723700,38
4724324,52
4724952,44
4725576,14
4726208,11
4726836,17
4727456,14
4728088,33
4728712,55
4729344,47
4729972,49
4730592,49
4731224,15
4731848,17
4732472,26
4733104,14
4733724,12
4734352,20
4734984,43
4735608,55
4736240,57
4736864,43
4737492,63
4738124,58
4738744,54
4739372,37
4740000,59
4740624,73
4741252,67
4741872,30
4742504,19
4743124,19
4743752,13
4744384,12
4745000,43
4745632,57
4746260,53
4746880,53
4747508,64
4748136,48
4748768,73
4749400,110
4750072,95
4750696,40
4751320,37
4751944,88
4752576,84
4753196,111
4753880,154
4754556,153
4755228,108
4755904,46
4756536,24
4757152,50
4757784,64
4758408,50
4759036,50
4759668,83
4760288,90
4760920,75
4761544,81
4762168,79
4762796,46
4763416,63
4764048,69
4764672,43
4765296,59
4765928,83
4766552,63
4767184,62
4767812,60
4768432,53
4769064,37
4769688,24
4770312,43
4770944,50
4771560,65
4772192,71
4772816,67
4773440,54
4774072,72
4774692,55
4775324,13
4775952,10
4776572,9
4777152,12
4777776,29
4778404,55
4779036,59
4779656,62
4780288,58
4780912,44
4781544,67
4782172,52
4782792,38
4783424,13
4784048,26
4784672,35
4785304,27
4785920,19
4786552,35
4787176,61
4787804,54
4788432,52
4789052,58
4789684,54
4790316,44
4790936,38
4791568,34
4792196,10
4792828,21
4793456,21
4794080,13
4794712,16
4795336,42
4795964,45
4796596,48
4797216,50
4797848,37
4798480,56
4799100,57
4799732,43
4800360,31
4800988,39
4801616,49
4802240,48
4802868,37
4803492,51
4804116,63
4804748,62
4805368,69
4805996,97
4806624,93
4807248,66
4807876,60
4808496,32
4809124,25
4809756,12
4810376,43
4811008,91
4811632,97
4812264,76
4812892,58
4813512,50
4814140,55
4814764,53
4815388,46
4816016,58
4816640,66
4817268,17
4817892,34
4818516,43
4819148,80
4819768,132
4820448,54
4821080,61
4821696,77
4822328,80
4822952,70
4823576,59
4824208,69
4824824,84
4825452,47
4826080,13
4826704,11
4827332,16
4827952,29
4828584,45
4829212,46
4829832,47
4830464,51
4831088,19
4831720,23
4832348,53
4832968,76
4833600,79
4834220,97
4834844,125
4835528,94
4836144,48
4836772,45
4837404,48
4838024,56
4838656,64
4839280,73
4839908,108
4840592,144
4841260,134
4841940,49
4842564,17
4843184,21
4843816,13
4844440,30
4845064,54
4845692,76
4846312,63
4846944,56
4847568,61
4848192,70
4848824,44
4849440,18
4850068,19
4850700,27
4851320,27
4851948,16
4852576,15
4853204,47
4853836,87
4854456,85
4855084,69
4855712,51
4856336,14
4856964,21
4857584,27
4858216,32
4858840,23
4859464,24
4860096,15
4860712,12
4861344,42
4861976,66
4862596,64
4863228,66
4863852,64
4864488,67
4865116,34
4865736,12
4866364,60
4866988,107
4867664,79
4868296,60
4868912,87
4869540,200
4870224,113
4870892,47
4871516,79
4872144,122
4872820,126
4873500,30
4874120,34
4874752,19
4875384,11
4876000,21
4876628,51
4877256,63
4877880,21
4878508,45
4879128,51
4879760,50
4880388,59
4881008,46
4881636,17
4882260,16
4882892,21
4883524,27
4884144,33
4884776,41
4885400,53
4886024,57
4886656,45
4887272,54
4887904,53
4888528,47
4889152,46
4889784,38
4890400,67
4891028,79
4891660,99
4892280,121
4892960,120
4893636,48
4894256,23
4894888,45
4895504,48
4896136,49
4896760,58
4897384,56
4898016,82
4898640,81
4899268,35
4899900,16
4900520,37
4901152,23
4901776,17
4902408,22
4903036,14
4903656,46
4904288,62
4904916,78
4905540,75
4906172,74
4906792,61
4907424,53
4908056,48
4908676,13
4909308,23
4909932,47
4910564,78
4911196,57
4911820,43
4912452,51
4913076,52
4913704,51
4914336,36
4914956,34
4915588,59
4916212,60
4916832,34
4917464,13
4918088,48
4918716,53
4919348,18
4919968,46
4920596,50
4921220,59
4921852,65
4922480,71
4923100,39
4923728,16
4924352,38
4924976,60
4925604,65
4926224,91
4926852,82
4927476,59
4928100,49
4928728,66
4929352,47
4929984,52
4930612,69
4931232,128
4931912,152
4932584,104
4933252,19
4933876,22
4934504,24
4935132,12
4935764,19
4936384,15
4937012,53
4937636,54
4938260,54
4938892,58
4939512,73
4940144,59
4940768,43
4941392,43
4942020,46
4942640,57
4943268,43
4943900,27
4944520,43
4945148,57
4945776,48
4946404,51
4947036,54
4947656,70
4948288,145
4948960,170
4949636,94
4950264,21
4950888,13
4951516,13
4952148,12
4952768,17
4953400,89
4954024,120
4954700,94
4955328,91
4955944,72
4956576,41
4957208,51
4957828,55
4958456,17
4959080,50
4959712,79
4960340,137
4961012,198
4961688,136
4962368,51
4962992,57
4963624,100
4964296,91
4964920,37
4965548,29
4966168,35
4966800,35
4967420,31
4968048,17
4968676,31
4969300,14
4969928,43
4970560,47
4971176,48
4971808,49
4972432,51
4973064,15
4973692,10
4974312,21
4974944,23
4975568,11
4976192,22
4976820,31
4977440,12
4978068,37
4978700,64
4979320,65
4979948,46
4980572,58
4981204,31
4981836,13
4982456,26
4983084,18
4983708,12
4984336,41
4984964,80
4985584,73
4986216,51
4986840,47
4987464,46
4988096,50
4988712,49
4989344,37
4989976,52
4990596,80
4991224,91
4991852,85
4992484,84
4993112,65
4993732,21
4994360,18
4994988,49
4995612,51
4996240,58
4996864,48
4997492,45
4998116,32
4998744,71
4999372,67
4999992,35
5000624,11
5001252,21
5001872,19
5002500,28
5003124,45
5003756,49
5004388,53
5005008,182
5005688,189
5006368,68
5006992,15
5007624,59
5008248,61
5008876,23
5009508,12
5010128,41
5010756,38
5011384,27
5012008,89
5012636,134
5013308,116
5013988,68
5014616,44
5015232,21
5015864,32
5016488,147
5017164,245
5017844,170
5018516,74
5019140,17
5019768,70
5020392,145
5021076,135
5021756,91
5022376,78
5023008,73
5023632,38
5024264,19
5024892,42
5025512,19
5026144,18
5026768,14
5027392,26
5028024,19
5028640,41
5029268,47
5029900,50
5030520,50
5031152,62
5031776,74
5032408,53
5033036,21
5033656,11
5034284,14
5034912,44
5035536,39
5036168,40
5036784,43
5037416,60
5038044,80
5038668,65
5039300,24
5039920,19
5040552,77
5041184,133
5041852,121
5042532,30
5043152,31
5043780,61
5044408,48
5045032,45
5045664,48
5046292,51
5046912,53
5047544,37
5048168,15
5048800,18
5049428,16
5050048,28
5050680,56
5051304,44
5051928,26
5052560,30
5053180,42
5053812,53
5054436,60
5055060,50
5055692,48
5056312,23
5056944,41
5057576,36
5058192,14
5058824,29
5059448,21
5060080,11
5060708,21
5061328,70
5061960,67
5062584,47
5063208,49
5063840,54
5064456,50
5065088,43
5065712,30
5066336,53
5066968,45
5067592,33
5068224,57
5068856,74
5069472,36
5070104,59
5070728,79
5071360,76
5071988,74
5072612,92
5073240,100
5073924,88
5074544,75
5075176,39
5075800,21
5076432,10
5077064,66
5077688,116
5078372,56
5078996,55
5079620,53
5080252,52
5080872,40
5081504,13
5082136,37
5082752,12
5083384,20
5084008,66
5084640,51
5085268,30
5085888,17
5086520,56
5087144,111
5087820,102
5088500,68
5089120,52
5089752,27
5090380,34
5091000,11
5091632,29
5092256,47
5092880,23
5093512,74
5094132,120
5094816,98
5095440,43
5096056,76
5096688,95
5097312,121
5097996,118
5098676,136
5099348,110
5100028,62
5100656,12
5101276,74
5101908,188
5102584,274
5103256,226
5103932,104
5104608,50
5105224,72
5105856,139
5106532,150
5107212,122
5107892,104
5108564,106
5109244,77
5109872,54
5110492,20
5111124,14
5111748,60
5112376,101
5113060,97
5113680,73
5114312,37
5114948,34
5115568,47
5116204,51
5116828,77
5117456,75
5118088,55
5118708,41
5119340,19
5119968,51
5120596,70
5121224,73
5121840,76
5122468,59
5123096,48
5123712,91
5124344,129
5125020,88
5125640,15
5126268,10
5126888,12
5127516,11
5128140,38
5128764,51
5129392,50
5130008,49
5130640,53
5131260,32
5131888,11
5132516,11
5133140,33
5133768,46
5134400,86
5135016,143
5135696,122
5136372,46
5136992,52
5137620,75
5138244,92
5138872,105
5139556,96
5140176,71
5140804,65
5141428,64
5142052,19
5142680,12
5143304,54
5143932,70
5144560,46
5145180,41
5145812,47
5146436,49
5147064,48
5147692,20
5148312,12
5148940,19
5149564,31
5150196,27
5150824,41
5151448,75
5152076,59
5152700,39
5153324,47
5153956,50
5154576,50
5155204,51
5155828,64
5156452,105
5157136,127
5157804,125
5158476,76
5159100,43
5159720,45
5160348,37
5160980,54
5161600,47
5162228,86
5162852,130
5163532,78
5164156,41
5164776,26
5165408,67
5166032,88
5166656,27
5167284,55
5167904,73
5168536,22
5169164,12
5169784,55
5170412,44
5171036,66
5171668,69
5172300,90
5172920,68
5173548,49
5174172,38
5174796,17
5175428,60
5176048,91
5176676,65
5177300,42
5177924,35
5178556,45
5179176,49
5179808,52
5180436,57
5181056,32
5181688,11
5182308,11
5182940,19
5183572,20
5184192,11
5184820,20
5185444,14
5186068,21
5186696,63
5187320,73
5187948,76
5188572,71
5189196,41
5189828,22
5190448,63
5191076,83
5191708,74
5192328,39
5192956,16
5193580,12
5194212,13
5194844,43
5195464,52
5196096,53
5196720,56
5197344,62
5197976,65
5198592,72
5199224,24
5199848,10
5200472,22
5201100,17
5201720,35
5202352,114
5203032,195
5203700,102
5204376,49
5205004,57
5205624,74
5206252,79
5206880,77
5207508,65
5208140,42
5208760,22
5209388,11
5210016,26
5210640,31
5211268,29
5211888,40
5212520,51
5213144,52
5213768,59
5214396,24
5215016,13
5215648,11
5216280,16
5216896,35
5217524,48
5218148,50
5218780,19
5219412,28
5220032,49
5220660,71
5221288,82
5221912,76
5222544,57
5223160,29
5223788,17
5224412,16
5225036,50
5225668,56
5226288,35
5226916,28
5227548,20
5228168,46
5228796,70
5229424,105
5230104,82
5230728,56
5231348,14
5231980,23
5232604,59
5233228,49
5233860,48
5234480,37
5235112,53
5235744,66
5236360,40
5236992,45
5237616,54
5238248,56
5238876,55
5239496,54
5240128,52
5240752,31
5241376,12
5242008,11
5242624,18
5243256,17
5243880,13
5244500,23
5245132,42
5245752,52
5246380,48
5247012,53
5247632,25
5248260,13
5248884,29
5249512,46
5250140,31
5250760,17
5251388,13
5252012,19
5252632,33
5253260,67
5253880,80
5254508,51
5255132,50
5255752,49
5256384,25
5257000,15
5257628,32
5258256,11
5258880,20
5259508,11
5260132,11
5260760,15
5261392,49
5262008,57
5262640,48
5263264,98
5263888,132
5264568,98
5265184,88
5265812,66
5266440,36
5267064,20
5267692,15
5268316,34
5268948,52
5269576,65
5270192,118
5270876,98
5271496,83
5272120,81
5272748,69
5273368,29
5273996,23
5274620,12
5275248,50
5275876,56
5276500,19
5277132,27
5277760,29
5278376,43
5279008,48
5279632,47
5280264,49
5280892,43
5281512,75
5282140,70
5282764,51
5283388,15
5284016,64
5284632,106
5285312,161
5285988,193
5286660,182
5287336,93
5287960,50
5288576,63
5289204,112
5289880,174
5290552,219
5291232,209
5291908,138
5292584,54
5293212,15
5293832,65
5294460,85
5295084,89
5295708,95
5296340,65
5296960,49
5297592,27
5298220,26
5298840,25
5299468,11
5300092,28
5300724,44
5301352,24
5301972,13
5302600,49
5303224,47
5303848,60
5304476,78
5305096,78
5305724,69
5306348,52
5306972,32
5307604,33
5308228,26
5308856,21
5309484,30
5310104,54
5310732,45
5311356,24
5311988,45
5312620,52
5313240,57
5313868,79
5314496,63
5315120,21
5315748,23
5316368,55
5316996,74
5317624,61
5318248,17
5318876,19
5319500,21
5320132,45
5320764,50
5321384,51
5322016,53
5322640,56
5323268,29
5323900,34
5324520,93
5325152,113
5325832,86
5326448,33
5327076,21
5327700,50
5328328,65
5328956,48
5329576,49
5330204,53
5330828,63
5331456,45
5332088,13
5332704,33
5333332,33
5333956,18
5334580,57
5335212,97
5335832,128
5336512,118
5337188,79
5337808,58
5338436,51
5339060,49
5339684,17
5340312,62
5340936,88
5341564,91
5342188,74
5342812,40
5343444,11
5344068,21
5344696,76
5345324,66
5345944,47
5346572,50
5347196,52
5347828,33
5348456,20
5349076,12
5349704,31
5350328,38
5350952,28
5351580,45
5352200,14
5352828,24
5353452,70
5354076,66
5354708,61
5355332,75
5355964,68
5356592,32
5357216,26
5357844,10
5358468,21
5359100,45
5359732,36
5360352,23
5360980,50
5361604,69
5362228,54
5362860,49
5363480,51
5364108,43
5364732,10
5365360,11
5365988,13
5366612,34
5367244,33
5367872,20
5368492,14
5369120,47
5369744,55
5370372,45
5371004,50
5371624,54
5372252,54
5372876,49
5373500,63
5374132,62
5374752,67
5375384,15
5376012,16
5376628,12
5377260,33
5377880,30
5378512,40
5379140,45
5379760,47
5380388,49
5381012,18
5381640,16
5382268,10
5382888,12
5383516,10
5384140,11
5384764,16
5385396,12
5386016,17
5386644,47
5387276,50
5387896,51
5388524,51
5389148,40
5389780,15
5390408,20
5391024,40
5391656,14
5392280,43
5392904,85
5393532,46
5394152,39
5394780,53
5395408,53
5396032,50
5396660,51
5397280,47
5397908,41
5398540,56
5399160,48
5399788,51
5400416,52
5401044,68
5401676,78
5402296,41
5402924,27
5403548,40
5404172,48
5404804,52
5405424,91
5406052,125
5406736,114
5407404,102
5408080,78
5408704,67
5409324,49
5409956,21
5410576,14
5411204,27
5411828,44
5412452,49
5413084,49
5413708,68
5414336,57
5414968,21
5415584,32
5416216,84
5416840,103
5417520,81
5418148,71
5418768,43
5419396,17
5420024,62
5420648,71
5421276,78
5421900,63
5422532,59
5423164,80
5423784,73
5424416,44
5425040,13
5425668,22
5426300,50
5426920,46
5427552,15
5428172,41
5428796,51
5429428,52
5430048,56
5430676,63
5431308,84
5431928,59
5432560,13
5433184,59
5433812,66
5434444,56
5435064,19
5435692,26
5436320,28
5436944,45
5437572,62
5438192,50
5438824,53
5439448,14
5440072,31
5440700,55
5441320,58
5441948,40
5442576,34
5443200,18
5443828,16
5444452,15
5445080,48
5445712,53
5446328,51
5446960,55
5447584,36
5448208,11
5448836,19
5449456,27
5450084,23
5450708,42
5451332,91
5451960,94
5452584,44
5453212,48
5453844,46
5454464,100
5455144,116
5455816,36
5456432,64
5457060,95
5457680,85
5458308,66
5458932,27
5459556,11
5460188,54
5460812,42
5461440,41
5462068,50
5462688,51
5463316,49
5463940,49
5464572,15
5465204,10
5465824,23
5466452,22
5467076,11
5467700,21
5468332,14
5468952,35
5469580,34
5470204,42
5470832,50
5471460,52
5472088,49
5472716,57
5473348,54
5473968,29
5474596,24
5475220,17
5475848,19
5476476,12
5477096,11
5477728,24
5478352,54
5478976,52
5479608,54
5480224,54
5480856,47
5481484,40
5482104,20
5482732,11
5483360,32
5483988,79
5484620,154
5485292,153
5485972,136
5486652,55
5487272,49
5487904,61
5488528,64
5489160,64
5489788,56
5490408,62
5491036,49
5491660,17
5492284,10
5492916,12
5493536,13
5494168,29
5494796,47
5495416,48
5496044,53
5496672,57
5497300,51
5497932,30
5498552,15
5499184,64
5499808,109
5500484,128
5501160,140
5501836,132
5502516,115
5503196,103
5503868,80
5504496,58
5505124,52
5505744,41
5506372,157
5507052,281
5507724,242
5508400,165
5509076,102
5509748,94
5510376,82
5511000,41
5511628,48
5512260,54
5512880,54
5513512,59
5514136,47
5514760,50
5515392,56
5516008,43
5516640,43
5517264,23
5517888,31
5518520,60
5519136,49
5519768,39
5520400,48
5521016,59
5521648,61
5522272,68
5522900,76
5523532,97
5524152,88
5524784,55
5525408,39
5526032,42
5526664,16
5527280,61
5527912,30
5528536,45
5529164,47
5529792,48
5530416,48
5531044,24
5531672,21
5532296,24
5532924,32
5533548,57
5534180,64
5534812,72
5535432,63
5536064,27
5536684,63
5537308,88
5537940,113
5538612,104
5539288,90
5539916,90
5540536,104
5541216,70
5541840,28
5542464,83
5543092,117
5543764,85
5544392,22
5545020,50
5545640,48
5546268,53
5546892,56
5547524,43
5548152,56
5548776,50
5549408,34
5550032,22
5550656,45
5551288,58
5551908,35
5552540,16
5553168,49
5553792,86
5554424,104
5555100,99
5555720,76
5556352,54
5556972,94
5557600,75
5558228,21
5558852,10
5559484,14
5560104,25
5560736,30
5561364,36
5561984,49
5562616,50
5563240,69
5563868,69
5564500,46
5565120,32
5565752,33
5566376,32
5567000,37
5567632,51
5568256,63
5568888,33
5569512,22
5570136,100
5570820,137
5571492,115
5572164,68
5572788,45
5573408,58
5574036,59
5574668,35
5575288,23
5575916,54
5576544,93
5577172,105
5577856,52
5578472,42
5579104,48
5579728,59
5580352,75
5580984,47
5581600,40
5582228,29
5582860,12
5583480,19
5584108,25
5584732,34
5585364,23
5585996,32
5586616,104
5587296,138
5587976,125
5588652,82
5589280,49
5589904,63
5590536,87
5591164,78
5591784,40
5592416,18
5593040,40
5593664,130
5594344,95
5594968,44
5595600,46
5596228,48
5596848,59
5597476,53
5598104,62
5598728,81
5599360,81
5599976,22
5600608,88
5601232,212
5601908,192
5602584,156
5603260,124
5603932,100
5604608,60
5605232,56
5605864,65
5606492,102
5607164,142
5607840,122
5608520,71
5609144,61
5609772,26
5610396,12
5611024,19
5611652,48
5612272,48
5612900,51
5613524,47
5614148,33
5614780,16
5615400,15
5616028,13
5616660,11
5617280,21
5617908,23
5618536,22
5619164,22
5619796,46
5620416,71
5621048,77
5621672,78
5622296,62
5622928,33
5623544,46
5624176,56
5624800,21
5625424,33
5626056,39
5626672,46
5627304,39
5627936,37
5628552,59
5629184,63
5629808,63
5630440,56
5631068,30
5631688,12
5632320,13
5632940,11
5633564,13
5634196,12
5634816,13
5635444,27
5636068,21
5636692,51
5637320,55
5637944,61
5638572,65
5639204,52
5639824,29
5640452,11
5641076,13
5641708,30
5642336,28
5642960,12
5643588,45
5644212,35
5644836,44
5645464,48
5646088,57
5646716,51
5647340,49
5647968,28
5648596,24
5649220,16
5649852,11
5650480,15
5651104,15
5651736,43
5652360,27
5652992,28
5653620,63
5654240,57
5654868,53
5655492,59
5656116,57
5656748,40
5657368,49
5658000,39
5658620,24
5659248,19
5659876,11
5660500,13
5661132,19
5661760,44
5662384,49
5663016,52
5663640,51
5664264,33
5664892,22
5665512,32
5666144,27
5666768,36
5667392,28
5668020,16
5668640,43
5669268,63
5669900,52
5670520,51
5671148,70
5671776,58
5672404,36
5673036,24
5673656,45
5674284,55
5674908,64
5675532,38
5676164,18
5676784,33
5677416,15
5678040,57
5678664,47
5679296,52
5679912,52
5680544,66
5681176,25
5681792,44
5682424,63
5683048,43
5683680,13
5684308,27
5684928,14
5685556,27
5686180,24
5686804,57
5687436,73
5688056,63
5688684,52
5689312,56
5689936,49
5690564,13
5691184,11
5691816,16
5692448,16
5693064,31
5693696,12
5694320,17
5694948,53
5695580,55
5696200,52
5696832,52
5697456,29
5698080,16
5698708,22
5699328,28
5699956,48
5700580,49
5701208,55
5701836,48
5702456,25
5703084,57
5703716,86
5704336,59
5704964,47
5705588,50
5706220,48
5706852,131
5707524,172
5708204,73
5708832,30
5709448,18
5710076,16
5710704,41
5711336,35
5711968,49
5712588,104
5713272,117
5713948,72
5714568,63
5715196,68
5715824,47
5716456,20
5717088,26
5717704,56
5718336,77
5718964,53
5719588,19
5720220,90
5720840,96
5721472,72
5722096,79
5722720,96
5723352,78
5723976,85
5724608,100
5725292,68
5725912,24
5726544,22
5727168,33
5727792,40
5728424,63
5729048,66
5729680,67
5730308,54
5730928,17
5731560,16
5732184,32
5732816,31
5733448,45
5734068,70
5734700,71
5735324,64
5735948,23
5736576,54
5737192,63
5737824,67
5738448,70
5739072,67
5739700,79
5740320,93
5740948,64
5741580,28
5742200,12
5742828,10
5743452,26
5744084,43
5744712,46
5745336,51
5745964,49
5746588,49
5747212,48
5747844,22
5748464,24
5749092,36
5749720,11
5750344,40
5750976,68
5751592,80
5752224,60
5752856,21
5753472,47
5754104,55
5754728,59
5755360,49
5755988,58
5756608,22
5757240,59
5757864,73
5758488,40
5759120,61
5759736,39
5760368,11
5760992,21
5761616,41
5762244,50
5762864,54
5763492,59
5764120,26
5764744,53
5765372,32
5765996,13
5766628,29
5767256,22
5767872,15
5768504,17
5769128,43
5769752,64
5770380,59
5771000,50
5771628,49
5772252,54
5772876,28
5773508,28
5774128,35
5774756,13
5775388,34
5776008,18
5776636,14
5777260,10
5777888,26
5778516,55
5779136,54
5779768,57
5780388,64
5781016,21
5781644,32
5782264,36
5782896,39
5783520,48
5784144,35
5784772,28
5785392,15
5786024,19
5786652,76
5787272,109
5787952,87
5788576,54
5789200,19
5789828,27
5790448,40
5791076,21
5791704,29
5792328,15
5792956,39
5793576,26
5794208,29
5794836,56
5795456,58
5796088,53
5796708,48
5797340,45
5797972,19
5798592,21
5799220,19
5799844,38
5800468,77
5801100,68
5801720,42
5802348,30
5802972,31
5803596,73
5804228,80
5804848,59
5805476,51
5806108,18
5806728,38
5807356,61
5807984,25
5808616,41
5809244,86
5809864,52
5810496,11
5811120,17
5811744,43
5812376,70
5812992,123
5813672,78
5814304,27
5814920,13
5815552,13
5816180,44
5816808,61
5817440,48
5818060,42
5818688,28
5819312,15
5819936,69
5820568,104
5821236,102
5821916,82
5822544,93
5823160,83
5823792,59
5824420,18
5825044,119
5825724,117
5826396,42
5827024,19
5827652,17
5828272,54
5828900,54
5829524,50
5830152,51
5830784,27
5831400,11
5832032,11
5832656,16
5833280,12
5833912,56
5834528,77
5835160,56
5835792,49
5836412,47
5837044,43
5837664,70
5838296,71
5838928,72
5839544,92
5840176,98
5840796,64
5841420,35
5842052,12
5842672,17
5843300,62
5843924,82
5844548,45
5845180,38
5845800,55
5846432,65
5847060,50
5847680,81
5848308,49
5848936,13
5849564,15
5850196,44
5850816,55
5851448,60
5852072,40
5852696,35
5853328,43
5853944,62
5854576,97
5855200,99
5855824,100
5856508,93
5857128,98
5857760,94
5858388,64
5859008,59
5859640,46
5860264,16
5860888,13
5861516,44
5862136,39
5862768,52
5863392,52
5864016,71
5864644,102
5865316,68
5865944,40
5866572,37
5867192,61
5867824,64
5868448,55
5869072,62
5869704,42
5870320,36
5870952,53
5871576,49
5872200,49
5872832,26
5873452,61
5874080,87
5874712,75
5875332,17
5875964,24
5876588,29
5877220,21
5877852,22
5878472,54
5879104,65
5879728,62
5880352,59
5880984,24
5881600,26
5882228,37
5882856,51
5883480,32
5884112,21
5884732,95
5885364,110
5886048,134
5886716,68
5887344,46
5887968,52
5888596,49
5889228,56
5889848,72
5890476,67
5891108,72
5891728,56
5892360,56
5892984,54
5893616,14
5894244,63
5894864,90
5895496,65
5896120,45
5896744,51
5897376,44
5897992,56
5898624,25
5899248,19
5899872,39
5900500,25
5901124,23
5901756,18
5902384,44
5903008,38
5903640,88
5904264,78
5904892,58
5905524,50
5906144,62
5906772,76
5907400,50
5908024,40
5908652,36
5909272,32
5909904,63
5910532,102
5911204,109
5911884,84
5912504,48
5913128,49
5913760,51
5914376,15
5915008,11
5915632,12
5916256,12
5916888,24
5917512,25
5918140,50
5918772,62
5919392,84
5920024,51
5920644,54
5921276,80
5921904,87
5922528,83
5923156,56
5923784,27
5924408,47
5925036,55
5925656,44
5926284,15
5926916,67
5927536,56
5928168,39
5928788,38
5929420,46
5930052,48
5930672,37
5931304,20
5931928,17
5932552,16
5933184,90
5933800,129
5934484,76
5935112,24
5935728,21
5936360,42
5936984,71
5937616,57
5938244,52
5938864,53
5939496,33
5940120,49
5940744,49
5941372,55
5941992,40
5942620,23
5943244,21
5943868,35
5944500,18
5945120,44
5945748,48
5946380,48
5947000,52
5947632,16
5948256,22
5948884,36
5949516,34
5950136,33
5950768,17
5951392,18
5952016,15
5952644,15
5953264,61
5953892,93
5954520,99
5955144,79
5955772,75
5956392,52
5957024,28
5957652,16
5958272,15
5958904,12
5959528,10
5960160,67
5960788,118
5961460,72
5962088,37
5962712,59
5963336,59
5963968,62
5964584,36
5965216,35
5965844,62
5966464,65
5967092,93
5967720,53
5968348,16
5968980,34
5969600,53
5970228,76
5970856,75
5971480,54
5972112,53
5972728,42
5973360,44
5973984,21
5974608,52
5975240,62
5975856,18
5976488,11
5977120,28
5977736,26
5978368,42
5978992,44
5979624,53
5980256,48
5980872,18
5981500,14
5982128,29
5982752,45
5983384,42
5984000,40
5984632,15
5985256,32
5985880,37
5986512,43
5987128,59
5987760,53
5988388,62
5989008,87
5989640,51
5990264,12
5990896,25
5991524,48
5992144,58
5992776,61
5993400,19
5994024,13
5994656,42
5995272,42
5995904,103
5996584,60
5997208,53
5997840,47
5998464,18
5999096,11
5999728,14
6000344,11
6000976,17
6001600,23
6002224,29
6002852,26
6003472,47
6004100,54
6004728,55
6005352,54
6005980,80
6006608,85
6007236,107
6007920,57
6008536,28
6009168,20
6009792,11
6010416,29
6011048,68
6011664,60
6012296,44
6012920,51
6013544,50
6014176,35
6014800,46
6015432,43
6016064,29
6016680,38
6017308,111
6017984,120
6018660,76
6019288,37
6019908,46
6020540,46
6021172,52
6021792,61
6022424,55
6023044,70
6023676,105
6024360,107
6025028,74
6025656,47
6026284,32
6026904,18
6027536,18
6028160,38
6028788,49
6029420,76
6030040,91
6030672,74
6031296,54
6031924,41
6032552,23
6033176,15
6033808,29
6034436,46
6035056,51
6035688,44
6036312,37
6036944,57
6037576,66
6038196,63
6038824,65
6039452,58
6040076,71
6040708,56
6041328,32
6041960,13
6042584,11
6043208,22
6043840,16
6044456,41
6045088,69
6045720,48
6046336,58
6046968,64
6047592,48
6048224,25
6048852,42
6049472,71
6050104,77
6050728,53
6051352,40
6051984,35
6052604,42
6053232,44
6053856,49
6054480,62
6055108,71
6055728,95
6056360,151
6057044,138
6057716,138
6058396,116
6059076,106
6059748,88
6060376,64
6061000,41
6061628,80
6062256,158
6062932,222
6063612,233
6064292,202
6064964,153
6065644,70
6066272,26
6066888,64
6067520,87
6068144,65
6068768,43
6069400,44
6070016,86
6070648,153
6071332,195
6072004,146
6072684,84
6073304,43
6073928,11
6074560,10
6075176,14
6075808,49
6076440,22
6077060,75
6077692,23
6078316,45
6078948,76
6079580,132
6080252,134
6080928,112
6081608,53
6082232,18
6082864,64
6083488,35
6084112,11
6084740,55
6085360,89
6085988,78
6086616,45
6087240,43
6087868,49
6088488,50
6089116,31
6089748,26
6090368,20
6091000,11
6091624,55
6092256,46
6092884,31
6093504,15
6094132,71
6094760,111
6095436,95
6096064,47
6096680,107
6097360,202
6098044,152
6098716,54
6099344,45
6099972,141
6100644,234
6101324,244
6101996,180
6102668,102
6103348,102
6104020,102
6104692,84
6105320,53
6105944,38
6106576,30
6107204,10
6107824,19
6108456,63
6109080,75
6109704,81
6110336,91
6110956,31
6111588,44
6112212,50
6112836,55
6113468,56
6114088,28
6114720,32
6115348,86
6115968,99
6116600,123
6117276,114
6117948,126
6118628,94
6119248,40
6119880,76
6120512,120
6121180,86
6121808,76
6122432,85
6123056,100
6123740,118
6124412,114
6125092,42
6125720,16
6126340,24
6126972,24
6127596,20
6128220,54
6128852,48
6129476,49
6130108,51
6130740,41
6131360,25
6131992,12
6132616,21
6133248,13
6133880,88
6134504,139
6135188,70
6135816,24
6136436,43
6137068,48
6137696,56
6138324,53
6138960,36
6139576,25
6140208,44
6140836,71
6141464,78
6142096,82
6142716,30
6143348,11
6143976,26
6144604,45
6145232,56
6145848,56
6146476,62
6147108,50
6147728,13
6148356,31
6148980,28
6149612,50
6150240,164
6150912,181
6151584,171
6152268,201
6152940,228
6153620,70
6154244,77
6154864,123
6155544,132
6156220,121
6156892,158
6157568,160
6158244,116
6158916,70
6159544,16
6160160,112
6160840,135
6161516,95
6162136,57
6162764,49
6163388,49
6164012,29
6164644,22
6165264,58
6165892,56
6166516,20
6167140,15
6167772,16
6168396,18
6169028,45
6169656,47
6170280,41
6170908,47
6171532,49
6172164,49
6172792,15
6173412,28
6174044,75
6174668,99
6175292,102
6175976,95
6176592,48
6177224,23
6177852,42
6178472,61
6179104,57
6179728,50
6180360,59
6180988,70
6181608,34
6182240,17
6182864,14
6183488,17
6184120,39
6184736,85
6185368,72
6185996,40
6186616,48
6187248,49
6187872,49
6188500,52
6189132,32
6189752,15
6190384,93
6191008,112
6191684,76
6192312,45
6192928,17
6193560,11
6194192,55
6194812,66
6195444,40
6196068,59
6196696,54
6197328,37
6197944,36
6198576,28
6199200,31
6199824,19
6200456,18
6201072,16
6201704,18
6202328,35
6202952,51
6203584,40
6204200,50
6204832,52
6205464,122
6206132,90
6206760,16
6207384,69
6208008,73
6208636,30
6209256,36
6209888,46
6210512,54
6211136,89
6211768,95
6212388,106
6213068,108
6213748,52
6214368,44
6215000,62
6215624,54
6216252,53
6216880,38
6217504,50
6218136,96
6218768,102
6219436,70
6220064,48
6220688,50
6221320,50
6221952,49
6222568,31
6223200,40
6223828,49
6224452,75
6225084,80
6225704,93
6226336,67
6226964,17
6227584,15
6228212,47
6228840,42
6229468,49
6230100,52
6230720,25
6231352,19
6231976,56
6232600,95
6233232,112
6233904,65
6234528,25
6235160,26
6235776,40
6236408,100
6237084,84
6237704,53
6238336,50
6238956,31
6239584,11
6240212,23
6240836,31
6241464,18
6242088,14
6242716,67
6243348,88
6243968,45
6244600,41
6245224,57
6245852,59
6246484,59
6247104,50
6247732,13
6248356,11
6248980,23
6249608,62
6250232,78
6250864,69
6251488,15
6252112,22
6252744,67
6253360,128
6254044,123
6254724,75
6255344,107
6256028,152
6256704,81
6257328,94
6257960,100
6258636,50
6259256,14
6259884,39
