tempo_arduino_micro_s,valor_ADC
500,24
1004,19
1504,24
2000,38
2508,53
3000,64
3508,64
4000,40
4504,11
5000,34
5500,87
6000,88
6500,47
7004,15
7500,25
8000,55
8500,75
9000,99
9500,117
10008,68
10532,35
11052,134
11632,128
12200,37
12724,10
13244,14
13764,21
14284,19
14804,10
15324,10
15844,10
16364,10
16884,11
17404,11
17932,11
18460,28
18980,49
19508,20
20028,16
20556,39
21076,29
21604,12
22124,11
22652,13
23172,33
23700,24
24220,12
24748,23
25268,22
25796,26
26316,54
26844,96
27364,128
27944,138
28516,131
29096,86
29612,19
30132,10
30652,10
31172,12
31692,18
32212,34
32732,21
33252,65
33772,103
34344,72
34876,52
35396,47
35924,25
36444,14
36972,14
37492,14
38020,13
38540,35
39068,50
39588,30
40116,15
40636,37
41164,43
41684,48
42208,33
42732,34
43260,20
43780,17
44308,22
44828,26
45356,30
45876,33
46404,18
46924,10
47452,10
47972,23
48500,33
49020,22
49548,13
50068,20
50588,12
51108,23
51632,12
52148,13
52668,19
53188,21
53708,32
54228,44
54748,53
55268,54
55788,50
56308,18
56828,46
57356,94
57880,102
58456,107
59024,85
59556,55
60076,16
60604,48
61124,43
61652,20
62172,30
62700,36
63224,50
63748,48
64272,35
64796,28
65316,10
65844,20
66364,24
66892,26
67412,27
67940,22
68460,18
68988,32
69508,42
70036,38
70560,37
71076,36
71596,23
72120,77
72636,63
73156,23
73676,21
74196,43
74720,60
75236,57
75760,34
76280,40
76800,36
77324,16
77852,28
78372,23
78900,21
79420,17
79948,32
80472,57
80996,58
81516,32
82044,10
82564,36
83092,88
83612,66
84140,54
84660,14
85188,54
85708,61
86236,29
86756,17
87284,47
87804,47
88332,15
88852,48
89380,71
89904,57
90428,21
90948,39
91476,88
92000,82
92524,59
93044,22
93572,16
94092,19
94620,40
95144,72
95664,74
96184,41
96700,28
97220,18
97740,49
98260,43
98780,34
99300,23
99820,14
100344,20
100904,30
101488,16
102056,35
102640,34
103208,23
103784,16
104352,15
104920,21
105496,16
106064,33
106648,72
107216,87
107800,75
108368,76
108952,71
109520,51
110096,79
110680,18
111248,19
111832,15
112404,25
112984,17
113552,17
114128,21
114704,14
115272,10
115856,27
116424,34
117008,25
117576,11
118160,15
118728,14
119304,14
119888,35
120460,27
121040,25
121608,20
122192,10
122764,11
123344,25
123920,77
124488,112
125124,98
125688,16
126272,21
126840,22
127424,58
127996,33
128572,30
129152,56
129720,64
130296,17
130864,58
131448,19
132016,35
132584,17
133160,12
133728,21
134304,60
134876,74
135456,89
136024,74
136608,63
137176,62
137752,32
138336,13
138904,51
139488,84
140060,94
140640,93
141212,106
141836,115
142464,96
143032,81
143616,55
144184,24
144768,25
145336,16
145912,12
146496,42
147064,22
147648,48
148216,85
148800,45
149368,41
149944,44
150512,18
151088,17
151672,32
152244,14
152824,28
153396,22
153976,14
154552,15
155128,13
155712,15
156284,36
156864,43
157432,39
158016,44
158588,46
159168,43
159740,55
160316,59
160896,61
161464,40
162048,24
162616,11
163200,10
163768,11
164344,16
164928,53
165496,41
166072,14
166640,94
167224,119
167844,130
168464,115
169092,80
169656,53
170232,19
170800,14
171384,20
171952,17
172528,22
173112,38
173684,42
174264,49
174832,54
175416,13
175984,18
176568,23
177136,32
177712,43
178296,47
178864,37
179448,22
180016,13
180592,21
181160,26
181736,18
182320,20
182888,22
183472,14
184044,10
184624,15
185192,26
185776,47
186344,45
186912,21
187496,13
188068,14
188648,13
189216,19
189800,13
190368,73
190948,101
191580,78
192148,30
192728,37
193296,87
193880,52
194448,33
195024,25
195608,24
196176,24
196760,71
197332,112
197964,66
198536,40
199112,36
199688,19
200256,11
200840,11
201408,14
201992,36
202564,49
203144,33
203716,25
204292,27
204872,41
205440,40
206016,38
206584,59
207160,76
207732,79
208312,81
208880,94
209456,69
210032,34
210600,58
211184,78
211756,19
212336,42
212904,46
213480,54
214064,50
214632,11
215216,10
215784,12
216368,13
216936,46
217520,99
218092,106
218716,100
219344,46
219916,23
220496,20
221064,11
221648,13
222224,20
222796,24
223376,15
223944,11
224528,16
225104,41
225688,52
226256,48
226824,35
227408,38
227976,37
228560,33
229128,26
229712,17
230284,10
230864,10
231440,30
232008,32
232592,20
233164,13
233744,12
234312,41
234896,17
235468,14
236044,15
236624,17
237196,26
237776,21
238348,42
238928,34
239500,27
240080,10
240656,35
241224,17
241808,31
242380,65
242960,57
243532,48
244112,42
244684,31
245260,32
245840,47
246408,44
246984,30
247552,30
248136,21
248704,11
249288,31
249864,20
250432,11
251016,12
251588,14
252168,40
252736,31
253320,14
253892,17
254468,19
255048,16
255620,17
256200,47
256772,56
257352,53
257920,59
258504,60
259080,17
259648,15
260232,14
260800,27
261384,29
261952,25
262536,32
263104,47
263680,38
264264,23
264832,49
265416,50
265988,47
266568,35
267136,42
267712,237
268340,221
268956,94
269532,27
270104,21
270688,17
271256,11
271836,11
272416,10
272984,32
273568,75
274140,100
274772,95
275344,90
275920,81
276496,38
277064,29
277648,24
278216,14
278800,15
279368,12
279952,44
280524,70
281100,60
281680,44
282252,47
282832,45
283404,46
283984,33
284556,28
285136,23
285712,15
286284,71
286864,125
287484,134
288112,130
288736,71
289304,14
289880,46
290448,56
291032,30
291604,13
292184,17
292752,24
293332,27
293912,35
294484,59
295064,77
295636,82
296216,64
296788,34
297368,27
297936,59
298512,90
299096,121
299720,65
300296,42
300868,12
301448,14
302020,17
302596,17
303176,17
303748,20
304328,17
304900,18
305480,13
306052,14
306632,20
307208,11
307780,33
308360,50
308928,61
309512,65
310084,44
310664,15
311236,15
311812,38
312392,27
312964,11
313544,11
314116,15
314696,15
315268,11
315848,13
316424,11
316996,47
317576,62
318148,58
318728,61
319300,27
319880,43
320460,63
321032,73
321616,43
322184,32
322768,10
323336,34
323920,25
324488,10
325072,13
325648,24
326216,37
326800,23
327368,23
327952,21
328520,17
329104,11
329672,12
330248,9
330772,9
331292,13
331872,11
332440,19
333024,32
333592,27
334176,40
334744,46
335320,26
335904,94
336476,54
337056,16
337624,28
338208,16
338776,27
339360,29
339928,32
340496,26
341080,12
341648,29
342232,51
342804,75
343384,74
343956,74
344532,40
345112,14
345684,11
346264,27
346832,53
347416,71
347988,83
348568,51
349144,66
349720,70
350304,100
350928,182
351556,199
352176,112
352800,31
353376,15
353944,16
354528,10
355100,25
355680,51
356252,55
356828,67
357408,43
357980,90
358560,140
359184,131
359812,98
360384,50
360952,40
361536,127
362160,89
362736,37
363308,11
363888,15
364456,18
365036,10
365616,13
366184,25
366768,41
367336,14
367920,21
368500,14
369080,45
369648,18
370224,14
370808,14
371380,34
371960,36
372532,18
373112,10
373684,11
374260,19
374840,12
375412,11
375992,18
376564,20
377144,15
377716,15
378296,13
378868,17
379444,43
380024,63
380596,48
381176,21
381748,13
382328,19
382900,18
383476,34
384056,56
384628,42
385208,30
385776,21
386360,21
386932,18
387512,65
388084,94
388656,111
389292,94
389856,70
390440,33
391008,30
391592,100
392220,39
392788,28
393368,27
393940,14
394520,13
395092,21
395672,22
396244,23
396820,11
397400,12
397972,11
398552,33
399132,29
399712,42
400292,28
400864,14
401448,24
402016,15
402600,51
403172,44
403752,15
404332,50
404912,65
405484,45
406060,39
406640,44
407212,20
407792,17
408364,34
408944,37
409516,34
410092,36
410672,35
411240,18
411824,15
412392,19
412976,12
413544,23
414128,15
414696,32
415276,27
415856,39
416428,26
417008,11
417576,24
418160,43
418728,45
419304,43
419888,44
420456,15
421032,12
421604,12
422184,23
422756,42
423336,26
423904,23
424480,21
425064,12
425632,15
426216,27
426788,22
427368,31
427940,42
428516,40
429096,27
429668,12
430248,21
430816,13
431400,15
431968,15
432552,47
433124,52
433700,19
434280,18
434848,14
435432,17
436000,41
436584,39
437152,17
437732,31
438312,51
438884,60
439464,67
440036,63
440616,39
441188,11
441768,14
442336,19
442916,14
443496,15
444068,22
444648,13
445220,15
445800,42
446372,54
446948,14
447528,47
448100,38
448680,79
449248,81
449832,35
450404,11
450984,15
451552,17
452132,17
452712,15
453284,25
453864,11
454436,19
455016,17
455588,23
456164,11
456744,11
457316,30
457896,44
458468,39
459048,41
459620,18
460200,20
460772,46
461348,37
461928,16
462496,32
463080,85
463652,33
464232,10
464800,51
465376,40
465960,26
466528,53
467112,48
467684,38
468264,78
468836,73
469416,19
469988,45
470564,16
471144,10
471716,12
472296,30
472868,32
473448,40
474020,39
474596,29
475176,43
475748,38
476328,28
476900,24
477480,37
478052,19
478632,37
479212,50
479788,18
480368,31
480940,15
481520,31
482092,46
482672,49
483244,49
483816,20
484400,14
484972,23
485552,30
486124,41
486704,43
487284,52
487864,45
488436,55
489012,59
489592,29
490164,19
490744,36
491316,22
491896,34
492476,56
493052,34
493632,49
494200,65
494784,70
495356,14
495936,38
496516,63
497096,96
497672,86
498244,65
498824,29
499396,11
499976,9
500496,13
501072,21
501644,30
502224,23
502800,15
503372,44
503952,42
504524,13
505104,19
505676,59
506256,101
506880,102
507504,73
508080,62
508652,25
509232,34
509812,60
510392,64
510972,16
511552,21
512132,11
512700,52
513280,46
513848,27
514424,15
514992,10
515568,14
516152,14
516720,13
517304,19
517872,19
518456,17
519024,21
519608,55
520180,67
520752,24
521336,13
521908,20
522488,37
523056,68
523640,85
524208,108
524836,81
525412,20
525984,21
526560,13
527128,15
527712,37
528284,24
528856,11
529440,19
530012,24
530592,18
531164,10
531744,14
532324,19
532904,9
533420,11
533996,14
534576,32
535148,46
535728,22
536300,19
536880,35
537452,23
538032,12
538600,22
539176,33
539760,14
540332,14
540912,12
541484,34
542064,59
542636,74
543212,82
543792,20
544364,14
544944,30
545516,13
546096,15
546664,29
547248,47
547816,35
548396,18
548976,11
549548,23
550128,28
550700,23
551280,24
551852,14
552428,18
553008,18
553576,12
554160,39
554732,16
555312,27
555892,11
556472,13
557044,19
557620,30
558200,46
558772,16
559352,25
559924,13
560504,19
561084,26
561660,18
562240,23
562812,10
563392,15
563964,18
564544,27
565112,34
565696,16
566280,12
566852,14
567432,22
568004,30
568584,17
569156,69
569736,96
570308,73
570884,47
571464,17
572036,19
572616,24
573188,49
573768,58
574348,14
574928,32
575504,22
576076,26
576656,23
577224,42
577808,45
578376,33
578960,11
579528,18
580104,17
580688,10
581260,10
581840,9
582360,15
582936,11
583516,32
584096,19
584672,14
585252,35
585832,43
586404,47
586984,33
587556,22
588136,16
588716,27
589292,34
589872,67
590444,57
591024,57
591596,26
592176,22
592756,84
593336,61
593908,25
594484,13
595064,14
595636,33
596216,40
596796,27
597376,19
597956,23
598532,18
599112,13
599684,35
600264,24
600836,18
601416,13
601996,12
602576,13
603152,18
603724,29
604304,62
604876,84
605456,85
606028,47
606608,25
607188,12
607764,26
608344,59
608916,47
609496,27
610076,13
610656,17
611236,15
611812,13
612392,31
612968,23
613544,11
614120,17
614696,19
615272,43
615856,36
616428,33
617004,24
617584,17
618156,16
618736,40
619316,86
619896,87
620468,95
621044,107
621676,78
622244,19
622824,55
623396,58
623976,12
624556,26
625132,42
625712,23
626284,15
626864,18
627436,14
628016,13
628588,12
629168,13
629740,9
630264,12
630840,57
631412,15
631992,33
632568,41
633144,26
633724,25
634304,34
634888,42
635460,31
636040,14
636612,32
637192,32
637772,24
638352,29
638932,78
639508,50
640092,19
640660,28
641240,57
641808,76
642392,87
642964,64
643536,17
644120,16
644688,17
645272,12
645840,11
646424,10
646992,10
647576,10
648148,10
648720,10
649304,26
649876,54
650456,29
651028,14
651608,15
652188,19
652764,47
653344,48
653916,30
654496,14
655068,35
655648,38
656224,19
656808,10
657376,12
657944,26
658528,14
659096,31
659680,23
660248,17
660832,27
661400,40
661976,36
662560,26
663128,12
663712,9
664232,10
664808,23
665376,10
665960,17
666528,31
667096,32
667680,15
668248,54
668832,112
669452,87
670028,29
670604,10
671184,10
671760,24
672332,35
672912,56
673480,58
674064,63
674632,89
675216,80
675784,17
676364,20
676944,34
677516,43
678096,18
678668,13
679248,38
679816,24
680400,14
680976,36
681544,64
682128,47
682700,56
683280,23
683848,14
684432,26
685004,20
685576,62
686160,67
686728,57
687312,24
687884,12
688464,22
689036,40
689616,53
690192,73
690764,93
691344,114
691968,107
692596,57
693168,54
693740,83
694320,40
694892,14
695472,11
696044,12
696624,39
697196,88
697776,48
698344,16
698924,25
699504,59
700076,44
700656,23
701228,14
701808,14
702388,15
702964,17
703544,10
704116,12
704696,10
705264,11
705848,9
706368,20
706944,41
707516,16
708092,46
708672,47
709244,44
709824,50
710396,43
710976,49
711556,67
712136,70
712720,56
713292,24
713872,13
714444,68
715024,104
715648,59
716224,31
716808,64
717380,53
717960,33
718532,17
719112,24
719684,30
720264,31
720836,39
721408,54
721992,73
722564,50
723144,56
723716,35
724296,33
724868,19
725448,12
726024,15
726596,22
727176,25
727748,15
728328,55
728900,85
729480,71
730052,47
730628,29
731208,22
731780,23
732360,25
732932,57
733512,78
734092,63
734672,48
735248,15
735820,61
736404,114
737024,90
737604,43
738176,15
738760,23
739336,48
739908,40
740488,43
741056,47
741640,55
742212,62
742792,48
743372,30
743948,24
744528,25
745100,17
745680,14
746252,35
746832,36
747404,30
747984,15
748568,22
749140,45
749720,40
750292,22
750872,24
751452,75
752032,75
752612,59
753188,38
753768,18
754340,12
754920,47
755500,33
756080,17
756660,29
757236,63
757816,69
758388,53
758968,36
759540,20
760120,52
760700,46
761280,18
761864,17
762436,10
763016,10
763588,21
764168,20
764748,14
765328,15
765908,11
766484,18
767064,18
767640,22
768220,14
768792,22
769376,29
769944,27
770524,14
771104,11
771676,11
772256,10
772828,14
773408,57
773980,98
774560,101
775196,86
775764,45
776344,43
776916,35
777496,15
778076,13
778656,14
779236,27
779812,40
780392,44
780964,58
781544,51
782116,14
782696,26
783268,30
783844,35
784424,14
784996,71
785576,60
786148,17
786728,19
787300,32
787880,77
788452,94
789028,23
789608,18
790180,53
790760,49
791340,32
791920,84
792500,75
793076,43
793656,14
794228,30
794808,55
795380,52
795960,46
796540,17
797120,14
797704,29
798276,21
798860,14
799432,29
800008,14
800584,26
801160,30
801732,19
802308,51
802888,90
803460,53
804040,15
804608,16
805192,11
805764,19
806344,15
806920,46
807492,90
808072,98
808644,75
809224,31
809796,14
810376,37
810948,48
811524,33
812104,15
812676,21
813256,54
813832,26
814408,11
814988,13
815568,26
816152,44
816724,32
817304,30
817876,63
818456,32
819036,39
819620,32
820192,12
820760,16
821336,15
821904,12
822488,14
823056,13
823632,12
824204,46
824784,42
825360,34
825932,32
826512,22
827080,15
827664,17
828236,13
828816,30
829384,31
829964,16
830544,29
831116,46
831696,45
832268,20
832848,10
833416,11
833992,12
834568,13
835136,22
835720,27
836288,14
836872,17
837440,19
838024,25
838596,14
839168,26
839752,19
840324,30
840904,88
841472,88
842056,75
842628,48
843208,20
843784,30
844356,15
844936,38
845504,47
846088,38
846656,29
847240,76
847812,58
848388,82
848968,82
849536,46
850120,24
850688,18
851272,13
851840,13
852424,17
853000,16
853572,13
854152,17
854724,11
855304,11
855876,11
856456,28
857036,51
857612,80
858192,80
858764,68
859344,48
859916,28
860496,30
861072,73
861652,62
862232,24
862804,12
863384,11
863956,37
864536,51
865116,36
865696,70
866264,87
866840,34
867424,32
867996,81
868576,73
869148,16
869728,25
870300,11
870876,45
871456,43
872028,61
872608,68
873180,43
873760,22
874332,11
874912,23
875484,32
876060,30
876640,14
877212,14
877792,19
878364,20
878944,19
879524,33
880100,71
880680,29
881248,35
881832,26
882404,10
882984,51
883556,65
884136,28
884708,32
885284,59
885864,59
886436,44
887016,13
887588,11
888168,13
888748,10
889324,11
889904,19
890476,24
891056,22
891628,30
892208,29
892788,27
893368,35
893948,50
894528,68
895104,81
895680,104
896308,111
896932,23
897504,68
898080,68
898652,60
899232,94
899804,43
900384,42
900956,53
901536,48
902116,16
902692,78
903272,168
903896,141
904524,31
905092,46
905672,69
906248,56
906816,35
907400,24
907972,40
908552,16
909132,15
909712,27
910284,34
910860,47
911440,33
912012,13
912592,9
913112,27
913688,47
914268,48
914848,41
915420,24
915996,21
916576,37
917148,57
917728,87
918308,76
918892,41
919468,18
920044,12
920624,49
921196,34
921780,23
922348,39
922928,29
923496,19
924080,24
924652,55
925228,52
925808,55
926380,65
926960,57
927540,19
928120,15
928688,27
929268,18
929848,10
930420,10
931000,11
931572,48
932152,86
932732,33
933312,11
933896,18
934468,19
935048,19
935620,50
936200,62
936780,33
937360,24
937940,11
938516,21
939096,26
939672,20
940248,11
940828,15
941408,42
941980,72
942556,63
943136,36
943712,28
944288,43
944860,71
945440,79
946012,73
946592,47
947172,31
947748,76
948328,68
948900,29
949480,59
950052,89
950632,66
951212,37
951788,18
952368,30
952944,49
953520,16
954096,18
954672,80
955252,81
955832,23
956412,41
956992,57
957568,37
958144,17
958720,30
959300,30
959884,35
960460,49
961036,59
961616,49
962188,36
962768,13
963348,12
963928,10
964500,12
965076,15
965656,10
966228,10
966808,11
967380,15
967960,14
968532,22
969112,18
969684,13
970260,10
970840,10
971412,10
971992,11
972572,11
973152,11
973732,15
974308,28
974888,36
975460,35
976040,23
976612,29
977192,33
977772,31
978352,16
978932,20
979508,55
980088,53
980660,41
981240,31
981812,30
982392,11
982972,36
983548,41
984128,41
984700,32
985280,15
985852,60
986432,23
987004,35
987584,34
988156,18
988732,34
989312,16
989884,15
990464,33
991036,51
991616,18
992196,70
992772,25
993352,44
993924,99
994504,98
995076,82
995656,72
996236,40
996816,11
997392,31
997964,22
998544,10
999116,34
999696,25
1000276,15
1000900,15
1001532,34
1002152,34
1002780,82
1003404,72
1004036,22
1004664,15
1005280,26
1005908,19
1006532,13
1007156,10
1007784,15
1008408,51
1009036,67
1009660,58
1010288,43
1010916,40
1011540,21
1012168,10
1012800,20
1013416,17
1014044,16
1014668,22
1015300,11
1015928,27
1016544,31
1017176,61
1017800,33
1018424,16
1019052,16
1019672,15
1020300,11
1020924,12
1021552,10
1022180,30
1022808,68
1023436,90
1024068,98
1024684,65
1025312,14
1025932,15
1026560,13
1027188,22
1027808,24
1028436,29
1029056,29
1029676,20
1030308,10
1030928,10
1031556,12
1032176,11
1032800,11
1033428,14
1034052,13
1034680,14
1035308,18
1035928,30
1036556,51
1037180,87
1037808,122
1038488,123
1039152,103
1039832,26
1040460,155
1041128,110
1041808,61
1042424,101
1043096,63
1043724,17
1044348,20
1044976,15
1045604,10
1046220,10
1046852,16
1047472,28
1048096,15
1048724,10
1049344,11
1049972,12
1050592,23
1051216,29
1051844,18
1052464,21
1053092,15
1053720,33
1054336,26
1054968,25
1055588,13
1056220,23
1056848,12
1057464,15
1058092,24
1058712,44
1059336,46
1059964,48
1060584,46
1061212,50
1061832,24
1062456,10
1063084,10
1063704,41
1064332,76
1064956,72
1065580,53
1066208,33
1066828,18
1067460,12
1068088,13
1068704,19
1069332,20
1069956,10
1070584,12
1071216,17
1071832,23
1072460,42
1073084,56
1073708,48
1074336,23
1074952,21
1075584,37
1076208,41
1076828,40
1077456,68
1078072,113
1078756,122
1079432,117
1080100,46
1080724,96
1081352,198
1082028,197
1082704,153
1083372,76
1083992,41
1084620,19
1085240,13
1085868,16
1086496,25
1087120,48
1087748,46
1088372,48
1089000,47
1089628,32
1090244,27
1090876,31
1091496,33
1092120,32
1092748,19
1093368,16
1093996,16
1094620,17
1095244,24
1095872,43
1096488,24
1097116,16
1097748,20
1098368,46
1098996,23
1099620,76
1100248,52
1100880,39
1101496,29
1102124,21
1102748,19
1103372,34
1104000,32
1104616,17
1105244,13
1105868,42
1106492,56
1107124,63
1107744,79
1108372,70
1109004,52
1109624,39
1110252,17
1110876,32
1111508,17
1112136,11
1112752,21
1113384,17
1114008,10
1114632,11
1115260,27
1115880,31
1116508,32
1117132,29
1117756,21
1118388,15
1119008,19
1119636,22
1120268,16
1120888,12
1121516,10
1122140,13
1122768,11
1123396,47
1124016,88
1124644,87
1125268,72
1125896,35
1126524,24
1127140,53
1127772,39
1128392,20
1129016,15
1129644,22
1130260,23
1130892,11
1131512,28
1132136,23
1132768,18
1133392,19
1134020,13
1134652,16
1135272,16
1135900,20
1136524,24
1137156,14
1137784,34
1138404,10
1139032,11
1139656,21
1140280,46
1140908,68
1141528,56
1142156,26
1142780,14
1143408,17
1144036,15
1144660,15
1145292,24
1145920,39
1146540,11
1147168,53
1147792,63
1148420,54
1149048,38
1149672,39
1150300,110
1150984,88
1151600,34
1152232,15
1152852,17
1153480,20
1154108,10
1154728,17
1155356,11
1155980,15
1156608,23
1157236,23
1157856,21
1158484,18
1159104,14
1159728,19
1160356,24
1160976,19
1161604,30
1162224,36
1162848,26
1163480,31
1164104,11
1164732,34
1165364,30
1165984,20
1166612,30
1167236,17
1167868,14
1168496,36
1169112,75
1169740,59
1170364,60
1170988,62
1171616,19
1172240,120
1172920,92
1173544,41
1174160,11
1174788,19
1175412,19
1176044,18
1176672,22
1177292,13
1177920,11
1178544,10
1179164,20
1179796,28
1180416,33
1181044,29
1181668,12
1182292,11
1182920,12
1183544,13
1184172,13
1184804,34
1185424,52
1186052,61
1186676,83
1187304,101
1187984,79
1188608,37
1189236,20
1189860,18
1190484,11
1191112,11
1191728,15
1192360,15
1192988,22
1193608,29
1194236,21
1194860,13
1195492,15
1196120,26
1196744,25
1197376,34
1198000,19
1198624,22
1199252,26
1199872,37
1200504,48
1201124,16
1201748,14
1202380,27
1203000,16
1203628,12
1204260,12
1204880,13
1205508,13
1206132,10
1206760,19
1207392,27
1208008,37
1208636,50
1209260,57
1209884,48
1210512,32
1211136,12
1211764,29
1212388,14
1213012,32
1213644,44
1214264,24
1214892,37
1215524,65
1216144,101
1216824,48
1217440,19
1218064,21
1218692,16
1219312,13
1219940,22
1220564,13
1221188,12
1221820,12
1222440,12
1223068,13
1223700,38
1224320,82
1224948,67
1225572,61
1226204,78
1226836,86
1227456,20
1228088,47
1228712,32
1229336,12
1229964,40
1230584,69
1231212,56
1231836,12
1232460,39
1233088,46
1233704,43
1234332,33
1234964,32
1235584,43
1236212,48
1236836,44
1237464,39
1238092,13
1238712,18
1239340,31
1239964,41
1240588,55
1241216,47
1241840,25
1242468,43
1243092,55
1243716,66
1244344,68
1244968,19
1245596,70
1246228,63
1246848,88
1247476,38
1248100,12
1248728,22
1249360,44
1249976,30
1250604,14
1251228,14
1251852,21
1252480,27
1253096,11
1253724,13
1254348,13
1254976,37
1255604,57
1256224,71
1256852,71
1257484,29
1258104,11
1258732,14
1259356,13
1259988,16
1260616,17
1261240,10
1261868,11
1262492,17
1263116,45
1263748,46
1264368,17
1264996,11
1265620,10
1266244,11
1266872,18
1267496,15
1268124,67
1268756,66
1269376,31
1270008,13
1270628,36
1271260,55
1271892,56
1272512,44
1273140,16
1273764,14
1274388,17
1275020,16
1275640,23
1276268,43
1276892,51
1277516,47
1278148,30
1278768,30
1279400,47
1280028,67
1280644,50
1281272,14
1281892,68
1282524,30
1283152,22
1283768,17
1284396,15
1285020,45
1285640,92
1286268,76
1286888,12
1287516,56
1288140,168
1288812,129
1289488,51
1290104,12
1290732,30
1291360,52
1291984,61
1292612,44
1293236,30
1293856,31
1294488,35
1295104,11
1295732,31
1296356,20
1296980,11
1297608,10
1298224,11
1298852,11
1299480,12
1300104,19
1300732,35
1301356,18
1301984,15
1302612,17
1303232,21
1303860,20
1304484,22
1305108,18
1305736,13
1306352,18
1306984,41
1307608,44
1308228,50
1308860,36
1309480,19
1310108,14
1310736,19
1311356,20
1311988,10
1312612,10
1313240,13
1313868,14
1314484,31
1315116,38
1315736,43
1316360,26
1316988,12
1317604,14
1318236,31
1318856,30
1319480,13
1320108,26
1320724,32
1321356,33
1321976,32
1322600,12
1323228,12
1323852,26
1324480,35
1325108,20
1325728,22
1326356,14
1326980,33
1327608,49
1328236,41
1328856,20
1329484,10
1330104,20
1330728,32
1331356,43
1331972,22
1332604,11
1333224,15
1333844,15
1334472,14
1335092,14
1335724,25
1336352,15
1336968,39
1337596,14
1338220,40
1338848,30
1339476,58
1340096,90
1340724,127
1341400,71
1342016,17
1342644,30
1343264,21
1343892,43
1344524,19
1345140,16
1345772,25
1346392,30
1347020,39
1347648,31
1348272,68
1348900,49
1349520,61
1350148,46
1350780,18
1351400,22
1352028,28
1352652,20
1353272,17
1353900,30
1354520,65
1355148,57
1355772,16
1356400,21
1357028,47
1357652,61
1358280,57
1358908,43
1359528,26
1360156,15
1360780,12
1361408,11
1362036,10
1362652,22
1363284,16
1363904,11
1364528,15
1365156,10
1365776,27
1366404,20
1367024,13
1367648,15
1368280,15
1368900,14
1369532,31
1370160,53
1370784,60
1371412,51
1372036,29
1372668,11
1373296,36
1373912,20
1374540,19
1375164,24
1375788,22
1376420,20
1377040,24
1377668,16
1378288,10
1378912,10
1379540,10
1380164,11
1380792,18
1381424,42
1382040,66
1382672,55
1383296,26
1383924,14
1384552,24
1385168,23
1385800,16
1386420,29
1387044,49
1387672,40
1388296,47
1388924,41
1389548,52
1390172,54
1390800,22
1391424,29
1392052,35
1392684,30
1393304,16
1393932,19
1394552,33
1395184,21
1395812,12
1396432,11
1397060,32
1397684,37
1398308,39
1398936,47
1399560,83
1400188,19
1400812,37
1401436,54
1402064,46
1402688,51
1403316,60
1403944,28
1404568,17
1405196,27
1405820,13
1406452,11
1407080,13
1407696,47
1408328,49
1408948,38
1409572,46
1410200,41
1410820,16
1411448,35
1412072,33
1412692,33
1413324,14
1413944,10
1414572,14
1415200,23
1415816,21
1416444,17
1417068,16
1417696,17
1418328,22
1418944,16
1419572,10
1420196,11
1420820,12
1421448,18
1422064,27
1422692,29
1423316,38
1423940,37
1424572,48
1425192,31
1425820,21
1426452,12
1427072,16
1427700,17
1428324,18
1428956,24
1429584,36
1430204,16
1430832,14
1431456,19
1432080,18
1432712,35
1433332,43
1433960,43
1434584,46
1435208,30
1435836,12
1436456,13
1437084,15
1437716,22
1438336,10
1438964,24
1439588,11
1440220,43
1440848,62
1441464,81
1442092,82
1442712,28
1443336,61
1443964,32
1444584,19
1445212,59
1445832,69
1446456,75
1447084,40
1447704,19
1448332,10
1448956,11
1449576,15
1450208,16
1450832,25
1451460,19
1452092,19
1452712,15
1453340,12
1453964,20
1454596,17
1455224,15
1455840,22
1456472,25
1457096,30
1457716,54
1458348,47
1458968,37
1459596,16
1460220,54
1460848,61
1461476,36
1462100,18
1462728,17
1463356,16
1463976,17
1464604,15
1465228,11
1465860,10
1466488,15
1467104,19
1467736,18
1468360,24
1468984,30
1469612,29
1470232,25
1470860,27
1471484,28
1472112,24
1472740,12
1473364,13
1473992,12
1474624,24
1475240,19
1475868,21
1476492,21
1477120,17
1477748,14
1478368,40
1478996,97
1479620,87
1480244,61
1480872,58
1481496,57
1482124,190
1482804,131
1483476,71
1484104,32
1484724,14
1485348,18
1485980,22
1486600,19
1487228,23
1487852,41
1488476,37
1489104,15
1489720,13
1490348,12
1490980,46
1491600,65
1492228,62
1492852,51
1493480,36
1494108,11
1494728,20
1495356,12
1495980,11
1496604,27
1497236,66
1497856,52
1498484,32
1499108,25
1499732,75
1500360,56
1500984,31
1501612,16
1502244,15
1502864,22
1503492,43
1504116,50
1504748,51
1505376,46
1506000,36
1506628,32
1507252,36
1507876,37
1508504,34
1509128,29
1509756,21
1510380,15
1511008,16
1511636,26
1512264,23
1512892,19
1513524,14
1514144,14
1514776,17
1515400,13
1516028,11
1516660,19
1517280,29
1517908,13
1518532,15
1519156,16
1519788,35
1520408,58
1521036,46
1521660,16
1522288,11
1522916,33
1523540,37
1524172,41
1524800,50
1525416,41
1526048,20
1526672,16
1527300,22
1527932,33
1528552,79
1529184,91
1529808,52
1530428,11
1531060,54
1531680,96
1532308,107
1532992,60
1533608,27
1534236,13
1534864,16
1535496,18
1536128,27
1536740,15
1537372,11
1537992,17
1538616,17
1539244,18
1539860,25
1540492,33
1541112,32
1541736,25
1542368,21
1542992,19
1543620,22
1544252,32
1544872,44
1545500,24
1546124,17
1546756,19
1547384,29
1548000,33
1548632,27
1549256,22
1549880,21
1550508,39
1551128,33
1551756,26
1552384,39
1553008,13
1553636,11
1554260,19
1554892,11
1555520,24
1556136,35
1556768,35
1557392,30
1558020,28
1558652,28
1559272,29
1559900,23
1560524,13
1561148,13
1561780,12
1562400,20
1563028,21
1563656,16
1564276,19
1564904,13
1565528,11
1566156,16
1566788,19
1567408,18
1568036,14
1568660,13
1569284,11
1569912,26
1570536,37
1571164,26
1571792,26
1572416,26
1573044,28
1573664,31
1574292,11
1574924,14
1575544,16
1576172,41
1576796,60
1577428,36
1578060,27
1578680,12
1579308,28
1579932,40
1580560,40
1581188,23
1581808,19
1582436,10
1583060,15
1583684,23
1584316,34
1584936,42
1585564,42
1586196,42
1586816,12
1587448,20
1588068,18
1588700,10
1589328,11
1589948,17
1590576,13
1591200,14
1591824,29
1592456,39
1593072,28
1593704,15
1594328,12
1594952,11
1595580,14
1596200,29
1596828,32
1597460,42
1598080,44
1598708,17
1599336,22
1599964,67
1600596,81
1601212,88
1601844,57
1602464,14
1603088,128
1603768,95
1604384,38
1605012,25
1605640,22
1606264,13
1606892,24
1607516,47
1608144,74
1608772,82
1609392,64
1610020,26
1610644,47
1611268,41
1611900,16
1612520,15
1613148,18
1613772,15
1614396,39
1615024,11
1615648,14
1616276,16
1616908,24
1617528,79
1618156,97
1618780,25
1619408,71
1620040,92
1620656,65
1621284,36
1621908,19
1622536,60
1623164,40
1623784,36
1624412,74
1625036,76
1625660,65
1626288,53
1626912,45
1627540,38
1628168,65
1628792,43
1629420,27
1630044,21
1630676,14
1631308,19
1631928,39
1632560,46
1633184,35
1633808,16
1634436,51
1635056,55
1635688,57
1636312,18
1636936,32
1637564,30
1638184,11
1638816,15
1639440,23
1640060,39
1640688,43
1641308,27
1641936,22
1642564,18
1643180,15
1643812,38
1644432,25
1645060,33
1645688,58
1646304,77
1646932,68
1647556,17
1648176,108
1648856,85
1649476,63
1650104,21
1650732,19
1651352,22
1651980,23
1652600,46
1653228,13
1653856,14
1654472,11
1655100,10
1655724,17
1656344,41
1656972,71
1657592,69
1658220,46
1658844,20
1659468,53
1660096,45
1660712,35
1661340,25
1661968,22
1662592,24
1663220,23
1663844,19
1664472,14
1665100,16
1665716,20
1666348,14
1666968,13
1667588,29
1668216,61
1668840,48
1669468,27
1670088,19
1670708,22
1671340,59
1671960,37
1672588,11
1673208,18
1673832,41
1674460,63
1675084,16
1675712,14
1676340,24
1676960,28
1677588,13
1678212,11
1678840,11
1679468,10
1680088,14
1680712,10
1681336,11
1681956,11
1682584,18
1683204,21
1683832,14
1684456,25
1685080,17
1685708,12
1686328,11
1686956,10
1687584,15
1688200,11
1688832,17
1689452,43
1690084,53
1690712,48
1691328,32
1691956,14
1692576,13
1693200,15
1693828,24
1694448,20
1695076,18
1695700,10
1696320,18
1696948,43
1697568,52
1698196,50
1698824,22
1699440,50
1700072,43
1700692,16
1701320,46
1701948,42
1702568,14
1703196,13
1703820,13
1704448,19
1705076,37
1705696,13
1706324,11
1706944,28
1707568,35
1708200,13
1708816,19
1709444,28
1710068,27
1710692,11
1711320,17
1711944,37
1712572,42
1713204,38
1713824,26
1714452,11
1715076,49
1715708,82
1716336,75
1716956,41
1717584,15
1718208,16
1718832,11
1719460,10
1720080,19
1720708,10
1721332,10
1721956,18
1722584,39
1723208,49
1723836,54
1724464,41
1725080,27
1725712,15
1726336,17
1726964,13
1727592,13
1728216,17
1728844,11
1729468,13
1730088,12
1730716,32
1731336,45
1731964,12
1732588,29
1733208,17
1733840,14
1734456,43
1735084,62
1735716,18
1736336,17
1736964,49
1737588,64
1738216,25
1738848,14
1739464,28
1740092,47
1740716,58
1741344,60
1741972,52
1742592,49
1743220,39
1743844,36
1744468,22
1745096,11
1745712,13
1746340,11
1746972,14
1747592,13
1748220,15
1748844,13
1749472,18
1750100,21
1750720,16
1751348,14
1751972,22
1752596,18
1753228,14
1753848,11
1754476,15
1755100,20
1755724,13
1756352,19
1756976,82
1757604,109
1758284,97
1758904,84
1759532,30
1760160,56
1760780,70
1761408,40
1762032,18
1762660,15
1763280,14
1763904,11
1764532,10
1765152,9
1765728,10
1766352,13
1766976,17
1767604,14
1768224,16
1768852,18
1769480,18
1770096,15
1770728,11
1771352,15
1771980,11
1772608,16
1773232,35
1773860,60
1774484,62
1775108,56
1775740,46
1776360,17
1776988,36
1777612,13
1778236,10
1778864,10
1779488,11
1780116,45
1780748,42
1781368,23
1781996,18
1782620,25
1783252,31
1783880,23
1784500,14
1785128,32
1785752,41
1786376,25
1787004,12
1787624,13
1788252,11
1788876,32
1789500,47
1790132,33
1790752,11
1791380,17
1792012,19
1792628,14
1793260,16
1793880,11
1794512,33
1795140,44
1795760,19
1796388,10
1797012,10
1797636,23
1798268,34
1798888,37
1799516,36
1800140,33
1800764,15
1801392,13
1802016,11
1802644,21
1803272,36
1803896,47
1804524,45
1805148,36
1805776,29
1806404,38
1807024,49
1807652,46
1808276,28
1808900,27
1809528,23
1810152,18
1810780,11
1811404,21
1812028,20
1812656,34
1813272,14
1813900,19
1814524,14
1815152,23
1815780,33
1816404,23
1817032,24
1817664,59
1818280,43
1818908,22
1819532,24
1820160,11
1820788,10
1821408,13
1822036,29
1822660,70
1823284,102
1823968,110
1824636,78
1825260,33
1825892,48
1826512,67
1827140,43
1827764,50
1828388,19
1829016,17
1829640,11
1830268,12
1830892,26
1831516,23
1832148,41
1832772,73
1833400,44
1834032,14
1834648,33
1835280,14
1835904,37
1836532,32
1837164,30
1837784,14
1838412,11
1839036,18
1839660,23
1840292,27
1840912,29
1841540,24
1842164,22
1842788,22
1843420,14
1844044,15
1844672,17
1845300,17
1845920,17
1846548,14
1847168,10
1847800,13
1848428,14
1849044,13
1849676,13
1850296,13
1850920,13
1851548,16
1852168,11
1852796,10
1853420,11
1854044,12
1854676,11
1855300,16
1855928,23
1856560,26
1857176,34
1857804,37
1858428,33
1859056,24
1859684,31
1860304,48
1860932,61
1861556,68
1862180,58
1862808,17
1863432,72
1864060,95
1864684,45
1865308,11
1865936,15
1866552,26
1867180,41
1867812,50
1868432,68
1869060,43
1869684,30
1870312,17
1870944,79
1871564,90
1872192,54
1872816,61
1873436,21
1874068,34
1874688,56
1875316,60
1875940,55
1876564,38
1877192,15
1877816,21
1878444,25
1879076,27
1879696,19
1880324,11
1880948,11
1881580,18
1882212,49
1882832,49
1883460,28
1884088,14
1884712,30
1885340,62
1885960,105
1886640,47
1887268,15
1887888,46
1888516,67
1889140,81
1889772,76
1890400,30
1891020,14
1891648,15
1892272,23
1892896,26
1893524,22
1894144,11
1894776,18
1895396,25
1896020,34
1896648,50
1897272,51
1897900,27
1898532,16
1899152,26
1899784,29
1900404,21
1901036,15
1901668,14
1902288,16
1902916,28
1903540,45
1904168,48
1904796,43
1905416,39
1906044,38
1906668,33
1907292,24
1907924,26
1908548,23
1909176,18
1909808,13
1910424,11
1911052,19
1911676,31
1912308,25
1912940,12
1913560,11
1914192,12
1914816,11
1915440,30
1916072,53
1916688,40
1917320,23
1917944,15
1918568,42
1919200,92
1919824,91
1920456,93
1921084,93
1921704,28
1922332,96
1922956,37
1923584,19
1924216,32
1924832,17
1925460,13
1926084,36
1926708,75
1927336,63
1927952,14
1928584,12
1929208,23
1929828,40
1930460,15
1931084,72
1931712,67
1932340,23
1932960,17
1933588,20
1934212,27
1934844,34
1935472,24
1936088,16
1936720,20
1937340,13
1937964,11
1938596,10
1939216,16
1939844,25
1940468,43
1941092,55
1941724,73
1942348,79
1942980,73
1943608,50
1944232,12
1944864,59
1945488,77
1946116,84
1946748,44
1947368,23
1947996,26
1948620,22
1949244,13
1949876,13
1950496,13
1951124,31
1951756,50
1952376,28
1953004,12
1953628,10
1954256,14
1954888,16
1955504,12
1956136,11
1956760,23
1957384,41
1958012,39
1958632,53
1959260,55
1959884,41
1960508,36
1961140,18
1961760,15
1962388,31
1963020,16
1963640,25
1964268,66
1964892,76
1965524,57
1966152,17
1966776,60
1967404,32
1968028,18
1968648,10
1969276,16
1969896,44
1970524,68
1971148,60
1971772,23
1972400,114
1973076,75
1973700,16
1974332,18
1974952,33
1975580,44
1976204,50
1976836,52
1977464,48
1978080,40
1978712,18
1979336,38
1979960,69
1980588,51
1981208,26
1981836,13
1982460,13
1983088,13
1983716,62
1984344,65
1984972,44
1985600,29
1986216,11
1986848,31
1987472,54
1988100,59
1988728,78
1989348,85
1989976,69
1990600,32
1991224,15
1991852,40
1992472,35
1993100,33
1993724,10
1994352,15
1994980,11
1995604,11
1996236,24
1996864,34
1997488,13
1998116,35
1998740,41
1999364,38
1999996,26
2000616,36
2001244,66
2001868,39
2002492,37
2003120,13
2003744,32
2004372,21
2005004,13
2005624,25
2006252,19
2006876,12
2007508,43
2008136,37
2008752,32
2009384,40
2010008,16
2010628,63
2011260,73
2011880,46
2012508,58
2013132,49
2013756,16
2014384,10
2015008,10
2015636,14
2016268,37
2016888,50
2017516,35
2018140,27
2018768,22
2019400,12
2020016,10
2020644,15
2021268,25
2021892,27
2022524,29
2023144,37
2023772,41
2024396,27
2025020,25
2025652,35
2026272,37
2026900,30
2027532,18
2028152,11
2028780,53
2029408,79
2030036,47
2030668,24
2031288,22
2031916,19
2032544,15
2033168,22
2033796,14
2034416,25
2035044,56
2035672,42
2036296,29
2036924,39
2037544,31
2038176,37
2038804,26
2039424,16
2040052,73
2040680,109
2041360,76
2041984,41
2042600,45
2043232,69
2043856,76
2044480,49
2045108,29
2045728,27
2046360,11
2046988,17
2047608,33
2048240,71
2048860,48
2049488,18
2050116,77
2050732,63
2051360,44
2051984,57
2052612,47
2053240,26
2053856,27
2054484,14
2055104,11
2055724,29
2056356,14
2056972,71
2057604,112
2058284,109
2058952,80
2059580,57
2060204,29
2060824,99
2061452,81
2062068,49
2062700,37
2063324,26
2063944,26
2064576,22
2065192,17
2065820,14
2066448,30
2067072,49
2067700,50
2068324,50
2068952,27
2069580,20
2070200,29
2070828,13
2071452,12
2072076,16
2072704,17
2073320,30
2073952,63
2074572,57
2075196,30
2075828,26
2076448,52
2077076,73
2077704,49
2078328,31
2078956,38
2079580,13
2080208,34
2080840,13
2081452,12
2082084,52
2082704,55
2083332,37
2083960,42
2084584,19
2085212,60
2085832,35
2086456,25
2087084,23
2087704,35
2088332,24
2088952,12
2089576,20
2090208,11
2090828,37
2091460,20
2092088,13
2092704,19
2093332,24
2093956,29
2094584,18
2095216,45
2095832,35
2096460,13
2097084,13
2097708,20
2098336,21
2098960,36
2099588,63
2100212,55
2100836,15
2101464,27
2102084,53
2102716,66
2103344,62
2103964,14
2104592,24
2105216,32
2105844,35
2106472,28
2107096,19
2107724,35
2108348,15
2108972,15
2109600,14
2110224,13
2110852,34
2111476,31
2112100,30
2112728,28
2113352,19
2113980,10
2114608,18
2115232,22
2115860,58
2116484,71
2117112,80
2117740,79
2118360,29
2118988,84
2119612,13
2120236,41
2120868,99
2121488,112
2122168,60
2122792,49
2123408,115
2124088,138
2124764,68
2125384,22
2126012,24
2126632,24
2127260,11
2127892,10
2128512,12
2129140,31
2129764,43
2130396,49
2131024,40
2131640,12
2132272,31
2132892,28
2133516,34
2134148,22
2134768,14
2135396,13
2136020,12
2136644,12
2137272,11
2137888,10
2138520,36
2139148,54
2139768,56
2140396,47
2141020,61
2141652,66
2142280,54
2142896,35
2143528,11
2144152,54
2144772,89
2145404,84
2146024,59
2146652,36
2147276,24
2147900,15
2148528,11
2149148,18
2149776,33
2150404,14
2151020,17
2151652,10
2152276,28
2152904,48
2153532,50
2154152,52
2154780,71
2155404,43
2156036,23
2156664,19
2157280,15
2157908,46
2158532,72
2159156,39
2159788,16
2160408,13
2161036,11
2161660,14
2162288,23
2162916,26
2163540,26
2164168,33
2164796,56
2165416,59
2166044,14
2166668,17
2167300,23
2167928,88
2168548,88
2169176,75
2169800,51
2170424,13
2171052,36
2171672,55
2172300,73
2172924,74
2173552,60
2174180,39
2174804,17
2175436,14
2176064,13
2176680,20
2177308,40
2177932,40
2178560,17
2179188,10
2179808,11
2180436,10
2181060,25
2181684,21
2182312,29
2182936,55
2183564,71
2184188,34
2184816,15
2185444,34
2186068,21
2186696,16
2187328,73
2187944,83
2188572,19
2189196,58
2189828,70
2190456,70
2191080,55
2191708,16
2192332,47
2192956,37
2193588,21
2194208,11
2194836,25
2195468,14
2196088,15
2196716,10
2197340,31
2197972,52
2198600,14
2199224,19
2199852,18
2200476,16
2201100,15
2201732,24
2202352,29
2202980,11
2203604,11
2204228,15
2204856,11
2205472,24
2206104,51
2206732,78
2207352,57
2207980,38
2208608,25
2209236,15
2209864,30
2210488,40
2211116,33
2211744,25
2212368,21
2212996,11
2213616,43
2214244,33
2214868,33
2215492,31
2216120,60
2216744,119
2217424,78
2218056,31
2218672,12
2219300,20
2219924,37
2220552,25
2221180,17
2221800,40
2222428,60
2223052,78
2223676,82
2224308,24
2224928,13
2225556,15
2226188,24
2226808,11
2227436,20
2228060,19
2228692,17
2229320,20
2229944,22
2230572,14
2231196,12
2231824,27
2232452,31
2233072,17
2233700,23
2234324,23
2234948,15
2235580,17
2236200,13
2236828,16
2237460,24
2238080,13
2238708,15
2239336,15
2239968,12
2240600,16
2241216,17
2241844,15
2242468,14
2243092,14
2243720,26
2244344,31
2244972,27
2245596,15
2246220,11
2246852,27
2247472,30
2248100,11
2248732,28
2249352,15
2249980,16
2250604,19
2251236,25
2251864,50
2252488,62
2253116,47
2253740,56
2254364,71
2254992,29
2255616,15
2256244,22
2256868,45
2257488,44
2258120,14
2258736,36
2259364,15
2259992,23
2260616,20
2261244,22
2261868,109
2262548,117
2263224,46
2263848,43
2264476,50
2265108,47
2265728,35
2266356,54
2266980,17
2267608,48
2268240,71
2268856,77
2269488,61
2270112,14
2270736,21
2271364,16
2271984,38
2272616,65
2273240,72
2273864,17
2274492,31
2275112,32
2275744,15
2276372,12
2276992,11
2277620,17
2278244,20
2278876,11
2279504,24
2280128,16
2280756,16
2281380,25
2282004,23
2282636,58
2283256,46
2283884,24
2284508,27
2285132,43
2285764,28
2286384,36
2287012,46
2287644,39
2288264,50
2288892,69
2289516,73
2290148,47
2290776,13
2291400,28
2292028,32
2292652,15
2293276,10
2293908,10
2294528,10
2295156,11
2295780,25
2296404,40
2297032,40
2297656,40
2298284,43
2298916,40
2299536,24
2300164,39
2300788,31
2301420,53
2302052,41
2302672,14
2303304,39
2303928,114
2304604,93
2305228,35
2305848,11
2306476,32
2307104,49
2307724,49
2308352,48
2308976,57
2309604,37
2310232,19
2310856,12
2311484,10
2312108,11
2312732,9
2313312,13
2313936,28
2314564,29
2315188,43
2315812,32
2316444,36
2317064,27
2317692,15
2318316,29
2318940,19
2319572,33
2320196,103
2320876,126
2321552,115
2322220,98
2322844,21
2323476,30
2324096,17
2324724,13
2325348,24
2325976,15
2326608,36
2327224,25
2327856,10
2328480,11
2329104,29
2329732,58
2330352,47
2330980,59
2331604,56
2332228,35
2332860,30
2333480,27
2334108,18
2334740,12
2335360,25
2335988,19
2336612,15
2337244,12
2337872,9
2338444,18
2339076,40
2339700,49
2340332,46
2340960,49
2341584,56
2342212,47
2342840,18
2343460,11
2344092,10
2344712,49
2345340,38
2345964,25
2346588,39
2347220,42
2347844,47
2348472,20
2349104,97
2349724,90
2350352,78
2350980,44
2351608,11
2352240,29
2352856,48
2353484,41
2354112,14
2354736,11
2355368,26
2355984,41
2356612,51
2357236,22
2357860,17
2358492,14
2359116,14
2359744,11
2360372,12
2360992,16
2361620,28
2362244,37
2362876,34
2363504,27
2364128,14
2364760,15
2365384,17
2366008,14
2366636,24
2367256,19
2367888,22
2368516,24
2369136,47
2369764,17
2370388,21
2371020,39
2371652,42
2372272,45
2372900,43
2373524,15
2374152,46
2374780,19
2375400,85
2376032,121
2376712,91
2377328,75
2377956,29
2378580,71
2379212,122
2379892,85
2380512,57
2381144,35
2381764,20
2382388,15
2383020,14
2383640,20
2384268,27
2384892,22
2385520,33
2386152,21
2386776,24
2387404,24
2388036,27
2388656,29
2389284,31
2389908,45
2390536,40
2391164,24
2391784,26
2392416,20
2393040,16
2393664,14
2394292,10
2394912,17
2395544,35
2396172,36
2396792,37
2397424,13
2398048,10
2398680,14
2399308,19
2399928,36
2400560,49
2401184,65
2401808,93
2402436,68
2403056,15
2403684,33
2404308,28
2404932,67
2405564,36
2406184,15
2406816,36
2407444,54
2408064,48
2408692,40
2409316,15
2409944,27
2410576,14
2411192,13
2411824,10
2412448,11
2413072,18
2413700,25
2414320,25
2414948,11
2415576,14
2416200,15
2416828,20
2417448,18
2418076,48
2418708,45
2419328,21
2419956,40
2420580,35
2421212,17
2421840,22
2422464,67
2423092,50
2423716,19
2424340,17
2424972,14
2425592,26
2426224,35
2426848,59
2427472,76
2428104,62
2428720,38
2429352,21
2429980,57
2430600,107
2431284,70
2431904,48
2432532,27
2433160,16
2433780,35
2434408,59
2435032,68
2435656,57
2436284,19
2436904,38
2437536,28
2438164,18
2438784,42
2439412,50
2440036,41
2440668,15
2441296,15
2441916,18
2442544,69
2443168,29
2443796,30
2444424,59
2445044,26
2445672,89
2446296,80
2446920,103
2447600,75
2448224,69
2448852,58
2449484,14
2450104,15
2450732,23
2451360,35
2451984,31
2452616,12
2453232,33
2453864,51
2454488,70
2455112,82
2455744,65
2456364,51
2456992,39
2457624,33
2458240,24
2458868,13
2459488,11
2460120,14
2460748,16
2461368,13
2461996,18
2462620,12
2463244,16
2463872,38
2464496,39
2465124,36
2465748,24
2466372,14
2467000,16
2467616,17
2468248,17
2468876,22
2469496,22
2470124,15
2470748,11
2471376,26
2472008,58
2472624,72
2473252,66
2473876,52
2474504,41
2475132,44
2475752,42
2476380,23
2477008,33
2477628,59
2478260,54
2478880,15
2479508,59
2480140,80
2480760,66
2481388,12
2482012,80
2482640,44
2483268,44
2483888,43
2484516,14
2485140,20
2485764,22
2486396,13
2487016,33
2487644,10
2488268,19
2488896,64
2489524,55
2490144,24
2490772,20
2491404,16
2492024,16
2492652,13
2493280,14
2493908,13
2494540,12
2495160,11
2495792,13
2496416,21
2497040,16
2497668,16
2498288,14
2498916,17
2499540,21
2500164,15
2500792,14
2501412,10
2502040,11
2502672,15
2503288,25
2503920,31
2504544,28
2505172,24
2505804,25
2506424,27
2507052,33
2507676,35
2508304,39
2508932,37
2509552,21
2510180,14
2510804,17
2511428,33
2512060,20
2512680,13
2513308,27
2513940,16
2514560,43
2515188,52
2515816,40
2516444,34
2517076,45
2517696,64
2518328,47
2518952,30
2519576,17
2520208,17
2520824,43
2521452,66
2522080,76
2522704,79
2523332,94
2523952,89
2524584,73
2525212,14
2525832,15
2526464,33
2527088,35
2527716,20
2528348,38
2528968,45
2529596,11
2530220,13
2530848,41
2531476,155
2532148,176
2532828,132
2533508,80
2534128,34
2534760,15
2535384,27
2536008,28
2536636,14
2537256,11
2537888,28
2538516,38
2539136,92
2539768,94
2540392,62
2541024,16
2541652,20
2542272,15
2542900,17
2543528,21
2544152,13
2544780,10
2545400,11
2546032,15
2546656,14
2547280,10
2547908,14
2548528,16
2549156,22
2549788,14
2550408,15
2551036,22
2551664,69
2552296,96
2552924,86
2553544,48
2554176,39
2554800,17
2555424,77
2556056,55
2556676,33
2557308,16
2557932,14
2558556,13
2559188,22
2559816,26
2560448,33
2561076,10
2561692,36
2562320,55
2562944,36
2563572,33
2564200,22
2564816,17
2565444,27
2566064,32
2566688,27
2567316,16
2567936,16
2568564,16
2569188,27
2569812,11
2570440,11
2571056,38
2571684,42
2572312,56
2572936,48
2573564,60
2574188,31
2574816,16
2575444,14
2576064,38
2576692,64
2577316,91
2577936,81
2578568,39
2579184,21
2579812,32
2580436,37
2581060,17
2581692,14
2582312,15
2582940,14
2583572,17
2584192,27
2584820,32
2585444,32
2586076,38
2586704,41
2587320,47
2587948,57
2588572,53
2589196,48
2589824,62
2590448,46
2591076,13
2591700,21
2592324,18
2592952,9
2593520,10
2594148,16
2594772,35
2595396,48
2596028,69
2596648,54
2597276,48
2597904,37
2598528,29
2599156,19
2599780,15
2600412,14
2601040,20
2601656,33
2602284,37
2602908,35
2603532,29
2604160,22
2604776,18
2605408,20
2606032,56
2606656,60
2607284,43
2607904,40
2608536,62
2609164,42
2609784,33
2610412,33
2611040,17
2611668,74
2612300,110
2612972,80
2613596,23
2614220,19
2614844,23
2615476,12
2616096,26
2616724,48
2617356,51
2617976,41
2618604,36
2619228,14
2619860,58
2620488,62
2621112,38
2621744,39
2622364,19
2622988,34
2623616,36
2624240,37
2624868,28
2625488,17
2626108,13
2626740,23
2627356,11
2627988,11
2628616,11
2629232,15
2629860,22
2630484,16
2631112,27
2631740,35
2632360,30
2632988,30
2633612,19
2634240,11
2634868,14
2635488,14
2636116,11
2636740,12
2637364,22
2637992,46
2638616,64
2639244,78
2639868,90
2640496,91
2641124,30
2641748,21
2642376,46
2643004,70
2643624,13
2644252,19
2644872,29
2645504,75
2646132,138
2646804,99
2647428,32
2648052,24
2648676,41
2649304,43
2649928,22
2650556,14
2651184,10
2651804,10
2652432,26
2653056,56
2653684,48
2654312,13
2654936,32
2655564,49
2656188,23
2656812,31
2657440,41
2658056,50
2658688,42
2659308,45
2659932,50
2660564,12
2661184,27
2661816,42
2662444,51
2663060,14
2663688,29
2664312,79
2664940,97
2665568,54
2666192,40
2666820,47
2667444,18
2668064,10
2668692,64
2669312,93
2669940,65
2670564,21
2671184,20
2671816,10
2672432,16
2673064,29
2673692,14
2674312,17
2674940,37
2675564,62
2676192,84
2676820,79
2677440,45
2678068,10
2678692,29
2679316,41
2679944,56
2680564,64
2681192,59
2681816,33
2682436,25
2683068,36
2683688,28
2684316,30
2684944,33
2685568,42
2686196,42
2686820,37
2687448,10
2688080,10
2688696,18
2689324,19
2689944,14
2690568,17
2691196,22
2691816,20
2692444,14
2693068,11
2693692,14
2694320,14
2694936,12
2695568,12
2696196,28
2696816,63
2697444,33
2698068,12
2698696,14
2699324,101
2699996,102
2700676,38
2701296,17
2701920,11
2702548,11
2703172,11
2703804,23
2704432,35
2705048,35
2705680,61
2706300,52
2706932,48
2707560,36
2708176,38
2708808,15
2709428,27
2710052,38
2710684,38
2711304,42
2711932,24
2712560,10
2713180,11
2713812,10
2714436,17
2715064,15
2715692,14
2716312,23
2716940,23
2717564,26
2718196,51
2718824,22
2719444,21
2720072,22
2720692,17
2721316,12
2721944,23
2722560,57
2723192,53
2723816,32
2724440,15
2725068,26
2725688,23
2726316,17
2726944,18
2727568,11
2728196,29
2728820,25
2729448,12
2730076,16
2730696,27
2731324,64
2731948,80
2732572,66
2733204,68
2733824,33
2734452,53
2735076,32
2735700,22
2736328,12
2736952,27
2737580,11
2738212,16
2738832,13
2739460,17
2740084,25
2740716,27
2741344,17
2741960,35
2742592,39
2743216,12
2743840,30
2744468,39
2745088,22
2745716,64
2746340,67
2746964,30
2747592,20
2748212,31
2748840,25
2749468,24
2750088,31
2750716,53
2751344,57
2751972,35
2752604,45
2753224,52
2753852,24
2754476,16
2755100,12
2755732,19
2756352,17
2756980,14
2757604,15
2758228,31
2758860,39
2759480,40
2760108,29
2760740,11
2761360,29
2761988,33
2762612,21
2763244,12
2763872,16
2764496,9
2765072,13
2765704,13
2766332,15
2766960,15
2767584,17
2768212,34
2768836,17
2769460,10
2770088,12
2770704,14
2771336,12
2771960,12
2772584,18
2773212,17
2773836,27
2774468,30
2775096,19
2775716,23
2776344,36
2776968,19
2777596,20
2778228,32
2778848,35
2779476,31
2780104,23
2780728,11
2781356,29
2781976,36
2782608,36
2783236,25
2783856,24
2784488,46
2785112,37
2785740,29
2786372,17
2786992,15
2787620,20
2788244,47
2788868,38
2789500,31
2790120,15
2790748,17
2791372,17
2791996,15
2792628,24
2793248,25
2793876,10
2794508,10
2795128,22
2795756,37
2796384,17
2797012,82
2797644,32
2798264,27
2798892,15
2799516,17
2800144,59
2800772,88
2801392,47
2802020,27
2802644,29
2803268,25
2803896,24
2804516,12
2805144,39
2805772,55
2806392,45
2807020,41
2807644,37
2808276,28
2808904,16
2809528,15
2810156,19
2810784,17
2811408,11
2812036,10
2812656,10
2813284,11
2813908,20
2814536,34
2815164,16
2815784,24
2816416,41
2817044,39
2817664,65
2818292,64
2818916,29
2819544,16
2820172,28
2820792,15
2821420,18
2822044,24
2822668,11
2823296,40
2823920,82
2824548,45
2825172,26
2825796,21
2826424,22
2827048,13
2827676,19
2828304,21
2828928,13
2829556,14
2830180,41
2830808,31
2831440,16
2832056,29
2832684,27
2833308,38
2833932,42
2834560,37
2835176,43
2835808,54
2836432,14
2837056,69
2837684,34
2838304,22
2838932,38
2839564,30
2840184,33
2840812,22
2841436,15
2842068,17
2842696,12
2843320,11
2843948,11
2844572,11
2845196,36
2845828,82
2846448,77
2847076,33
2847700,12
2848324,60
2848956,86
2849576,48
2850204,16
2850836,44
2851456,48
2852084,25
2852708,45
2853340,63
2853968,45
2854592,13
2855220,24
2855844,25
2856468,22
2857100,14
2857720,14
2858348,21
2858972,18
2859596,15
2860228,62
2860848,72
2861476,72
2862108,52
2862728,21
2863356,111
2864036,116
2864708,68
2865336,38
2865952,17
2866584,14
2867212,12
2867828,31
2868460,14
2869084,13
2869712,12
2870340,10
2870960,20
2871588,44
2872212,69
2872840,82
2873468,61
2874088,19
2874716,26
2875340,29
2875964,40
2876596,48
2877216,29
2877844,14
2878476,28
2879096,26
2879724,13
2880352,46
2880980,62
2881608,53
2882224,24
2882852,15
2883476,23
2884100,26
2884732,23
2885352,41
2885980,53
2886604,47
2887228,35
2887856,37
2888472,34
2889100,52
2889724,69
2890352,49
2890980,26
2891604,26
2892232,16
2892860,10
2893476,10
2894108,10
2894728,10
2895360,22
2895988,31
2896608,37
2897236,24
2897860,25
2898484,46
2899112,53
2899736,35
2900364,15
2900988,40
2901616,37
2902244,21
2902868,14
2903500,21
2904128,32
2904752,57
2905380,80
2906008,75
2906632,56
2907260,57
2907880,24
2908508,57
2909132,37
2909756,21
2910388,28
2911008,52
2911640,63
2912268,30
2912888,15
2913516,27
2914140,36
2914772,20
2915400,33
2916020,37
2916648,55
2917272,14
2917896,33
2918528,54
2919144,104
2919824,95
2920452,43
2921072,21
2921700,12
2922324,22
2922952,31
2923584,54
2924200,49
2924832,33
2925456,34
2926084,29
2926712,10
2927336,15
2927968,17
2928592,28
2929216,13
2929844,18
2930464,25
2931092,17
2931724,17
2932344,47
2932972,20
2933596,17
2934228,12
2934860,34
2935480,59
2936112,43
2936736,11
2937360,47
2937988,43
2938608,51
2939240,103
2939920,86
2940536,52
2941168,26
2941792,41
2942420,37
2943052,50
2943672,53
2944304,31
2944928,14
2945552,11
2946180,19
2946800,29
2947428,11
2948052,31
2948676,71
2949308,94
2949928,96
2950556,79
2951184,41
2951808,15
2952436,21
2953060,32
2953688,37
2954320,64
2954936,104
2955616,106
2956296,64
2956920,47
2957548,16
2958172,63
2958804,64
2959432,47
2960052,45
2960680,93
2961300,75
2961928,64
2962556,26
2963176,31
2963808,27
2964432,35
2965056,57
2965684,74
2966304,61
2966936,51
2967564,44
2968184,64
2968812,48
2969436,25
2970068,10
2970696,16
2971320,51
2971948,71
2972572,38
2973196,39
2973824,62
2974448,33
2975076,37
2975700,35
2976324,30
2976952,11
2977576,17
2978204,17
2978836,22
2979456,11
2980084,37
2980708,46
2981336,44
2981968,27
2982584,31
2983216,29
2983840,23
2984464,47
2985092,58
2985712,105
2986392,117
2987076,57
2987696,37
2988324,63
2988948,38
2989576,16
2990204,48
2990824,81
2991452,85
2992076,19
2992700,13
2993332,22
2993952,53
2994580,103
2995264,60
2995880,45
2996508,28
2997132,31
2997764,15
2998392,33
2999012,30
2999640,15
3000264,21
3000888,25
3001520,11
3002140,17
3002768,11
3003400,25
3004016,39
3004648,57
3005272,47
3005900,37
3006532,16
3007152,17
3007784,36
3008408,46
3009032,28
3009660,17
3010280,19
3010908,21
3011532,17
3012156,21
3012788,42
3013408,29
3014036,20
3014668,38
3015288,53
3015920,69
3016544,65
3017172,34
3017804,40
3018424,47
3019052,30
3019680,17
3020304,10
3020936,22
3021552,39
3022184,57
3022808,74
3023432,47
3024060,75
3024680,77
3025308,22
3025940,30
3026560,47
3027188,85
3027816,79
3028448,57
3029076,30
3029696,24
3030328,31
3030952,21
3031576,14
3032208,15
3032828,16
3033456,31
3034080,27
3034704,37
3035336,16
3035952,26
3036584,36
3037216,30
3037832,22
3038464,11
3039088,22
3039720,15
3040352,21
3040968,20
3041596,15
3042220,37
3042844,39
3043476,37
3044096,32
3044724,21
3045348,15
3045976,79
3046608,165
3047276,150
3047956,80
3048584,15
3049200,177
3049880,283
3050564,127
3051236,43
3051864,17
3052488,61
3053112,67
3053744,68
3054360,67
3054992,17
3055624,18
3056240,15
3056872,15
3057496,15
3058128,14
3058756,12
3059376,22
3060004,37
3060632,40
3061256,17
3061888,13
3062504,13
3063132,12
3063760,23
3064384,31
3065016,21
3065632,16
3066264,14
3066896,18
3067512,12
3068144,17
3068768,20
3069400,19
3070032,18
3070652,23
3071284,30
3071908,35
3072536,35
3073164,26
3073784,22
3074412,33
3075036,42
3075660,57
3076288,57
3076908,73
3077536,43
3078164,21
3078784,41
3079412,104
3080088,81
3080708,67
3081340,64
3081960,25
3082588,17
3083212,36
3083836,31
3084468,14
3085088,22
3085716,20
3086348,10
3086968,12
3087596,10
3088220,21
3088852,41
3089480,38
3090100,21
3090728,15
3091352,26
3091976,31
3092608,22
3093224,23
3093852,19
3094476,19
3095100,11
3095732,14
3096352,30
3096980,23
3097612,36
3098232,64
3098860,61
3099484,33
3100116,15
3100748,76
3101368,71
3102000,19
3102624,23
3103248,26
3103876,23
3104496,44
3105128,41
3105752,55
3106376,47
3107008,22
3107624,14
3108256,17
3108884,58
3109504,51
3110136,25
3110760,11
3111388,65
3112020,68
3112640,17
3113272,11
3113896,11
3114520,26
3115148,20
3115768,15
3116396,15
3117024,17
3117648,12
3118276,12
3118896,24
3119524,39
3120156,16
3120776,20
3121404,39
3122028,27
3122660,14
3123292,12
3123912,16
3124540,22
3125164,15
3125788,15
3126416,20
3127040,29
3127668,27
3128292,18
3128916,15
3129548,22
3130168,39
3130796,29
3131428,14
3132048,26
3132676,26
3133304,68
3133936,64
3134564,42
3135184,14
3135816,58
3136440,115
3137116,67
3137744,13
3138360,34
3138992,23
3139620,14
3140240,15
3140868,15
3141492,14
3142124,13
3142756,10
3143376,17
3144008,12
3144628,16
3145252,13
3145884,22
3146504,30
3147136,11
3147760,40
3148384,55
3149016,54
3149640,20
3150268,19
3150900,38
3151520,52
3152152,56
3152776,35
3153404,28
3154036,24
3154656,19
3155284,37
3155908,51
3156536,40
3157164,18
3157784,16
3158416,14
3159040,14
3159664,15
3160296,20
3160920,13
3161552,13
3162184,42
3162800,51
3163432,41
3164056,30
3164680,23
3165312,16
3165928,14
3166560,20
3167184,17
3167808,12
3168440,10
3169060,38
3169688,108
3170372,144
3171044,160
3171724,136
3172404,48
3173024,78
3173656,84
3174280,37
3174912,15
3175540,14
3176160,33
3176788,31
3177416,38
3178040,24
3178668,11
3179288,17
3179920,11
3180548,10
3181168,14
3181800,14
3182424,31
3183056,15
3183684,34
3184304,43
3184936,30
3185560,38
3186184,49
3186816,20
3187432,15
3188064,33
3188688,53
3189312,47
3189944,25
3190564,15
3191192,16
3191824,16
3192448,15
3193080,22
3193708,47
3194336,31
3194968,38
3195592,33
3196224,25
3196848,18
3197472,62
3198104,88
3198720,80
3199352,37
3199976,13
3200604,13
3201232,10
3201848,10
3202476,10
3203108,16
3203728,15
3204356,11
3204980,21
3205608,32
3206236,34
3206856,59
3207484,59
3208108,55
3208732,22
3209360,40
3209976,15
3210604,10
3211228,11
3211852,10
3212480,18
3213104,70
3213732,93
3214364,40
3214984,23
3215612,19
3216236,14
3216868,23
3217496,35
3218116,39
3218744,67
3219368,75
3219992,28
3220620,25
3221240,41
3221868,50
3222492,40
3223116,21
3223748,54
3224368,43
3224996,30
3225628,14
3226248,16
3226876,11
3227500,9
3228076,10
3228708,13
3229328,12
3229956,15
3230580,29
3231212,31
3231844,16
3232464,20
3233092,18
3233716,29
3234340,12
3234972,10
3235592,27
3236224,96
3236848,51
3237468,21
3238100,46
3238724,52
3239352,77
3239984,85
3240600,83
3241228,77
3241852,25
3242484,10
3243112,12
3243732,14
3244360,23
3244984,33
3245608,43
3246236,54
3246856,65
3247484,21
3248108,23
3248732,52
3249364,44
3249988,38
3250616,18
3251248,11
3251864,46
3252492,60
3253116,31
3253748,12
3254380,22
3255000,39
3255632,54
3256256,53
3256880,39
3257508,28
3258128,30
3258756,26
3259384,48
3260008,31
3260636,19
3261260,11
3261892,39
3262524,115
3263196,97
3263824,45
3264448,19
3265072,14
3265700,14
3266320,23
3266948,19
3267572,11
3268200,37
3268828,103
3269504,105
3270180,83
3270808,68
3271424,34
3272056,42
3272680,38
3273304,15
3273936,21
3274552,26
3275184,13
3275816,12
3276436,14
3277068,55
3277688,66
3278316,15
3278944,10
3279560,18
3280188,96
3280808,90
3281432,33
3282060,14
3282676,13
3283308,14
3283928,11
3284548,13
3285176,32
3285800,39
3286428,22
3287056,43
3287672,86
3288300,92
3288924,39
3289552,38
3290180,21
3290800,14
3291428,15
3292048,18
3292676,15
3293308,20
3293928,22
3294556,15
3295180,12
3295804,10
3296432,17
3297048,17
3297680,14
3298300,24
3298928,19
3299556,17
3300180,10
3300808,22
3301436,32
3302056,37
3302684,38
3303308,37
3303936,35
3304564,26
3305184,44
3305812,59
3306436,49
3307056,58
3307688,46
3308304,69
3308932,87
3309556,79
3310180,55
3310808,48
3311432,25
3312060,17
3312692,23
3313312,12
3313940,43
3314564,70
3315192,88
3315824,80
3316440,22
3317072,48
3317696,44
3318320,68
3318948,29
3319568,13
3320196,16
3320820,11
3321444,11
3322072,10
3322696,19
3323324,13
3323956,20
3324576,30
3325204,58
3325828,49
3326460,11
3327088,12
3327708,17
3328336,41
3328960,134
3329632,79
3330260,26
3330884,14
3331512,13
3332140,16
3332760,22
3333388,24
3334012,40
3334640,41
3335268,32
3335888,20
3336516,14
3337140,10
3337764,13
3338392,21
3339008,41
3339636,60
3340260,53
3340884,65
3341512,45
3342128,15
3342756,43
3343388,15
3344008,11
3344636,11
3345260,11
3345888,11
3346516,50
3347136,36
3347764,15
3348388,24
3349012,20
3349644,27
3350264,57
3350892,20
3351516,21
3352140,16
3352772,15
3353392,30
3354024,17
3354652,34
3355272,17
3355900,15
3356524,28
3357156,53
3357784,58
3358408,13
3359036,21
3359660,10
3360284,21
3360912,18
3361528,10
3362160,11
3362780,31
3363404,46
3364032,27
3364648,15
3365276,16
3365904,58
3366528,32
3367156,24
3367780,22
3368408,19
3369036,12
3369656,11
3370284,11
3370904,17
3371528,49
3372156,70
3372776,56
3373404,40
3374028,79
3374652,39
3375284,30
3375904,47
3376536,20
3377164,80
3377784,104
3378464,74
3379088,32
3379720,15
3380348,12
3380968,21
3381596,16
3382220,14
3382840,26
3383472,27
3384088,13
3384716,16
3385340,10
3385968,29
3386596,41
3387220,33
3387848,15
3388476,13
3389096,20
3389724,33
3390348,63
3390980,65
3391608,47
3392228,34
3392856,17
3393480,35
3394100,11
3394732,16
3395352,33
3395980,97
3396604,112
3397284,16
3397908,69
3398532,61
3399164,29
3399792,67
3400416,64
3401044,65
3401668,57
3402288,15
3402920,18
3403536,39
3404164,59
3404788,88
3405412,111
3406096,101
3406764,75
3407384,55
3408012,18
3408632,44
3409260,45
3409884,51
3410508,34
3411136,16
3411760,34
3412388,63
3413020,56
3413640,53
3414268,63
3414892,36
3415524,17
3416152,24
3416776,27
3417404,44
3418032,64
3418656,67
3419284,68
3419904,120
3420588,98
3421212,70
3421832,69
3422460,48
3423084,14
3423716,49
3424344,61
3424968,65
3425596,45
3426220,38
3426844,56
3427476,62
3428096,65
3428724,57
3429348,31
3429976,13
3430604,23
3431224,47
3431852,87
3432484,117
3433156,50
3433780,25
3434404,47
3435028,50
3435660,12
3436280,20
3436908,13
3437532,37
3438156,12
3438788,25
3439408,61
3440040,102
3440720,116
3441388,95
3442012,15
3442636,18
3443260,49
3443888,57
3444504,32
3445136,22
3445756,16
3446384,11
3447012,13
3447636,18
3448268,16
3448896,28
3449520,37
3450148,17
3450772,14
3451400,25
3452028,50
3452648,47
3453276,11
3453900,13
3454528,39
3455156,69
3455776,18
3456408,91
3457036,103
3457708,83
3458332,55
3458956,19
3459588,89
3460216,85
3460836,59
3461464,43
3462088,15
3462708,18
3463340,12
3463960,18
3464588,40
3465212,61
3465840,59
3466468,68
3467092,54
3467724,12
3468352,57
3468972,12
3469600,29
3470224,51
3470852,54
3471484,64
3472104,15
3472732,28
3473356,30
3473980,28
3474612,62
3475232,61
3475860,53
3476492,14
3477112,50
3477744,15
3478368,67
3479000,77
3479632,17
3480248,93
3480876,130
3481556,100
3482228,60
3482852,22
3483476,22
3484104,31
3484736,78
3485352,143
3486036,166
3486708,152
3487380,24
3488004,124
3488680,106
3489348,28
3489972,20
3490592,33
3491220,28
3491852,14
3492472,11
3493100,10
3493724,12
3494356,38
3494988,46
3495608,14
3496236,41
3496860,48
3497484,18
3498116,16
3498736,21
3499364,13
3499992,13
3500616,23
3501248,62
3501864,35
3502496,11
3503124,41
3503744,37
3504376,22
3505000,30
3505628,39
3506256,22
3506880,20
3507508,16
3508136,13
3508760,37
3509388,44
3510008,31
3510636,13
3511264,9
3511836,26
3512472,102
3513140,55
3513768,39
3514396,18
3515016,75
3515648,166
3516324,74
3516944,15
3517576,38
3518192,71
3518824,73
3519448,47
3520072,27
3520700,27
3521320,36
3521948,40
3522580,46
3523200,57
3523828,65
3524452,32
3525080,39
3525708,26
3526328,58
3526956,54
3527580,41
3528204,64
3528836,72
3529456,36
3530084,37
3530708,15
3531332,89
3531964,112
3532636,64
3533264,17
3533892,18
3534512,21
3535140,14
3535764,11
3536392,28
3537020,52
3537640,46
3538268,59
3538892,57
3539516,81
3540148,43
3540768,15
3541396,11
3542028,48
3542648,42
3543276,34
3543900,57
3544532,50
3545164,81
3545784,17
3546412,89
3547036,141
3547712,137
3548396,71
3549016,48
3549644,175
3550328,119
3550996,54
3551624,51
3552248,176
3552924,185
3553600,190
3554276,32
3554896,29
3555524,62
3556144,157
3556828,102
3557504,26
3558128,38
3558760,20
3559384,129
3560060,15
3560684,27
3561308,13
3561940,19
3562572,20
3563192,11
3563824,19
3564448,15
3565072,32
3565700,16
3566320,21
3566948,33
3567576,49
3568200,54
3568828,35
3569448,14
3570076,27
3570708,40
3571328,11
3571956,15
3572584,21
3573212,15
3573844,24
3574464,43
3575092,28
3575720,31
3576344,52
3576972,68
3577592,68
3578224,127
3578908,113
3579580,80
3580208,72
3580832,15
3581456,101
3582140,132
3582812,132
3583492,102
3584172,43
3584792,30
3585420,17
3586044,25
3586668,27
3587296,24
3587920,21
3588548,19
3589180,29
3589800,21
3590428,24
3591052,15
3591684,21
3592312,48
3592932,32
3593560,30
3594184,16
3594808,51
3595436,86
3596056,54
3596684,28
3597312,44
3597936,25
3598564,13
3599188,33
3599820,13
3600452,12
3601072,17
3601700,19
3602324,67
3602952,73
3603580,94
3604200,114
3604880,100
3605560,78
3606176,113
3606856,111
3607524,48
3608144,16
3608772,12
3609392,39
3610020,50
3610652,18
3611272,60
3611900,16
3612524,14
3613152,15
3613784,82
3614400,99
3615028,87
3615652,105
3616328,75
3616952,142
3617620,46
3618244,41
3618872,20
3619496,155
3620176,192
3620852,106
3621524,67
3622148,111
3622828,311
3623500,60
3624128,37
3624744,40
3625372,12
3626004,35
3626624,86
3627252,32
3627876,31
3628508,67
3629136,72
3629756,78
3630384,124
3631060,78
3631680,15
3632308,25
3632928,99
3633556,117
3634240,74
3634856,23
3635488,41
3636108,71
3636740,52
3637368,14
3637992,51
3638620,30
3639244,108
3639920,120
3640604,98
3641224,23
3641852,45
3642484,62
3643104,133
3643788,92
3644408,32
3645032,15
3645660,11
3646284,14
3646916,21
3647544,17
3648168,13
3648796,21
3649420,35
3650048,27
3650680,12
3651296,46
3651924,83
3652548,79
3653172,25
3653804,10
3654424,30
3655052,18
3655676,20
3656304,23
3656932,34
3657560,28
3658188,44
3658820,63
3659440,59
3660072,54
3660696,13
3661320,12
3661948,41
3662568,22
3663196,76
3663824,122
3664500,66
3665124,38
3665752,41
3666380,13
3667012,44
3667632,105
3668312,228
3668988,205
3669668,172
3670348,44
3670968,143
3671644,272
3672324,158
3672996,31
3673616,14
3674244,19
3674864,14
3675496,10
3676120,11
3676744,13
3677376,46
3677992,58
3678624,18
3679256,146
3679928,141
3680604,70
3681224,66
3681848,24
3682476,67
3683096,94
3683728,102
3684408,20
3685024,101
3685708,67
3686328,142
3687004,106
3687680,13
3688292,17
3688924,34
3689552,45
3690168,42
3690800,16
3691424,43
3692048,54
3692676,41
3693296,50
3693924,60
3694548,19
3695172,46
3695804,14
3696424,34
3697052,15
3697684,30
3698304,29
3698932,49
3699556,34
3700188,11
3700816,27
3701432,76
3702064,126
3702740,142
3703412,146
3704092,108
3704764,112
3705436,104
3706116,125
3706788,214
3707460,174
3708136,68
3708760,144
3709444,278
3710120,227
3710796,54
3711424,20
3712056,33
3712672,28
3713300,17
3713924,42
3714552,49
3715180,16
3715800,15
3716428,13
3717052,14
3717680,42
3718308,28
3718928,40
3719556,33
3720184,14
3720804,11
3721436,47
3722060,43
3722692,59
3723320,68
3723944,69
3724576,97
3725200,203
3725880,95
3726504,26
3727124,21
3727752,247
3728436,123
3729108,12
3729732,50
3730356,82
3730984,24
3731612,20
3732232,44
3732864,64
3733488,43
3734112,37
3734740,48
3735364,13
3735996,73
3736628,126
3737300,110
3737980,45
3738600,32
3739224,89
3739852,100
3740524,27
3741148,26
3741780,56
3742400,72
3743028,46
3743656,11
3744280,41
3744908,53
3745528,19
3746156,50
3746784,29
3747408,49
3748040,71
3748656,37
3749284,20
3749916,20
3750536,55
3751164,15
3751788,49
3752420,31
3753052,29
3753672,61
3754300,73
3754928,63
3755552,19
3756180,52
3756800,18
3757428,30
3758056,29
3758680,23
3759312,11
3759928,57
3760560,41
3761192,11
3761812,14
3762440,24
3763068,31
3763696,50
3764328,73
3764948,60
3765576,36
3766204,11
3766828,52
3767456,106
3768132,68
3768760,20
3769388,34
3770008,102
3770688,162
3771364,156
3772036,112
3772716,30
3773336,33
3773960,171
3774644,202
3775316,122
3775996,96
3776624,18
3777240,32
3777872,17
3778496,13
3779120,48
3779752,82
3780368,65
3781000,17
3781624,78
3782248,105
3782932,192
3783604,251
3784276,101
3784956,25
3785576,21
3786208,123
3786888,213
3787564,18
3788192,54
3788820,16
3789440,48
3790068,26
3790692,17
3791324,18
3791952,12
3792576,14
3793204,10
3793832,13
3794456,28
3795084,50
3795704,22
3796332,10
3796960,61
3797584,45
3798216,22
3798832,31
3799464,30
3800096,26
3800712,27
3801344,27
3801968,71
3802596,39
3803228,27
3803848,37
3804480,45
3805104,68
3805728,72
3806360,65
3806976,60
3807608,59
3808236,13
3808860,45
3809488,29
3810112,14
3810744,33
3811372,26
3811992,18
3812624,43
3813248,102
3813932,94
3814560,71
3815176,79
3815808,97
3816432,72
3817056,15
3817688,37
3818312,50
3818940,46
3819572,12
3820192,50
3820824,225
3821500,206
3822172,118
3822852,17
3823472,173
3824156,241
3824836,20
3825456,57
3826088,45
3826716,36
3827336,32
3827968,63
3828592,139
3829276,34
3829904,13
3830524,13
3831152,14
3831780,53
3832404,79
3833036,68
3833656,58
3834288,91
3834920,85
3835536,67
3836168,31
3836796,64
3837428,73
3838060,82
3838680,67
3839316,22
3839940,14
3840568,24
3841196,30
3841816,13
3842444,13
3843068,10
3843696,32
3844324,37
3844948,28
3845580,51
3846208,13
3846828,40
3847456,32
3848080,19
3848708,45
3849340,16
3849960,26
3850588,28
3851212,72
3851836,37
3852468,10
3853088,11
3853716,27
3854348,34
3854968,33
3855596,36
3856220,36
3856852,40
3857480,58
3858100,46
3858728,52
3859352,96
3859976,106
3860656,37
3861280,37
3861908,78
3862540,136
3863212,115
3863888,58
3864512,15
3865136,14
3865768,22
3866384,26
3867012,19
3867636,11
3868264,17
3868892,49
3869516,12
3870148,47
3870776,73
3871400,76
3872032,73
3872652,72
3873284,18
3873912,34
3874532,39
3875160,19
3875788,74
3876412,71
3877040,64
3877664,17
3878296,69
3878924,105
3879596,101
3880276,37
3880896,219
3881572,187
3882252,34
3882872,19
3883504,15
3884132,10
3884752,12
3885384,29
3886008,38
3886632,53
3887264,69
3887880,123
3888564,114
3889244,129
3889916,132
3890596,27
3891224,155
3891892,143
3892568,118
3893244,57
3893872,17
3894500,9
3895072,30
3895708,33
3896340,16
3896960,19
3897588,23
3898212,22
3898844,42
3899476,64
3900096,24
3900728,67
3901352,92
3901976,96
3902608,26
3903224,25
3903856,62
3904480,76
3905104,67
3905736,68
3906352,41
3906984,19
3907612,40
3908232,29
3908864,11
3909488,13
3910116,29
3910748,18
3911368,34
3912000,20
3912620,29
3913244,49
3913876,92
3914496,54
3915128,27
3915752,31
3916376,18
3917008,27
3917624,46
3918252,47
3918884,64
3919504,95
3920136,130
3920812,107
3921484,92
3922112,15
3922728,63
3923356,73
3923988,39
3924608,64
3925240,51
3925864,11
3926492,18
3927124,18
3927744,40
3928376,78
3929000,45
3929624,42
3930252,61
3930872,82
3931504,101
3932188,32
3932808,11
3933436,18
3934060,12
3934692,11
3935320,35
3935944,46
3936576,76
3937200,117
3937876,116
3938552,77
3939176,37
3939808,25
3940436,27
3941056,89
3941688,68
3942312,85
3942936,110
3943616,34
3944240,23
3944868,19
3945500,18
3946120,20
3946748,26
3947372,31
3948004,15
3948636,97
3949256,133
3949936,111
3950620,16
3951240,65
3951872,64
3952496,59
3953128,51
3953756,22
3954376,15
3955008,13
3955632,14
3956256,15
3956884,19
3957504,24
3958136,32
3958760,47
3959384,38
3960016,10
3960632,21
3961264,27
3961892,97
3962512,82
3963144,14
3963768,39
3964396,64
3965028,18
3965648,66
3966280,73
3966904,72
3967528,13
3968160,16
3968776,11
3969404,66
3970028,57
3970652,82
3971284,137
3971960,114
3972636,60
3973264,39
3973880,39
3974508,24
3975132,24
3975756,47
3976388,53
3977008,37
3977636,14
3978268,14
3978888,31
3979516,86
3980140,32
3980772,21
3981404,34
3982024,35
3982656,15
3983280,76
3983904,38
3984536,39
3985152,45
3985784,45
3986408,74
3987032,92
3987664,72
3988280,54
3988912,38
3989544,24
3990160,25
3990792,47
3991416,55
3992048,83
3992676,20
3993296,75
3993928,82
3994552,78
3995176,69
3995808,46
3996424,27
3997052,15
3997680,13
3998304,17
3998932,39
3999560,72
4000188,127
4000872,143
4001540,116
4002216,50
4002844,38
4003464,90
4004092,67
4004716,162
4005396,119
4006072,55
4006696,16
4007324,15
4007956,66
4008576,81
4009204,71
4009828,93
4010460,35
4011088,10
4011708,23
4012336,48
4012960,59
4013584,53
4014212,79
4014832,97
4015460,132
4016144,191
4016812,89
4017436,45
4018060,30
4018692,119
4019372,148
4020044,58
4020668,41
4021300,13
4021920,52
4022548,59
4023172,37
4023804,25
4024432,26
4025056,27
4025684,38
4026308,44
4026932,29
4027560,14
4028184,11
4028812,47
4029436,113
4030116,107
4030796,53
4031416,43
4032040,105
4032720,56
4033336,45
4033964,13
4034596,92
4035216,98
4035844,44
4036468,41
4037096,86
4037728,93
4038344,79
4038976,14
4039600,21
4040224,32
4040852,49
4041472,20
4042100,25
4042728,12
4043352,29
4043980,42
4044600,35
4045232,84
4045860,167
4046532,114
4047208,54
4047832,17
4048456,17
4049084,11
4049704,24
4050332,14
4050964,29
4051584,25
4052212,15
4052836,28
4053468,52
4054100,54
4054720,48
4055352,47
4055976,13
4056600,57
4057228,110
4057900,45
4058524,23
4059156,11
4059776,58
4060408,98
4061032,24
4061660,22
4062292,14
4062912,24
4063544,17
4064168,53
4064792,43
4065420,29
4066040,33
4066668,17
4067292,74
4067920,83
4068548,51
4069168,37
4069800,15
4070428,33
4071048,12
4071676,33
4072304,36
4072932,28
4073564,21
4074184,14
4074816,11
4075440,32
4076064,24
4076692,32
4077312,45
4077944,25
4078568,53
4079192,93
4079824,77
4080444,56
4081072,66
4081704,30
4082324,15
4082952,44
4083576,35
4084208,27
4084836,29
4085456,18
4086088,15
4086712,42
4087336,66
4087968,68
4088588,44
4089216,21
4089840,42
4090464,58
4091096,78
4091720,101
4092404,30
4093032,48
4093652,23
4094280,28
4094908,121
4095584,121
4096260,44
4096876,34
4097504,77
4098132,65
4098748,17
4099376,26
4100000,102
4100672,83
4101296,35
4101912,12
4102540,21
4103160,77
4103784,44
4104412,58
4105036,84
4105664,38
4106292,80
4106908,16
4107540,35
4108160,13
4108788,35
4109420,35
4110040,20
4110668,14
4111292,28
4111916,23
4112544,12
4113160,21
4113792,18
4114416,16
4115036,15
4115668,16
4116292,35
4116920,36
4117548,14
4118168,29
4118796,49
4119420,17
4120048,12
4120680,10
4121296,80
4121924,77
4122548,22
4123168,46
4123800,36
4124416,17
4125044,34
4125668,83
4126292,61
4126920,32
4127544,19
4128172,55
4128800,88
4129416,116
4130096,76
4130712,17
4131336,15
4131964,14
4132584,14
4133212,40
4133836,48
4134460,11
4135088,16
4135704,18
4136336,66
4136960,51
4137580,12
4138212,21
4138836,15
4139464,48
4140096,22
4140712,100
4141396,120
4142068,80
4142688,30
4143316,94
4143940,86
4144572,15
4145200,36
4145824,34
4146452,25
4147076,16
4147708,15
4148336,14
4148952,13
4149584,15
4150208,11
4150832,21
4151460,39
4152080,27
4152708,28
4153332,57
4153956,69
4154588,52
4155212,46
4155840,57
4156468,39
4157088,28
4157716,31
4158344,14
4158972,10
4159604,28
4160224,40
4160852,94
4161476,88
4162096,57
4162724,34
4163344,30
4163972,16
4164592,23
4165216,51
4165848,56
4166468,69
4167096,48
4167728,10
4168344,15
4168972,28
4169596,21
4170224,67
4170856,103
4171524,108
4172200,62
4172824,37
4173440,103
4174120,48
4174736,37
4175364,21
4175992,18
4176616,44
4177244,61
4177868,46
4178492,33
4179120,13
4179744,43
4180372,78
4181000,59
4181624,52
4182252,65
4182876,12
4183504,21
4184136,76
4184752,45
4185384,33
4186008,64
4186628,55
4187260,25
4187880,24
4188508,42
4189132,18
4189756,111
4190436,109
4191108,53
4191736,39
4192364,38
4192984,12
4193612,35
4194236,23
4194860,12
4195488,20
4196112,19
4196740,17
4197364,14
4197988,21
4198620,27
4199244,37
4199872,35
4200500,31
4201120,37
4201748,48
4202372,34
4203000,44
4203628,54
4204248,16
4204876,41
4205500,31
4206120,22
4206752,35
4207368,61
4207996,50
4208620,14
4209244,20
4209876,28
4210500,25
4211128,35
4211760,46
4212376,15
4213004,85
4213628,94
4214260,103
4214940,67
4215560,13
4216188,47
4216812,87
4217436,87
4218068,60
4218692,61
4219324,16
4219952,40
4220572,25
4221200,96
4221824,99
4222452,48
4223084,26
4223704,63
4224336,32
4224956,17
4225580,13
4226212,36
4226832,47
4227460,101
4228140,113
4228812,44
4229436,13
4230060,13
4230684,19
4231312,14
4231936,33
4232564,11
4233188,43
4233812,56
4234444,68
4235064,83
4235692,31
4236324,14
4236944,11
4237572,35
4238196,22
4238828,16
4239460,24
4240080,29
4240708,16
4241332,10
4241956,10
4242584,27
4243200,36
4243828,49
4244452,64
4245080,61
4245708,35
4246328,106
4247008,50
4247640,24
4248256,15
4248884,49
4249508,63
4250136,38
4250764,28
4251384,13
4252012,83
4252636,77
4253260,29
4253892,12
4254512,13
4255140,31
4255772,38
4256392,27
4257020,35
4257644,16
4258276,11
4258904,15
4259524,14
4260152,17
4260776,11
4261400,13
4262028,32
4262648,25
4263276,12
4263900,31
4264524,49
4265152,20
4265768,24
4266396,37
4267028,26
4267648,23
4268276,46
4268900,53
4269528,57
4270160,83
4270776,128
4271460,144
4272136,45
4272760,25
4273388,31
4274012,70
4274644,114
4275324,76
4275944,49
4276572,45
4277196,42
4277820,39
4278452,25
4279072,19
4279700,55
4280332,44
4280952,79
4281580,97
4282204,45
4282836,26
4283464,13
4284084,33
4284712,90
4285336,47
4285960,18
4286588,10
4287208,15
4287836,13
4288464,12
4289088,14
4289716,22
4290336,24
4290964,13
4291596,50
4292216,13
4292844,33
4293468,51
4294100,35
4294728,37
4295352,51
4295984,28
4296608,18
4297232,14
4297860,54
4298480,156
4299160,103
4299844,32
4300464,11
4301096,32
4301716,41
4302340,36
4302972,80
4303592,91
4304220,36
4304844,18
4305468,28
4306096,39
4306720,42
4307348,25
4307980,44
4308600,61
4309228,52
4309852,40
4310484,17
4311112,16
4311732,43
4312360,74
4312984,103
4313660,90
4314284,22
4314904,48
4315532,52
4316156,11
4316784,16
4317416,16
4318040,11
4318668,26
4319300,42
4319920,19
4320552,38
4321176,29
4321800,15
4322428,14
4323048,21
4323676,24
4324300,47
4324924,15
4325556,36
4326176,37
4326808,42
4327436,26
4328056,11
4328684,12
4329308,13
4329936,12
4330568,13
4331184,19
4331816,16
4332440,19
4333064,31
4333692,33
4334312,40
4334944,61
4335568,68
4336192,61
4336820,40
4337440,27
4338068,55
4338700,30
4339320,21
4339948,14
4340572,11
4341204,21
4341836,12
4342456,10
4343084,10
4343708,12
4344332,26
4344964,24
4345584,19
4346216,21
4346840,17
4347464,54
4348092,59
4348712,24
4349344,23
4349972,26
4350592,11
4351224,29
4351848,34
4352480,16
4353108,16
4353728,32
4354356,58
4354980,45
4355604,18
4356232,22
4356856,17
4357484,54
4358108,37
4358732,27
4359360,24
4359984,15
4360612,13
4361244,26
4361864,34
4362492,22
4363116,23
4363748,18
4364376,40
4365000,65
4365628,84
4366252,68
4366876,37
4367508,42
4368128,36
4368756,30
4369380,53
4370004,68
4370632,25
4371256,100
4371936,94
4372568,64
4373184,53
4373812,16
4374436,92
4375064,102
4375744,153
4376412,103
4377088,35
4377720,12
4378336,32
4378964,25
4379588,21
4380212,43
4380844,54
4381464,43
4382092,38
4382724,43
4383344,13
4383976,37
4384600,65
4385228,51
4385860,18
4386480,12
4387108,51
4387736,82
4388360,125
4389040,112
4389716,80
4390344,48
4390976,29
4391592,139
4392276,162
4392948,102
4393620,32
4394244,32
4394868,35
4395500,13
4396132,46
4396752,74
4397384,84
4398008,102
4398684,71
4399312,28
4399932,38
4400564,48
4401192,20
4401816,47
4402448,53
4403072,15
4403704,66
4404332,74
4404952,59
4405580,38
4406204,25
4406828,30
4407460,16
4408080,12
4408708,10
4409332,10
4409956,11
4410588,16
4411212,11
4411840,16
4412468,11
4413088,14
4413720,22
4414344,25
4414972,21
4415604,26
4416224,34
4416852,31
4417476,25
4418100,34
4418732,56
4419352,36
4419980,11
4420608,22
4421232,52
4421864,36
4422488,21
4423116,20
4423748,10
4424368,59
4424996,62
4425620,35
4426244,12
4426876,10
4427496,12
4428124,10
4428752,41
4429376,123
4430056,25
4430680,53
4431308,146
4431992,232
4432660,163
4433336,31
4433968,19
4434584,148
4435264,146
4435940,97
4436560,103
4437240,51
4437864,19
4438496,33
4439124,18
4439744,27
4440376,17
4441000,15
4441624,27
4442252,34
4442872,21
4443504,10
4444128,11
4444752,12
4445384,27
4446000,29
4446628,13
4447260,26
4447880,44
4448512,45
4449136,30
4449764,11
4450396,12
4451016,11
4451648,11
4452272,43
4452896,69
4453528,33
4454144,35
4454776,40
4455400,17
4456024,15
4456652,14
4457272,15
4457904,25
4458532,10
4459152,15
4459784,21
4460408,29
4461040,81
4461668,63
4462288,32
4462920,21
4463544,14
4464168,18
4464796,27
4465416,28
4466044,17
4466672,37
4467296,29
4467924,35
4468548,33
4469180,27
4469812,14
4470432,57
4471064,70
4471688,67
4472316,75
4472952,58
4473568,21
4474200,71
4474824,87
4475448,86
4476080,57
4476700,15
4477332,72
4477964,114
4478636,118
4479316,74
4479940,60
4480564,64
4481192,25
4481816,34
4482444,35
4483068,10
4483696,28
4484324,76
4484948,136
4485632,89
4486256,17
4486872,39
4487500,51
4488124,40
4488748,20
4489380,16
4490000,27
4490628,15
4491252,26
4491876,12
4492508,34
4493132,65
4493764,39
4494392,24
4495012,58
4495644,62
4496268,47
4496896,30
4497524,25
4498144,83
4498772,50
4499400,17
4500024,21
4500652,12
4501272,17
4501904,45
4502532,81
4503152,132
4503836,199
4504508,191
4505180,72
4505808,57
4506424,104
4507104,97
4507728,113
4508396,115
4509072,133
4509752,79
4510376,29
4511008,21
4511632,54
4512260,43
4512888,30
4513512,42
4514140,26
4514764,23
4515388,27
4516020,13
4516640,58
4517268,57
4517900,14
4518520,56
4519148,47
4519772,30
4520404,59
4521032,45
4521652,15
4522280,21
4522904,15
4523528,27
4524156,12
4524776,28
4525408,59
4526032,61
4526656,79
4527284,89
4527904,20
4528536,74
4529164,84
4529784,66
4530412,30
4531040,35
4531668,23
4532300,42
4532920,43
4533548,15
4534176,35
4534800,33
4535428,20
4536048,17
4536676,32
4537300,37
4537928,38
4538556,34
4539176,26
4539808,42
4540436,44
4541056,14
4541688,100
4542364,66
4542984,26
4543616,40
4544236,34
4544864,61
4545488,53
4546112,18
4546744,15
4547360,49
4547988,94
4548620,76
4549240,15
4549868,46
4550492,61
4551124,66
4551756,66
4552376,43
4553004,24
4553628,39
4554256,16
4554884,68
4555504,58
4556136,43
4556760,15
4557384,10
4558016,17
4558636,22
4559264,13
4559896,11
4560512,10
4561144,17
4561768,23
4562396,14
4563028,14
4563648,22
4564276,36
4564904,25
4565528,10
4566156,10
4566776,11
4567408,13
4568032,11
4568652,25
4569284,43
4569904,57
4570532,47
4571164,27
4571784,30
4572416,37
4573040,41
4573668,25
4574300,12
4574920,12
4575552,16
4576176,19
4576800,12
4577428,21
4578048,38
4578676,38
4579304,31
4579928,18
4580560,14
4581176,19
4581808,20
4582436,75
4583056,84
4583684,114
4584364,82
4584984,119
4585664,33
4586288,23
4586920,57
4587548,52
4588168,26
4588796,26
4589420,50
4590052,33
4590684,16
4591304,17
4591936,13
4592560,11
4593184,13
4593812,11
4594432,11
4595060,13
4595688,23
4596312,81
4596940,97
4597560,66
4598192,75
4598824,37
4599440,71
4600072,112
4600748,109
4601420,48
4602048,17
4602664,20
4603296,24
4603924,13
4604544,14
4605176,14
4605800,20
4606428,44
4607060,52
4607680,25
4608312,11
4608936,13
4609556,33
4610188,28
4610808,19
4611436,12
4612060,11
4612684,24
4613312,15
4613928,19
4614560,15
4615188,30
4615808,24
4616436,17
4617060,17
4617692,13
4618320,21
4618940,21
4619568,16
4620192,31
4620816,38
4621444,46
4622064,58
4622692,58
4623316,49
4623944,44
4624572,14
4625192,47
4625820,41
4626452,51
4627072,48
4627704,61
4628328,45
4628956,45
4629588,58
4630208,21
4630836,34
4631464,49
4632088,55
4632716,23
4633336,44
4633968,94
4634592,113
4635268,48
4635892,25
4636516,57
4637148,63
4637780,48
4638400,39
4639028,20
4639656,29
4640280,63
4640908,40
4641528,16
4642156,36
4642780,13
4643404,55
4644032,25
4644656,11
4645284,13
4645916,44
4646536,37
4647164,29
4647788,16
4648420,30
4649048,17
4649672,14
4650300,16
4650924,15
4651548,24
4652176,11
4652800,21
4653428,27
4654052,47
4654680,46
4655308,31
4655928,21
4656560,26
4657188,27
4657808,25
4658440,21
4659064,19
4659692,15
4660324,14
4660944,11
4661572,19
4662200,27
4662824,24
4663452,14
4664072,17
4664700,18
4665328,12
4665952,13
4666580,11
4667204,10
4667836,21
4668468,26
4669088,21
4669720,11
4670344,12
4670972,18
4671604,13
4672224,17
4672852,27
4673476,38
4674100,26
4674728,11
4675352,17
4675980,23
4676604,91
4677232,55
4677860,18
4678484,26
4679116,85
4679748,102
4680420,47
4681044,17
4681668,16
4682292,32
4682924,50
4683544,71
4684176,91
4684800,64
4685424,15
4686052,35
4686676,19
4687308,17
4687940,48
4688560,41
4689188,16
4689816,27
4690440,24
4691068,26
4691688,28
4692316,11
4692944,29
4693568,26
4694196,66
4694816,73
4695448,34
4696076,14
4696696,14
4697328,29
4697952,34
4698584,18
4699212,10
4699832,33
4700464,31
4701088,19
4701712,43
4702344,66
4702964,78
4703592,72
4704220,73
4704844,27
4705476,20
4706096,40
4706728,36
4707356,10
4707976,10
4708608,27
4709232,54
4709864,36
4710496,31
4711112,54
4711744,45
4712368,24
4712992,21
4713620,19
4714240,15
4714868,16
4715496,14
4716120,27
4716752,35
4717372,36
4718000,38
4718632,38
4719252,21
4719884,14
4720508,12
4721136,15
4721768,20
4722388,27
4723016,30
4723644,53
4724268,48
4724896,22
4725520,42
4726152,46
4726776,64
4727400,122
4728084,68
4728704,30
4729336,33
4729964,21
4730584,17
4731216,19
4731840,12
4732464,16
4733096,27
4733712,52
4734344,38
4734972,54
4735596,109
4736280,81
4736896,12
4737528,14
4738156,42
4738776,54
4739408,27
4740032,26
4740656,12
4741284,45
4741904,61
4742536,47
4743160,55
4743784,44
4744416,119
4745092,178
4745772,112
4746452,47
4747072,25
4747704,18
4748332,18
4748952,11
4749584,67
4750208,129
4750892,136
4751572,140
4752244,116
4752920,41
4753548,74
4754168,54
4754800,19
4755424,16
4756048,14
4756676,10
4757296,13
4757924,23
4758556,32
4759176,27
4759808,22
4760432,18
4761064,11
4761692,17
4762312,13
4762940,24
4763564,20
4764192,14
4764820,13
4765440,11
4766068,11
4766696,11
4767320,11
4767952,11
4768572,17
4769200,39
4769832,65
4770448,66
4771080,54
4771704,47
4772336,31
4772964,18
4773584,10
4774216,14
4774840,13
4775464,13
4776096,17
4776712,18
4777344,27
4777968,30
4778592,31
4779224,43
4779848,27
4780480,15
4781108,14
4781728,25
4782360,38
4782984,36
4783616,33
4784248,19
4784864,18
4785496,28
4786120,43
4786744,44
4787376,34
4787992,30
4788624,17
4789256,15
4789876,23
4790508,19
4791132,10
4791764,11
4792396,12
4793016,16
4793648,11
4794272,26
4794896,23
4795528,70
4796144,59
4796776,16
4797404,60
4798028,63
4798660,54
4799280,46
4799912,17
4800544,93
4801164,81
4801792,26
4802416,17
4803044,17
4803676,11
4804296,17
4804924,14
4805548,17
4806172,14
4806804,12
4807424,20
4808052,16
4808676,10
4809300,11
4809932,10
4810552,10
4811184,18
4811812,23
4812432,19
4813064,14
4813688,17
4814316,17
4814948,11
4815568,19
4816196,25
4816820,12
4817444,11
4818076,28
4818696,51
4819324,57
4819948,61
4820572,54
4821204,31
4821828,29
4822460,27
4823088,17
4823708,12
4824336,19
4824960,27
4825588,36
4826220,46
4826840,33
4827472,21
4828096,25
4828720,18
4829352,14
4829968,76
4830600,102
4831280,84
4831904,45
4832536,23
4833160,14
4833792,37
4834420,74
4835040,84
4835668,97
4836296,111
4836972,128
4837648,112
4838324,90
4838944,38
4839576,15
4840192,37
4840824,60
4841448,28
4842072,24
4842700,35
4843320,81
4843952,68
4844580,13
4845200,22
4845828,21
4846452,41
4847084,43
4847716,106
4848388,77
4849016,16
4849640,40
4850264,21
4850892,15
4851512,13
4852144,37
4852772,39
4853392,42
4854024,44
4854648,15
4855276,27
4855908,15
4856528,15
4857156,18
4857784,22
4858408,37
4859040,21
4859656,11
4860288,43
4860912,63
4861536,65
4862168,27
4862792,16
4863424,15
4864056,15
4864672,60
4865300,51
4865924,41
4866552,12
4867184,42
4867804,49
4868432,30
4869060,12
4869684,13
4870312,37
4870936,16
4871568,17
4872200,16
4872816,14
4873444,18
4874072,27
4874704,11
4875332,20
4875952,15
4876584,10
4877208,14
4877832,48
4878464,44
4879080,19
4879712,37
4880336,113
4881012,179
4881688,145
4882364,42
4882984,107
4883668,206
4884340,108
4885020,30
4885648,14
4886264,27
4886896,38
4887520,41
4888144,25
4888772,14
4889392,15
4890024,23
4890652,39
4891272,30
4891904,25
4892528,25
4893156,20
4893788,54
4894408,50
4895040,38
4895664,27
4896288,22
4896916,14
4897536,18
4898168,50
4898792,81
4899416,130
4900100,112
4900772,99
4901392,31
4902024,92
4902644,133
4903328,92
4903952,56
4904572,23
4905200,16
4905828,24
4906456,15
4907088,11
4907708,15
4908340,42
4908964,31
4909588,25
4910220,27
4910840,12
4911472,17
4912096,20
4912724,36
4913352,47
4913976,39
4914608,28
4915240,24
4915864,29
4916492,47
4917112,52
4917744,40
4918372,37
4918992,29
4919620,33
4920248,36
4920868,22
4921500,16
4922120,20
4922748,20
4923372,14
4923996,9
4924576,13
4925200,19
4925828,25
4926452,26
4927076,31
4927708,28
4928332,23
4928960,22
4929588,18
4930208,14
4930836,14
4931460,11
4932092,13
4932720,10
4933340,10
4933968,22
4934592,41
4935216,52
4935844,45
4936464,32
4937092,43
4937716,39
4938340,37
4938972,49
4939596,45
4940224,35
4940856,15
4941472,79
4942100,43
4942724,16
4943356,31
4943988,14
4944608,20
4945236,73
4945864,113
4946540,81
4947164,55
4947792,32
4948420,18
4949052,44
4949672,57
4950304,61
4950928,63
4951560,69
4952188,82
4952808,54
4953436,13
4954064,45
4954688,27
4955320,58
4955936,21
4956568,36
4957196,56
4957816,38
4958448,51
4959072,84
4959700,12
4960332,33
4960952,20
4961580,18
4962204,55
4962828,60
4963460,31
4964080,23
4964708,18
4965332,18
4965956,12
4966588,34
4967208,69
4967836,47
4968468,43
4969088,53
4969716,47
4970340,13
4970972,12
4971600,23
4972224,26
4972852,14
4973476,9
4974048,10
4974688,19
4975304,26
4975936,32
4976560,28
4977184,13
4977812,17
4978432,12
4979060,13
4979688,25
4980312,33
4980940,35
4981560,13
4982192,21
4982820,39
4983440,46
4984068,36
4984696,25
4985324,43
4985956,31
4986576,56
4987208,82
4987832,88
4988456,81
4989088,57
4989704,118
4990388,69
4991016,38
4991636,12
4992268,33
4992892,22
4993520,26
4994148,70
4994768,89
4995396,53
4996024,26
4996648,17
4997276,14
4997896,30
4998524,41
4999148,33
4999772,29
5000404,34
5001028,47
5001656,51
5002284,26
5002904,29
5003532,15
5004160,20
5004788,25
5005420,26
5006040,20
5006672,11
5007296,20
5007920,23
5008552,17
5009168,15
5009800,11
5010424,10
5011048,18
5011676,15
5012304,20
5012936,48
5013564,64
5014184,30
5014816,11
5015440,14
5016072,37
5016700,53
5017320,64
5017952,73
5018576,52
5019200,19
5019828,22
5020448,16
5021076,31
5021708,16
5022328,22
5022960,20
5023584,11
5024216,17
5024844,29
5025464,24
5026092,22
5026716,28
5027344,70
5027976,32
5028592,40
5029224,32
5029848,14
5030472,19
5031100,31
5031720,31
5032352,16
5032980,11
5033600,13
5034228,23
5034856,18
5035488,15
5036120,30
5036736,45
5037368,68
5037996,58
5038620,56
5039252,54
5039872,14
5040504,67
5041128,69
5041752,46
5042384,24
5043000,12
5043632,11
5044264,10
5044884,9
5045460,13
5046088,19
5046716,19
5047348,18
5047968,15
5048600,15
5049224,25
5049856,50
5050484,43
5051104,38
5051736,59
5052360,55
5052984,18
5053616,12
5054232,18
5054864,43
5055496,36
5056116,23
5056748,37
5057372,25
5058004,16
5058632,12
5059256,45
5059884,81
5060512,44
5061136,13
5061764,28
5062384,51
5063016,52
5063640,15
5064268,26
5064896,11
5065520,13
5066152,15
5066784,25
5067404,25
5068036,11
5068660,16
5069292,25
5069924,48
5070544,33
5071176,18
5071800,17
5072424,15
5073056,16
5073676,12
5074308,10
5074932,12
5075556,22
5076188,13
5076816,15
5077444,28
5078076,11
5078696,24
5079328,21
5079956,14
5080584,39
5081216,44
5081832,13
5082460,21
5083088,25
5083712,24
5084344,32
5084960,62
5085592,71
5086224,122
5086896,158
5087572,102
5088244,17
5088864,77
5089496,138
5090172,98
5090800,17
5091428,10
5092048,19
5092680,48
5093304,67
5093928,42
5094560,22
5095176,18
5095808,14
5096432,16
5097056,15
5097688,18
5098312,11
5098944,43
5099576,57
5100192,46
5100824,43
5101448,19
5102080,30
5102708,30
5103328,20
5103960,15
5104588,13
5105216,14
5105844,17
5106464,27
5107096,36
5107732,24
5108352,16
5108984,11
5109612,10
5110244,10
5110876,34
5111496,49
5112132,39
5112756,20
5113384,24
5114016,32
5114636,68
5115268,73
5115896,46
5116520,24
5117152,13
5117780,15
5118412,47
5119044,70
5119668,72
5120300,59
5120924,27
5121544,14
5122172,26
5122792,81
5123420,87
5124044,74
5124664,67
5125292,16
5125912,105
5126592,176
5127264,137
5127940,69
5128564,17
5129188,30
5129812,22
5130440,14
5131064,25
5131692,35
5132320,16
5132944,21
5133572,35
5134196,20
5134824,27
5135456,51
5136072,15
5136704,19
5137324,25
5137948,28
5138580,24
5139200,20
5139828,21
5140452,15
5141076,11
5141708,10
5142328,23
5142956,38
5143588,36
5144208,11
5144836,42
5145460,38
5146092,34
5146720,51
5147344,30
5147972,18
5148596,18
5149220,12
5149852,10
5150472,17
5151100,10
5151728,12
5152352,22
5152980,39
5153604,53
5154232,39
5154864,18
5155484,18
5156112,37
5156736,21
5157364,15
5157996,27
5158616,28
5159244,29
5159868,29
5160492,15
5161124,10
5161744,13
5162372,15
5162996,20
5163620,22
5164248,28
5164872,11
5165500,13
5166132,16
5166752,12
5167380,36
5168004,24
5168636,13
5169264,28
5169884,45
5170512,43
5171140,37
5171764,17
5172392,20
5173016,27
5173644,20
5174268,9
5174844,12
5175476,18
5176096,23
5176724,27
5177356,40
5177976,33
5178604,13
5179228,18
5179860,17
5180492,21
5181112,15
5181744,11
5182368,20
5182992,33
5183624,12
5184240,34
5184868,41
5185492,26
5186116,33
5186748,52
5187368,48
5187996,31
5188628,22
5189248,28
5189876,31
5190500,32
5191132,21
5191764,12
5192384,18
5193012,19
5193640,17
5194264,41
5194892,32
5195512,17
5196144,28
5196768,64
5197392,75
5198024,36
5198644,13
5199272,43
5199904,77
5200524,43
5201152,11
5201776,19
5202404,28
5203036,21
5203656,14
5204284,14
5204908,14
5205532,14
5206164,16
5206784,30
5207416,21
5208036,13
5208660,25
5209292,32
5209912,17
5210540,19
5211172,24
5211792,21
5212424,28
5213048,54
5213676,58
5214308,57
5214928,55
5215560,62
5216184,50
5216808,49
5217436,17
5218056,35
5218684,63
5219312,34
5219936,19
5220564,35
5221192,49
5221820,51
5222452,42
5223072,19
5223700,14
5224324,11
5224952,18
5225584,51
5226204,36
5226832,31
5227460,77
5228084,58
5228712,20
5229336,15
5229964,45
5230596,91
5231216,79
5231848,32
5232472,43
5233104,40
5233732,16
5234352,19
5234984,27
5235608,43
5236232,20
5236864,34
5237480,16
5238112,24
5238736,21
5239360,19
5239992,11
5240612,10
5241240,12
5241872,15
5242492,12
5243124,10
5243744,24
5244376,29
5245004,36
5245624,38
5246252,19
5246876,14
5247500,15
5248128,29
5248748,44
5249376,36
5250000,16
5250620,27
5251252,15
5251872,20
5252500,45
5253128,65
5253744,61
5254376,15
5255000,29
5255628,18
5256256,10
5256880,11
5257508,14
5258132,40
5258756,36
5259388,28
5260008,18
5260636,10
5261260,14
5261884,15
5262516,13
5263136,15
5263764,23
5264396,19
5265016,10
5265644,12
5266268,18
5266896,17
5267524,10
5268144,11
5268772,18
5269396,23
5270024,37
5270652,31
5271272,26
5271900,28
5272528,24
5273152,11
5273780,13
5274400,25
5275028,45
5275656,54
5276280,49
5276908,15
5277532,42
5278164,51
5278792,43
5279408,34
5280040,35
5280660,23
5281284,14
5281912,11
5282536,10
5283164,20
5283788,56
5284412,60
5285044,66
5285664,86
5286292,65
5286920,24
5287544,19
5288172,14
5288796,53
5289424,34
5290052,14
5290672,38
5291300,72
5291924,62
5292552,37
5293180,15
5293800,64
5294428,56
5295052,32
5295676,55
5296308,18
5296928,51
5297556,30
5298188,14
5298808,13
5299436,13
5300060,17
5300692,11
5301320,27
5301940,47
5302568,29
5303192,11
5303816,41
5304444,46
5305064,17
5305692,22
5306316,10
5306940,22
5307572,17
5308192,19
5308820,23
5309452,16
5310072,10
5310704,9
5311276,18
5311912,33
5312544,30
5313160,15
5313788,23
5314412,35
5315044,48
5315672,40
5316296,19
5316924,13
5317548,20
5318176,25
5318804,18
5319424,20
5320056,29
5320676,47
5321300,52
5321932,27
5322552,17
5323184,13
5323812,39
5324432,48
5325064,39
5325688,17
5326316,30
5326944,11
5327560,29
5328188,28
5328812,30
5329432,33
5330064,18
5330680,83
5331308,70
5331932,58
5332556,40
5333184,12
5333804,21
5334432,11
5335060,18
5335680,65
5336308,72
5336932,75
5337564,78
5338192,67
5338808,21
5339440,15
5340064,11
5340688,23
5341316,59
5341936,33
5342564,10
5343188,34
5343816,53
5344444,26
5345064,130
5345744,79
5346372,42
5346992,27
5347620,19
5348244,60
5348868,61
5349500,18
5350120,61
5350752,19
5351372,28
5351996,43
5352628,46
5353248,43
5353876,19
5354508,60
5355128,68
5355760,52
5356384,25
5357012,11
5357640,56
5358264,78
5358892,49
5359516,48
5360144,40
5360772,30
5361392,28
5362020,37
5362644,39
5363268,24
5363900,21
5364520,13
5365148,37
5365780,62
5366400,95
5367028,116
5367704,101
5368376,93
5369004,54
5369624,33
5370252,62
5370876,42
5371504,22
5372136,15
5372760,20
5373388,20
5374020,12
5374640,17
5375272,32
5375896,56
5376520,49
5377148,25
5377768,13
5378396,13
5379020,15
5379644,18
5380272,32
5380892,31
5381520,37
5382148,35
5382768,44
5383396,43
5384020,19
5384648,19
5385280,26
5385896,17
5386524,15
5387148,45
5387780,44
5388408,40
5389028,24
5389656,47
5390280,119
5390956,85
5391584,52
5392208,37
5392836,38
5393464,19
5394088,23
5394716,15
5395340,18
5395972,46
5396604,64
5397224,59
5397852,54
5398476,11
5399100,11
5399732,10
5400352,12
5400980,13
5401612,10
5402232,37
5402860,35
5403484,18
5404116,24
5404748,36
5405368,26
5405996,27
5406624,41
5407248,32
5407876,12
5408496,15
5409124,13
5409748,22
5410372,18
5411000,12
5411620,21
5412248,20
5412876,22
5413496,27
5414124,14
5414752,14
5415380,17
5416012,10
5416632,10
5417260,20
5417884,35
5418508,50
5419140,47
5419760,35
5420388,35
5421016,43
5421640,39
5422268,43
5422888,32
5423516,30
5424148,58
5424768,50
5425396,30
5426024,15
5426652,14
5427284,12
5427904,47
5428532,34
5429156,16
5429780,13
5430408,21
5431024,18
5431656,61
5432280,82
5432904,79
5433536,22
5434152,41
5434784,32
5435412,23
5436032,52
5436664,68
5437288,82
5437916,104
5438600,66
5439216,20
5439848,93
5440472,83
5441096,101
5441776,96
5442392,77
5443020,53
5443652,24
5444272,12
5444900,13
5445524,16
5446148,19
5446780,14
5447400,36
5448028,53
5448652,44
5449276,30
5449904,25
5450524,11
5451152,12
5451784,40
5452400,51
5453028,47
5453652,33
5454284,17
5454912,14
5455528,17
5456160,13
5456784,19
5457412,22
5458044,10
5458664,30
5459292,36
5459916,18
5460540,22
5461168,37
5461792,36
5462420,18
5463052,34
5463672,56
5464304,44
5464928,25
5465556,24
5466188,12
5466808,37
5467436,26
5468064,13
5468688,58
5469316,72
5469936,38
5470568,29
5471192,46
5471816,24
5472448,29
5473064,18
5473692,34
5474324,34
5474944,16
5475576,15
5476200,16
5476828,31
5477460,47
5478080,17
5478712,13
5479336,17
5479960,52
5480588,56
5481208,28
5481836,15
5482460,11
5483084,19
5483716,26
5484336,13
5484964,16
5485596,26
5486216,46
5486848,29
5487472,24
5488100,21
5488732,56
5489352,77
5489980,81
5490604,11
5491228,18
5491860,10
5492480,14
5493108,59
5493732,41
5494360,12
5494988,19
5495608,26
5496236,21
5496868,31
5497488,43
5498120,14
5498744,13
5499372,12
5500004,24
5500624,26
5501256,18
5501880,11
5502504,25
5503136,43
5503756,41
5504388,36
5505012,15
5505632,15
5506264,11
5506888,16
5507516,27
5508148,38
5508768,14
5509400,10
5510024,18
5510652,21
5511284,12
5511904,14
5512536,15
5513160,21
5513784,23
5514416,22
5515032,11
5515664,11
5516292,15
5516912,30
5517544,27
5518168,21
5518796,11
5519428,24
5520048,53
5520676,77
5521300,66
5521928,23
5522556,16
5523176,13
5523808,28
5524432,13
5525056,38
5525688,17
5526304,38
5526936,39
5527568,61
5528184,86
5528816,19
5529440,79
5530072,17
5530700,40
5531320,33
5531948,21
5532576,38
5533200,18
5533828,10
5534448,11
5535076,14
5535700,37
5536328,45
5536956,32
5537576,16
5538204,21
5538836,22
5539456,16
5540084,12
5540708,31
5541340,22
5541972,16
5542592,34
5543220,37
5543844,27
5544468,30
5545100,42
5545720,24
5546348,29
5546976,37
5547600,45
5548228,48
5548848,27
5549476,25
5550108,50
5550728,69
5551356,70
5551984,60
5552616,55
5553248,48
5553864,44
5554496,22
5555120,18
5555744,22
5556376,17
5556996,43
5557624,88
5558252,78
5558876,46
5559508,17
5560132,20
5560764,16
5561396,26
5562016,24
5562644,26
5563272,26
5563900,15
5564532,11
5565152,10
5565784,12
5566408,21
5567032,29
5567664,34
5568284,31
5568912,42
5569544,52
5570164,48
5570796,37
5571420,17
5572048,15
5572676,34
5573296,26
5573924,28
5574552,31
5575176,28
5575804,16
5576424,11
5577052,12
5577676,15
5578300,24
5578932,22
5579552,16
5580184,31
5580812,31
5581432,23
5582060,13
5582684,11
5583316,13
5583948,16
5584568,28
5585196,48
5585824,52
5586448,41
5587076,33
5587696,25
5588324,19
5588952,17
5589576,26
5590208,50
5590828,52
5591456,13
5592088,29
5592708,57
5593336,92
5593964,74
5594592,59
5595224,57
5595844,72
5596472,44
5597100,21
5597724,11
5598356,14
5598976,14
5599608,12
5600232,27
5600856,39
5601484,30
5602104,15
5602732,32
5603364,37
5603984,43
5604612,46
5605236,47
5605868,33
5606500,14
5607120,9
5607696,9
5608276,12
5608908,12
5609540,14
5610160,20
5610792,11
5611416,15
5612040,20
5612668,22
5613288,22
5613916,19
5614544,74
5615168,66
5615796,40
5616416,12
5617044,61
5617676,83
5618296,102
5618976,48
5619600,57
5620228,77
5620860,48
5621480,27
5622112,17
5622736,16
5623360,22
5623988,14
5624608,13
5625240,12
5625872,24
5626488,31
5627120,26
5627744,11
5628376,15
5629004,25
5629624,43
5630256,50
5630880,37
5631504,15
5632136,10
5632752,14
5633380,23
5634004,22
5634628,14
5635256,18
5635872,28
5636504,79
5637132,112
5637804,109
5638480,40
5639104,14
5639728,67
5640356,152
5641028,103
5641704,35
5642332,29
5642952,49
5643580,62
5644204,84
5644828,67
5645456,32
5646080,16
5646708,19
5647332,32
5647960,69
5648588,102
5649260,127
5649936,141
5650616,125
5651292,46
5651916,15
5652548,60
5653168,65
5653796,19
5654420,42
5655044,38
5655676,137
5656348,154
5657024,111
5657708,65
5658328,37
5658956,11
5659580,13
5660204,22
5660832,12
5661456,13
5662084,14
5662708,18
5663336,21
5663964,27
5664588,45
5665220,55
5665852,48
5666472,43
5667100,45
5667728,41
5668356,26
5668988,16
5669608,36
5670236,16
5670864,13
5671488,22
5672120,38
5672736,22
5673368,35
5673996,44
5674616,19
5675244,12
5675872,11
5676500,16
5677132,24
5677752,17
5678384,15
5679008,14
5679632,15
5680264,14
5680880,11
5681508,11
5682136,17
5682760,17
5683388,21
5684008,39
5684636,56
5685268,62
5685888,41
5686516,17
5687140,15
5687772,15
5688404,14
5689024,24
5689652,11
5690276,12
5690900,27
5691532,29
5692152,17
5692784,16
5693408,34
5694032,92
5694664,61
5695284,36
5695912,27
5696544,18
5697164,16
5697792,19
5698416,51
5699044,52
5699676,41
5700296,56
5700928,39
5701552,46
5702176,57
5702808,78
5703424,70
5704056,18
5704680,38
5705304,25
5705932,16
5706552,25
5707184,26
5707816,22
5708432,17
5709064,108
5709740,107
5710412,54
5711040,51
5711656,31
5712288,14
5712920,14
5713536,16
5714168,22
5714792,17
5715424,19
5716052,26
5716672,12
5717304,9
5717876,13
5718512,11
5719144,20
5719764,27
5720392,22
5721020,16
5721644,24
5722272,40
5722896,45
5723528,28
5724152,15
5724776,19
5725408,30
5726032,20
5726664,11
5727296,26
5727916,14
5728548,30
5729172,27
5729800,31
5730432,53
5731048,77
5731680,51
5732308,63
5732932,40
5733564,42
5734184,30
5734820,28
5735448,50
5736064,50
5736696,19
5737316,15
5737948,13
5738576,20
5739200,13
5739828,20
5740452,35
5741076,33
5741708,25
5742328,40
5742956,11
5743584,13
5744208,15
5744836,26
5745456,15
5746084,15
5746716,16
5747336,15
5747964,24
5748588,34
5749220,67
5749852,12
5750472,50
5751100,67
5751728,51
5752352,30
5752984,14
5753600,14
5754228,14
5754856,15
5755480,12
5756112,16
5756728,11
5757360,16
5757988,27
5758608,11
5759240,32
5759864,33
5760496,11
5761124,20
5761744,21
5762372,15
5762996,18
5763620,20
5764248,17
5764864,34
5765496,16
5766120,17
5766740,17
5767372,12
5767992,41
5768620,15
5769252,11
5769872,15
5770500,13
5771124,23
5771756,47
5772388,40
5773008,36
5773636,24
5774260,17
5774884,13
5775516,30
5776136,21
5776764,12
5777388,12
5778012,28
5778640,35
5779260,40
5779888,49
5780516,40
5781136,27
5781764,12
5782388,28
5783020,43
5783652,59
5784272,54
5784904,56
5785528,64
5786152,76
5786780,51
5787400,49
5788028,25
5788652,19
5789276,18
5789908,27
5790532,43
5791164,63
5791792,18
5792416,24
5793044,37
5793668,37
5794300,41
5794928,98
5795552,74
5796184,15
5796804,40
5797428,33
5798060,20
5798680,37
5799308,18
5799932,11
5800560,21
5801188,23
5801812,11
5802444,16
5803072,26
5803696,28
5804324,23
5804952,16
5805576,15
5806204,19
5806824,28
5807452,21
5808080,48
5808700,52
5809332,24
5809952,13
5810580,38
5811212,24
5811832,23
5812464,19
5813088,19
5813716,27
5814348,27
5814968,34
5815600,52
5816224,54
5816848,43
5817476,26
5818096,12
5818724,12
5819348,14
5819972,16
5820604,39
5821224,71
5821856,111
5822536,72
5823152,32
5823784,11
5824408,63
5825032,87
5825660,54
5826280,38
5826912,90
5827536,101
5828212,110
5828892,74
5829512,45
5830144,18
5830772,22
5831392,28
5832024,28
5832648,43
5833272,89
5833900,115
5834572,109
5835252,94
5835880,32
5836500,13
5837128,26
5837752,69
5838376,89
5839008,21
5839628,49
5840256,96
5840880,71
5841504,41
5842132,50
5842756,75
5843388,55
5844016,25
5844640,15
5845268,29
5845892,35
5846524,38
5847156,38
5847776,22
5848404,41
5849028,64
5849656,50
5850284,23
5850904,27
5851532,11
5852160,27
5852784,27
5853416,30
5854040,14
5854672,21
5855304,14
5855920,21
5856552,11
5857180,10
5857804,12
5858432,33
5859056,12
5859688,41
5860312,57
5860936,43
5861568,16
5862184,50
5862816,35
5863444,80
5864064,59
5864692,16
5865316,24
5865948,28
5866580,14
5867200,40
5867832,59
5868456,48
5869080,33
5869712,23
5870328,31
5870960,30
5871584,14
5872208,12
5872840,11
5873460,10
5874088,10
5874720,28
5875340,43
5875968,76
5876596,60
5877228,27
5877860,15
5878480,18
5879108,45
5879736,79
5880360,35
5880992,22
5881608,44
5882236,23
5882864,17
5883488,45
5884120,67
5884744,73
5885376,34
5886008,19
5886628,13
5887260,21
5887884,18
5888516,36
5889148,40
5889768,53
5890396,50
5891024,34
5891648,24
5892276,24
5892896,28
5893528,35
5894156,28
5894776,14
5895408,20
5896032,44
5896660,81
5897292,112
5897964,76
5898592,55
5899216,58
5899840,37
5900468,18
5901088,32
5901716,41
5902348,24
5902968,14
5903596,14
5904224,33
5904852,44
5905484,39
5906104,14
5906732,61
5907360,28
5907980,12
5908612,45
5909232,48
5909860,20
5910488,138
5911164,102
5911844,54
5912464,30
5913096,15
5913724,27
5914344,17
5914976,19
5915600,20
5916224,11
5916852,15
5917472,17
5918104,21
5918732,36
5919352,39
5919984,36
5920608,27
5921236,22
5921868,14
5922488,30
5923116,24
5923744,12
5924368,11
5924996,23
5925616,45
5926244,113
5926928,116
5927596,74
5928224,61
5928848,19
5929476,171
5930160,176
5930828,82
5931456,29
5932084,27
5932704,14
5933336,13
5933960,18
5934592,33
5935220,64
5935840,54
5936472,15
5937096,20
5937720,19
5938352,16
5938972,11
5939604,26
5940232,41
5940848,41
5941476,77
5942100,74
5942732,16
5943360,63
5943984,63
5944616,62
5945240,119
5945916,78
5946544,37
5947160,11
5947792,35
5948420,43
5949040,13
5949672,24
5950296,37
5950924,41
5951556,58
5952176,62
5952808,57
5953432,30
5954056,39
5954684,57
5955304,32
5955932,10
5956560,25
5957184,14
5957812,24
5958432,11
5959060,16
5959692,23
5960312,43
5960944,21
5961568,13
5962196,17
5962828,16
5963448,37
5964080,69
5964704,42
5965328,14
5965956,22
5966576,19
5967204,21
5967832,42
5968456,36
5969084,40
5969704,49
5970336,58
5970964,48
5971584,56
5972216,34
5972840,11
5973468,42
5974100,96
5974720,97
5975352,51
5975976,11
5976600,19
5977232,13
5977852,20
5978484,26
5979108,24
5979732,18
5980364,12
5980984,32
5981612,10
5982244,20
5982864,11
5983496,27
5984120,45
5984748,66
5985380,88
5986000,69
5986628,31
5987252,20
5987880,18
5988508,55
5989128,22
5989760,28
5990384,56
5991008,55
5991640,46
5992268,13
5992896,12
5993528,28
5994144,33
5994776,106
5995452,70
5996072,29
5996704,30
5997324,18
5997956,34
5998580,27
5999204,53
5999836,47
6000464,11
6001092,13
6001724,31
6002344,12
6002976,14
6003600,15
6004228,17
6004860,24
6005480,24
6006112,11
6006736,15
6007360,21
6007992,11
6008608,14
6009240,11
6009872,10
6010488,12
6011120,33
6011744,57
6012376,38
6013008,14
6013624,11
6014256,11
6014880,45
6015504,35
6016136,18
6016752,14
6017384,35
6018008,39
6018632,37
6019264,40
6019880,37
6020512,30
6021140,25
6021760,19
6022388,25
6023016,41
6023644,23
6024276,18
6024896,12
6025524,21
6026152,63
6026776,52
6027408,14
6028024,17
6028656,19
6029280,86
6029904,89
6030536,33
6031152,11
6031784,10
6032416,9
6032988,11
6033624,67
6034248,122
6034928,118
6035612,76
6036232,21
6036864,73
6037488,86
6038112,35
6038744,13
6039368,38
6040000,11
6040628,26
6041248,72
6041880,87
6042504,51
6043132,13
6043764,34
6044384,32
6045016,45
6045640,21
6046264,15
6046896,25
6047512,33
6048144,15
6048772,28
6049392,28
6050024,14
6050648,14
6051276,11
6051908,12
6052528,19
6053160,18
6053784,17
6054408,14
6055036,18
6055656,17
6056288,38
6056912,60
6057536,59
6058168,36
6058788,29
6059420,13
6060052,28
6060672,72
6061304,50
6061928,16
6062560,14
6063188,24
6063808,12
6064440,13
6065064,14
6065688,10
6066316,10
6066936,12
6067568,25
6068192,23
6068816,24
6069444,14
6070064,14
6070696,16
6071328,26
6071944,26
6072576,12
6073204,10
6073836,18
6074464,35
6075088,24
6075720,17
6076344,25
6076968,11
6077600,14
6078216,15
6078848,14
6079476,14
6080100,39
6080732,74
6081356,114
6082036,110
6082716,28
6083336,35
6083964,62
6084592,57
6085216,37
6085844,15
6086468,26
6087100,35
6087732,20
6088352,17
6088980,16
6089604,16
6090236,14
6090868,38
6091488,64
6092120,79
6092744,36
6093372,13
6094000,43
6094624,43
6095256,26
6095884,16
6096504,14
6097136,24
6097760,35
6098388,32
6099020,30
6099640,46
6100272,62
6100896,64
6101520,49
6102152,47
6102772,14
6103404,14
6104028,31
6104652,27
6105280,10
6105904,10
6106536,20
6107164,42
6107784,13
6108416,10
6109040,15
6109672,16
6110300,11
6110920,73
6111552,87
6112180,16
6112804,79
6113436,114
6114108,90
6114736,80
6115364,20
6115984,49
6116616,95
6117240,37
6117872,13
6118504,16
6119120,37
6119752,37
6120380,71
6121004,45
6121636,14
6122256,12
6122888,12
6123512,11
6124140,10
6124768,10
6125396,15
6126028,17
6126660,42
6127280,57
6127912,56
6128540,36
6129164,16
6129796,14
6130416,32
6131048,53
6131676,65
6132300,59
6132932,38
6133552,43
6134184,77
6134820,61
6135440,31
6136072,47
6136696,102
6137380,87
6138008,31
6138628,19
6139260,47
6139884,36
6140512,18
6141144,26
6141768,94
6142404,78
6143036,35
6143660,11
6144292,21
6144916,24
6145540,23
6146172,60
6146792,72
6147420,43
6148044,13
6148668,45
6149296,65
6149920,63
6150548,74
6151180,78
6151800,95
6152428,65
6153052,54
6153684,40
6154312,26
6154936,33
6155564,106
6156240,86
6156864,69
6157492,35
6158112,16
6158740,10
6159372,14
6159992,17
6160624,13
6161248,28
6161876,43
6162508,56
6163128,54
6163760,55
6164384,27
6165008,25
6165636,64
6166256,46
6166884,33
6167508,25
6168136,13
6168764,34
6169384,67
6170016,69
6170644,58
6171264,40
6171892,25
6172520,19
6173148,35
6173780,16
6174400,21
6175028,20
6175656,14
6176280,45
6176908,35
6177528,16
6178156,28
6178784,86
6179408,126
6180092,91
6180712,85
6181344,31
6181972,78
6182592,117
6183276,108
6183956,86
6184576,35
6185208,24
6185832,43
6186460,33
6187092,30
6187712,17
6188344,12
6188968,11
6189592,20
6190224,31
6190840,23
6191472,11
6192096,21
6192720,43
6193352,34
6193968,20
6194600,14
6195232,16
6195848,28
6196476,29
6197104,29
6197732,34
6198364,13
6198984,36
6199616,13
6200240,42
6200864,62
6201496,38
6202112,35
6202744,29
6203368,25
6203992,21
6204624,24
6205244,52
6205876,46
6206504,16
6207128,19
6207760,12
6208384,45
6209012,30
6209644,18
6210264,45
6210896,64
6211520,93
6212144,48
6212772,17
6213392,47
6214024,65
6214648,70
6215272,22
6215904,24
6216528,24
6217160,35
6217788,21
6218408,36
6219040,21
6219664,13
6220296,16
6220928,14
6221544,14
6222176,11
6222800,10
6223424,12
6224056,10
6224672,12
6225304,20
6225936,15
6226552,24
6227184,21
6227808,31
6228440,32
6229068,15
6229688,16
6230320,31
6230944,23
6231568,19
6232200,13
6232816,13
6233448,12
6234072,27
6234696,49
6235328,54
6235944,34
6236576,46
6237208,52
6237828,49
6238460,42
6239084,49
6239716,16
6240348,68
6240968,82
6241596,50
6242224,49
6242848,49
6243480,31
6244096,24
6244724,22
6245352,19
6245976,25
6246608,19
6247224,12
6247852,19
6248484,36
6249104,30
6249732,18
6250356,15
6250988,26
6251620,44
6252240,37
6252868,19
6253492,13
6254116,15
6254748,21
6255368,19
6255996,17
6256624,16
6257248,13
6257876,21
6258504,24
6259132,29
6259764,34
6260384,57
6261016,74
6261640,90
