tempo_arduino_micro_s,valor_ADC
500,28
1004,35
1500,38
2000,48
2504,48
3000,42
3508,26
4000,22
4508,17
5000,16
5500,11
6000,14
6500,26
7004,41
7500,58
8000,57
8500,41
9000,27
9500,19
10000,18
10516,14
11036,17
11564,23
12084,19
12612,14
13132,18
13660,22
14180,29
14708,25
15228,21
15756,22
16276,21
16796,23
17316,32
17836,48
18356,57
18876,60
19396,49
19916,28
20436,21
20956,23
21476,17
21996,15
22516,13
23036,27
23564,34
24084,35
24612,36
25132,33
25660,36
26180,34
26708,31
27228,22
27756,21
28276,22
28804,24
29324,18
29852,15
30372,18
30900,24
31420,21
31948,16
32468,18
32996,22
33516,22
34044,38
34564,54
35092,63
35612,64
36140,55
36660,30
37188,20
37708,18
38236,15
38760,14
39284,12
39804,22
40332,40
40852,53
41372,57
41892,53
42412,47
42932,47
43452,48
43972,39
44492,28
45012,15
45532,25
46052,36
46572,32
47092,35
47612,39
48140,35
48660,13
49188,14
49708,11
50236,25
50756,41
51284,59
51804,73
52332,66
52852,53
53380,48
53900,44
54428,29
54948,23
55476,13
55996,16
56524,31
57044,40
57572,44
58096,40
58620,43
59140,46
59668,47
60188,39
60716,30
61240,26
61764,16
62284,15
62812,19
63332,22
63860,23
64384,27
64908,28
65428,27
65948,20
66468,23
66988,21
67508,27
68028,35
68548,45
69068,52
69588,47
70108,31
70628,26
71148,23
71672,17
72192,12
72716,21
73236,29
73764,34
74284,29
74812,22
75332,27
75860,35
76384,36
76908,33
77428,26
77956,24
78480,21
79004,18
79528,19
80052,17
80572,12
81100,19
81620,23
82148,20
82668,20
83196,29
83720,35
84244,48
84764,53
85292,61
85812,63
86340,57
86860,45
87388,31
87908,20
88436,16
88956,11
89484,21
90004,35
90524,42
91044,40
91564,45
92084,45
92604,37
93124,35
93644,28
94164,18
94684,16
95204,14
95724,15
96248,16
96764,18
97292,23
97812,13
98340,10
98860,12
99388,17
99908,26
100436,35
101004,59
101584,75
102156,76
102736,56
103304,32
103880,18
104456,19
105024,16
105600,11
106168,21
106744,31
107312,38
107896,38
108464,47
109040,51
109624,50
110192,47
110776,42
111344,38
111928,24
112500,15
113080,24
113648,28
114224,28
114800,35
115368,34
115952,29
116520,30
117104,32
117676,49
118252,54
118832,64
119400,58
119984,35
120556,15
121136,15
121704,17
122288,21
122856,28
123436,29
124016,20
124584,15
125168,13
125736,20
126320,32
126888,40
127464,36
128048,33
128616,21
129192,15
129760,19
130344,21
130912,24
131496,19
132064,17
132640,17
133216,17
133784,16
134360,29
134928,48
135512,61
136084,67
136656,61
137232,49
137800,24
138384,15
138952,13
139536,21
140104,40
140688,51
141260,43
141832,35
142416,30
142984,30
143568,28
144136,27
144720,19
145288,16
145864,17
146440,16
147008,20
147592,22
148160,19
148744,19
149312,21
149896,32
150468,40
151040,51
151624,35
152196,31
152776,29
153348,24
153928,19
154496,15
155072,16
155640,11
156216,11
156800,26
157368,37
157944,20
158516,13
159096,20
159668,24
160244,22
160824,17
161392,23
161968,19
162536,18
163120,14
163692,17
164272,16
164840,11
165408,17
165984,27
166552,32
167136,37
167704,58
168288,63
168856,66
169424,66
170008,51
170576,28
171160,19
171728,15
172312,15
172880,31
173464,45
174032,50
174612,49
175192,41
175764,33
176344,28
176912,25
177496,31
178064,26
178640,18
179224,16
179792,15
180368,14
180936,19
181520,25
182088,24
182672,27
183240,37
183816,45
184400,50
184968,49
185544,48
186112,48
186696,30
187264,18
187848,15
188424,18
188992,27
189576,40
190144,35
190728,36
191296,37
191880,37
192452,32
193024,31
193608,31
194176,32
194760,40
195328,17
195912,26
196480,28
197064,21
197640,21
198208,19
198792,24
199364,34
199944,51
200516,65
201096,69
201668,71
202240,67
202824,48
203396,27
203976,15
204548,14
205128,15
205696,12
206272,18
206840,31
207408,37
207984,37
208556,35
209136,28
209704,30
210288,25
210856,18
211432,16
212016,14
212584,16
213168,16
213736,15
214320,13
214892,12
215472,12
216040,11
216616,12
217192,24
217764,47
218344,49
218912,51
219496,55
220068,50
220644,42
221224,27
221792,22
222376,14
222948,31
223528,46
224100,54
224680,47
225248,35
225828,25
226408,21
226976,20
227560,23
228128,26
228712,16
229284,15
229856,15
230440,12
231008,11
231584,16
232156,17
232736,15
233308,26
233888,39
234460,48
235036,65
235616,72
236188,52
236768,33
237340,22
237920,13
238492,16
239064,23
239648,26
240220,30
240800,23
241368,24
241944,28
242512,34
243096,45
243668,51
244240,40
244824,27
245392,15
245976,20
246544,27
247128,37
247696,39
248272,38
248856,36
249424,35
250008,35
250576,40
251160,45
251732,44
252312,41
252884,38
253456,22
254040,16
254612,15
255192,15
255764,15
256344,27
256920,33
257488,28
258064,34
258632,39
259216,37
259784,36
260360,36
260928,40
261512,34
262084,32
262656,35
263240,22
263808,27
264392,35
264960,30
265544,33
266116,42
266696,45
267272,48
267840,56
268424,65
268992,70
269576,55
270148,32
270728,25
271296,21
271876,21
272456,11
273024,19
273608,33
274176,39
274760,39
275332,33
275912,20
276488,29
277056,31
277632,32
278204,27
278784,24
279356,16
279936,15
280508,16
281084,29
281664,35
282232,22
282816,10
283384,10
283968,22
284540,40
285120,56
285692,66
286268,54
286848,31
287416,22
288000,17
288568,13
289144,11
289712,18
290288,29
290872,39
291444,38
292024,35
292592,31
293176,30
293748,27
294328,18
294900,15
295472,16
296056,15
296624,16
297208,13
297776,17
298360,20
298932,17
299508,24
300088,37
300660,46
301240,51
301812,64
302392,59
302972,38
303552,19
304136,15
304708,15
305288,18
305860,24
306440,42
307020,56
307600,54
308176,35
308752,23
309336,18
309908,18
310488,23
311056,29
311640,17
312212,15
312788,21
313368,24
313940,30
314520,31
315092,29
315672,27
316252,24
316832,23
317404,24
317980,35
318560,47
319132,47
319712,32
320292,32
320872,20
321440,16
322016,23
322600,33
323168,32
323752,30
324324,18
324904,18
325472,17
326056,10
326628,11
327200,10
327784,14
328352,14
328936,15
329504,15
330088,17
330656,13
331232,11
331816,20
332384,24
332968,27
333536,25
334112,36
334680,43
335264,53
335832,60
336412,47
336992,36
337560,29
338144,25
338712,13
339296,17
339864,31
340432,44
341016,53
341584,58
342168,47
342736,29
343320,29
343888,32
344472,27
345040,21
345616,18
346200,16
346768,15
347352,19
347924,24
348504,28
349072,38
349652,40
350232,34
350804,43
351384,56
351956,62
352536,61
353116,43
353696,28
354264,23
354840,17
355424,11
355996,21
356576,41
357148,48
357728,45
358300,41
358876,39
359456,30
360028,22
360608,24
361176,27
361760,25
362328,19
362912,13
363484,15
364060,29
364640,39
365212,47
365792,50
366364,45
366944,35
367516,42
368092,47
368672,53
369240,52
369824,34
370396,21
370976,14
371548,15
372128,10
372696,24
373276,36
373856,39
374424,42
375008,41
375580,36
376160,37
376740,34
377316,21
377896,16
378468,14
379048,15
379616,16
380200,20
380772,22
381352,21
381932,22
382508,22
383088,19
383660,21
384240,38
384816,48
385400,56
385968,50
386544,30
387128,20
387700,16
388280,14
388852,14
389432,15
390004,19
390584,33
391152,30
391732,25
392312,26
392884,32
393464,41
394036,46
394616,40
395188,25
395764,19
396344,19
396916,15
397496,19
398068,24
398648,37
399228,38
399808,27
400392,20
400960,35
401544,56
402116,71
402696,72
403268,48
403848,28
404416,23
404996,16
405576,12
406148,17
406728,18
407300,19
407880,25
408452,30
409032,32
409608,24
410180,26
410760,29
411328,27
411912,25
412480,22
413064,20
413632,13
414208,11
414792,11
415360,13
415944,17
416516,30
417096,41
417664,46
418248,51
418824,56
419392,48
419976,30
420544,24
421128,22
421696,23
422280,17
422852,11
423424,15
424008,24
424576,29
425152,29
425720,26
426304,30
426872,31
427456,23
428028,16
428600,14
429184,15
429756,15
430336,12
430908,16
431488,21
432060,24
432632,22
433216,23
433788,28
434368,40
434940,44
435520,41
436088,33
436672,19
437244,14
437816,14
438400,17
438968,19
439552,17
440124,14
440704,19
441272,34
441852,34
442432,31
443004,31
443584,31
444156,28
444736,17
445308,19
445888,21
446460,21
447036,26
447616,25
448188,19
448768,21
449336,26
449920,19
450488,14
451068,30
451648,51
452216,56
452800,48
453368,27
453952,15
454524,15
455104,17
455676,11
456252,28
456832,42
457404,39
457984,29
458556,29
459136,32
459708,31
460284,35
460864,29
461432,19
462008,14
462576,16
463160,22
463732,26
464312,27
464884,34
465456,35
466040,32
466612,33
467192,37
467764,43
468344,41
468916,42
469492,38
470072,34
470644,27
471224,21
471796,14
472376,12
472948,22
473528,28
474100,28
474676,30
475256,30
475828,27
476408,29
476988,29
477568,25
478140,24
478716,18
479296,15
479872,15
480448,10
481020,12
481600,19
482168,21
482752,20
483324,18
483900,24
484480,45
485048,59
485632,55
486204,43
486784,24
487360,17
487936,14
488520,14
489092,15
489672,26
490244,29
490824,27
491396,21
491976,16
492560,12
493132,13
493712,19
494284,24
494864,21
495436,23
496016,25
496584,22
497164,15
497744,29
498316,38
498896,37
499468,27
500048,24
500616,35
501200,44
501776,47
502344,50
502928,41
503500,24
504080,18
504660,18
505240,13
505812,18
506388,34
506968,40
507540,38
508120,27
508692,24
509272,32
509852,40
510428,44
511008,34
511580,22
512164,14
512732,15
513312,16
513880,22
514464,27
515032,29
515612,32
516192,29
516760,32
517344,41
517912,41
518496,44
519064,47
519640,33
520224,24
520792,22
521376,24
521948,17
522528,11
523096,23
523680,28
524248,29
524824,25
525408,17
525976,12
526560,12
527128,22
527712,33
528284,27
528856,19
529440,18
530012,17
530592,18
531164,22
531744,16
532324,11
532904,9
533420,15
533996,31
534576,43
535148,50
535728,48
536300,36
536880,29
537452,23
538032,17
538600,11
539176,14
539760,11
540332,14
540912,17
541484,21
542064,27
542636,30
543212,21
543792,23
544364,32
544944,34
545516,24
546096,17
546664,15
547248,24
547816,41
548396,41
548976,37
549548,35
550128,32
550700,32
551280,33
551852,34
552428,37
553008,27
553580,22
554160,16
554732,17
555312,15
555892,10
556472,16
557044,25
557620,26
558200,22
558772,23
559352,29
559924,28
560504,24
561084,19
561660,17
562240,16
562812,14
563392,14
563960,13
564544,16
565112,19
565696,22
566268,23
566844,26
567424,32
567996,43
568576,48
569156,41
569736,28
570316,25
570892,22
571472,18
572044,11
572624,17
573196,27
573776,38
574356,43
574932,40
575512,26
576084,21
576664,21
577232,22
577816,19
578388,15
578968,15
579540,18
580116,18
580696,11
581268,11
581848,9
582368,14
582944,22
583524,22
584104,37
584676,51
585252,59
585832,49
586404,24
586984,14
587556,22
588136,37
588716,28
589292,11
589872,19
590444,39
591024,48
591596,40
592176,29
592756,14
593336,10
593908,14
594484,15
595064,15
595636,15
596216,17
596788,18
597368,12
597948,11
598524,18
599104,23
599676,25
600256,25
600828,36
601408,38
601980,40
602560,43
603132,38
603708,32
604288,23
604860,14
605440,20
606012,28
606592,32
607172,34
607748,34
608332,36
608900,39
609480,40
610052,32
610632,23
611212,15
611792,22
612372,32
612944,24
613520,17
614096,15
614672,21
615248,23
615832,20
616404,29
616976,32
617560,32
618132,41
618712,50
619284,43
619864,36
620436,25
621012,18
621592,19
622164,11
622744,11
623316,18
623896,31
624476,28
625056,26
625636,31
626212,34
626792,34
627364,36
627944,35
628516,22
629096,15
629668,15
630244,14
630824,17
631396,17
631976,17
632552,21
633128,22
633708,30
634288,44
634868,47
635444,48
636024,39
636596,25
637176,18
637756,15
638336,14
638916,13
639492,24
640076,23
640644,15
641224,13
641792,19
642376,26
642948,32
643528,39
644104,39
644676,32
645256,18
645824,16
646408,21
646976,26
647552,31
648124,31
648696,22
649280,16
649848,19
650432,33
651004,50
651584,67
652156,73
652736,59
653320,38
653892,23
654472,16
655044,14
655624,14
656192,28
656776,41
657344,42
657920,42
658504,35
659072,34
659656,41
660224,47
660808,45
661376,24
661952,17
662524,24
663096,22
663680,25
664248,34
664832,27
665404,22
665984,19
666552,26
667128,39
667712,51
668284,62
668864,61
669432,42
670016,30
670588,25
671168,20
671740,15
672316,16
672896,30
673464,50
674048,56
674616,51
675200,48
675768,40
676348,39
676928,30
677496,19
678080,17
678648,16
679232,19
679800,29
680384,37
680952,36
681532,33
682112,36
682684,30
683264,23
683836,28
684416,35
684988,49
685560,54
686144,40
686712,24
687296,18
687868,15
688448,15
689016,16
689600,19
690168,28
690748,38
691328,44
691900,37
692480,38
693048,50
693632,48
694204,37
694780,27
695360,23
695932,18
696512,16
697084,32
697664,45
698232,56
698816,49
699388,54
699964,59
700544,59
701116,46
701696,41
702276,37
702856,20
703436,15
704012,22
704592,21
705164,12
705744,13
706316,24
706896,29
707472,25
708052,30
708632,43
709204,47
709784,32
710356,16
710936,18
711516,17
712096,15
712676,15
713252,18
713832,25
714404,25
714984,23
715556,26
716136,35
716716,43
717292,57
717872,66
718444,72
719024,75
719596,59
720176,41
720752,26
721336,15
721908,15
722484,30
723064,40
723636,44
724216,42
724788,40
725368,39
725940,41
726516,42
727096,40
727668,34
728248,23
728820,17
729400,16
729972,20
730552,22
731124,17
731700,15
732280,21
732852,27
733432,29
734004,51
734584,57
735164,62
735740,64
736320,36
736892,19
737472,15
738044,16
738624,11
739196,22
739776,31
740360,26
740932,29
741512,27
742084,30
742664,32
743240,31
743824,24
744396,31
744972,24
745552,17
746124,15
746704,20
747276,22
747856,25
748428,21
749008,20
749584,22
750156,26
750736,51
751308,61
751888,62
752468,38
753048,17
753628,14
754204,15
754784,17
755356,14
755936,14
756516,17
757096,25
757668,24
758244,28
758824,36
759396,31
759976,25
760552,32
761128,23
761708,15
762288,13
762860,15
763436,18
764016,29
764588,34
765168,38
765748,31
766328,24
766908,26
767484,37
768068,44
768636,50
769216,54
769788,44
770368,28
770940,16
771520,15
772092,17
772668,30
773248,42
773820,44
774400,39
774972,35
775552,23
776132,19
776708,19
777288,21
777860,16
778440,14
779012,15
779592,18
780164,11
780744,13
781320,15
781892,20
782472,19
783044,23
783624,36
784196,49
784776,60
785348,69
785924,65
786504,48
787076,29
787656,18
788228,15
788808,27
789384,39
789968,54
790552,51
791124,41
791704,36
792276,30
792856,27
793436,19
794020,19
794596,17
795172,15
795752,14
796328,15
796904,11
797484,24
798064,37
798644,37
799220,35
799800,34
800376,51
800952,62
801524,71
802104,67
802676,50
803256,32
803828,22
804404,17
804984,16
805556,24
806136,36
806716,47
807296,56
807868,45
808444,36
809024,33
809596,43
810176,47
810748,44
811328,34
811908,17
812488,15
813072,16
813644,25
814224,35
814796,48
815376,54
815956,43
816540,37
817116,37
817692,34
818272,35
818844,29
819424,20
820000,19
820576,25
821144,29
821712,18
822296,11
822864,14
823448,22
824016,23
824600,29
825168,48
825752,36
826320,24
826896,22
827480,24
828048,28
828632,25
829204,19
829784,15
830352,22
830932,30
831512,26
832084,25
832664,26
833232,28
833808,35
834376,46
834960,56
835528,56
836104,39
836688,36
837260,34
837840,22
838408,19
838992,11
839564,12
840144,21
840720,28
841288,38
841872,43
842440,37
843024,39
843596,35
844176,33
844748,29
845324,17
845904,18
846472,18
847056,21
847628,26
848208,27
848776,18
849360,15
849936,21
850504,42
851088,50
851660,51
852240,52
852812,40
853392,23
853964,19
854540,17
855120,11
855692,13
856272,31
856844,50
857424,52
857996,42
858576,35
859152,31
859724,30
860304,27
860876,18
861456,14
862024,23
862608,24
863180,29
863756,28
864336,27
864908,26
865488,23
866056,19
866640,25
867208,49
867792,57
868368,61
868940,55
869520,37
870092,24
870672,17
871240,15
871824,23
872396,38
872972,51
873552,51
874124,48
874704,45
875276,38
875856,30
876436,26
877012,15
877592,14
878164,14
878744,17
879316,18
879896,19
880476,21
881056,24
881628,28
882200,29
882784,30
883356,30
883936,44
884508,53
885088,56
885660,51
886236,30
886816,17
887388,15
887968,16
888540,19
889120,29
889692,32
890272,32
890844,27
891420,25
892000,23
892572,34
893152,37
893732,37
894312,37
894892,34
895468,27
896052,22
896620,15
897200,17
897768,29
898352,24
898924,20
899504,20
900076,28
900652,75
901232,99
901804,94
902384,74
902956,45
903536,30
904108,18
904680,17
905264,11
905836,27
906416,49
906984,50
907568,41
908140,34
908720,32
909300,31
909876,30
910456,22
911028,23
911608,17
912188,15
912768,15
913340,19
913916,26
914496,34
915068,32
915648,23
916220,17
916800,22
917380,32
917960,44
918544,49
919116,45
919696,45
920268,45
920848,39
921428,27
922012,11
922584,20
923160,38
923744,44
924316,51
924896,53
925468,45
926048,39
926620,33
927196,24
927776,16
928352,16
928928,17
929500,16
930080,12
930652,12
931232,19
931804,18
932380,22
932960,37
933532,46
934112,54
934692,61
935272,50
935844,30
936420,15
937000,16
937572,14
938152,15
938724,11
939304,14
939884,15
940464,25
941044,30
941620,30
942200,31
942772,34
943352,35
943932,29
944512,24
945092,19
945668,15
946248,15
946820,15
947400,17
947972,21
948552,25
949132,29
949712,33
950288,43
950864,44
951440,48
952016,50
952592,55
953172,47
953752,26
954332,18
954908,15
955488,15
956064,26
956640,32
957220,28
957800,25
958380,26
958956,27
959540,35
960112,36
960688,32
961260,20
961840,15
962412,14
962992,15
963564,10
964140,18
964720,26
965292,26
965872,28
966444,35
967024,48
967596,63
968172,65
968752,49
969324,28
969904,22
970476,17
971056,15
971636,18
972216,30
972796,28
973376,29
973952,30
974524,27
975104,25
975676,26
976256,32
976836,28
977412,24
977992,22
978564,20
979144,17
979716,15
980296,18
980876,26
981456,22
982032,19
982604,23
983184,33
983756,61
984336,73
984908,66
985488,55
986060,37
986636,24
987216,16
987788,15
988368,15
988940,31
989520,51
990092,62
990672,53
991248,44
991820,43
992400,45
992972,44
993552,21
994124,15
994704,13
995276,19
995852,29
996432,29
997004,28
997584,31
998164,33
998744,26
999324,26
999900,31
1000480,47
1001096,57
1001724,68
1002348,64
1002976,46
1003604,20
1004224,16
1004852,16
1005472,29
1006096,39
1006724,42
1007344,41
1007972,40
1008596,43
1009220,44
1009852,28
1010472,12
1011100,14
1011732,14
1012352,17
1012980,17
1013604,15
1014236,12
1014864,10
1015480,10
1016112,17
1016736,21
1017360,41
1017988,62
1018608,82
1019236,76
1019860,49
1020484,33
1021116,17
1021736,12
1022364,21
1022996,36
1023616,34
1024248,36
1024868,37
1025496,30
1026120,34
1026740,33
1027368,33
1027992,24
1028612,16
1029240,14
1029860,17
1030488,23
1031112,24
1031732,22
1032360,25
1032980,41
1033608,51
1034232,53
1034856,56
1035484,51
1036108,33
1036736,20
1037364,14
1037980,15
1038612,16
1039232,31
1039864,50
1040492,50
1041108,37
1041740,32
1042360,25
1042984,21
1043612,13
1044228,15
1044860,14
1045480,15
1046100,16
1046732,18
1047348,22
1047980,19
1048608,21
1049224,22
1049852,24
1050476,40
1051104,48
1051732,56
1052352,61
1052980,45
1053600,26
1054224,16
1054852,16
1055472,27
1056100,37
1056720,35
1057344,27
1057972,28
1058592,35
1059220,39
1059848,49
1060464,36
1061092,19
1061716,14
1062344,19
1062976,23
1063592,27
1064220,28
1064844,25
1065472,20
1066100,15
1066720,29
1067348,55
1067968,64
1068592,54
1069220,44
1069840,29
1070468,15
1071088,18
1071712,26
1072340,27
1072964,29
1073592,27
1074220,26
1074840,21
1075468,18
1076092,28
1076720,30
1077348,24
1077968,17
1078596,16
1079220,15
1079840,22
1080472,31
1081088,23
1081716,14
1082340,15
1082960,19
1083592,29
1084208,44
1084836,63
1085464,66
1086088,46
1086716,31
1087340,23
1087968,18
1088596,15
1089216,35
1089844,46
1090464,40
1091088,38
1091716,40
1092336,36
1092964,34
1093588,23
1094212,23
1094840,16
1095456,15
1096088,15
1096716,20
1097336,37
1097964,49
1098588,49
1099216,40
1099844,34
1100464,51
1101092,67
1101716,71
1102344,53
1102972,22
1103592,15
1104220,15
1104844,15
1105468,17
1106096,31
1106720,42
1107348,39
1107976,38
1108596,35
1109224,32
1109848,34
1110476,35
1111104,29
1111728,15
1112356,21
1112980,21
1113604,21
1114236,23
1114856,25
1115484,23
1116108,20
1116732,29
1117364,55
1117984,70
1118616,61
1119244,48
1119864,36
1120496,19
1121116,15
1121748,22
1122376,30
1122996,38
1123624,35
1124248,38
1124872,43
1125500,36
1126120,39
1126748,45
1127372,35
1127996,16
1128624,19
1129240,29
1129868,33
1130492,32
1131120,29
1131748,27
1132372,28
1133000,34
1133628,40
1134248,53
1134876,61
1135500,53
1136132,25
1136760,17
1137376,15
1138008,16
1138628,23
1139252,33
1139884,44
1140504,46
1141132,39
1141756,31
1142384,30
1143016,33
1143640,21
1144268,17
1144900,14
1145520,15
1146152,20
1146776,25
1147400,27
1148028,24
1148648,27
1149276,33
1149900,32
1150524,49
1151152,67
1151776,69
1152408,47
1153036,22
1153656,15
1154284,15
1154904,18
1155536,35
1156164,42
1156784,49
1157412,39
1158036,33
1158660,34
1159292,33
1159912,31
1160540,24
1161164,18
1161788,15
1162416,18
1163032,28
1163660,29
1164284,26
1164912,24
1165540,32
1166164,45
1166792,50
1167420,48
1168040,48
1168668,52
1169288,40
1169916,24
1170548,22
1171168,22
1171796,10
1172424,27
1173044,46
1173676,50
1174296,32
1174924,20
1175548,27
1176176,35
1176804,39
1177428,27
1178060,14
1178688,17
1179308,22
1179936,19
1180560,15
1181188,22
1181820,24
1182440,24
1183068,29
1183692,50
1184316,61
1184948,55
1185568,47
1186196,30
1186828,18
1187448,15
1188076,17
1188700,34
1189332,45
1189960,45
1190576,39
1191204,28
1191828,17
1192452,19
1193084,26
1193704,37
1194332,24
1194956,14
1195580,15
1196212,14
1196832,11
1197460,15
1198092,22
1198712,37
1199340,37
1199968,31
1200596,59
1201228,73
1201848,68
1202476,60
1203100,43
1203724,28
1204356,15
1204976,13
1205604,28
1206228,36
1206852,41
1207480,35
1208104,33
1208732,31
1209364,30
1209984,29
1210612,25
1211236,22
1211868,15
1212496,17
1213112,16
1213744,17
1214368,15
1214992,19
1215620,27
1216240,35
1216868,36
1217492,44
1218116,50
1218744,46
1219368,30
1219996,17
1220628,14
1221248,15
1221876,10
1222500,14
1223132,19
1223760,28
1224380,42
1225008,41
1225632,27
1226256,28
1226884,26
1227504,27
1228136,22
1228760,17
1229384,15
1230012,16
1230632,25
1231260,25
1231888,25
1232512,26
1233140,32
1233764,41
1234392,47
1235020,54
1235640,55
1236268,45
1236892,31
1237516,20
1238144,15
1238760,19
1239392,27
1240016,37
1240636,42
1241268,40
1241888,28
1242516,16
1243144,17
1243768,21
1244396,17
1245020,14
1245648,15
1246280,17
1246896,13
1247524,10
1248148,13
1248772,15
1249404,22
1250024,28
1250652,38
1251276,39
1251900,31
1252528,22
1253144,18
1253776,18
1254400,16
1255020,12
1255652,18
1256276,39
1256904,37
1257536,27
1258152,21
1258784,17
1259408,11
1260036,12
1260668,17
1261288,17
1261916,15
1262540,15
1263164,16
1263796,14
1264416,19
1265044,18
1265676,24
1266296,26
1266924,30
1267552,58
1268180,71
1268812,58
1269432,31
1270064,17
1270684,18
1271308,18
1271940,12
1272560,13
1273188,32
1273812,43
1274436,43
1275068,36
1275688,27
1276316,31
1276948,40
1277568,46
1278196,19
1278824,15
1279452,16
1280084,16
1280700,23
1281328,33
1281948,35
1282572,37
1283200,38
1283812,49
1284444,57
1285064,55
1285688,42
1286316,23
1286936,17
1287564,14
1288188,14
1288808,20
1289436,29
1290060,38
1290688,41
1291316,36
1291936,29
1292564,19
1293188,15
1293816,27
1294444,26
1295060,16
1295692,14
1296316,16
1296936,17
1297564,14
1298184,11
1298812,14
1299436,19
1300060,18
1300688,29
1301304,60
1301932,83
1302564,73
1303184,50
1303812,24
1304436,17
1305064,11
1305696,17
1306312,30
1306940,35
1307564,32
1308188,29
1308816,27
1309432,27
1310060,25
1310684,27
1311312,24
1311940,18
1312560,15
1313188,14
1313816,15
1314432,18
1315060,14
1315684,12
1316312,22
1316940,30
1317560,41
1318188,48
1318812,48
1319432,45
1320060,35
1320676,28
1321308,18
1321928,17
1322548,23
1323180,42
1323800,46
1324428,31
1325052,36
1325672,32
1326304,24
1326924,15
1327552,13
1328184,17
1328800,18
1329428,21
1330052,21
1330680,15
1331308,13
1331924,20
1332552,41
1333176,43
1333796,44
1334428,48
1335044,48
1335672,37
1336296,24
1336920,17
1337548,14
1338168,15
1338796,22
1339424,33
1340040,29
1340672,17
1341292,13
1341924,15
1342552,16
1343168,19
1343796,22
1344420,30
1345044,25
1345672,20
1346288,19
1346916,11
1347540,14
1348160,29
1348788,32
1349408,33
1350036,35
1350664,50
1351288,58
1351916,51
1352540,40
1353168,30
1353796,21
1354416,16
1355044,11
1355664,18
1356292,28
1356924,30
1357540,35
1358172,41
1358792,35
1359416,29
1360044,31
1360660,46
1361288,56
1361912,57
1362536,37
1363164,15
1363788,26
1364416,34
1365044,46
1365664,38
1366292,39
1366916,51
1367544,69
1368172,64
1368792,65
1369420,56
1370044,45
1370668,30
1371296,18
1371912,11
1372544,21
1373164,27
1373788,29
1374420,27
1375040,20
1375672,17
1376300,22
1376920,27
1377548,24
1378172,22
1378800,19
1379428,14
1380048,11
1380676,14
1381300,19
1381924,29
1382552,30
1383168,28
1383800,40
1384420,56
1385044,61
1385672,59
1386288,41
1386920,20
1387548,16
1388168,27
1388796,28
1389420,27
1390048,33
1390680,32
1391296,29
1391928,27
1392552,27
1393176,26
1393804,24
1394424,20
1395052,16
1395676,16
1396300,20
1396928,23
1397544,20
1398172,16
1398804,18
1399424,28
1400052,36
1400676,48
1401304,49
1401932,48
1402552,39
1403180,27
1403804,17
1404428,15
1405056,13
1405680,23
1406308,30
1406932,32
1407556,36
1408188,38
1408804,26
1409432,22
1410060,17
1410680,20
1411308,17
1411932,15
1412560,15
1413188,12
1413808,16
1414436,15
1415056,21
1415684,23
1416312,26
1416936,40
1417564,43
1418188,51
1418812,47
1419444,30
1420064,23
1420692,18
1421324,20
1421944,26
1422572,29
1423196,50
1423828,60
1424456,41
1425080,34
1425708,19
1426332,11
1426956,20
1427584,26
1428208,41
1428836,35
1429460,20
1430084,13
1430712,21
1431336,19
1431964,24
1432596,20
1433216,12
1433848,12
1434468,23
1435096,47
1435724,52
1436344,42
1436972,24
1437596,14
1438220,15
1438848,22
1439464,39
1440092,48
1440716,35
1441336,24
1441964,24
1442584,23
1443212,13
1443832,13
1444456,13
1445088,16
1445708,15
1446340,15
1446968,21
1447584,27
1448216,32
1448836,31
1449468,26
1450096,30
1450712,41
1451340,54
1451964,51
1452588,35
1453220,19
1453840,15
1454468,15
1455092,11
1455716,14
1456344,27
1456968,36
1457596,34
1458224,25
1458848,22
1459476,19
1460100,20
1460728,18
1461360,15
1461976,15
1462604,17
1463228,12
1463852,11
1464480,10
1465104,12
1465732,18
1466356,28
1466980,38
1467608,57
1468232,64
1468860,47
1469492,30
1470112,19
1470740,17
1471364,15
1471996,10
1472628,10
1473248,23
1473876,40
1474500,36
1475124,32
1475756,36
1476376,35
1477004,23
1477628,15
1478248,16
1478880,19
1479500,21
1480132,13
1480760,10
1481376,15
1482008,28
1482632,30
1483260,19
1483888,26
1484512,30
1485140,37
1485764,37
1486388,34
1487016,23
1487632,19
1488264,11
1488884,15
1489508,24
1490136,28
1490760,27
1491388,24
1492020,20
1492640,24
1493268,27
1493892,29
1494520,21
1495152,17
1495768,14
1496396,16
1497020,21
1497644,21
1498272,26
1498892,23
1499520,23
1500144,37
1500768,47
1501396,48
1502020,42
1502652,29
1503280,19
1503904,18
1504536,16
1505160,11
1505788,24
1506420,50
1507040,53
1507668,41
1508292,31
1508916,26
1509548,18
1510168,18
1510800,21
1511420,14
1512048,17
1512676,18
1513300,21
1513932,31
1514560,36
1515184,32
1515816,36
1516440,35
1517064,46
1517692,60
1518312,61
1518944,45
1519568,27
1520192,17
1520820,14
1521440,13
1522068,11
1522696,27
1523320,40
1523948,34
1524572,43
1525204,41
1525832,37
1526452,37
1527080,33
1527704,33
1528328,29
1528956,21
1529576,15
1530208,18
1530832,36
1531456,40
1532084,42
1532704,42
1533336,50
1533968,59
1534584,71
1535216,65
1535840,42
1536472,27
1537100,17
1537720,16
1538348,15
1538972,39
1539596,45
1540224,45
1540840,48
1541468,47
1542092,32
1542716,28
1543344,22
1543960,16
1544592,17
1545220,17
1545840,15
1546468,17
1547092,22
1547720,25
1548352,23
1548968,24
1549596,31
1550220,43
1550848,43
1551480,51
1552096,55
1552728,44
1553348,28
1553972,21
1554604,14
1555224,30
1555852,36
1556476,36
1557104,33
1557732,23
1558356,18
1558988,20
1559616,19
1560240,24
1560868,30
1561492,22
1562120,17
1562748,16
1563368,30
1563996,41
1564620,37
1565244,29
1565876,24
1566496,29
1567124,41
1567756,48
1568376,50
1569004,41
1569628,35
1570256,26
1570884,20
1571504,11
1572132,16
1572756,33
1573384,48
1574012,43
1574632,33
1575260,27
1575884,35
1576508,41
1577140,33
1577760,19
1578388,14
1579020,16
1579640,17
1580268,18
1580892,26
1581524,22
1582152,24
1582772,29
1583400,39
1584024,56
1584648,70
1585280,63
1585896,28
1586528,15
1587152,16
1587776,17
1588404,26
1589024,35
1589652,39
1590284,33
1590904,27
1591532,22
1592160,12
1592788,16
1593420,22
1594040,28
1594668,28
1595296,25
1595920,15
1596548,31
1597168,36
1597800,36
1598424,29
1599044,27
1599676,28
1600296,44
1600924,59
1601552,55
1602168,37
1602796,22
1603420,15
1604048,15
1604676,14
1605296,10
1605924,20
1606548,30
1607172,26
1607804,26
1608424,31
1609052,31
1609676,28
1610296,24
1610924,23
1611544,21
1612172,16
1612796,14
1613424,15
1614052,24
1614676,25
1615308,23
1615936,12
1616556,11
1617184,23
1617808,47
1618436,54
1619064,50
1619688,38
1620316,20
1620940,14
1621564,10
1622192,12
1622812,16
1623440,23
1624068,20
1624688,15
1625316,15
1625940,25
1626568,31
1627200,26
1627816,25
1628444,16
1629068,18
1629700,13
1630328,10
1630948,10
1631576,12
1632200,18
1632824,31
1633456,44
1634072,56
1634700,52
1635324,48
1635952,43
1636580,33
1637204,24
1637836,16
1638468,14
1639084,31
1639712,33
1640332,29
1640960,25
1641588,22
1642208,17
1642836,18
1643456,19
1644076,26
1644708,17
1645328,15
1645956,15
1646576,11
1647200,10
1647828,10
1648452,18
1649080,40
1649708,39
1650324,43
1650956,52
1651576,51
1652204,42
1652832,32
1653452,20
1654084,15
1654704,13
1655328,12
1655956,26
1656576,38
1657204,36
1657828,28
1658448,17
1659080,19
1659696,24
1660324,28
1660952,25
1661568,23
1662196,19
1662820,15
1663448,11
1664076,11
1664692,13
1665320,17
1665940,32
1666564,50
1667192,63
1667808,72
1668436,70
1669060,54
1669680,40
1670308,22
1670928,20
1671556,11
1672180,23
1672800,45
1673428,53
1674052,50
1674680,45
1675308,42
1675928,36
1676556,27
1677180,19
1677808,17
1678436,28
1679056,31
1679684,30
1680308,19
1680928,13
1681556,12
1682176,17
1682804,20
1683424,27
1684048,45
1684676,58
1685292,51
1685924,28
1686552,20
1687168,17
1687796,15
1688420,17
1689048,25
1689676,29
1690292,28
1690920,31
1691544,31
1692168,25
1692792,26
1693416,24
1694044,23
1694668,19
1695292,16
1695920,16
1696536,20
1697164,17
1697788,16
1698408,18
1699036,25
1699660,29
1700292,35
1700920,34
1701536,28
1702164,24
1702788,14
1703416,15
1704044,15
1704660,31
1705292,30
1705912,12
1706536,21
1707168,23
1707784,22
1708412,21
1709036,28
1709660,25
1710288,22
1710904,23
1711536,21
1712164,15
1712784,15
1713412,21
1714036,33
1714664,31
1715296,25
1715912,24
1716540,30
1717164,43
1717788,52
1718416,59
1719036,35
1719664,19
1720288,15
1720912,16
1721540,10
1722160,11
1722788,23
1723416,42
1724040,45
1724668,36
1725292,25
1725920,23
1726548,22
1727168,26
1727796,21
1728420,17
1729044,19
1729672,13
1730288,18
1730920,30
1731540,37
1732164,26
1732792,24
1733416,41
1734044,47
1734676,54
1735296,51
1735924,27
1736548,15
1737176,14
1737804,16
1738424,30
1739052,31
1739676,31
1740300,22
1740932,14
1741548,20
1742180,22
1742800,14
1743424,11
1744052,14
1744668,17
1745300,22
1745928,17
1746544,11
1747172,19
1747796,17
1748428,10
1749056,11
1749672,10
1750304,22
1750928,43
1751556,65
1752188,70
1752808,55
1753436,42
1754060,24
1754684,18
1755312,35
1755936,26
1756564,16
1757196,18
1757816,18
1758444,12
1759068,16
1759700,25
1760332,26
1760952,19
1761580,16
1762204,14
1762824,15
1763456,17
1764072,37
1764700,29
1765324,13
1765948,12
1766576,20
1767192,32
1767820,29
1768444,28
1769072,35
1769700,35
1770320,23
1770952,15
1771580,11
1772200,14
1772828,13
1773452,9
1774028,11
1774660,17
1775280,28
1775908,33
1776536,37
1777160,40
1777788,23
1778408,18
1779036,15
1779660,13
1780284,17
1780916,27
1781536,37
1782168,32
1782796,32
1783416,41
1784044,47
1784668,46
1785300,51
1785928,38
1786544,31
1787176,26
1787800,16
1788424,17
1789052,29
1789672,43
1790300,39
1790928,33
1791552,33
1792184,37
1792800,30
1793428,27
1794056,27
1794672,17
1795300,14
1795924,18
1796552,25
1797184,22
1797800,15
1798428,15
1799052,20
1799680,22
1800308,40
1800928,57
1801556,70
1802180,62
1802804,44
1803432,26
1804056,17
1804684,12
1805308,24
1805928,35
1806560,41
1807180,38
1807812,31
1808440,22
1809056,24
1809684,27
1810308,26
1810936,23
1811564,15
1812184,16
1812812,15
1813436,10
1814060,13
1814688,22
1815304,33
1815936,36
1816560,45
1817184,53
1817812,56
1818436,62
1819064,46
1819692,28
1820312,17
1820940,16
1821564,27
1822192,30
1822824,35
1823440,39
1824072,45
1824692,47
1825316,40
1825944,38
1826568,34
1827196,22
1827820,17
1828444,16
1829072,18
1829696,27
1830324,30
1830956,12
1831576,11
1832204,27
1832828,37
1833460,60
1834088,75
1834712,91
1835340,81
1835964,60
1836592,38
1837220,19
1837840,16
1838468,19
1839092,31
1839720,46
1840348,51
1840972,50
1841600,44
1842232,37
1842848,43
1843480,33
1844100,23
1844728,17
1845360,15
1845976,18
1846604,26
1847228,30
1847848,26
1848480,28
1849096,33
1849724,31
1850348,37
1850972,40
1851600,49
1852216,47
1852844,32
1853476,19
1854096,14
1854724,16
1855348,34
1855976,40
1856608,43
1857232,45
1857860,38
1858484,25
1859108,24
1859736,26
1860356,18
1860984,14
1861608,15
1862228,15
1862860,19
1863480,17
1864108,18
1864736,36
1865360,36
1865988,41
1866612,48
1867240,54
1867872,49
1868488,44
1869116,28
1869740,26
1870364,23
1870996,17
1871616,14
1872244,23
1872868,33
1873492,40
1874124,37
1874744,39
1875372,42
1876004,51
1876624,53
1877252,39
1877876,16
1878508,21
1879136,20
1879760,22
1880388,26
1881012,47
1881636,56
1882268,38
1882888,36
1883516,45
1884140,54
1884768,64
1885396,47
1886020,33
1886648,27
1887280,20
1887896,13
1888528,24
1889148,49
1889780,53
1890408,46
1891024,41
1891656,32
1892280,22
1892904,20
1893532,16
1894152,15
1894784,17
1895404,17
1896028,15
1896656,16
1897280,21
1897912,19
1898540,28
1899160,30
1899792,34
1900416,40
1901044,43
1901676,35
1902296,20
1902924,19
1903552,18
1904176,15
1904804,11
1905424,19
1906052,29
1906676,34
1907300,27
1907932,21
1908556,25
1909184,34
1909812,31
1910432,21
1911060,15
1911684,18
1912316,24
1912948,25
1913568,31
1914200,24
1914824,14
1915448,15
1916080,20
1916696,30
1917328,35
1917956,40
1918576,50
1919208,38
1919832,21
1920464,16
1921092,14
1921712,15
1922340,22
1922964,19
1923588,27
1924220,29
1924840,36
1925468,33
1926092,24
1926716,13
1927344,14
1927960,16
1928588,15
1929212,15
1929840,17
1930468,15
1931092,13
1931720,13
1932352,22
1932968,36
1933600,53
1934220,54
1934852,44
1935480,37
1936104,32
1936732,19
1937356,15
1937980,17
1938608,32
1939232,33
1939860,35
1940492,30
1941112,21
1941740,29
1942364,39
1942996,28
1943628,20
1944248,18
1944876,17
1945504,16
1946128,21
1946756,33
1947376,37
1948004,36
1948628,30
1949252,30
1949880,48
1950504,59
1951132,60
1951764,48
1952384,32
1953012,18
1953636,14
1954264,21
1954896,24
1955512,25
1956144,38
1956768,33
1957392,25
1958020,41
1958640,49
1959268,40
1959892,35
1960516,25
1961148,18
1961768,16
1962396,18
1963028,30
1963648,40
1964276,37
1964900,34
1965532,38
1966164,42
1966784,54
1967412,55
1968036,62
1968656,51
1969284,27
1969904,20
1970532,15
1971156,14
1971780,18
1972412,33
1973032,43
1973660,44
1974288,42
1974912,43
1975540,46
1976164,33
1976796,19
1977424,13
1978044,15
1978672,17
1979296,19
1979920,17
1980548,18
1981168,37
1981796,43
1982420,48
1983044,49
1983676,49
1984296,44
1984924,45
1985552,34
1986176,25
1986804,16
1987428,15
1988056,10
1988688,16
1989304,35
1989932,45
1990556,41
1991180,45
1991812,40
1992432,33
1993060,30
1993684,32
1994308,24
1994940,16
1995560,16
1996188,18
1996820,27
1997436,36
1998068,35
1998692,31
1999320,35
1999952,55
2000572,69
2001200,72
2001824,56
2002448,31
2003076,15
2003696,16
2004324,18
2004948,22
2005572,31
2006200,40
2006824,50
2007452,45
2008084,26
2008704,25
2009332,31
2009956,24
2010584,19
2011212,15
2011832,17
2012460,15
2013084,11
2013708,16
2014336,24
2014960,28
2015588,28
2016212,32
2016836,44
2017468,56
2018088,67
2018716,47
2019348,26
2019968,25
2020596,19
2021220,19
2021852,10
2022480,21
2023104,34
2023732,46
2024356,43
2024980,33
2025608,36
2026224,34
2026856,26
2027480,22
2028104,17
2028732,14
2029352,21
2029980,18
2030612,11
2031232,11
2031864,13
2032488,34
2033116,54
2033748,66
2034368,71
2035000,58
2035624,41
2036248,31
2036876,23
2037496,15
2038128,21
2038752,30
2039376,41
2040004,40
2040624,28
2041252,19
2041884,21
2042504,31
2043136,33
2043760,30
2044388,20
2045020,18
2045640,18
2046268,12
2046896,17
2047520,22
2048152,28
2048764,24
2049392,25
2050012,45
2050636,56
2051264,62
2051880,50
2052508,22
2053136,23
2053752,32
2054380,25
2055004,16
2055632,11
2056260,11
2056876,21
2057508,23
2058128,20
2058756,24
2059384,20
2060008,15
2060636,15
2061256,14
2061880,15
2062508,18
2063128,20
2063756,19
2064380,13
2065004,17
2065636,31
2066256,45
2066884,65
2067516,74
2068136,69
2068764,54
2069388,33
2070016,20
2070644,14
2071264,18
2071892,30
2072516,37
2073140,43
2073768,33
2074384,31
2075012,28
2075636,31
2076260,37
2076888,35
2077512,29
2078140,16
2078768,14
2079392,19
2080020,17
2080640,12
2081268,14
2081900,18
2082520,26
2083148,49
2083772,67
2084396,72
2085024,68
2085640,46
2086268,28
2086892,15
2087512,15
2088144,21
2088760,27
2089388,36
2090016,38
2090640,36
2091268,31
2091888,27
2092520,27
2093148,22
2093768,22
2094396,18
2095020,15
2095644,15
2096272,13
2096888,15
2097516,19
2098140,17
2098764,18
2099392,14
2100008,18
2100636,39
2101268,54
2101888,46
2102516,26
2103140,27
2103768,23
2104396,14
2105016,13
2105644,12
2106268,18
2106888,23
2107516,26
2108136,33
2108764,36
2109388,31
2110012,26
2110644,26
2111264,16
2111892,20
2112524,30
2113144,37
2113772,37
2114396,35
2115024,32
2115652,23
2116272,33
2116900,55
2117524,62
2118148,47
2118780,28
2119400,20
2120028,16
2120652,19
2121276,22
2121904,10
2122524,26
2123152,45
2123780,51
2124400,47
2125028,35
2125652,38
2126280,33
2126912,18
2127528,15
2128156,17
2128780,16
2129408,17
2130040,22
2130656,24
2131284,19
2131908,17
2132528,18
2133160,28
2133776,37
2134404,36
2135028,41
2135652,31
2136280,34
2136904,23
2137532,16
2138164,12
2138784,20
2139412,29
2140036,27
2140668,21
2141296,24
2141912,23
2142544,27
2143168,27
2143792,30
2144420,30
2145040,19
2145668,15
2146292,12
2146916,18
2147544,25
2148168,23
2148796,21
2149428,26
2150048,32
2150680,45
2151300,64
2151932,68
2152560,48
2153176,24
2153804,17
2154428,19
2155052,37
2155680,57
2156296,47
2156928,31
2157548,33
2158172,33
2158804,14
2159424,10
2160056,15
2160684,18
2161304,20
2161932,18
2162556,20
2163184,23
2163812,22
2164432,29
2165060,24
2165684,23
2166308,28
2166940,37
2167560,44
2168188,37
2168812,32
2169436,28
2170068,15
2170692,18
2171320,15
2171952,10
2172568,11
2173196,22
2173820,26
2174452,24
2175080,28
2175704,36
2176336,35
2176956,18
2177580,17
2178208,17
2178824,16
2179456,17
2180080,17
2180700,12
2181332,13
2181952,19
2182584,28
2183212,36
2183832,45
2184460,47
2185084,46
2185712,33
2186344,27
2186960,22
2187588,15
2188212,16
2188836,28
2189464,39
2190084,40
2190712,38
2191336,30
2191960,24
2192588,25
2193208,27
2193836,26
2194468,18
2195088,15
2195716,16
2196344,21
2196972,24
2197600,26
2198224,23
2198852,26
2199480,29
2200104,43
2200732,54
2201352,57
2201984,45
2202604,30
2203228,18
2203860,15
2204484,13
2205112,18
2205740,21
2206360,30
2206992,39
2207616,46
2208244,44
2208872,40
2209496,35
2210124,26
2210748,23
2211372,15
2212004,16
2212624,14
2213252,10
2213876,12
2214500,11
2215128,37
2215752,45
2216380,51
2217012,68
2217632,71
2218260,61
2218884,38
2219512,20
2220144,16
2220760,14
2221392,22
2222016,33
2222640,40
2223268,48
2223888,37
2224520,29
2225140,24
2225764,17
2226396,19
2227020,15
2227652,17
2228280,22
2228904,23
2229532,22
2230156,21
2230788,31
2231420,31
2232040,16
2232668,13
2233292,29
2233916,39
2234548,51
2235168,47
2235800,36
2236428,27
2237048,24
2237676,15
2238304,21
2238932,31
2239564,34
2240184,46
2240812,48
2241436,26
2242060,14
2242688,13
2243304,13
2243936,15
2244560,16
2245184,15
2245812,15
2246432,17
2247060,19
2247692,10
2248312,15
2248940,20
2249564,25
2250196,35
2250828,45
2251448,45
2252080,34
2252704,30
2253328,22
2253956,14
2254576,11
2255204,13
2255828,23
2256452,29
2257080,37
2257696,25
2258328,20
2258956,12
2259576,12
2260204,15
2260828,17
2261456,17
2262084,16
2262704,18
2263332,13
2263956,11
2264584,15
2265212,18
2265832,14
2266460,57
2267084,85
2267708,78
2268340,60
2268960,35
2269588,18
2270220,14
2270840,14
2271468,11
2272096,10
2272724,10
2273352,24
2273976,56
2274604,62
2275228,34
2275852,17
2276480,17
2277100,21
2277728,18
2278352,19
2278976,23
2279604,15
2280224,15
2280852,42
2281484,56
2282104,58
2282732,48
2283356,47
2283988,57
2284620,56
2285240,47
2285868,34
2286492,18
2287116,14
2287748,14
2288368,18
2288996,31
2289620,41
2290244,38
2290876,36
2291496,28
2292124,17
2292756,13
2293376,18
2294008,20
2294628,21
2295260,22
2295888,20
2296508,10
2297136,22
2297760,32
2298384,33
2299012,28
2299632,38
2300260,60
2300884,71
2301508,62
2302140,40
2302760,28
2303388,17
2304020,14
2304636,12
2305268,20
2305888,34
2306520,36
2307148,27
2307768,29
2308396,25
2309020,25
2309644,27
2310272,27
2310896,23
2311524,15
2312148,15
2312772,17
2313404,26
2314024,28
2314652,20
2315284,17
2315904,21
2316532,33
2317156,42
2317788,53
2318416,50
2319032,38
2319664,25
2320288,16
2320912,16
2321540,20
2322160,27
2322788,31
2323412,31
2324036,37
2324668,40
2325288,32
2325916,23
2326548,19
2327168,20
2327796,16
2328420,17
2329052,28
2329680,26
2330304,19
2330932,13
2331556,18
2332180,29
2332808,36
2333432,47
2334060,51
2334688,42
2335312,43
2335940,46
2336560,29
2337188,17
2337820,11
2338440,24
2339068,37
2339692,46
2340324,43
2340952,34
2341572,19
2342200,19
2342824,29
2343448,36
2344076,29
2344696,20
2345324,16
2345948,16
2346572,20
2347204,34
2347824,42
2348452,32
2349084,24
2349704,41
2350336,55
2350960,59
2351588,62
2352220,46
2352840,24
2353468,15
2354092,15
2354720,17
2355348,20
2355968,33
2356596,34
2357220,26
2357844,22
2358476,26
2359096,29
2359724,32
2360356,28
2360976,20
2361604,16
2362228,15
2362860,10
2363488,10
2364112,20
2364744,28
2365368,31
2365992,36
2366624,56
2367240,66
2367872,62
2368496,41
2369120,30
2369748,25
2370372,16
2371004,14
2371632,21
2372252,34
2372880,51
2373504,59
2374136,43
2374768,23
2375384,19
2376016,19
2376636,17
2377260,17
2377892,14
2378512,18
2379140,20
2379768,20
2380392,26
2381024,32
2381644,34
2382276,30
2382908,33
2383528,50
2384156,58
2384780,59
2385412,38
2386044,23
2386664,17
2387292,17
2387916,12
2388540,23
2389172,26
2389792,32
2390424,35
2391052,34
2391672,41
2392304,49
2392928,38
2393560,26
2394192,15
2394808,15
2395440,16
2396064,16
2396688,22
2397320,25
2397936,25
2398568,21
2399192,17
2399816,36
2400448,49
2401064,57
2401692,49
2402324,34
2402944,28
2403572,22
2404196,16
2404828,12
2405456,19
2406080,32
2406708,45
2407332,48
2407956,47
2408588,36
2409208,29
2409836,18
2410460,21
2411084,22
2411716,17
2412336,15
2412964,11
2413596,10
2414216,18
2414844,29
2415468,23
2416100,28
2416732,45
2417352,52
2417980,70
2418604,71
2419228,53
2419856,39
2420480,20
2421108,14
2421732,22
2422356,31
2422988,36
2423608,35
2424236,36
2424868,34
2425488,36
2426120,30
2426744,18
2427372,13
2428004,22
2428624,24
2429256,21
2429880,17
2430504,15
2431136,16
2431756,10
2432388,13
2433008,28
2433632,53
2434264,61
2434888,60
2435516,41
2436148,26
2436768,15
2437400,15
2438024,9
2438600,8
2439176,13
2439804,26
2440432,37
2441056,44
2441684,42
2442316,38
2442936,38
2443564,36
2444188,26
2444812,16
2445444,18
2446064,27
2446696,30
2447320,33
2447944,21
2448576,13
2449192,12
2449824,22
2450452,36
2451072,53
2451704,57
2452328,38
2452956,24
2453588,18
2454208,15
2454840,11
2455464,15
2456088,28
2456716,34
2457336,24
2457968,17
2458588,21
2459212,30
2459840,28
2460464,27
2461092,19
2461720,14
2462344,17
2462972,13
2463596,12
2464228,19
2464856,24
2465472,27
2466100,30
2466724,47
2467348,59
2467976,60
2468596,47
2469224,34
2469848,15
2470468,19
2471100,16
2471720,29
2472348,33
2472980,30
2473600,16
2474228,15
2474852,16
2475480,13
2476112,17
2476732,23
2477360,31
2477984,34
2478612,30
2479240,26
2479860,15
2480488,11
2481112,23
2481736,35
2482364,43
2482984,59
2483612,75
2484244,84
2484864,78
2485492,53
2486116,28
2486744,14
2487376,14
2487992,14
2488624,25
2489248,30
2489872,35
2490500,38
2491120,37
2491748,23
2492372,17
2492996,17
2493628,18
2494248,19
2494876,21
2495508,20
2496128,11
2496756,17
2497380,24
2498012,25
2498640,39
2499256,44
2499884,51
2500508,56
2501132,58
2501760,43
2502384,30
2503016,23
2503640,15
2504264,15
2504892,14
2505512,28
2506144,39
2506772,34
2507392,35
2508024,39
2508648,37
2509276,36
2509908,22
2510528,18
2511156,15
2511784,15
2512408,24
2513036,27
2513656,25
2514284,19
2514908,19
2515532,25
2516164,31
2516784,44
2517416,51
2518044,42
2518664,27
2519296,24
2519920,24
2520548,15
2521180,12
2521800,19
2522428,28
2523052,32
2523676,27
2524308,24
2524928,21
2525556,26
2526184,25
2526808,19
2527436,14
2528056,15
2528684,19
2529316,14
2529936,11
2530564,14
2531188,20
2531820,23
2532452,16
2533072,21
2533704,31
2534328,45
2534952,44
2535584,37
2536204,34
2536832,24
2537460,17
2538084,10
2538712,16
2539340,15
2539972,22
2540600,26
2541224,25
2541852,15
2542480,11
2543108,11
2543740,17
2544360,19
2544988,20
2545612,15
2546236,13
2546868,14
2547488,17
2548116,15
2548748,22
2549368,41
2550000,63
2550624,64
2551252,59
2551884,44
2552504,29
2553136,19
2553760,14
2554384,15
2555016,26
2555632,38
2556264,48
2556888,45
2557516,37
2558148,28
2558768,20
2559400,25
2560032,25
2560648,19
2561272,15
2561896,17
2562524,17
2563152,12
2563768,12
2564400,22
2565020,21
2565644,22
2566272,34
2566896,43
2567524,41
2568144,38
2568768,38
2569396,40
2570016,29
2570644,16
2571272,16
2571888,23
2572520,23
2573144,26
2573772,36
2574400,47
2575016,34
2575644,22
2576268,23
2576896,19
2577528,17
2578144,27
2578772,27
2579396,33
2580020,34
2580648,32
2581272,23
2581900,22
2582524,22
2583144,33
2583776,46
2584400,52
2585028,39
2585656,20
2586276,13
2586908,14
2587528,14
2588160,17
2588788,23
2589408,22
2590036,18
2590660,17
2591284,19
2591916,22
2592536,28
2593164,33
2593788,24
2594416,15
2595044,19
2595668,15
2596296,10
2596928,10
2597544,13
2598172,15
2598800,17
2599428,11
2600056,20
2600680,46
2601308,63
2601932,49
2602556,31
2603184,18
2603808,15
2604436,13
2605068,15
2605688,19
2606316,29
2606940,33
2607572,19
2608200,10
2608824,11
2609452,11
2610076,15
2610700,15
2611332,14
2611952,15
2612580,13
2613204,13
2613828,18
2614456,18
2615072,17
2615704,25
2616332,39
2616952,47
2617580,54
2618208,50
2618836,29
2619468,16
2620088,15
2620716,19
2621344,29
2621968,35
2622596,25
2623216,25
2623844,31
2624468,29
2625088,13
2625716,10
2626336,11
2626964,15
2627592,14
2628208,15
2628836,15
2629460,13
2630088,18
2630716,16
2631336,14
2631964,21
2632588,26
2633216,35
2633844,35
2634464,48
2635092,49
2635716,49
2636340,41
2636968,30
2637584,18
2638212,13
2638836,22
2639460,32
2640088,35
2640708,33
2641340,29
2641968,33
2642584,33
2643212,27
2643832,19
2644464,16
2645092,15
2645712,19
2646340,15
2646964,11
2647588,19
2648216,30
2648832,40
2649464,43
2650084,51
2650708,55
2651340,61
2651960,48
2652588,31
2653220,18
2653840,16
2654468,19
2655092,24
2655720,31
2656348,32
2656968,32
2657596,27
2658220,20
2658844,24
2659472,22
2660088,34
2660716,42
2661340,31
2661964,20
2662596,14
2663212,27
2663840,44
2664468,56
2665088,51
2665716,49
2666336,59
2666964,60
2667592,56
2668208,52
2668840,30
2669460,20
2670084,15
2670712,21
2671336,31
2671964,33
2672588,38
2673212,40
2673840,36
2674464,29
2675092,26
2675724,24
2676344,27
2676972,21
2677596,16
2678224,15
2678856,17
2679472,25
2680100,31
2680724,36
2681348,33
2681980,28
2682600,29
2683228,40
2683852,50
2684476,52
2685104,37
2685720,28
2686352,26
2686980,19
2687600,17
2688228,33
2688852,42
2689480,40
2690108,40
2690728,41
2691356,38
2691980,37
2692608,27
2693236,16
2693856,16
2694484,15
2695104,17
2695728,23
2696356,12
2696976,11
2697604,17
2698224,25
2698852,22
2699480,35
2700104,54
2700732,62
2701364,66
2701984,49
2702612,28
2703236,20
2703868,15
2704496,19
2705112,31
2705744,39
2706368,35
2706988,23
2707620,18
2708240,16
2708868,31
2709492,43
2710116,34
2710744,17
2711368,16
2711996,19
2712628,24
2713248,21
2713876,22
2714500,29
2715128,26
2715760,25
2716376,32
2717008,45
2717628,51
2718252,32
2718884,30
2719504,34
2720132,24
2720756,18
2721380,10
2722008,29
2722628,41
2723260,27
2723888,26
2724504,32
2725132,33
2725756,28
2726384,26
2727012,23
2727632,16
2728260,16
2728884,17
2729508,13
2730136,10
2730756,15
2731384,17
2732008,19
2732632,24
2733260,49
2733880,59
2734508,57
2735140,48
2735760,41
2736388,34
2737012,23
2737644,11
2738272,22
2738888,34
2739520,33
2740140,24
2740764,24
2741396,26
2742016,38
2742644,33
2743268,33
2743892,24
2744524,17
2745144,16
2745772,15
2746400,16
2747016,21
2747648,24
2748272,27
2748900,31
2749532,38
2750152,53
2750780,64
2751408,63
2752032,41
2752660,20
2753280,15
2753908,22
2754532,32
2755156,33
2755788,38
2756408,51
2757036,54
2757668,29
2758288,18
2758916,24
2759540,25
2760172,21
2760804,18
2761424,15
2762052,22
2762676,28
2763304,35
2763932,31
2764552,32
2765184,36
2765804,38
2766428,55
2767056,62
2767680,53
2768308,29
2768936,19
2769560,29
2770188,26
2770812,15
2771444,11
2772072,26
2772688,43
2773320,55
2773944,55
2774568,48
2775196,44
2775816,38
2776444,29
2777068,15
2777692,23
2778324,23
2778948,27
2779576,33
2780204,34
2780824,28
2781452,19
2782076,23
2782708,39
2783340,52
2783960,54
2784592,47
2785216,37
2785840,22
2786468,18
2787088,17
2787716,10
2788340,16
2788964,21
2789592,34
2790216,49
2790848,48
2791476,41
2792096,35
2792724,29
2793348,23
2793980,19
2794608,19
2795228,16
2795856,14
2796480,17
2797104,16
2797732,18
2798352,21
2798984,29
2799608,44
2800232,54
2800860,60
2801484,61
2802112,41
2802744,27
2803360,24
2803992,27
2804616,11
2805244,20
2805876,32
2806496,32
2807124,34
2807748,37
2808372,35
2809000,28
2809616,28
2810248,28
2810872,20
2811496,15
2812124,17
2812748,20
2813380,17
2814012,13
2814632,19
2815264,24
2815888,42
2816520,67
2817148,76
2817768,71
2818396,43
2819020,24
2819644,15
2820272,14
2820888,20
2821520,36
2822140,46
2822768,50
2823396,48
2824020,45
2824648,42
2825280,36
2825896,23
2826524,19
2827148,14
2827780,15
2828408,19
2829024,22
2829656,27
2830276,25
2830900,26
2831532,21
2832152,15
2832780,33
2833404,58
2834032,75
2834660,77
2835284,65
2835916,44
2836544,24
2837160,18
2837792,11
2838416,25
2839044,47
2839676,57
2840296,53
2840924,40
2841548,30
2842176,28
2842804,22
2843424,20
2844052,15
2844684,14
2845304,16
2845932,15
2846556,24
2847188,24
2847820,24
2848440,27
2849068,28
2849692,41
2850316,50
2850944,54
2851568,44
2852196,35
2852820,26
2853444,16
2854076,16
2854696,16
2855324,28
2855956,40
2856576,43
2857204,51
2857828,53
2858460,53
2859088,40
2859712,37
2860344,33
2860968,15
2861592,16
2862220,21
2862840,34
2863472,32
2864096,28
2864720,31
2865348,45
2865968,55
2866600,68
2867228,77
2867844,66
2868476,39
2869096,19
2869728,16
2870356,14
2870976,15
2871604,30
2872228,52
2872852,51
2873484,41
2874104,35
2874732,24
2875356,17
2875980,12
2876612,14
2877232,17
2877860,15
2878492,16
2879112,15
2879744,14
2880368,22
2880996,21
2881624,23
2882240,34
2882868,49
2883492,57
2884112,63
2884744,52
2885360,30
2885988,16
2886612,17
2887236,15
2887864,17
2888480,23
2889108,30
2889740,28
2890360,27
2890988,32
2891612,33
2892240,33
2892868,31
2893484,30
2894116,19
2894736,15
2895364,18
2895996,20
2896616,15
2897244,15
2897868,22
2898492,31
2899124,52
2899744,69
2900372,66
2901004,62
2901624,51
2902252,22
2902876,15
2903508,16
2904140,22
2904760,37
2905388,43
2906012,50
2906636,45
2907268,38
2907888,29
2908516,30
2909140,25
2909764,22
2910396,15
2911016,17
2911644,19
2912276,22
2912896,27
2913524,31
2914148,34
2914780,31
2915408,28
2916032,29
2916660,33
2917284,49
2917908,61
2918540,48
2919160,31
2919788,16
2920412,14
2921036,16
2921664,34
2922288,51
2922916,51
2923548,46
2924168,40
2924796,23
2925420,20
2926052,19
2926684,15
2927304,17
2927936,19
2928560,21
2929184,24
2929812,39
2930432,40
2931060,33
2931688,21
2932308,25
2932940,39
2933560,51
2934192,58
2934820,59
2935440,39
2936068,21
2936692,15
2937324,16
2937956,23
2938576,34
2939208,46
2939832,47
2940456,53
2941084,52
2941704,56
2942336,41
2942960,20
2943584,15
2944216,16
2944840,17
2945468,15
2946096,18
2946720,29
2947348,25
2947972,37
2948604,45
2949236,58
2949856,69
2950484,58
2951108,41
2951732,40
2952360,31
2952980,20
2953608,15
2954232,13
2954856,29
2955484,49
2956108,63
2956740,54
2957372,35
2957992,24
2958624,19
2959248,19
2959876,21
2960508,18
2961128,16
2961756,15
2962380,15
2963004,20
2963632,26
2964256,27
2964884,24
2965516,20
2966136,29
2966764,32
2967388,47
2968020,55
2968648,40
2969272,27
2969904,15
2970524,15
2971148,10
2971780,12
2972400,24
2973028,24
2973652,27
2974276,35
2974908,37
2975528,37
2976156,25
2976788,17
2977408,15
2978036,15
2978660,16
2979288,15
2979920,20
2980536,27
2981164,25
2981788,25
2982412,33
2983040,50
2983664,57
2984292,53
2984916,41
2985540,27
2986172,17
2986792,16
2987424,15
2988052,26
2988672,37
2989304,41
2989928,44
2990556,39
2991188,18
2991808,16
2992436,20
2993060,19
2993684,18
2994316,15
2994936,16
2995568,15
2996188,13
2996812,15
2997444,21
2998064,26
2998692,23
2999324,36
2999944,54
3000576,69
3001200,73
3001828,56
3002460,39
3003080,21
3003708,16
3004336,11
3004960,21
3005588,35
3006208,42
3006840,47
3007464,43
3008088,29
3008716,34
3009336,37
3009964,31
3010596,19
3011216,16
3011844,15
3012468,12
3013100,19
3013732,24
3014352,24
3014984,24
3015608,26
3016232,40
3016864,48
3017480,58
3018112,55
3018736,37
3019360,21
3019992,15
3020616,18
3021248,17
3021876,22
3022496,20
3023124,11
3023752,15
3024380,29
3025012,40
3025632,37
3026264,21
3026888,17
3027512,16
3028140,16
3028760,15
3029392,28
3030024,23
3030640,12
3031272,16
3031896,31
3032528,59
3033156,76
3033776,73
3034408,75
3035032,59
3035656,35
3036288,15
3036904,21
3037532,30
3038160,53
3038784,68
3039416,62
3040032,48
3040664,29
3041292,10
3041912,14
3042540,10
3043164,16
3043796,19
3044428,18
3045048,15
3045680,16
3046304,21
3046928,25
3047556,22
3048176,25
3048804,29
3049428,38
3050052,47
3050684,64
3051304,63
3051936,42
3052564,24
3053184,18
3053816,15
3054440,21
3055068,27
3055700,36
3056320,39
3056952,39
3057576,41
3058200,38
3058832,33
3059448,33
3060080,27
3060704,17
3061328,18
3061960,17
3062576,12
3063208,18
3063836,22
3064456,29
3065088,39
3065712,40
3066344,56
3066972,64
3067592,76
3068224,67
3068848,39
3069472,19
3070104,20
3070724,15
3071352,17
3071980,37
3072608,51
3073236,46
3073860,37
3074488,32
3075116,30
3075736,32
3076364,29
3076988,26
3077620,18
3078248,15
3078864,17
3079496,22
3080120,25
3080744,27
3081372,30
3081992,30
3082620,33
3083244,44
3083868,58
3084500,56
3085124,34
3085752,21
3086380,16
3087000,16
3087628,11
3088252,21
3088884,36
3089512,44
3090132,35
3090760,26
3091384,28
3092008,32
3092640,27
3093256,29
3093884,20
3094508,15
3095132,15
3095764,13
3096388,12
3097016,18
3097648,23
3098264,30
3098896,37
3099520,44
3100148,46
3100780,63
3101400,74
3102032,54
3102656,30
3103280,24
3103912,20
3104528,10
3105160,26
3105784,32
3106408,27
3107036,38
3107664,45
3108292,48
3108924,43
3109544,32
3110176,19
3110800,15
3111428,17
3112060,19
3112680,30
3113312,25
3113936,20
3114560,17
3115188,22
3115808,37
3116440,55
3117068,64
3117688,55
3118316,38
3118944,26
3119572,19
3120204,16
3120824,13
3121452,29
3122076,49
3122700,63
3123332,53
3123952,43
3124580,38
3125204,40
3125828,34
3126456,25
3127080,19
3127708,16
3128340,20
3128960,17
3129588,14
3130216,12
3130844,22
3131476,28
3132096,20
3132728,31
3133352,60
3133976,58
3134608,40
3135228,34
3135856,52
3136484,58
3137104,35
3137736,10
3138352,22
3138984,35
3139612,38
3140232,37
3140860,37
3141488,33
3142116,35
3142748,32
3143368,29
3144000,24
3144620,17
3145244,15
3145876,22
3146496,31
3147124,30
3147752,29
3148376,32
3149008,24
3149624,43
3150252,54
3150884,51
3151504,39
3152136,24
3152760,16
3153392,17
3154020,14
3154640,19
3155268,17
3155892,13
3156516,12
3157148,11
3157768,15
3158400,26
3159024,33
3159648,31
3160280,25
3160904,25
3161536,24
3162168,16
3162784,21
3163416,29
3164040,26
3164672,19
3165300,23
3165920,47
3166552,70
3167176,77
3167800,69
3168432,44
3169052,24
3169680,15
3170312,16
3170932,22
3171564,31
3172188,34
3172820,37
3173452,35
3174072,32
3174704,28
3175328,40
3175956,41
3176584,26
3177208,19
3177836,16
3178464,17
3179088,30
3179716,34
3180336,27
3180968,19
3181596,10
3182216,18
3182848,47
3183472,62
3184104,68
3184732,64
3185352,52
3185984,29
3186608,15
3187232,16
3187860,23
3188480,41
3189108,49
3189736,43
3190360,38
3190992,35
3191612,28
3192244,26
3192872,22
3193496,17
3194128,15
3194756,16
3195388,19
3196020,21
3196640,21
3197272,17
3197896,17
3198520,25
3199152,39
3199772,64
3200404,71
3201032,56
3201648,37
3202276,21
3202900,16
3203528,16
3204156,10
3204776,27
3205404,47
3206028,60
3206656,53
3207284,32
3207904,25
3208532,38
3209156,43
3209780,39
3210408,29
3211032,17
3211660,18
3212284,36
3212912,54
3213540,53
3214164,43
3214796,37
3215424,29
3216040,23
3216672,25
3217292,43
3217924,58
3218552,35
3219168,17
3219800,15
3220424,13
3221048,14
3221676,15
3222296,18
3222924,15
3223548,20
3224176,21
3224804,21
3225428,21
3226060,19
3226688,16
3227312,16
3227940,16
3228564,15
3229188,17
3229820,22
3230440,23
3231068,24
3231692,19
3232316,15
3232948,46
3233568,68
3234196,68
3234828,52
3235448,28
3236076,18
3236700,20
3237332,21
3237960,10
3238580,29
3239208,57
3239832,57
3240456,45
3241084,44
3241704,43
3242332,35
3242956,33
3243580,39
3244212,49
3244832,46
3245460,37
3246092,12
3246712,33
3247340,60
3247968,56
3248596,56
3249228,56
3249848,67
3250476,71
3251104,59
3251728,40
3252356,42
3252976,31
3253604,17
3254228,11
3254856,11
3255484,22
3256104,34
3256736,32
3257364,32
3257984,25
3258612,26
3259236,33
3259868,36
3260500,37
3261120,29
3261748,17
3262376,11
3263000,31
3263632,38
3264248,31
3264880,33
3265504,43
3266128,57
3266756,60
3267376,57
3268004,44
3268636,22
3269256,20
3269884,25
3270512,19
3271140,15
3271772,36
3272392,52
3273024,54
3273648,53
3274272,55
3274900,45
3275520,21
3276152,17
3276776,21
3277400,15
3278028,16
3278648,20
3279276,25
3279904,28
3280520,28
3281148,18
3281772,13
3282400,30
3283028,54
3283648,67
3284276,64
3284896,53
3285520,43
3286148,28
3286768,20
3287396,11
3288016,22
3288640,38
3289268,42
3289888,43
3290516,42
3291144,39
3291760,37
3292392,40
3293012,37
3293644,23
3294272,15
3294888,15
3295516,15
3296140,13
3296768,33
3297396,51
3298016,49
3298644,44
3299264,52
3299888,64
3300516,69
3301136,64
3301764,38
3302388,20
3303012,15
3303640,24
3304264,35
3304892,38
3305520,45
3306136,43
3306768,39
3307392,30
3308020,19
3308648,21
3309264,29
3309896,29
3310520,16
3311140,15
3311772,18
3312392,30
3313020,22
3313644,10
3314268,10
3314896,14
3315520,18
3316148,37
3316780,54
3317400,66
3318028,67
3318652,45
3319284,28
3319912,21
3320528,15
3321160,19
3321784,24
3322404,31
3323036,30
3323656,21
3324284,16
3324908,30
3325532,50
3326160,42
3326784,27
3327412,16
3328044,14
3328660,15
3329288,10
3329908,10
3330536,16
3331168,20
3331784,34
3332412,50
3333036,59
3333660,70
3334288,64
3334904,45
3335536,36
3336160,24
3336780,17
3337412,22
3338032,31
3338660,43
3339292,42
3339912,31
3340540,27
3341164,31
3341792,24
3342424,23
3343040,22
3343668,15
3344292,22
3344916,22
3345544,20
3346160,23
3346792,16
3347416,15
3348036,28
3348668,33
3349288,39
3349916,56
3350544,65
3351168,59
3351796,40
3352420,21
3353052,15
3353680,14
3354304,17
3354932,24
3355556,35
3356180,36
3356808,39
3357432,41
3358060,41
3358684,35
3359312,26
3359940,24
3360560,18
3361188,15
3361816,17
3362440,22
3363068,20
3363692,21
3364320,24
3364948,24
3365568,27
3366196,41
3366820,53
3367444,56
3368072,46
3368688,33
3369316,20
3369940,14
3370564,17
3371192,22
3371808,31
3372440,35
3373068,21
3373688,22
3374316,25
3374940,32
3375572,33
3376200,36
3376816,27
3377448,20
3378068,16
3378696,16
3379324,18
3379940,32
3380572,45
3381192,49
3381816,48
3382444,46
3383060,56
3383692,56
3384316,48
3384940,36
3385568,24
3386192,19
3386820,15
3387452,15
3388072,25
3388700,33
3389324,41
3389956,39
3390584,54
3391208,46
3391836,34
3392464,23
3393084,19
3393716,16
3394336,16
3394964,15
3395596,26
3396216,30
3396844,28
3397468,25
3398096,35
3398728,39
3399344,54
3399976,59
3400600,65
3401224,56
3401852,34
3402472,28
3403100,17
3403724,17
3404348,21
3404976,37
3405600,47
3406228,51
3406856,48
3407472,49
3408104,65
3408724,63
3409356,51
3409984,41
3410600,18
3411232,19
3411852,29
3412484,45
3413112,50
3413732,47
3414360,43
3414984,37
3415608,40
3416236,58
3416856,65
3417484,60
3418108,51
3418736,29
3419364,19
3419988,17
3420620,11
3421252,20
3421872,37
3422500,41
3423124,33
3423752,30
3424380,31
3425000,29
3425628,23
3426252,24
3426876,26
3427508,33
3428128,34
3428756,19
3429388,12
3430008,24
3430640,30
3431260,39
3431892,33
3432520,38
3433144,51
3433772,68
3434396,70
3435024,49
3435652,32
3436272,21
3436900,15
3437524,13
3438148,23
3438780,34
3439400,36
3440032,29
3440660,26
3441280,25
3441908,31
3442532,32
3443160,26
3443788,16
3444408,16
3445036,14
3445660,16
3446284,28
3446912,33
3447536,36
3448164,36
3448788,33
3449412,39
3450044,43
3450664,62
3451292,56
3451924,34
3452544,17
3453172,15
3453796,16
3454428,23
3455060,34
3455680,44
3456312,44
3456932,37
3457556,28
3458188,29
3458808,40
3459436,35
3460060,27
3460684,22
3461312,16
3461936,21
3462564,32
3463192,28
3463816,29
3464444,24
3465068,27
3465696,38
3466328,55
3466944,62
3467572,61
3468196,41
3468820,31
3469448,25
3470072,15
3470704,28
3471328,46
3471952,48
3472584,33
3473200,25
3473828,25
3474460,26
3475080,29
3475712,20
3476336,18
3476964,21
3477596,16
3478216,14
3478848,16
3479472,24
3480096,29
3480724,32
3481344,36
3481976,37
3482596,51
3483220,64
3483848,63
3484472,54
3485100,29
3485732,19
3486352,17
3486980,15
3487604,11
3488236,29
3488864,44
3489480,38
3490112,38
3490736,33
3491360,30
3491988,32
3492608,27
3493236,23
3493860,16
3494484,15
3495112,16
3495736,17
3496364,19
3496996,22
3497616,24
3498244,18
3498868,27
3499500,46
3500128,66
3500752,77
3501384,60
3502008,38
3502632,17
3503260,16
3503880,22
3504512,25
3505136,27
3505760,33
3506388,39
3507012,41
3507644,35
3508276,44
3508896,50
3509524,37
3510152,20
3510780,14
3511412,18
3512032,28
3512660,31
3513288,25
3513912,24
3514540,33
3515160,41
3515792,52
3516420,56
3517040,57
3517672,56
3518296,40
3518928,27
3519560,19
3520176,15
3520808,20
3521428,35
3522056,39
3522684,36
3523304,34
3523932,28
3524556,25
3525176,31
3525808,27
3526424,27
3527052,18
3527676,15
3528304,15
3528932,16
3529556,34
3530188,39
3530820,34
3531440,33
3532068,33
3532696,49
3533320,57
3533948,57
3534568,48
3535196,15
3535820,20
3536444,21
3537076,16
3537696,13
3538324,14
3538956,22
3539576,35
3540204,37
3540828,42
3541460,44
3542088,37
3542712,25
3543344,18
3543968,14
3544592,15
3545220,15
3545840,18
3546468,24
3547092,17
3547716,15
3548348,20
3548968,45
3549596,69
3550228,78
3550848,76
3551480,58
3552104,32
3552732,17
3553364,19
3553984,29
3554612,31
3555240,40
3555860,35
3556492,22
3557112,28
3557744,39
3558368,39
3558992,40
3559624,34
3560244,29
3560872,20
3561504,15
3562120,16
3562752,11
3563376,13
3564004,28
3564636,38
3565256,46
3565884,59
3566512,64
3567136,72
3567764,81
3568384,60
3569016,36
3569640,23
3570264,15
3570892,18
3571512,27
3572144,32
3572772,32
3573392,30
3574024,33
3574648,35
3575276,40
3575908,34
3576528,26
3577160,19
3577784,15
3578408,18
3579036,18
3579656,16
3580288,19
3580912,24
3581536,29
3582168,22
3582792,40
3583424,56
3584056,57
3584672,40
3585300,19
3585924,15
3586552,15
3587180,13
3587800,19
3588428,27
3589052,36
3589676,39
3590308,23
3590928,17
3591556,21
3592184,23
3592804,24
3593436,21
3594060,16
3594692,15
3595320,16
3595944,18
3596576,23
3597200,24
3597828,27
3598460,34
3599080,42
3599712,47
3600336,49
3600960,53
3601588,48
3602208,31
3602836,22
3603468,18
3604088,11
3604716,20
3605340,36
3605972,46
3606600,44
3607216,44
3607844,39
3608468,37
3609092,43
3609724,31
3610344,15
3610972,18
3611592,22
3612216,18
3612848,22
3613464,35
3614092,39
3614716,36
3615344,41
3615972,48
3616600,53
3617228,57
3617856,51
3618480,35
3619108,20
3619732,15
3620360,17
3620988,18
3621608,25
3622236,39
3622860,47
3623484,37
3624116,34
3624736,48
3625364,43
3625996,32
3626616,24
3627244,15
3627868,16
3628500,21
3629128,23
3629752,33
3630384,30
3631008,20
3631632,24
3632260,33
3632880,51
3633508,57
3634132,56
3634760,45
3635388,24
3636008,16
3636636,19
3637264,17
3637888,26
3638516,39
3639140,44
3639772,40
3640404,28
3641024,20
3641652,19
3642276,20
3642900,16
3643528,14
3644152,19
3644784,17
3645408,15
3646032,11
3646660,10
3647280,13
3647908,19
3648540,36
3649160,60
3649788,69
3650412,73
3651040,78
3651672,51
3652288,27
3652920,18
3653544,16
3654168,13
3654796,30
3655416,45
3656048,52
3656668,46
3657292,38
3657924,34
3658544,27
3659172,20
3659804,23
3660424,19
3661056,15
3661676,15
3662308,13
3662940,22
3663560,21
3664188,13
3664812,14
3665436,18
3666068,43
3666688,62
3667316,70
3667940,63
3668564,57
3669196,38
3669816,20
3670448,13
3671076,23
3671696,39
3672328,47
3672948,45
3673580,39
3674212,38
3674832,41
3675464,33
3676088,25
3676712,17
3677344,17
3677960,15
3678592,24
3679216,41
3679840,37
3680472,29
3681096,22
3681724,34
3682356,42
3682976,45
3683604,45
3684232,49
3684860,38
3685492,34
3686112,23
3686744,17
3687364,14
3687988,25
3688616,36
3689240,43
3689868,36
3690492,36
3691120,36
3691748,37
3692372,30
3693004,35
3693632,25
3694248,17
3694876,19
3695500,19
3696132,16
3696760,22
3697380,19
3698008,19
3698632,36
3699256,53
3699884,62
3700504,62
3701132,51
3701756,24
3702384,15
3703016,16
3703640,15
3704268,10
3704900,17
3705520,26
3706152,25
3706776,22
3707400,27
3708028,37
3708648,38
3709276,31
3709904,26
3710528,21
3711156,21
3711776,17
3712408,13
3713036,26
3713656,32
3714284,42
3714908,47
3715540,45
3716168,53
3716788,59
3717416,58
3718040,41
3718664,24
3719292,17
3719912,16
3720544,11
3721168,13
3721792,19
3722420,31
3723040,39
3723668,41
3724300,34
3724920,33
3725548,28
3726172,27
3726804,21
3727436,16
3728056,18
3728684,24
3729308,25
3729932,26
3730560,26
3731184,19
3731816,24
3732440,44
3733064,57
3733692,63
3734312,59
3734944,37
3735572,23
3736192,15
3736824,15
3737448,14
3738076,29
3738708,40
3739328,42
3739956,39
3740584,33
3741208,27
3741836,35
3742456,42
3743084,41
3743712,33
3744336,27
3744964,16
3745584,14
3746212,28
3746844,47
3747464,50
3748096,46
3748716,43
3749348,56
3749980,68
3750600,72
3751228,49
3751852,22
3752480,15
3753108,16
3753728,15
3754356,15
3754984,29
3755608,39
3756240,34
3756856,29
3757484,25
3758116,26
3758736,28
3759368,22
3759992,18
3760624,16
3761256,15
3761872,15
3762504,12
3763128,17
3763752,19
3764384,15
3765000,25
3765632,40
3766256,51
3766880,65
3767512,68
3768136,51
3768768,36
3769396,23
3770016,16
3770644,16
3771268,32
3771900,37
3772532,36
3773152,37
3773784,37
3774408,33
3775032,34
3775664,31
3776284,24
3776912,16
3777540,15
3778160,15
3778788,14
3779412,16
3780044,23
3780672,26
3781296,28
3781924,26
3782552,51
3783176,69
3783808,64
3784424,55
3785052,39
3785680,29
3786304,21
3786932,15
3787552,16
3788184,34
3788812,49
3789432,49
3790060,41
3790684,31
3791316,30
3791948,26
3792568,20
3793196,22
3793824,28
3794448,27
3795076,27
3795696,32
3796328,19
3796952,11
3797576,25
3798208,54
3798824,83
3799456,92
3800088,88
3800704,82
3801336,61
3801960,30
3802588,15
3803220,15
3803840,22
3804472,33
3805096,43
3805720,46
3806352,35
3806972,28
3807600,22
3808224,24
3808848,27
3809476,27
3810096,19
3810724,16
3811356,26
3811976,34
3812608,33
3813232,31
3813864,29
3814492,22
3815112,23
3815744,31
3816368,45
3816992,50
3817620,50
3818240,41
3818868,35
3819496,21
3820120,16
3820752,16
3821368,34
3822000,41
3822632,35
3823252,33
3823880,35
3824508,35
3825140,38
3825768,34
3826392,30
3827024,25
3827648,18
3828272,15
3828904,23
3829520,25
3830152,30
3830780,36
3831404,33
3832036,37
3832660,55
3833292,63
3833924,61
3834544,48
3835176,30
3835800,22
3836428,19
3837060,14
3837680,34
3838312,54
3838940,58
3839568,46
3840200,42
3840816,40
3841444,45
3842072,44
3842688,35
3843320,22
3843944,15
3844572,20
3845204,34
3845824,49
3846452,34
3847076,17
3847700,13
3848328,31
3848952,53
3849580,67
3850208,81
3850832,77
3851460,58
3852080,36
3852708,17
3853340,14
3853960,20
3854588,44
3855212,61
3855844,56
3856472,44
3857096,35
3857724,26
3858348,28
3858972,21
3859604,21
3860224,19
3860852,16
3861476,16
3862100,20
3862732,27
3863352,29
3863984,25
3864612,26
3865232,36
3865864,56
3866488,69
3867116,70
3867748,58
3868368,36
3868996,18
3869620,15
3870244,16
3870876,20
3871496,33
3872128,43
3872748,54
3873372,51
3874004,33
3874628,28
3875256,30
3875888,28
3876504,26
3877136,18
3877760,15
3878388,18
3879020,21
3879640,27
3880272,27
3880896,27
3881520,31
3882148,36
3882768,46
3883400,45
3884024,55
3884648,42
3885276,26
3885904,17
3886536,25
3887164,14
3887784,14
3888416,22
3889040,28
3889668,24
3890300,29
3890920,23
3891552,21
3892176,29
3892800,23
3893428,19
3894048,17
3894676,14
3895308,19
3895928,23
3896560,28
3897180,29
3897812,21
3898444,22
3899064,37
3899692,51
3900316,59
3900944,67
3901572,57
3902192,37
3902824,16
3903448,16
3904072,15
3904700,23
3905320,36
3905948,47
3906580,44
3907200,43
3907828,42
3908452,47
3909084,41
3909716,34
3910336,20
3910968,15
3911592,14
3912216,27
3912848,41
3913464,44
3914096,38
3914720,37
3915344,41
3915976,61
3916596,71
3917228,70
3917856,54
3918476,31
3919108,16
3919732,15
3920364,14
3920992,27
3921612,33
3922240,33
3922864,36
3923488,38
3924120,36
3924740,34
3925368,33
3925996,30
3926620,23
3927252,21
3927876,16
3928508,15
3929136,16
3929760,22
3930388,21
3931016,29
3931648,42
3932280,50
3932896,57
3933524,56
3934148,52
3934772,38
3935404,22
3936024,17
3936652,15
3937276,12
3937904,23
3938532,35
3939160,39
3939788,42
3940420,34
3941040,25
3941668,26
3942296,28
3942920,26
3943548,19
3944168,19
3944796,15
3945420,16
3946044,20
3946676,20
3947296,27
3947924,38
3948556,40
3949176,54
3949804,59
3950428,57
3951060,47
3951692,34
3952312,23
3952944,16
3953568,19
3954192,13
3954820,11
3955440,25
3956068,36
3956692,33
3957316,30
3957948,34
3958568,41
3959196,35
3959828,28
3960448,19
3961076,16
3961704,16
3962332,15
3962964,20
3963584,22
3964212,24
3964840,29
3965464,31
3966092,43
3966712,56
3967344,63
3967968,59
3968592,46
3969224,33
3969840,16
3970472,19
3971100,33
3971720,47
3972348,43
3972976,36
3973604,28
3974236,22
3974856,27
3975484,24
3976108,17
3976732,15
3977364,16
3977984,16
3978612,15
3979240,15
3979864,19
3980492,18
3981112,21
3981744,36
3982372,58
3982992,70
3983624,77
3984248,61
3984876,38
3985508,33
3986128,21
3986756,15
3987384,17
3988008,30
3988636,46
3989256,44
3989888,36
3990512,34
3991136,32
3991768,27
3992392,21
3993024,18
3993652,14
3994272,16
3994900,17
3995524,11
3996156,10
3996788,19
3997408,32
3998040,46
3998664,47
3999288,51
3999920,53
4000536,56
4001168,47
4001792,22
4002416,16
4003044,19
4003668,23
4004300,22
4004928,29
4005544,36
4006172,35
4006796,35
4007428,26
4008056,25
4008672,34
4009304,32
4009928,23
4010552,17
4011180,15
4011800,17
4012428,27
4013056,46
4013680,49
4014308,49
4014932,44
4015564,57
4016192,71
4016816,75
4017444,58
4018068,35
4018692,30
4019324,18
4019944,14
4020572,12
4021196,22
4021820,37
4022448,47
4023072,48
4023700,43
4024332,34
4024952,32
4025580,28
4026204,27
4026836,19
4027468,14
4028088,16
4028716,18
4029344,24
4029968,23
4030596,26
4031216,25
4031848,26
4032472,37
4033096,36
4033724,42
4034344,50
4034976,35
4035604,26
4036224,25
4036852,17
4037476,13
4038108,33
4038736,47
4039360,46
4039988,35
4040616,25
4041240,26
4041868,31
4042488,30
4043116,19
4043744,15
4044368,16
4045000,20
4045616,26
4046244,22
4046876,12
4047496,17
4048124,28
4048748,33
4049380,43
4050008,64
4050628,62
4051256,42
4051880,19
4052504,21
4053132,23
4053752,13
4054384,14
4055008,22
4055632,19
4056260,16
4056880,20
4057508,22
4058140,21
4058760,20
4059388,21
4060016,17
4060644,14
4061276,15
4061896,15
4062528,13
4063152,15
4063776,14
4064408,14
4065024,17
4065652,41
4066276,62
4066904,73
4067532,64
4068152,41
4068784,25
4069412,14
4070032,19
4070664,20
4071288,31
4071920,42
4072548,38
4073168,26
4073800,30
4074424,33
4075048,31
4075676,23
4076296,23
4076928,15
4077552,15
4078176,18
4078808,26
4079432,29
4080064,33
4080692,28
4081312,23
4081940,25
4082568,41
4083196,53
4083828,59
4084448,50
4085080,29
4085704,17
4086328,15
4086960,12
4087576,10
4088208,19
4088836,37
4089456,44
4090088,49
4090712,38
4091344,33
4091976,33
4092596,36
4093224,30
4093852,31
4094476,17
4095108,22
4095728,37
4096364,38
4096984,28
4097604,27
4098232,30
4098848,33
4099476,49
4100104,62
4100720,61
4101348,43
4101972,27
4102600,15
4103228,22
4103844,31
4104476,34
4105096,36
4105728,31
4106356,22
4106976,23
4107604,20
4108224,26
4108848,22
4109476,14
4110096,14
4110724,15
4111348,14
4111968,19
4112600,20
4113224,13
4113852,12
4114480,18
4115104,27
4115732,44
4116356,61
4116988,66
4117616,57
4118232,39
4118860,21
4119484,15
4120108,15
4120736,17
4121360,35
4121988,42
4122612,37
4123232,26
4123864,27
4124484,22
4125116,17
4125744,18
4126364,21
4126992,17
4127616,15
4128244,15
4128872,10
4129488,13
4130116,17
4130740,19
4131364,30
4131992,44
4132608,58
4133240,65
4133864,57
4134488,43
4135116,20
4135736,17
4136364,16
4136996,12
4137616,16
4138244,22
4138864,27
4139492,34
4140124,28
4140744,21
4141372,21
4141996,19
4142620,18
4143252,22
4143872,19
4144500,15
4145124,16
4145748,12
4146380,11
4147000,12
4147632,15
4148260,24
4148880,40
4149508,54
4150132,58
4150760,52
4151392,30
4152008,20
4152640,19
4153260,15
4153884,12
4154516,20
4155136,30
4155764,27
4156392,26
4157016,31
4157644,30
4158264,32
4158892,28
4159524,26
4160144,18
4160772,15
4161396,15
4162024,15
4162652,16
4163272,19
4163900,26
4164524,33
4165144,38
4165776,52
4166392,64
4167020,68
4167644,48
4168268,31
4168900,20
4169520,16
4170148,16
4170780,21
4171400,37
4172028,50
4172652,37
4173284,26
4173912,23
4174528,25
4175156,26
4175780,22
4176404,21
4177036,20
4177656,24
4178284,17
4178908,14
4179532,24
4180160,26
4180776,27
4181404,24
4182036,28
4182656,50
4183284,54
4183908,48
4184536,32
4185168,21
4185784,18
4186412,15
4187036,23
4187660,44
4188288,50
4188908,51
4189536,25
4190156,9
4190732,15
4191364,23
4191984,30
4192616,33
4193240,21
4193864,25
4194492,34
4195112,31
4195744,29
4196372,19
4196992,20
4197620,30
4198244,35
4198876,43
4199504,53
4200128,54
4200756,45
4201380,30
4202004,25
4202632,18
4203248,17
4203876,11
4204500,21
4205124,30
4205752,38
4206372,32
4207000,33
4207628,27
4208248,29
4208876,25
4209500,21
4210128,17
4210760,16
4211376,15
4212008,14
4212632,15
4213256,11
4213884,12
4214504,17
4215132,24
4215756,37
4216380,49
4217012,59
4217632,55
4218260,36
4218892,24
4219512,16
4220140,15
4220764,12
4221396,18
4222028,28
4222648,37
4223276,33
4223904,33
4224528,33
4225156,32
4225776,25
4226404,17
4227028,18
4227652,24
4228280,17
4228896,16
4229528,37
4230156,38
4230776,38
4231404,35
4232028,29
4232656,42
4233288,57
4233904,56
4234536,43
4235160,21
4235784,15
4236412,15
4237032,13
4237660,19
4238284,25
4238908,35
4239540,36
4240160,27
4240788,17
4241416,16
4242040,19
4242668,26
4243292,29
4243920,23
4244552,16
4245168,15
4245800,21
4246424,25
4247044,25
4247676,25
4248296,28
4248924,27
4249548,38
4250176,50
4250804,66
4251424,50
4252052,32
4252684,18
4253304,16
4253932,14
4254556,24
4255188,28
4255820,34
4256440,38
4257068,36
4257692,40
4258316,36
4258948,22
4259568,15
4260196,16
4260820,16
4261444,14
4262072,20
4262692,28
4263320,23
4263948,16
4264568,17
4265196,21
4265820,37
4266452,42
4267080,37
4267696,33
4268328,28
4268952,23
4269572,19
4270204,14
4270824,11
4271452,19
4272076,30
4272700,31
4273328,17
4273952,15
4274580,16
4275212,19
4275832,22
4276460,20
4277084,21
4277716,22
4278344,22
4278968,15
4279596,10
4280224,19
4280848,32
4281476,36
4282096,41
4282724,54
4283348,66
4283972,68
4284604,54
4285224,41
4285852,25
4286484,19
4287104,11
4287736,20
4288360,36
4288988,45
4289616,39
4290240,37
4290868,34
4291492,36
4292116,48
4292744,46
4293368,36
4293996,17
4294624,18
4295248,21
4295876,20
4296496,33
4297124,45
4297756,38
4298376,41
4299008,47
4299632,46
4300260,49
4300892,50
4301512,33
4302140,22
4302764,17
4303384,15
4304016,17
4304632,23
4305260,22
4305884,18
4306508,23
4307140,28
4307760,29
4308388,31
4309020,24
4309640,25
4310268,17
4310896,15
4311524,15
4312156,13
4312776,11
4313408,18
4314032,27
4314656,26
4315284,30
4315904,41
4316536,43
4317160,44
4317784,47
4318412,30
4319032,19
4319664,16
4320292,16
4320912,11
4321540,23
4322164,38
4322796,38
4323424,37
4324040,27
4324672,25
4325296,29
4325920,25
4326548,20
4327168,18
4327796,16
4328420,15
4329044,16
4329672,31
4330292,41
4330920,40
4331548,35
4332168,33
4332796,19
4333420,19
4334052,26
4334684,16
4335304,21
4335936,30
4336560,29
4337184,13
4337812,11
4338432,20
4339064,24
4339688,30
4340312,39
4340944,38
4341560,26
4342192,22
4342820,16
4343440,15
4344068,17
4344692,22
4345324,20
4345952,26
4346576,25
4347204,26
4347828,24
4348456,21
4349084,41
4349704,57
4350336,57
4350960,40
4351584,25
4352216,16
4352836,15
4353468,15
4354096,21
4354712,27
4355344,32
4355968,25
4356596,26
4357228,26
4357848,25
4358476,26
4359100,24
4359724,20
4360352,16
4360976,16
4361604,16
4362228,18
4362852,20
4363480,22
4364104,21
4364736,19
4365364,31
4365984,46
4366612,52
4367236,53
4367868,36
4368496,22
4369120,19
4369748,16
4370372,18
4370996,19
4371628,27
4372248,33
4372876,34
4373500,34
4374128,31
4374756,35
4375384,34
4376012,27
4376644,18
4377264,16
4377896,19
4378520,20
4379144,25
4379772,27
4380392,24
4381024,21
4381648,33
4382272,51
4382904,51
4383520,50
4384148,49
4384780,31
4385400,21
4386028,23
4386652,19
4387284,14
4387912,31
4388532,45
4389160,48
4389784,39
4390412,26
4391040,31
4391660,48
4392288,44
4392912,27
4393540,15
4394168,18
4394792,26
4395424,37
4396052,42
4396672,42
4397304,40
4397928,27
4398560,24
4399188,32
4399808,43
4400440,55
4401064,52
4401692,40
4402320,27
4402940,20
4403572,11
4404192,11
4404816,23
4405444,36
4406064,36
4406692,43
4407324,42
4407944,39
4408576,36
4409200,29
4409828,19
4410456,16
4411080,14
4411708,17
4412336,14
4412960,11
4413588,22
4414208,20
4414840,19
4415464,27
4416088,46
4416716,67
4417336,73
4417964,57
4418596,46
4419216,27
4419844,16
4420468,15
4421100,26
4421732,31
4422352,33
4422984,31
4423608,30
4424232,29
4424860,32
4425480,32
4426108,30
4426732,20
4427356,17
4427988,16
4428612,15
4429244,19
4429872,22
4430488,25
4431120,31
4431744,35
4432376,46
4433004,56
4433624,63
4434252,49
4434876,21
4435500,15
4436132,16
4436752,23
4437384,29
4438008,31
4438632,36
4439260,28
4439884,14
4440516,13
4441148,22
4441768,15
4442396,13
4443024,15
4443652,15
4444284,14
4444904,16
4445532,26
4446156,32
4446784,31
4447412,25
4448032,15
4448660,16
4449292,38
4449912,65
4450544,69
4451168,47
4451800,26
4452428,15
4453048,17
4453680,23
4454304,39
4454928,61
4455560,72
4456176,70
4456808,48
4457432,27
4458056,13
4458684,11
4459304,15
4459936,16
4460564,15
4461184,15
4461816,15
4462440,13
4463068,25
4463700,42
4464320,42
4464948,38
4465576,52
4466200,61
4466828,68
4467448,58
4468076,38
4468704,21
4469328,18
4469956,16
4470576,27
4471204,31
4471836,33
4472456,34
4473088,25
4473712,23
4474344,25
4474972,30
4475592,37
4476224,39
4476848,22
4477472,15
4478104,15
4478720,29
4479352,41
4479976,48
4480604,47
4481232,30
4481856,16
4482484,40
4483116,59
4483736,61
4484364,47
4484988,29
4485620,17
4486248,16
4486868,15
4487496,24
4488120,36
4488744,45
4489372,48
4489992,45
4490620,35
4491244,34
4491868,30
4492500,19
4493124,17
4493756,15
4494384,15
4495004,15
4495636,21
4496260,28
4496888,19
4497516,26
4498136,40
4498764,50
4499392,62
4500016,73
4500644,63
4501264,43
4501896,26
4502520,16
4503144,17
4503776,29
4504400,44
4505028,51
4505660,48
4506276,32
4506908,22
4507532,14
4508160,20
4508788,18
4509408,18
4510036,17
4510660,15
4511288,16
4511916,16
4512536,17
4513164,15
4513788,17
4514416,21
4515044,25
4515668,41
4516300,62
4516932,68
4517552,48
4518180,23
4518808,16
4519428,16
4520060,16
4520680,18
4521308,48
4521932,63
4522556,55
4523188,38
4523808,25
4524436,13
4525068,11
4525688,11
4526316,13
4526944,15
4527572,15
4528204,14
4528824,14
4529452,24
4530076,25
4530700,16
4531332,24
4531952,39
4532580,55
4533204,65
4533828,60
4534460,54
4535080,48
4535708,33
4536340,20
4536960,11
4537588,21
4538216,34
4538844,42
4539476,38
4540096,34
4540728,36
4541352,41
4541976,40
4542608,35
4543224,32
4543856,23
4544480,17
4545104,15
4545736,13
4546352,24
4546984,43
4547612,43
4548232,32
4548860,41
4549484,53
4550116,57
4550748,55
4551368,30
4552000,21
4552620,21
4553244,19
4553876,10
4554496,15
4555128,28
4555752,29
4556376,25
4557008,18
4557624,26
4558252,37
4558884,34
4559504,39
4560136,27
4560756,17
4561388,18
4562020,14
4562640,11
4563268,15
4563892,24
4564516,36
4565148,51
4565768,71
4566400,75
4567024,59
4567648,37
4568276,17
4568904,16
4569532,21
4570164,14
4570784,15
4571416,32
4572040,45
4572668,41
4573300,30
4573920,17
4574552,19
4575176,29
4575800,30
4576432,21
4577048,18
4577680,18
4578308,18
4578928,14
4579560,24
4580184,23
4580816,16
4581444,24
4582064,37
4582696,59
4583320,78
4583944,81
4584576,56
4585192,37
4585824,19
4586448,16
4587076,14
4587704,24
4588328,33
4588956,34
4589588,32
4590208,26
4590836,24
4591460,35
4592092,34
4592724,30
4593344,23
4593972,16
4594596,15
4595224,18
4595852,20
4596472,22
4597104,21
4597728,17
4598352,24
4598984,48
4599600,57
4600232,74
4600864,63
4601480,43
4602112,23
4602736,17
4603368,17
4603996,23
4604616,32
4605248,41
4605872,34
4606496,30
4607128,28
4607744,31
4608380,32
4609000,31
4609624,34
4610252,28
4610872,19
4611500,15
4612128,14
4612752,29
4613380,29
4614004,17
4614636,16
4615264,25
4615884,41
4616512,57
4617136,57
4617760,45
4618388,33
4619008,25
4619636,22
4620260,10
4620884,16
4621512,30
4622136,36
4622764,33
4623396,30
4624016,23
4624644,30
4625268,35
4625900,24
4626528,14
4627152,18
4627784,17
4628408,30
4629032,42
4629660,43
4630280,33
4630908,18
4631536,21
4632160,40
4632788,48
4633412,52
4634044,50
4634672,36
4635296,21
4635924,15
4636552,22
4637180,27
4637812,30
4638432,37
4639064,25
4639688,21
4640312,27
4640940,30
4641560,21
4642188,19
4642812,18
4643440,16
4644068,16
4644692,16
4645324,22
4645952,25
4646572,18
4647200,14
4647824,23
4648452,34
4649084,50
4649704,61
4650332,61
4650956,45
4651580,21
4652212,14
4652832,17
4653460,19
4654092,20
4654712,21
4655344,27
4655968,31
4656600,36
4657228,33
4657848,25
4658476,23
4659104,21
4659728,18
4660356,16
4660976,17
4661604,16
4662228,13
4662852,11
4663484,20
4664104,27
4664732,36
4665364,54
4665984,67
4666612,75
4667240,71
4667868,51
4668500,38
4669120,17
4669752,19
4670376,21
4671000,29
4671628,38
4672248,47
4672876,47
4673500,47
4674124,44
4674752,40
4675376,33
4676004,28
4676636,18
4677256,17
4677884,22
4678512,24
4679140,23
4679772,30
4680392,29
4681020,36
4681644,43
4682268,52
4682900,50
4683520,58
4684148,49
4684776,34
4685400,19
4686028,14
4686648,15
4687276,18
4687908,32
4688528,48
4689156,49
4689784,39
4690412,34
4691044,38
4691664,41
4692292,32
4692920,23
4693544,15
4694172,18
4694792,21
4695424,36
4696048,38
4696672,33
4697304,27
4697928,15
4698556,23
4699188,44
4699808,55
4700440,52
4701064,32
4701696,20
4702324,26
4702944,25
4703576,11
4704200,14
4704824,24
4705456,30
4706076,27
4706708,28
4707336,26
4707960,22
4708592,21
4709216,28
4709848,29
4710480,16
4711096,17
4711724,17
4712348,17
4712972,13
4713604,10
4714224,14
4714856,19
4715480,39
4716104,61
4716736,68
4717352,67
4717984,44
4718616,34
4719232,22
4719864,19
4720488,17
4721116,29
4721748,26
4722368,22
4723000,31
4723624,35
4724248,37
4724876,42
4725496,39
4726128,29
4726752,21
4727376,18
4728008,15
4728624,19
4729256,25
4729884,24
4730504,29
4731136,27
4731760,29
4732392,54
4733020,67
4733640,63
4734272,45
4734896,19
4735520,15
4736152,15
4736768,12
4737396,17
4738020,33
4738644,37
4739276,36
4739896,37
4740528,31
4741156,34
4741776,42
4742404,43
4743028,27
4743660,19
4744292,14
4744912,25
4745544,44
4746168,46
4746792,50
4747424,47
4748040,43
4748672,43
4749296,54
4749920,63
4750552,61
4751176,41
4751808,22
4752440,15
4753060,17
4753688,20
4754312,27
4754944,38
4755572,42
4756192,41
4756824,31
4757448,30
4758072,32
4758700,34
4759320,41
4759952,40
4760584,27
4761200,16
4761832,17
4762456,27
4763088,38
4763716,46
4764336,35
4764964,27
4765588,37
4766216,52
4766848,71
4767464,65
4768096,38
4768720,27
4769344,20
4769972,14
4770592,15
4771224,19
4771852,29
4772472,35
4773104,37
4773728,35
4774360,38
4774992,26
4775608,20
4776240,20
4776864,15
4777488,17
4778120,17
4778736,25
4779368,27
4779992,26
4780616,18
4781248,19
4781872,26
4782504,45
4783132,58
4783752,54
4784384,48
4785012,35
4785640,21
4786272,18
4786892,16
4787524,35
4788148,36
4788772,37
4789404,39
4790024,39
4790656,34
4791280,35
4791904,34
4792536,27
4793160,16
4793792,20
4794420,19
4795040,19
4795672,14
4796296,17
4796928,19
4797560,20
4798176,29
4798808,51
4799436,53
4800060,55
4800688,56
4801312,52
4801940,45
4802568,22
4803192,16
4803820,32
4804444,40
4805076,47
4805704,44
4806328,46
4806960,42
4807584,32
4808208,28
4808836,31
4809456,38
4810088,33
4810712,20
4811336,17
4811968,30
4812584,40
4813216,45
4813848,45
4814464,42
4815092,42
4815716,50
4816348,61
4816976,61
4817600,47
4818228,31
4818852,17
4819476,15
4820108,12
4820728,27
4821356,37
4821984,44
4822608,42
4823236,32
4823856,26
4824484,28
4825116,30
4825736,26
4826364,20
4826988,15
4827620,15
4828252,22
4828872,29
4829500,30
4830128,33
4830752,30
4831380,27
4832000,45
4832628,54
4833256,61
4833880,55
4834508,37
4835128,24
4835760,16
4836388,15
4837008,20
4837640,33
4838264,49
4838892,52
4839524,42
4840144,35
4840772,26
4841400,24
4842024,22
4842652,23
4843272,23
4843904,21
4844528,18
4845152,10
4845780,11
4846404,11
4847036,15
4847668,32
4848288,39
4848920,63
4849544,75
4850172,90
4850804,82
4851424,53
4852056,27
4852680,21
4853304,14
4853936,25
4854552,45
4855184,55
4855812,56
4856432,50
4857064,35
4857688,29
4858316,26
4858948,25
4859568,27
4860200,22
4860824,18
4861448,15
4862076,22
4862696,32
4863328,45
4863956,39
4864584,28
4865212,34
4865832,58
4866460,79
4867092,75
4867712,49
4868344,25
4868968,16
4869596,15
4870228,11
4870848,19
4871476,25
4872104,32
4872728,32
4873356,31
4873976,33
4874608,44
4875232,34
4875856,29
4876484,28
4877104,26
4877736,16
4878364,16
4878984,20
4879616,18
4880240,25
4880868,33
4881500,43
4882120,59
4882748,63
4883376,58
4884000,41
4884628,30
4885248,29
4885876,22
4886500,16
4887128,16
4887756,36
4888376,44
4889008,46
4889636,45
4890256,41
4890884,45
4891508,43
4892140,34
4892772,23
4893392,15
4894024,15
4894648,21
4895272,27
4895904,31
4896520,37
4897152,33
4897776,28
4898400,30
4899028,40
4899656,55
4900288,57
4900916,41
4901536,27
4902168,16
4902792,15
4903424,16
4904052,33
4904672,36
4905304,31
4905928,24
4906552,24
4907184,24
4907804,22
4908436,14
4909068,14
4909688,16
4910320,15
4910944,16
4911576,19
4912208,21
4912828,22
4913456,20
4914084,22
4914708,34
4915340,48
4915960,54
4916588,56
4917212,51
4917836,34
4918464,22
4919080,15
4919708,17
4920340,22
4920960,32
4921588,39
4922212,42
4922844,37
4923472,24
4924088,18
4924720,26
4925344,41
4925968,40
4926596,25
4927216,17
4927844,16
4928472,19
4929092,25
4929724,22
4930344,16
4930972,14
4931604,14
4932224,35
4932852,55
4933476,81
4934108,78
4934740,56
4935360,37
4935988,24
4936612,13
4937236,17
4937868,40
4938488,51
4939116,46
4939740,37
4940368,33
4940996,35
4941616,36
4942244,27
4942876,14
4943496,15
4944124,15
4944748,15
4945380,10
4946012,10
4946632,19
4947260,28
4947884,36
4948508,49
4949140,69
4949760,75
4950388,65
4951016,40
4951640,33
4952272,23
4952888,15
4953520,14
4954152,27
4954768,41
4955400,41
4956024,37
4956656,31
4957284,26
4957904,35
4958536,41
4959160,38
4959784,21
4960416,16
4961032,16
4961660,16
4962284,20
4962908,23
4963540,31
4964164,36
4964792,40
4965424,51
4966040,56
4966672,63
4967296,49
4967924,27
4968556,16
4969176,15
4969804,15
4970428,11
4971052,17
4971684,32
4972304,35
4972936,31
4973560,32
4974184,39
4974812,39
4975436,32
4976068,17
4976696,16
4977320,17
4977948,16
4978572,19
4979204,31
4979832,36
4980452,23
4981080,22
4981704,32
4982332,51
4982960,50
4983584,46
4984216,46
4984844,37
4985464,26
4986096,17
4986720,11
4987348,27
4987980,38
4988600,28
4989232,18
4989856,27
4990480,39
4991112,46
4991732,39
4992364,28
4992988,21
4993608,20
4994240,15
4994856,20
4995488,17
4996116,18
4996736,21
4997368,25
4997992,37
4998620,42
4999252,34
4999872,47
5000500,64
5001128,57
5001752,48
5002380,36
5003000,23
5003628,10
5004256,22
5004880,36
5005508,44
5006128,39
5006756,32
5007388,32
5008008,34
5008636,33
5009260,27
5009892,17
5010524,15
5011144,19
5011776,23
5012400,23
5013024,20
5013656,20
5014272,19
5014904,25
5015528,40
5016152,50
5016784,55
5017404,53
5018036,40
5018664,25
5019280,16
5019912,15
5020536,28
5021164,38
5021796,40
5022416,33
5023048,32
5023672,28
5024296,33
5024924,38
5025544,43
5026176,37
5026800,29
5027424,15
5028056,24
5028680,41
5029308,38
5029940,28
5030560,27
5031188,33
5031816,42
5032444,47
5033076,54
5033696,51
5034328,39
5034952,37
5035576,27
5036208,18
5036824,12
5037456,35
5038088,53
5038704,52
5039336,39
5039960,31
5040592,27
5041224,34
5041840,33
5042472,31
5043096,25
5043720,17
5044348,14
5044968,15
5045596,29
5046224,47
5046848,43
5047480,22
5048096,17
5048728,26
5049356,50
5049976,74
5050608,69
5051232,52
5051864,42
5052492,32
5053112,20
5053744,10
5054368,29
5054992,54
5055624,50
5056248,34
5056880,26
5057504,30
5058128,32
5058760,36
5059376,40
5060004,24
5060636,15
5061256,15
5061888,22
5062512,41
5063140,45
5063772,41
5064392,37
5065024,39
5065648,44
5066272,46
5066904,52
5067520,47
5068152,34
5068776,21
5069404,16
5070036,11
5070660,23
5071292,39
5071924,42
5072544,38
5073176,35
5073800,26
5074432,31
5075064,22
5075684,21
5076312,19
5076940,15
5077564,15
5078196,15
5078816,10
5079448,12
5080080,25
5080700,23
5081328,24
5081956,40
5082584,60
5083216,75
5083832,75
5084464,61
5085088,38
5085712,21
5086344,16
5086964,28
5087592,46
5088220,61
5088844,51
5089476,38
5090096,30
5090728,23
5091356,31
5091976,31
5092608,23
5093232,16
5093864,16
5094496,15
5095112,19
5095744,28
5096368,29
5096992,39
5097624,50
5098240,54
5098872,61
5099496,62
5100124,57
5100756,41
5101380,27
5102012,16
5102644,16
5103264,23
5103896,28
5104524,33
5105156,30
5105788,27
5106408,41
5107040,40
5107664,36
5108292,34
5108924,30
5109544,23
5110176,18
5110808,15
5111432,16
5112064,31
5112692,29
5113324,26
5113956,30
5114580,30
5115212,39
5115836,51
5116464,56
5117096,52
5117716,41
5118348,37
5118984,22
5119604,16
5120236,23
5120860,37
5121488,44
5122116,40
5122736,32
5123364,23
5123984,18
5124612,23
5125244,24
5125864,17
5126492,14
5127112,14
5127736,14
5128368,12
5128984,17
5129612,23
5130236,30
5130860,31
5131488,27
5132112,39
5132740,51
5133372,60
5133992,55
5134620,32
5135244,18
5135876,15
5136504,14
5137128,11
5137756,27
5138380,41
5139004,41
5139636,29
5140256,25
5140884,32
5141516,23
5142136,19
5142764,19
5143388,15
5144020,16
5144648,17
5145268,22
5145896,22
5146520,18
5147144,15
5147772,12
5148392,20
5149020,36
5149644,57
5150268,72
5150900,58
5151520,35
5152148,22
5152780,16
5153400,15
5154028,31
5154652,35
5155284,37
5155912,35
5156536,41
5157164,39
5157788,44
5158412,43
5159044,28
5159664,18
5160296,15
5160920,27
5161544,40
5162172,36
5162792,33
5163424,38
5164052,36
5164672,25
5165300,33
5165924,47
5166556,43
5167184,34
5167808,24
5168440,17
5169060,16
5169684,17
5170316,9
5170884,14
5171516,35
5172140,40
5172764,24
5173396,20
5174016,29
5174644,41
5175268,37
5175892,26
5176524,14
5177144,15
5177772,16
5178404,16
5179024,27
5179652,31
5180280,25
5180908,19
5181540,23
5182160,46
5182788,58
5183416,64
5184040,53
5184668,42
5185288,19
5185916,16
5186540,19
5187164,25
5187796,35
5188420,46
5189048,39
5189680,23
5190300,21
5190928,31
5191552,35
5192184,32
5192812,24
5193432,17
5194064,17
5194688,17
5195312,15
5195944,31
5196560,49
5197192,51
5197816,49
5198440,48
5199068,55
5199696,64
5200324,63
5200956,36
5201576,27
5202208,21
5202832,17
5203460,23
5204092,27
5204712,37
5205340,38
5205964,37
5206592,28
5207220,23
5207840,28
5208468,34
5209100,26
5209720,17
5210348,16
5210972,16
5211604,20
5212232,34
5212856,33
5213484,21
5214108,15
5214736,25
5215364,40
5215984,54
5216616,72
5217240,66
5217864,42
5218492,21
5219112,16
5219744,16
5220372,24
5220992,37
5221624,42
5222248,39
5222880,41
5223508,42
5224128,43
5224756,43
5225380,33
5226004,31
5226636,28
5227256,23
5227884,16
5228512,15
5229136,24
5229764,34
5230384,39
5231016,42
5231644,42
5232264,55
5232896,71
5233520,75
5234152,61
5234780,42
5235400,25
5236028,16
5236652,19
5237276,30
5237908,24
5238528,27
5239160,28
5239784,25
5240408,26
5241036,41
5241656,45
5242284,29
5242916,16
5243536,15
5244164,15
5244788,17
5245416,23
5246044,21
5246664,22
5247292,24
5247916,31
5248544,43
5249172,46
5249792,53
5250420,51
5251044,36
5251664,30
5252296,23
5252912,15
5253540,21
5254172,35
5254792,39
5255420,35
5256044,31
5256672,33
5257300,26
5257920,25
5258548,27
5259172,29
5259796,21
5260424,15
5261048,19
5261676,18
5262300,17
5262924,14
5263552,10
5264176,11
5264804,15
5265432,39
5266052,64
5266680,68
5267304,53
5267932,38
5268564,24
5269184,20
5269812,15
5270436,17
5271060,29
5271688,41
5272308,37
5272936,24
5273560,19
5274188,27
5274816,33
5275432,36
5276064,31
5276692,22
5277312,17
5277940,15
5278564,17
5279196,16
5279828,20
5280448,19
5281076,37
5281700,58
5282324,69
5282952,69
5283568,71
5284200,47
5284820,26
5285444,17
5286072,15
5286692,11
5287320,10
5287948,29
5288568,57
5289196,60
5289820,43
5290448,32
5291076,26
5291696,29
5292324,37
5292948,28
5293572,16
5294204,21
5294824,15
5295452,13
5296076,23
5296700,28
5297328,35
5297948,47
5298576,66
5299204,61
5299824,61
5300452,62
5301076,40
5301708,19
5302336,15
5302956,15
5303584,17
5304212,34
5304840,47
5305468,48
5306088,45
5306716,36
5307340,32
5307964,31
5308596,22
5309216,21
5309844,17
5310476,16
5311096,25
5311728,40
5312352,43
5312980,35
5313612,26
5314232,19
5314864,32
5315488,51
5316112,52
5316740,43
5317360,32
5317988,22
5318616,24
5319240,19
5319868,11
5320488,15
5321116,29
5321748,40
5322368,38
5323000,43
5323624,43
5324252,52
5324884,38
5325500,29
5326132,18
5326752,15
5327376,16
5328004,14
5328620,10
5329252,12
5329876,16
5330500,19
5331128,30
5331744,55
5332376,64
5333004,62
5333624,70
5334252,56
5334876,37
5335508,25
5336136,16
5336760,15
5337388,21
5338012,27
5338636,35
5339268,42
5339888,44
5340516,44
5341140,45
5341764,40
5342396,36
5343016,20
5343648,17
5344276,18
5344896,17
5345524,23
5346148,35
5346776,47
5347408,43
5348024,47
5348652,66
5349276,65
5349900,59
5350532,44
5351152,29
5351780,17
5352404,16
5353028,26
5353660,48
5354280,68
5354908,64
5355540,52
5356160,41
5356788,37
5357416,27
5358044,15
5358676,16
5359296,25
5359928,17
5360552,16
5361176,18
5361804,14
5362424,19
5363052,27
5363680,45
5364300,45
5364932,42
5365552,53
5366184,67
5366812,64
5367432,49
5368060,30
5368684,17
5369316,17
5369944,29
5370564,42
5371192,41
5371816,38
5372440,43
5373068,43
5373688,35
5374316,34
5374944,32
5375568,21
5376200,14
5376816,16
5377444,16
5378072,15
5378688,23
5379320,33
5379940,31
5380572,34
5381200,41
5381816,60
5382448,69
5383068,64
5383692,57
5384324,34
5384944,19
5385572,16
5386196,15
5386824,11
5387452,20
5388072,32
5388700,36
5389332,39
5389952,39
5390580,41
5391204,44
5391836,40
5392468,34
5393088,24
5393716,15
5394340,16
5394964,11
5395596,12
5396216,17
5396844,30
5397468,38
5398092,43
5398724,64
5399344,79
5399976,76
5400604,53
5401224,34
5401856,24
5402476,17
5403108,13
5403736,22
5404360,41
5404988,45
5405612,35
5406236,29
5406868,29
5407488,33
5408116,31
5408740,23
5409364,19
5409992,17
5410608,16
5411240,15
5411868,20
5412488,29
5413116,31
5413740,29
5414372,23
5415004,32
5415624,50
5416252,57
5416876,53
5417500,35
5418132,20
5418752,15
5419384,17
5420008,16
5420632,24
5421260,33
5421880,37
5422512,46
5423140,57
5423760,44
5424392,24
5425016,13
5425644,14
5426276,14
5426896,17
5427528,19
5428148,19
5428772,25
5429404,30
5430024,33
5430652,35
5431276,30
5431900,38
5432532,45
5433156,50
5433788,51
5434416,34
5435036,25
5435664,19
5436288,15
5436920,27
5437548,36
5438168,38
5438796,34
5439424,33
5440048,31
5440676,32
5441296,32
5441924,37
5442548,34
5443172,23
5443800,17
5444424,18
5445052,26
5445684,34
5446304,34
5446936,35
5447560,33
5448188,36
5448816,58
5449440,60
5450068,60
5450692,46
5451316,30
5451944,17
5452568,15
5453196,12
5453820,18
5454448,35
5455076,43
5455700,48
5456332,45
5456960,31
5457576,31
5458208,33
5458832,25
5459460,18
5460092,15
5460712,17
5461340,16
5461964,15
5462588,20
5463220,41
5463840,37
5464468,32
5465100,43
5465720,56
5466348,58
5466972,53
5467604,31
5468232,24
5468852,17
5469480,16
5470104,23
5470728,39
5471356,46
5471976,46
5472608,30
5473232,24
5473856,20
5474484,21
5475104,26
5475736,20
5476364,15
5476984,16
5477616,19
5478240,21
5478868,22
5479500,22
5480120,37
5480748,53
5481372,56
5481996,50
5482628,46
5483248,44
5483876,30
5484504,19
5485128,15
5485756,22
5486376,25
5487008,19
5487636,24
5488256,35
5488888,37
5489508,34
5490140,27
5490768,25
5491392,23
5492020,24
5492644,26
5493268,22
5493900,16
5494520,16
5495148,15
5495772,25
5496400,33
5497028,42
5497648,45
5498276,49
5498908,61
5499528,67
5500156,58
5500784,34
5501416,27
5502048,20
5502664,15
5503296,15
5503920,30
5504544,41
5505176,48
5505792,48
5506424,39
5507048,27
5507672,34
5508304,33
5508920,31
5509552,29
5510180,19
5510800,15
5511428,19
5512052,22
5512684,22
5513316,18
5513936,22
5514568,33
5515192,48
5515816,62
5516448,68
5517064,60
5517696,53
5518320,52
5518944,41
5519576,21
5520200,14
5520828,37
5521460,54
5522080,55
5522708,45
5523336,38
5523964,30
5524596,22
5525216,21
5525848,21
5526472,19
5527096,18
5527724,15
5528344,16
5528976,25
5529604,34
5530224,33
5530852,23
5531476,25
5532108,47
5532736,55
5533360,57
5533988,47
5534616,34
5535240,23
5535868,17
5536488,13
5537116,27
5537740,38
5538368,43
5538996,44
5539616,48
5540244,41
5540876,39
5541496,35
5542128,26
5542752,25
5543380,19
5544012,18
5544632,17
5545264,37
5545888,36
5546512,35
5547144,42
5547760,55
5548392,75
5549016,77
5549640,69
5550272,45
5550888,20
5551516,19
5552148,22
5552768,20
5553396,13
5554024,42
5554652,58
5555284,51
5555904,35
5556536,23
5557160,24
5557784,30
5558412,33
5559032,41
5559664,39
5560288,29
5560912,19
5561544,14
5562160,29
5562792,32
5563424,36
5564044,44
5564672,42
5565300,51
5565932,57
5566564,63
5567184,54
5567816,41
5568440,28
5569064,22
5569696,15
5570316,15
5570948,31
5571572,41
5572196,37
5572824,31
5573448,34
5574076,40
5574708,40
5575328,30
5575960,19
5576584,15
5577212,17
5577844,14
5578464,13
5579092,12
5579720,13
5580344,25
5580976,35
5581592,52
5582224,58
5582848,63
5583472,68
5584104,47
5584724,35
5585356,23
5585988,16
5586608,19
5587236,35
5587860,42
5588488,41
5589116,35
5589736,37
5590368,31
5590992,31
5591620,26
5592248,26
5592872,23
5593504,16
5594136,16
5594752,12
5595384,17
5596008,24
5596636,32
5597268,32
5597888,35
5598520,53
5599144,66
5599768,63
5600400,39
5601024,18
5601652,15
5602276,15
5602900,15
5603532,17
5604152,32
5604780,45
5605412,51
5606032,34
5606664,17
5607288,16
5607916,21
5608548,26
5609168,26
5609796,17
5610420,16
5611048,23
5611676,33
5612296,34
5612924,28
5613548,27
5614172,28
5614804,39
5615428,58
5616060,59
5616688,57
5617304,34
5617936,17
5618560,15
5619188,16
5619820,10
5620440,13
5621068,25
5621696,34
5622320,35
5622952,39
5623568,42
5624200,43
5624824,34
5625448,27
5626080,16
5626704,16
5627332,24
5627964,25
5628584,21
5629216,13
5629840,12
5630472,14
5631104,26
5631720,47
5632356,48
5632976,46
5633600,42
5634228,26
5634848,20
5635476,16
5636108,18
5636728,16
5637356,22
5637980,31
5638612,30
5639240,26
5639860,28
5640488,28
5641112,21
5641736,15
5642364,15
5642984,17
5643612,19
5644236,21
5644860,23
5645492,24
5646112,29
5646740,29
5647372,26
5647992,30
5648624,48
5649248,58
5649876,55
5650508,46
5651128,37
5651760,26
5652384,16
5653008,15
5653636,30
5654256,52
5654884,61
5655508,52
5656136,36
5656764,25
5657384,26
5658016,28
5658644,22
5659264,19
5659892,17
5660516,19
5661148,17
5661780,10
5662400,19
5663028,30
5663652,28
5664280,27
5664908,37
5665528,64
5666156,76
5666780,66
5667408,36
5668036,18
5668656,16
5669284,16
5669916,10
5670536,14
5671164,27
5671792,38
5672420,41
5673052,34
5673672,27
5674300,33
5674928,35
5675552,24
5676180,14
5676800,16
5677428,15
5678056,20
5678680,33
5679312,33
5679928,27
5680560,19
5681188,19
5681808,32
5682440,51
5683064,64
5683696,52
5684324,32
5684944,22
5685572,17
5686200,20
5686824,34
5687452,33
5688072,30
5688700,17
5689328,16
5689952,17
5690580,23
5691204,27
5691836,27
5692468,28
5693088,20
5693720,17
5694344,17
5694972,15
5695604,29
5696224,27
5696852,20
5697476,19
5698100,30
5698732,50
5699352,73
5699984,67
5700612,30
5701232,17
5701864,15
5702488,15
5703116,16
5703748,26
5704368,38
5704996,39
5705620,41
5706248,29
5706876,10
5707496,13
5708128,29
5708752,24
5709376,16
5710008,15
5710628,18
5711260,16
5711892,28
5712512,39
5713144,40
5713768,40
5714400,35
5715028,46
5715648,59
5716280,59
5716904,59
5717528,43
5718160,26
5718780,16
5719412,16
5720036,17
5720660,24
5721292,40
5721912,50
5722544,51
5723176,44
5723792,39
5724424,30
5725052,19
5725680,17
5726312,16
5726932,18
5727564,21
5728188,21
5728816,20
5729444,19
5730064,16
5730696,17
5731320,27
5731944,39
5732576,45
5733200,51
5733832,51
5734464,36
5735080,26
5735708,17
5736332,11
5736960,16
5737592,28
5738208,37
5738840,41
5739464,41
5740088,33
5740716,26
5741336,25
5741964,23
5742592,20
5743216,19
5743848,15
5744472,17
5745100,14
5745732,14
5746352,20
5746984,21
5747608,24
5748232,39
5748860,51
5749480,65
5750112,75
5750736,65
5751360,39
5751988,16
5752608,17
5753240,25
5753872,35
5754488,46
5755120,47
5755744,41
5756376,35
5757004,20
5757624,27
5758256,35
5758880,29
5759504,16
5760136,17
5760752,22
5761380,21
5762004,17
5762628,14
5763256,16
5763872,21
5764500,31
5765132,56
5765752,64
5766380,63
5767004,53
5767636,35
5768264,24
5768888,16
5769516,16
5770140,13
5770764,18
5771396,32
5772016,35
5772644,44
5773268,49
5773892,36
5774524,22
5775144,24
5775776,24
5776404,16
5777024,15
5777652,17
5778276,13
5778904,17
5779536,28
5780152,33
5780784,28
5781408,24
5782032,42
5782660,53
5783280,56
5783908,48
5784536,35
5785160,19
5785788,14
5786408,12
5787036,19
5787664,31
5788288,38
5788916,35
5789540,35
5790172,38
5790804,48
5791424,35
5792052,18
5792676,13
5793300,16
5793932,17
5794552,22
5795184,26
5795808,30
5796432,29
5797060,24
5797680,18
5798308,29
5798940,45
5799560,57
5800192,56
5800812,39
5801444,27
5802072,14
5802696,19
5803328,24
5803952,30
5804576,41
5805208,41
5805824,30
5806456,13
5807080,15
5807704,35
5808332,46
5808952,37
5809584,23
5810212,16
5810832,16
5811464,15
5812088,15
5812716,25
5813348,36
5813968,43
5814600,44
5815224,61
5815848,63
5816480,60
5817096,57
5817728,31
5818348,15
5818972,17
5819604,13
5820228,19
5820860,38
5821488,45
5822108,40
5822736,28
5823360,16
5823992,13
5824624,21
5825240,27
5825872,25
5826496,21
5827120,17
5827752,19
5828368,21
5828996,16
5829624,12
5830248,10
5830876,14
5831504,12
5832132,37
5832764,76
5833384,96
5834016,83
5834640,68
5835272,50
5835900,37
5836520,20
5837152,13
5837776,33
5838400,43
5839028,43
5839648,42
5840276,42
5840908,44
5841528,39
5842156,35
5842784,25
5843412,18
5844044,16
5844664,13
5845292,11
5845916,10
5846544,10
5847172,15
5847792,29
5848424,59
5849048,80
5849672,84
5850300,79
5850920,57
5851552,32
5852180,15
5852800,16
5853428,17
5854056,24
5854688,35
5855316,40
5855936,38
5856568,46
5857196,44
5857820,33
5858448,28
5859072,22
5859704,17
5860328,16
5860952,18
5861584,26
5862200,26
5862832,24
5863460,23
5864080,19
5864708,25
5865332,43
5865964,56
5866596,60
5867216,49
5867848,37
5868472,37
5869096,20
5869728,14
5870344,26
5870976,35
5871600,49
5872224,51
5872856,51
5873480,51
5874112,40
5874740,38
5875360,28
5875992,14
5876616,29
5877248,32
5877880,37
5878496,44
5879128,32
5879752,11
5880376,9
5880956,10
5881584,29
5882216,54
5882840,76
5883464,77
5884096,53
5884716,31
5885348,16
5885980,16
5886600,23
5887232,34
5887860,41
5888492,34
5889120,25
5889744,29
5890372,35
5891000,42
5891624,36
5892256,24
5892872,18
5893504,17
5894128,16
5894752,12
5895384,17
5896008,16
5896636,17
5897268,22
5897888,23
5898520,49
5899144,72
5899772,78
5900404,61
5901024,34
5901652,22
5902276,19
5902900,16
5903532,10
5904152,13
5904780,27
5905404,33
5906032,32
5906660,23
5907284,27
5907916,41
5908548,42
5909168,45
5909796,53
5910420,32
5911048,16
5911676,24
5912296,31
5912928,32
5913552,23
5914176,19
5914808,35
5915428,55
5916056,58
5916688,51
5917308,27
5917936,20
5918564,21
5919196,22
5919828,19
5920448,11
5921076,14
5921700,20
5922324,24
5922956,25
5923576,31
5924208,29
5924828,21
5925452,22
5926084,18
5926704,16
5927332,17
5927964,14
5928584,22
5929212,30
5929840,34
5930468,33
5931100,37
5931720,43
5932352,44
5932976,47
5933600,41
5934228,17
5934848,15
5935480,17
5936104,21
5936728,35
5937360,50
5937976,54
5938608,46
5939240,32
5939856,28
5940484,20
5941108,22
5941736,15
5942368,16
5942988,18
5943616,18
5944240,20
5944864,19
5945492,21
5946112,25
5946740,33
5947368,43
5947992,44
5948620,49
5949240,55
5949872,55
5950500,50
5951120,38
5951752,19
5952376,16
5953004,24
5953636,34
5954256,43
5954884,33
5955508,27
5956136,37
5956764,46
5957384,35
5958016,23
5958640,23
5959264,26
5959896,16
5960520,19
5961148,25
5961780,36
5962400,18
5963028,17
5963656,21
5964284,22
5964916,36
5965536,53
5966168,65
5966792,57
5967416,35
5968044,30
5968664,31
5969292,27
5969916,10
5970544,18
5971176,35
5971800,41
5972432,37
5973064,35
5973680,39
5974312,43
5974936,30
5975564,30
5976196,28
5976816,22
5977448,17
5978072,15
5978696,28
5979328,31
5979948,26
5980576,22
5981208,23
5981824,52
5982456,74
5983080,81
5983712,61
5984344,34
5984960,23
5985588,17
5986216,13
5986840,21
5987472,32
5988088,33
5988720,33
5989344,30
5989968,23
5990600,33
5991216,42
5991844,42
5992476,39
5993096,33
5993728,25
5994352,16
5994980,24
5995612,36
5996232,44
5996864,44
5997488,43
5998112,49
5998744,51
5999360,58
5999992,63
6000620,39
6001244,30
6001872,18
6002496,16
6003128,17
6003756,26
6004376,42
6005008,49
6005632,42
6006260,33
6006892,25
6007512,28
6008144,23
6008768,22
6009392,17
6010024,14
6010640,15
6011272,15
6011896,31
6012520,47
6013152,39
6013776,33
6014408,29
6015036,40
6015656,52
6016292,56
6016916,50
6017544,38
6018172,19
6018792,16
6019424,18
6020048,26
6020672,45
6021304,59
6021920,51
6022552,34
6023180,22
6023800,17
6024432,15
6025056,21
6025684,38
6026316,41
6026936,31
6027568,21
6028192,11
6028816,11
6029444,11
6030064,21
6030696,26
6031320,52
6031944,73
6032576,72
6033200,91
6033832,60
6034460,28
6035080,17
6035712,17
6036336,11
6036968,13
6037596,26
6038216,33
6038848,18
6039476,12
6040100,16
6040732,14
6041352,11
6041984,15
6042608,16
6043236,15
6043864,21
6044488,29
6045116,30
6045748,27
6046368,23
6047000,17
6047624,19
6048256,32
6048884,40
6049504,45
6050136,35
6050760,15
6051384,16
6052016,21
6052632,31
6053264,37
6053896,37
6054512,44
6055144,40
6055768,23
6056400,15
6057028,15
6057648,24
6058276,19
6058904,15
6059528,15
6060160,14
6060776,17
6061408,11
6062036,17
6062660,17
6063292,14
6063912,17
6064544,25
6065176,53
6065792,75
6066424,81
6067048,71
6067680,56
6068308,46
6068928,29
6069556,14
6070184,21
6070808,35
6071440,36
6072056,37
6072688,40
6073312,46
6073940,44
6074572,30
6075192,23
6075824,17
6076456,17
6077076,19
6077708,17
6078332,11
6078964,14
6079596,15
6080220,39
6080848,59
6081472,63
6082096,48
6082724,38
6083344,26
6083972,13
6084596,16
6085224,18
6085852,21
6086476,20
6087108,10
6087736,30
6088360,30
6088988,29
6089612,33
6090244,31
6090876,27
6091496,24
6092128,19
6092752,16
6093376,18
6094008,15
6094628,11
6095256,12
6095888,13
6096508,15
6097136,18
6097764,20
6098392,34
6099024,44
6099644,54
6100276,51
6100900,37
6101524,20
6102156,16
6102776,19
6103408,18
6104032,27
6104660,37
6105288,34
6105912,36
6106544,40
6107172,36
6107792,21
6108424,18
6109048,15
6109680,15
6110312,20
6110932,19
6111564,18
6112188,14
6112816,18
6113444,29
6114064,47
6114696,58
6115320,66
6115944,61
6116576,55
6117200,33
6117832,17
6118464,15
6119080,17
6119712,15
6120336,20
6120968,30
6121596,32
6122216,35
6122848,29
6123476,25
6124100,32
6124732,38
6125352,39
6125984,29
6126616,17
6127240,16
6127872,16
6128496,11
6129128,13
6129760,23
6130376,20
6131012,11
6131636,16
6132264,37
6132892,52
6133512,58
6134144,43
6134772,23
6135396,19
6136028,16
6136656,15
6137288,19
6137920,15
6138540,18
6139172,19
6139796,20
6140424,26
6141056,25
6141676,29
6142308,21
6142936,15
6143560,15
6144196,22
6144816,25
6145444,31
6146072,52
6146692,50
6147320,40
6147944,34
6148572,41
6149204,52
6149824,50
6150452,31
6151076,20
6151700,25
6152332,27
6152952,13
6153584,21
6154208,34
6154832,38
6155460,38
6156080,37
6156708,34
6157340,38
6157960,40
6158588,36
6159216,34
6159844,23
6160476,20
6161096,17
6161724,12
6162348,29
6162972,37
6163604,39
6164224,35
6164856,44
6165476,61
6166100,68
6166732,59
6167352,36
6167984,21
6168612,18
6169232,17
6169864,11
6170488,28
6171116,48
6171748,44
6172368,40
6172996,33
6173624,29
6174248,37
6174876,39
6175496,33
6176128,17
6176748,15
6177372,17
6178004,19
6178628,23
6179260,24
6179888,21
6180508,25
6181136,31
6181760,54
6182392,65
6183024,63
6183644,50
6184272,30
6184900,18
6185524,15
6186156,12
6186776,18
6187408,29
6188036,38
6188656,43
6189288,33
6189912,31
6190544,38
6191172,44
6191792,35
6192424,34
6193048,32
6193672,27
6194304,15
6194920,22
6195552,27
6196176,30
6196800,31
6197432,42
6198052,64
6198684,87
6199312,96
6199936,77
6200568,38
6201192,14
6201824,18
6202456,20
6203072,22
6203704,32
6204328,47
6204952,45
6205584,38
6206200,27
6206832,24
6207456,27
6208080,19
6208708,14
6209328,16
6209956,18
6210588,16
6211208,13
6211836,14
6212464,13
6213092,13
6213724,20
6214344,31
6214976,58
6215600,72
6216224,70
6216856,54
6217476,43
6218108,31
6218732,21
6219356,15
6219988,23
6220616,36
6221248,45
6221876,49
6222496,47
6223128,40
6223752,33
6224384,27
6225016,27
6225636,21
6226268,15
6226892,19
6227516,24
6228144,28
6228768,26
6229396,23
6230028,16
6230648,17
6231280,27
6231904,45
6232532,50
6233164,49
6233784,31
6234412,26
6235040,21
6235664,17
6236296,12
6236912,24
6237544,37
6238168,36
6238792,29
6239424,22
6240044,22
6240672,27
6241300,31
6241920,31
6242548,23
6243176,14
6243804,15
6244436,20
6245056,32
6245688,37
6246312,37
6246936,34
6247568,31
6248184,39
6248816,44
6249440,50
6250064,45
6250692,25
6251312,21
6251944,20
6252572,15
6253192,12
6253824,20
6254448,29
6255076,37
6255708,41
6256328,36
6256956,33
6257584,31
6258208,27
6258836,22
6259456,15
6260088,15
6260712,20
6261336,20
6261968,23
6262584,27
