tempo_arduino_micro_s,valor_ADC
500,30
1004,40
1500,45
2000,35
2508,24
3000,20
3508,19
4000,16
4508,17
5000,22
5500,24
6000,26
6500,28
7004,29
7500,18
8000,11
8500,12
9000,14
9500,12
10000,13
10516,13
11036,14
11564,16
12084,19
12612,20
13132,13
13660,17
14180,20
14708,27
15228,23
15756,19
16276,12
16796,18
17316,31
17836,46
18356,44
18876,30
19396,21
19916,16
20436,15
20956,15
21476,12
21996,15
22516,28
23036,29
23564,32
24084,36
24612,26
25132,17
25660,13
26180,23
26708,33
27228,27
27756,17
28276,15
28804,24
29324,20
29852,19
30372,17
30900,13
31420,11
31948,9
32412,10
32948,10
33468,19
33996,44
34516,55
35044,60
35564,57
36092,49
36612,35
37140,27
37660,16
38188,15
38708,23
39236,24
39756,25
40284,29
40804,32
41332,28
41852,19
42380,12
42900,11
43420,14
43940,20
44460,21
44980,17
45500,14
46020,16
46540,21
47060,20
47580,15
48100,12
48620,14
49140,17
49660,18
50188,28
50708,35
51236,46
51756,52
52284,50
52804,47
53332,34
53852,18
54380,13
54900,17
55428,28
55948,39
56476,33
56996,28
57524,19
58044,10
58572,10
59092,13
59620,18
60140,22
60668,27
61188,28
61716,19
62236,15
62764,12
63284,10
63812,11
64336,10
64860,19
65380,31
65908,32
66428,32
66956,35
67476,47
67996,51
68516,40
69036,19
69556,15
70076,14
70600,15
71116,15
71640,11
72160,12
72676,11
73196,14
73716,15
74236,17
74764,20
75284,18
75812,22
76336,29
76860,26
77380,23
77908,22
78428,17
78956,15
79480,16
80004,17
80524,18
81052,17
81572,20
82100,24
82620,17
83148,22
83668,41
84196,49
84716,53
85244,36
85764,26
86292,23
86812,22
87340,20
87860,12
88388,11
88908,22
89436,34
89960,32
90484,30
91004,30
91532,26
92052,25
92572,18
93092,15
93612,25
94132,34
94652,36
95176,28
95696,21
96212,11
96732,37
97252,60
97776,63
98292,47
98812,35
99340,31
99860,29
100388,34
100952,39
101536,41
102108,34
102688,29
103256,17
103832,13
104400,13
104976,14
105552,16
106120,22
106696,29
107264,29
107848,24
108416,23
108992,25
109560,20
110128,15
110712,15
111284,17
111864,17
112436,15
113016,11
113584,14
114160,17
114744,17
115312,19
115896,26
116464,33
117048,37
117616,45
118200,52
118768,41
119344,27
119928,17
120500,14
121080,13
121648,18
122232,33
122804,37
123380,27
123960,21
124528,16
125112,18
125680,32
126264,38
126832,32
127416,19
127988,19
128564,24
129144,15
129712,23
130288,34
130856,46
131440,45
132008,44
132584,45
133160,42
133728,27
134304,21
134872,16
135456,17
136024,16
136608,20
137176,41
137752,47
138336,39
138904,20
139488,12
140056,18
140640,13
141208,26
141784,34
142368,34
142940,37
143520,38
144088,32
144672,23
145240,16
145824,19
146392,23
146972,27
147552,29
148120,25
148704,19
149272,24
149856,31
150428,33
151000,36
151584,37
152156,36
152736,37
153308,32
153888,23
154456,11
155040,21
155608,24
156184,27
156768,38
157340,35
157920,20
158492,15
159072,13
159644,12
160220,18
160800,19
161368,17
161944,16
162512,15
163096,13
163664,17
164248,21
164816,19
165384,18
165960,17
166528,26
167112,27
167680,26
168256,31
168824,27
169408,21
169976,13
170544,16
171120,11
171688,10
172272,10
172840,10
173424,11
173992,14
174572,18
175152,19
175720,18
176304,15
176872,16
177456,16
178024,16
178608,13
179176,16
179756,16
180336,14
180904,11
181488,9
182004,10
182584,21
183152,24
183736,37
184308,43
184884,47
185464,28
186032,22
186616,17
187184,17
187768,10
188336,16
188912,21
189496,27
190064,26
190648,23
191220,19
191800,23
192372,34
192952,22
193520,15
194096,19
194680,19
195248,17
195832,15
196404,11
196984,24
197552,27
198132,25
198712,27
199284,30
199864,35
200436,37
201016,36
201584,30
202168,21
202736,19
203312,15
203896,16
204468,24
205048,35
205616,31
206192,35
206760,27
207336,10
207912,11
208480,10
209064,11
209632,15
210208,17
210776,15
211360,17
211928,17
212496,17
213080,16
213648,20
214232,21
214804,18
215384,22
215952,22
216532,27
217112,31
217684,27
218264,27
218832,23
219408,15
219976,16
220560,19
221128,27
221704,13
222288,23
222856,34
223440,41
224012,21
224592,11
225160,12
225744,11
226320,27
226888,36
227472,23
228040,16
228624,14
229192,16
229776,33
230344,37
230924,25
231504,16
232076,17
232656,24
233224,40
233808,37
234376,31
234960,16
235536,13
236104,20
236688,39
237260,36
237840,23
238412,11
238992,20
239564,38
240140,54
240720,40
241288,32
241872,36
242444,48
243024,49
243596,21
244176,15
244752,22
245324,23
245904,26
246472,46
247056,53
247624,48
248208,39
248776,36
249356,30
249936,26
250504,22
251088,21
251656,19
252240,13
252808,15
253392,17
253968,15
254540,15
255120,15
255692,10
256272,10
256848,13
257424,13
257992,14
258560,17
259144,19
259712,19
260296,18
260864,16
261448,17
262016,16
262592,14
263160,12
263736,14
264320,10
264888,11
265464,10
266032,10
266616,23
267184,53
267764,64
268344,40
268912,17
269496,17
270064,19
270648,26
271216,11
271800,29
272372,29
272944,27
273528,17
274096,11
274680,14
275252,14
275832,11
276404,11
276980,14
277560,15
278132,15
278712,17
279284,14
279864,11
280436,10
281016,11
281588,10
282164,10
282744,11
283312,22
283896,48
284468,61
285048,44
285616,21
286192,15
286776,15
287344,16
287928,32
288500,31
289080,21
289648,24
290232,31
290804,20
291376,14
291960,25
292528,28
293112,28
293684,18
294264,13
294836,16
295408,18
295992,23
296564,19
297144,15
297712,14
298296,11
298864,10
299448,12
300020,18
300596,18
301176,15
301748,17
302328,31
302908,20
303488,17
304060,37
304636,38
305216,19
305788,9
306316,9
306840,9
307364,10
307936,13
308520,10
309088,23
309672,33
310244,38
310820,40
311400,28
311972,16
312552,22
313132,26
313712,12
314284,13
314860,24
315440,31
316012,25
316592,22
317164,35
317744,41
318324,32
318904,20
319484,17
320060,22
320640,23
321208,10
321784,33
322352,36
322936,18
323504,12
324084,22
324664,29
325232,38
325816,35
326388,17
326968,15
327544,15
328128,17
328696,32
329264,43
329848,32
330416,15
331000,12
331568,13
332152,16
332724,25
333300,27
333880,30
334448,35
335032,40
335604,30
336184,20
336752,14
337336,18
337904,17
338484,18
339064,18
339636,13
340216,10
340784,11
341368,17
341936,24
342512,33
343096,35
343664,32
344248,22
344816,18
345400,15
345972,14
346552,17
347124,27
347700,39
348280,41
348848,40
349432,37
350004,39
350584,37
351156,35
351732,29
352312,22
352884,16
353464,14
354032,18
354616,17
355184,19
355768,22
356348,29
356924,26
357504,17
358076,11
358656,13
359232,11
359816,14
360388,17
360960,15
361544,20
362116,33
362696,25
363268,25
363848,15
364416,11
365000,21
365576,34
366148,53
366728,61
367300,61
367880,50
368460,39
369040,33
369608,19
370184,16
370768,15
371340,11
371920,10
372488,21
373072,41
373644,35
374224,25
374800,19
375368,23
375952,23
376524,24
377104,24
377676,26
378256,30
378828,21
379404,11
379984,19
380556,35
381136,32
381716,19
382296,25
382868,42
383444,43
384024,46
384596,41
385176,34
385748,30
386328,18
386900,15
387480,14
388052,16
388624,15
389208,10
389776,14
390360,17
390932,19
391512,17
392084,17
392656,18
393240,20
393812,16
394392,15
394964,17
395544,16
396116,11
396696,14
397276,23
397852,20
398432,17
399004,12
399584,13
400164,31
400744,45
401312,49
401888,24
402472,14
403044,17
403624,16
404196,18
404776,17
405348,18
405928,18
406500,11
407076,10
407656,13
408228,20
408808,20
409380,10
409960,15
410536,17
411104,18
411688,16
412256,16
412832,13
413400,16
413976,17
414544,19
415128,24
415696,27
416272,30
416856,27
417424,32
418008,36
418576,25
419160,15
419732,18
420308,23
420888,15
421456,11
422032,14
422604,24
423184,15
423756,14
424336,15
424904,19
425484,22
426064,33
426632,39
427216,25
427784,19
428368,40
428936,35
429520,14
430096,10
430664,15
431248,21
431820,15
432400,11
432968,13
433552,37
434124,56
434700,59
435280,47
435848,31
436424,21
436992,15
437576,11
438148,14
438728,20
439304,31
439876,35
440456,32
441028,47
441608,43
442176,16
442752,9
443272,14
443848,13
444424,15
444996,14
445576,18
446148,10
446728,13
447296,20
447880,16
448452,18
449024,14
449608,27
450176,55
450760,70
451332,65
451912,54
452484,47
453064,35
453640,22
454208,12
454792,11
455364,13
455944,13
456516,22
457096,30
457668,35
458244,27
458824,26
459396,29
459976,34
460548,23
461128,15
461696,20
462280,16
462856,11
463428,12
464008,11
464576,13
465152,11
465724,15
466304,29
466876,52
467452,48
468032,42
468604,30
469184,23
469756,22
470336,20
470916,11
471496,17
472080,26
472648,34
473232,28
473804,22
474384,21
474956,14
475536,10
476108,10
476684,14
477264,14
477836,15
478416,19
478996,17
479576,13
480156,23
480732,23
481312,18
481880,19
482464,29
483036,43
483616,39
484188,38
484768,32
485340,19
485916,20
486496,22
487068,19
487648,10
488220,22
488800,19
489368,24
489948,28
490528,35
491100,31
491680,26
492252,27
492832,26
493400,26
493984,23
494556,30
495132,28
495712,14
496284,26
496864,47
497432,49
498016,33
498588,20
499164,25
499744,35
500316,39
500896,44
501468,30
502048,21
502620,19
503200,15
503772,19
504348,13
504928,11
505500,10
506080,19
506660,17
507240,14
507812,11
508388,11
508968,21
509540,35
510120,28
510692,15
511272,15
511852,14
512436,13
513008,10
513576,11
514152,15
514720,12
515304,11
515872,11
516456,27
517024,54
517604,57
518184,43
518752,27
519336,22
519908,14
520488,13
521056,10
521640,14
522208,26
522788,16
523368,14
523936,16
524520,14
525092,14
525672,21
526240,30
526816,30
527400,34
527968,18
528552,14
529124,17
529704,19
530276,11
530856,13
531428,12
532004,15
532584,14
533152,14
533736,23
534308,26
534888,27
535460,45
536036,50
536616,54
537188,50
537768,35
538340,23
538920,10
539488,19
540072,20
540644,19
541220,14
541800,10
542372,12
542952,22
543532,26
544112,19
544680,16
545256,17
545840,12
546412,10
546992,11
547564,10
548144,10
548716,10
549296,11
549868,20
550444,31
551024,39
551596,31
552176,23
552756,17
553336,19
553916,14
554492,13
555072,15
555644,28
556224,42
556796,32
557380,14
557956,14
558536,22
559120,12
559692,15
560272,15
560844,22
561424,24
561996,19
562576,11
563148,14
563724,12
564304,16
564876,32
565456,40
566028,34
566608,32
567180,31
567760,29
568344,23
568912,20
569496,14
570068,15
570648,21
571220,22
571800,23
572372,33
572948,27
573528,26
574100,30
574680,29
575252,32
575832,23
576404,15
576976,14
577560,19
578132,27
578712,26
579284,17
579864,17
580436,29
581016,47
581588,44
582164,42
582744,50
583316,51
583896,50
584476,43
585056,23
585628,18
586200,15
586784,16
587356,13
587936,10
588508,10
589088,15
589668,26
590248,27
590820,28
591396,24
591976,24
592548,28
593128,31
593708,24
594288,25
594868,19
595444,15
596024,13
596596,10
597176,20
597748,36
598332,38
598908,36
599488,40
600072,44
600644,48
601224,32
601796,17
602376,16
602948,15
603528,18
604108,11
604684,11
605264,10
605836,11
606416,22
606996,30
607576,33
608156,39
608732,35
609312,25
609884,19
610464,15
611036,26
611616,23
612196,19
612776,14
613356,10
613932,13
614516,12
615084,10
615664,10
616236,14
616816,11
617388,59
617964,77
618544,67
619116,44
619696,24
620268,14
620848,11
621416,11
622000,11
622580,13
623156,22
623736,26
624312,21
624888,18
625464,11
626048,11
626620,17
627196,17
627780,20
628352,18
628928,14
629500,11
630080,16
630660,19
631240,18
631824,11
632396,14
632976,28
633548,40
634132,49
634708,39
635292,21
635868,14
636444,14
637024,15
637596,10
638176,11
638756,10
639336,10
639916,10
640492,12
641072,23
641640,23
642224,22
642796,23
643376,24
643944,24
644528,21
645096,21
645676,16
646256,11
646828,11
647408,11
647980,21
648560,29
649132,25
649708,19
650288,26
650856,29
651440,22
652012,19
652592,37
653164,40
653744,27
654316,14
654892,11
655472,15
656040,31
656624,38
657192,31
657776,16
658344,11
658920,10
659504,15
660072,18
660656,16
661224,20
661808,16
662376,13
662960,15
663532,33
664108,40
664688,14
665256,34
665840,53
666408,56
666992,48
667560,43
668136,46
668720,49
669288,40
669872,27
670444,19
671024,11
671596,11
672176,20
672744,24
673320,24
673904,26
674476,25
675056,21
675628,15
676208,12
676776,15
677356,16
677936,15
678508,15
679088,11
679656,10
680240,11
680808,14
681392,21
681964,17
682536,14
683120,22
683692,30
684272,32
684844,24
685424,18
685996,19
686572,20
687152,18
687724,11
688304,13
688876,15
689456,17
690028,21
690608,25
691180,19
691756,11
692336,12
692908,18
693488,21
694060,26
694640,14
695212,14
695788,11
696368,10
696940,10
697520,10
698092,10
698672,21
699244,40
699824,48
700396,44
700972,39
701552,29
702124,18
702704,15
703276,22
703856,18
704436,10
705008,12
705592,11
706164,11
706744,15
707316,16
707896,11
708468,10
709048,11
709620,19
710196,16
710776,15
711348,19
711928,16
712508,11
713088,13
713660,15
714236,15
714816,11
715392,15
715968,25
716544,27
717120,37
717700,47
718280,33
718856,19
719428,16
720008,19
720576,15
721160,13
721732,20
722312,31
722884,35
723460,29
724040,42
724608,54
725192,37
725764,13
726344,16
726916,14
727496,14
728080,17
728648,18
729232,11
729804,16
730384,33
730956,32
731536,41
732108,50
732684,56
733264,55
733836,47
734416,40
734996,23
735576,15
736156,14
736732,15
737312,12
737884,11
738464,19
739036,24
739616,15
740196,10
740776,12
741348,11
741924,10
742504,13
743072,32
743656,30
744228,22
744808,21
745380,21
745956,11
746536,11
747108,10
747688,10
748260,12
748840,21
749408,27
749992,25
750564,34
751140,39
751720,22
752296,16
752872,14
753452,14
754032,12
754612,14
755188,14
755772,12
756344,10
756920,13
757492,17
758072,14
758652,11
759232,11
759804,15
760380,15
760960,14
761532,14
762112,14
762692,12
763272,11
763852,11
764428,10
765008,9
765528,22
766112,38
766688,42
767264,37
767844,28
768428,15
769000,15
769576,15
770160,14
770732,12
771312,9
771832,11
772408,22
772988,32
773568,24
774140,12
774716,10
775296,10
775868,10
776448,14
777028,14
777608,15
778180,15
778756,16
779336,10
779908,15
780488,23
781060,18
781640,16
782212,18
782792,23
783368,32
783940,40
784520,31
785092,17
785672,16
786244,14
786824,15
787396,11
787972,12
788552,9
789072,16
789656,22
790228,26
790808,19
791388,10
791968,14
792548,29
793124,38
793704,37
794276,23
794856,16
795428,21
796008,23
796588,24
797164,33
797744,31
798320,40
798900,46
799472,48
800048,41
800624,33
801200,28
801772,22
802344,18
802928,20
803500,19
804080,12
804648,12
805232,17
805804,24
806380,29
806960,35
807532,32
808112,22
808684,21
809264,34
809836,42
810416,26
810988,15
811564,14
812144,14
812716,15
813296,15
813876,23
814456,38
815036,40
815612,39
816192,45
816764,47
817344,37
817916,30
818500,32
819076,35
819660,27
820240,19
820808,13
821384,11
821952,18
822536,25
823104,23
823688,24
824256,24
824832,20
825416,18
825988,18
826568,22
827136,21
827720,18
828288,23
828872,21
829448,17
830016,12
830600,11
831172,13
831752,13
832324,21
832904,35
833472,50
834048,52
834632,43
835200,29
835784,26
836356,19
836936,14
837504,10
838088,11
838664,15
839232,24
839816,27
840384,31
840968,23
841536,20
842112,14
842684,11
843256,18
843840,19
844408,15
844992,14
845560,13
846144,10
846712,11
847296,11
847868,14
848444,11
849024,13
849592,22
850176,30
850748,35
851328,48
851896,40
852476,29
853056,20
853628,19
854208,14
854780,13
855360,10
855932,15
856512,24
857096,28
857668,24
858248,22
858816,27
859400,35
859972,28
860552,19
861132,15
861708,21
862288,20
862860,17
863440,13
864012,11
864592,16
865164,24
865744,23
866320,31
866892,40
867472,27
868044,15
868624,25
869196,37
869776,27
870348,14
870924,18
871504,19
872076,11
872656,9
873176,10
873752,13
874324,21
874904,19
875476,10
876052,14
876632,18
877204,15
877784,14
878356,15
878936,13
879516,13
880092,20
880672,29
881240,27
881824,23
882396,27
882976,31
883548,28
884128,31
884700,26
885276,18
885856,16
886428,18
887008,13
887580,15
888160,21
888740,20
889316,19
889896,26
890468,34
891048,41
891620,20
892200,11
892772,13
893352,15
893932,14
894508,15
895088,17
895660,21
896244,23
896816,26
897400,21
897972,19
898548,18
899128,20
899700,28
900280,33
900852,36
901432,30
902012,21
902592,19
903160,16
903740,14
904320,10
904888,14
905472,30
906044,31
906624,19
907196,21
907772,24
908352,27
908924,26
909504,24
910076,28
910656,29
911236,29
911816,17
912400,25
912972,28
913552,38
914124,29
914704,23
915276,27
915856,41
916428,51
917004,52
917584,43
918156,23
918736,17
919316,14
919896,16
920476,21
921052,27
921632,33
922204,31
922784,11
923356,14
923936,23
924508,19
925088,13
925660,10
926236,15
926816,14
927388,17
927968,14
928540,18
929120,13
929692,11
930268,11
930848,10
931420,21
932000,29
932568,37
933152,37
933724,30
934304,38
934884,31
935460,22
936040,22
936612,18
937192,14
937772,10
938352,12
938924,26
939500,36
940084,34
940656,21
941232,14
941808,10
942384,10
942964,15
943544,17
944116,19
944692,14
945272,15
945844,13
946424,19
947004,20
947584,14
948164,11
948740,15
949320,25
949892,40
950472,43
951044,37
951624,30
952204,23
952784,17
953368,15
953940,10
954520,24
955092,34
955672,36
956252,24
956832,11
957412,10
957988,10
958568,16
959144,21
959724,30
960300,34
960880,27
961452,15
962028,19
962608,24
963176,27
963760,34
964332,38
964912,36
965484,22
966064,19
966636,28
967212,32
967792,26
968364,17
968944,16
969516,15
970096,14
970676,12
971252,12
971832,10
972408,10
972984,16
973556,15
974136,15
974716,16
975296,18
975880,18
976452,18
977032,15
977604,15
978184,15
978756,13
979336,11
979916,10
980492,12
981072,14
981644,11
982224,16
982804,33
983384,46
983964,54
984540,46
985120,34
985692,28
986272,23
986844,15
987424,13
987996,11
988576,19
989156,11
989732,18
990312,27
990884,37
991464,33
992036,33
992616,34
993188,30
993764,15
994344,18
994916,18
995496,14
996068,11
996648,10
997220,13
997800,24
998380,26
998956,24
999536,34
1000108,36
1000732,44
1001356,46
1001984,45
1002612,37
1003232,24
1003860,19
1004484,10
1005104,22
1005736,33
1006352,45
1006980,38
1007604,33
1008228,47
1008856,43
1009476,19
1010108,14
1010736,15
1011356,14
1011984,15
1012608,11
1013236,10
1013868,24
1014488,38
1015116,55
1015740,49
1016364,43
1016992,60
1017612,64
1018240,45
1018864,23
1019488,14
1020116,17
1020740,11
1021372,11
1022004,20
1022624,25
1023256,11
1023880,11
1024512,15
1025140,22
1025756,28
1026384,30
1027008,31
1027628,23
1028256,19
1028876,12
1029504,28
1030128,19
1030748,23
1031380,25
1032000,22
1032628,21
1033256,34
1033872,36
1034500,22
1035124,21
1035752,23
1036380,15
1037000,15
1037628,23
1038248,25
1038872,29
1039500,18
1040120,17
1040748,10
1041368,10
1041988,11
1042620,14
1043236,15
1043868,15
1044496,14
1045112,15
1045740,11
1046364,11
1046992,12
1047620,15
1048240,15
1048868,16
1049488,28
1050116,30
1050748,20
1051368,19
1051996,25
1052620,29
1053240,28
1053872,27
1054488,12
1055116,19
1055740,25
1056368,26
1056996,27
1057616,20
1058244,14
1058876,16
1059496,15
1060124,14
1060748,14
1061376,15
1062004,14
1062624,10
1063252,10
1063876,10
1064500,11
1065128,21
1065744,31
1066372,38
1066996,43
1067616,47
1068244,37
1068868,27
1069496,18
1070124,14
1070744,10
1071372,15
1071992,34
1072624,39
1073252,36
1073872,28
1074500,13
1075124,11
1075748,15
1076376,17
1076992,16
1077620,17
1078244,15
1078868,11
1079496,11
1080112,16
1080744,20
1081372,22
1081992,21
1082620,32
1083244,39
1083872,41
1084500,36
1085120,38
1085748,27
1086372,16
1086996,14
1087624,11
1088244,13
1088872,21
1089492,32
1090116,48
1090744,47
1091360,40
1091988,31
1092620,20
1093240,18
1093868,28
1094492,28
1095120,30
1095748,25
1096368,22
1096996,19
1097620,11
1098244,15
1098872,24
1099496,38
1100124,45
1100748,55
1101372,40
1102004,22
1102624,19
1103252,20
1103884,15
1104504,11
1105132,14
1105756,22
1106388,35
1107016,45
1107632,55
1108264,51
1108884,29
1109508,24
1110140,16
1110760,33
1111388,28
1112012,18
1112636,13
1113268,12
1113888,12
1114516,16
1115148,32
1115768,37
1116396,38
1117020,34
1117652,31
1118280,27
1118900,17
1119528,15
1120152,15
1120776,17
1121404,36
1122024,40
1122652,27
1123276,14
1123896,11
1124528,10
1125144,11
1125772,16
1126396,22
1127024,15
1127652,28
1128276,20
1128904,12
1129532,11
1130152,15
1130780,12
1131404,11
1132032,10
1132664,10
1133280,11
1133908,13
1134532,28
1135156,38
1135788,36
1136408,50
1137036,47
1137660,28
1138288,20
1138916,10
1139540,24
1140168,30
1140796,20
1141416,22
1142044,20
1142668,14
1143300,13
1143928,19
1144548,16
1145176,15
1145800,12
1146424,10
1147052,10
1147672,11
1148300,21
1148924,22
1149552,14
1150180,36
1150804,40
1151432,28
1152064,28
1152680,31
1153308,26
1153928,18
1154560,11
1155188,9
1155756,10
1156388,9
1156960,13
1157588,21
1158220,29
1158840,35
1159468,29
1160092,16
1160712,15
1161344,14
1161960,18
1162588,27
1163212,32
1163836,30
1164464,21
1165080,20
1165712,25
1166336,28
1166960,32
1167588,28
1168212,19
1168840,15
1169472,14
1170088,15
1170716,11
1171340,14
1171968,17
1172600,19
1173216,25
1173844,20
1174468,14
1175092,12
1175720,17
1176344,41
1176972,34
1177596,16
1178224,21
1178852,33
1179476,33
1180108,21
1180736,11
1181356,10
1181984,13
1182608,22
1183236,39
1183868,48
1184488,48
1185116,40
1185740,31
1186364,24
1186996,13
1187616,12
1188244,21
1188876,28
1189496,29
1190124,26
1190748,21
1191376,18
1192008,18
1192624,19
1193252,19
1193876,16
1194500,16
1195132,15
1195752,15
1196380,27
1197008,25
1197632,25
1198260,20
1198880,21
1199508,23
1200140,23
1200760,22
1201388,18
1202012,22
1202640,22
1203272,14
1203888,13
1204516,12
1205140,12
1205764,11
1206396,14
1207016,18
1207644,16
1208268,17
1208892,24
1209524,29
1210144,26
1210772,16
1211404,16
1212024,22
1212652,17
1213276,11
1213908,10
1214540,12
1215160,24
1215792,41
1216416,39
1217040,15
1217668,17
1218288,27
1218916,37
1219540,40
1220164,23
1220792,11
1221416,16
1222044,32
1222676,31
1223296,17
1223924,13
1224548,12
1225180,23
1225812,18
1226432,15
1227060,18
1227684,23
1228308,21
1228940,12
1229556,22
1230188,27
1230808,11
1231432,24
1232060,24
1232676,27
1233308,39
1233936,52
1234552,47
1235180,37
1235804,29
1236436,22
1237064,13
1237684,11
1238312,21
1238936,17
1239560,19
1240188,25
1240808,23
1241436,11
1242060,13
1242684,20
1243312,17
1243928,16
1244560,15
1245188,14
1245808,15
1246436,13
1247060,12
1247692,13
1248320,19
1248936,27
1249568,25
1250192,27
1250820,33
1251448,24
1252072,20
1252700,22
1253324,25
1253948,11
1254580,28
1255200,34
1255828,26
1256456,31
1257080,33
1257708,31
1258332,26
1258960,19
1259592,14
1260208,14
1260836,14
1261460,15
1262084,33
1262716,34
1263336,32
1263968,31
1264592,30
1265216,40
1265844,48
1266464,34
1267092,24
1267724,18
1268344,16
1268972,15
1269596,16
1270228,16
1270860,10
1271480,13
1272108,13
1272732,19
1273356,33
1273988,18
1274608,11
1275236,25
1275860,37
1276488,43
1277116,22
1277736,15
1278368,15
1278996,26
1279616,28
1280248,20
1280868,14
1281496,20
1282124,27
1282740,41
1283368,46
1283992,37
1284616,21
1285244,18
1285860,14
1286492,21
1287112,16
1287736,12
1288364,12
1288980,18
1289612,18
1290232,15
1290856,12
1291484,10
1292108,11
1292736,17
1293364,18
1293984,19
1294612,17
1295236,14
1295864,11
1296492,13
1297108,13
1297740,16
1298364,17
1298984,24
1299616,40
1300232,46
1300860,37
1301484,25
1302108,27
1302736,25
1303352,16
1303984,16
1304612,23
1305232,24
1305860,17
1306484,13
1307112,11
1307740,12
1308360,17
1308988,27
1309612,27
1310236,20
1310868,16
1311484,15
1312116,10
1312736,12
1313356,11
1313984,16
1314604,22
1315236,23
1315864,35
1316480,41
1317108,30
1317728,28
1318360,26
1318988,27
1319608,32
1320236,19
1320856,13
1321480,26
1322108,25
1322728,24
1323356,36
1323980,36
1324600,27
1325232,21
1325848,13
1326476,22
1327100,24
1327720,22
1328352,24
1328976,23
1329604,17
1330232,19
1330848,22
1331476,17
1332100,13
1332728,12
1333356,18
1333976,25
1334604,24
1335224,25
1335848,27
1336476,34
1337096,21
1337724,17
1338344,28
1338968,22
1339596,14
1340216,17
1340844,25
1341472,26
1342088,20
1342716,15
1343340,14
1343972,17
1344600,29
1345220,32
1345852,14
1346472,16
1347096,25
1347724,27
1348344,22
1348972,19
1349596,28
1350216,31
1350848,31
1351464,14
1352092,15
1352720,16
1353344,15
1353972,22
1354592,34
1355224,26
1355852,18
1356472,16
1357100,18
1357724,34
1358348,36
1358976,17
1359592,28
1360220,21
1360844,17
1361464,36
1362096,20
1362708,10
1363340,10
1363960,11
1364584,31
1365212,36
1365836,31
1366464,24
1367092,12
1367712,16
1368340,23
1368964,29
1369592,18
1370220,11
1370840,27
1371468,36
1372092,29
1372716,23
1373344,22
1373968,13
1374596,17
1375220,24
1375844,24
1376472,15
1377096,15
1377724,20
1378352,23
1378976,21
1379604,23
1380228,23
1380856,23
1381488,15
1382104,17
1382732,19
1383356,22
1383980,26
1384608,26
1385224,24
1385852,23
1386476,23
1387100,10
1387728,22
1388344,28
1388976,29
1389604,28
1390224,33
1390852,31
1391476,23
1392108,11
1392736,14
1393352,15
1393980,15
1394604,17
1395228,14
1395856,10
1396472,10
1397100,10
1397724,21
1398348,27
1398980,22
1399600,19
1400228,31
1400860,41
1401480,29
1402108,20
1402732,16
1403360,15
1403992,13
1404608,17
1405240,10
1405864,16
1406488,19
1407116,14
1407736,12
1408368,15
1408988,14
1409612,17
1410240,17
1410856,17
1411484,17
1412116,10
1412736,10
1413364,10
1413988,11
1414616,24
1415244,24
1415864,17
1416492,18
1417116,27
1417740,21
1418368,15
1418984,23
1419616,15
1420240,20
1420860,14
1421488,10
1422112,13
1422740,11
1423372,10
1423992,15
1424620,11
1425244,11
1425876,17
1426504,18
1427124,15
1427752,19
1428376,20
1429000,13
1429628,19
1430248,23
1430876,26
1431504,25
1432128,22
1432756,27
1433376,43
1434008,47
1434636,26
1435256,16
1435884,15
1436508,16
1437136,17
1437764,10
1438384,13
1439012,10
1439636,17
1440264,24
1440892,18
1441508,12
1442140,15
1442760,25
1443384,30
1444012,22
1444628,23
1445260,14
1445880,10
1446504,39
1447132,57
1447756,45
1448384,24
1449012,23
1449632,40
1450260,45
1450880,40
1451512,29
1452140,18
1452760,16
1453388,16
1454012,13
1454636,29
1455268,36
1455888,21
1456516,11
1457140,17
1457764,19
1458392,11
1459016,13
1459644,19
1460276,20
1460896,19
1461524,15
1462148,10
1462776,11
1463408,27
1464024,32
1464652,25
1465276,24
1465900,27
1466528,22
1467148,31
1467776,41
1468400,31
1469024,29
1469652,23
1470276,14
1470908,19
1471536,35
1472160,47
1472788,35
1473412,24
1474044,13
1474672,14
1475288,17
1475916,14
1476540,16
1477164,15
1477792,15
1478408,13
1479036,10
1479660,18
1480284,19
1480912,17
1481528,19
1482160,22
1482788,32
1483408,35
1484036,45
1484660,37
1485292,31
1485920,17
1486536,16
1487164,15
1487788,25
1488412,32
1489040,24
1489656,34
1490288,35
1490908,14
1491532,10
1492160,10
1492784,26
1493412,34
1494044,14
1494664,17
1495292,35
1495916,39
1496548,42
1497176,43
1497792,32
1498424,25
1499044,26
1499668,25
1500300,24
1500920,27
1501548,21
1502172,14
1502796,14
1503428,12
1504048,11
1504676,19
1505304,31
1505928,38
1506556,30
1507180,21
1507812,15
1508440,12
1509064,17
1509692,16
1510316,15
1510944,17
1511572,14
1512192,12
1512820,11
1513444,14
1514068,13
1514700,20
1515320,34
1515952,50
1516580,50
1517200,48
1517828,44
1518452,35
1519084,22
1519712,14
1520336,11
1520964,19
1521588,21
1522212,15
1522844,12
1523464,17
1524092,25
1524716,24
1525340,23
1525972,18
1526596,14
1527224,16
1527856,24
1528472,22
1529104,22
1529728,11
1530356,11
1530988,22
1531608,33
1532236,41
1532864,47
1533488,59
1534116,47
1534736,35
1535368,22
1535992,19
1536616,16
1537248,10
1537868,16
1538500,23
1539128,20
1539744,27
1540372,28
1540996,27
1541624,33
1542256,26
1542872,29
1543500,21
1544124,15
1544748,19
1545376,28
1546000,31
1546628,24
1547252,24
1547876,21
1548504,20
1549128,23
1549760,21
1550388,17
1551008,16
1551636,25
1552260,33
1552892,26
1553520,18
1554140,11
1554768,11
1555392,13
1556016,16
1556644,21
1557264,23
1557892,16
1558516,13
1559140,14
1559768,15
1560392,15
1561020,21
1561652,15
1562272,11
1562900,11
1563524,12
1564152,11
1564780,11
1565400,14
1566028,33
1566652,60
1567276,61
1567908,30
1568528,28
1569156,35
1569780,28
1570404,13
1571032,10
1571656,11
1572284,12
1572916,14
1573536,17
1574164,13
1574792,18
1575420,20
1576052,30
1576672,33
1577300,28
1577924,17
1578548,18
1579180,30
1579800,34
1580428,25
1581052,16
1581680,21
1582308,23
1582932,27
1583564,32
1584196,29
1584816,22
1585444,17
1586068,15
1586696,13
1587324,14
1587944,18
1588572,20
1589196,21
1589820,28
1590448,36
1591072,43
1591700,36
1592332,27
1592952,16
1593580,15
1594208,17
1594836,19
1595468,32
1596088,34
1596720,28
1597344,24
1597968,30
1598600,36
1599216,33
1599848,33
1600472,39
1601092,40
1601720,29
1602340,17
1602972,14
1603600,13
1604216,18
1604844,23
1605468,35
1606096,39
1606724,35
1607344,32
1607972,31
1608596,21
1609220,17
1609848,16
1610472,17
1611100,18
1611724,15
1612348,28
1612976,34
1613600,26
1614228,10
1614856,11
1615472,19
1616104,24
1616724,39
1617356,54
1617984,47
1618600,32
1619232,21
1619852,15
1620484,10
1621112,12
1621728,10
1622356,10
1622980,17
1623608,11
1624236,15
1624856,20
1625484,19
1626108,23
1626736,23
1627364,17
1627988,15
1628620,14
1629248,19
1629872,19
1630500,19
1631124,24
1631752,27
1632380,38
1633000,40
1633628,33
1634252,24
1634876,20
1635508,22
1636128,23
1636756,12
1637388,16
1638008,22
1638636,30
1639260,29
1639888,27
1640516,14
1641132,13
1641760,16
1642384,18
1643012,19
1643640,18
1644256,17
1644884,14
1645504,14
1646124,13
1646752,15
1647372,15
1648004,17
1648624,24
1649244,23
1649872,20
1650496,20
1651124,16
1651752,16
1652376,19
1653004,19
1653624,35
1654256,30
1654884,10
1655500,14
1656132,12
1656756,17
1657376,15
1658004,11
1658624,20
1659252,31
1659872,28
1660496,27
1661124,28
1661744,12
1662372,24
1663000,29
1663620,30
1664248,22
1664868,22
1665496,28
1666124,34
1666740,35
1667372,27
1667992,24
1668616,21
1669244,20
1669860,16
1670488,11
1671112,11
1671736,13
1672364,11
1672980,19
1673608,28
1674232,34
1674856,36
1675484,20
1676108,17
1676736,18
1677364,19
1677984,18
1678612,10
1679236,11
1679864,15
1680492,32
1681108,43
1681736,47
1682360,35
1682980,26
1683612,31
1684228,37
1684860,34
1685480,28
1686100,14
1686732,16
1687352,19
1687980,31
1688608,37
1689232,30
1689860,31
1690480,27
1691108,21
1691740,20
1692360,15
1692988,22
1693608,23
1694232,20
1694860,20
1695480,33
1696108,35
1696728,25
1697348,18
1697980,17
1698600,15
1699228,22
1699856,30
1700472,34
1701100,29
1701724,25
1702352,17
1702980,14
1703600,15
1704228,11
1704852,16
1705476,25
1706108,31
1706728,31
1707356,32
1707980,25
1708604,13
1709232,14
1709856,13
1710484,15
1711112,14
1711736,11
1712364,11
1712988,19
1713616,26
1714248,28
1714864,28
1715492,30
1716116,49
1716740,57
1717372,42
1717992,32
1718620,21
1719244,16
1719868,15
1720500,10
1721120,17
1721748,31
1722376,38
1722992,42
1723620,38
1724244,21
1724872,20
1725500,16
1726120,17
1726748,14
1727372,22
1728000,21
1728628,15
1729248,12
1729876,10
1730500,11
1731120,18
1731752,20
1732368,15
1732996,25
1733620,33
1734244,37
1734872,31
1735496,17
1736124,14
1736756,10
1737376,18
1738004,25
1738628,27
1739260,18
1739888,15
1740504,31
1741136,45
1741756,34
1742380,24
1743012,20
1743632,20
1744260,16
1744884,16
1745504,22
1746136,22
1746760,26
1747388,23
1748016,35
1748632,44
1749264,49
1749884,38
1750516,25
1751144,14
1751768,20
1752396,29
1753020,14
1753644,28
1754272,21
1754892,11
1755520,15
1756144,29
1756768,34
1757396,24
1758020,12
1758652,13
1759284,23
1759904,19
1760536,16
1761156,21
1761788,22
1762416,14
1763032,10
1763664,18
1764284,20
1764908,26
1765536,33
1766160,48
1766788,43
1767412,25
1768036,15
1768664,15
1769284,15
1769916,16
1770544,10
1771160,11
1771792,17
1772416,38
1773044,42
1773672,22
1774296,15
1774924,13
1775548,13
1776172,13
1776800,23
1777416,23
1778048,15
1778672,19
1779296,27
1779924,29
1780548,29
1781176,34
1781808,36
1782424,34
1783052,30
1783676,36
1784304,24
1784936,14
1785552,14
1786184,15
1786808,11
1787432,22
1788060,26
1788680,17
1789308,21
1789932,41
1790556,33
1791188,19
1791816,15
1792448,17
1793076,20
1793696,23
1794324,15
1794948,24
1795576,45
1796204,48
1796824,44
1797452,39
1798076,31
1798700,21
1799328,24
1799948,33
1800576,25
1801200,13
1801824,15
1802452,19
1803072,23
1803704,14
1804332,10
1804952,15
1805580,24
1806204,38
1806832,40
1807460,35
1808080,25
1808708,29
1809328,20
1809952,18
1810580,19
1811200,15
1811828,11
1812452,16
1813076,23
1813704,11
1814320,29
1814952,45
1815580,57
1816200,65
1816828,60
1817452,51
1818084,35
1818712,22
1819328,19
1819956,12
1820580,13
1821204,15
1821836,16
1822456,17
1823084,17
1823708,24
1824332,34
1824960,47
1825584,48
1826212,29
1826840,16
1827464,16
1828092,23
1828716,13
1829344,14
1829976,31
1830596,31
1831224,23
1831848,27
1832472,26
1833100,28
1833720,35
1834348,33
1834972,56
1835596,48
1836228,26
1836848,11
1837476,17
1838108,20
1838728,34
1839356,30
1839984,29
1840612,19
1841244,10
1841864,15
1842492,22
1843116,17
1843744,19
1844372,22
1844992,13
1845620,19
1846240,25
1846864,24
1847492,24
1848112,33
1848740,43
1849368,48
1849992,49
1850620,37
1851244,21
1851872,21
1852500,18
1853120,13
1853748,13
1854372,11
1854996,15
1855624,22
1856248,29
1856876,27
1857500,25
1858120,30
1858752,35
1859368,40
1859996,47
1860624,48
1861248,45
1861876,33
1862500,30
1863128,23
1863760,72
1864376,88
1865004,87
1865628,85
1866252,82
1866880,69
1867496,45
1868124,32
1868748,22
1869376,15
1870004,12
1870624,31
1871252,33
1871884,28
1872504,33
1873132,29
1873756,24
1874388,20
1875016,17
1875640,24
1876268,21
1876892,18
1877516,15
1878148,19
1878768,13
1879396,21
1880020,20
1880644,10
1881276,12
1881896,32
1882524,57
1883156,38
1883776,38
1884408,34
1885028,41
1885660,58
1886288,31
1886904,9
1887484,15
1888112,21
1888740,25
1889368,30
1889992,41
1890620,31
1891244,26
1891868,39
1892496,44
1893120,32
1893748,17
1894372,22
1895000,31
1895628,22
1896248,12
1896876,14
1897508,25
1898128,28
1898756,33
1899380,38
1900012,51
1900640,41
1901260,16
1901888,23
1902512,22
1903136,14
1903768,10
1904388,22
1905020,35
1905644,34
1906268,37
1906896,15
1907512,11
1908144,17
1908772,20
1909392,15
1910024,13
1910648,16
1911276,14
1911908,10
1912528,11
1913156,11
1913784,11
1914408,11
1915036,27
1915656,36
1916288,67
1916912,75
1917536,54
1918168,40
1918792,31
1919424,21
1920056,10
1920668,21
1921300,34
1921920,49
1922548,49
1923180,26
1923800,16
1924428,14
1925052,14
1925676,14
1926304,14
1926928,14
1927556,15
1928180,14
1928804,11
1929432,13
1930056,11
1930684,11
1931316,12
1931936,37
1932564,47
1933188,45
1933820,33
1934448,17
1935072,15
1935700,15
1936324,14
1936948,10
1937576,29
1938200,43
1938828,44
1939452,41
1940080,13
1940708,38
1941332,43
1941964,21
1942592,17
1943212,18
1943840,14
1944464,19
1945096,21
1945724,18
1946344,19
1946972,23
1947596,31
1948220,37
1948848,35
1949464,35
1950096,36
1950720,29
1951344,29
1951972,19
1952600,14
1953228,13
1953860,26
1954480,32
1955108,31
1955736,31
1956360,36
1956988,13
1957608,11
1958236,10
1958860,15
1959484,16
1960116,14
1960736,16
1961364,25
1961996,42
1962616,27
1963244,11
1963868,37
1964500,47
1965128,32
1965752,36
1966384,37
1967008,29
1967628,21
1968260,22
1968880,18
1969508,17
1970132,14
1970756,12
1971384,14
1972000,11
1972628,11
1973256,13
1973880,17
1974508,20
1975132,17
1975760,18
1976392,18
1977008,19
1977636,17
1978260,16
1978884,11
1979516,10
1980136,11
1980764,11
1981392,33
1982016,50
1982644,50
1983264,58
1983892,52
1984524,37
1985144,26
1985772,15
1986396,21
1987024,39
1987656,29
1988272,28
1988904,19
1989524,13
1990148,12
1990780,24
1991400,22
1992028,13
1992652,17
1993276,22
1993904,24
1994528,16
1995156,13
1995788,10
1996408,13
1997036,10
1997660,10
1998292,13
1998920,19
1999536,21
2000168,23
2000788,15
2001412,19
2002044,28
2002664,19
2003292,24
2003916,34
2004540,20
2005168,14
2005784,13
2006412,18
2007036,38
2007664,36
2008292,27
2008916,25
2009544,19
2010176,16
2010792,25
2011424,15
2012048,29
2012676,33
2013308,31
2013928,31
2014556,27
2015180,20
2015804,28
2016436,26
2017056,24
2017684,23
2018312,26
2018936,17
2019564,17
2020188,29
2020820,47
2021448,44
2022064,12
2022696,19
2023320,13
2023944,11
2024572,14
2025192,16
2025820,14
2026444,16
2027068,20
2027700,14
2028320,11
2028948,11
2029580,11
2030200,18
2030828,36
2031452,28
2032084,29
2032712,42
2033336,53
2033964,45
2034588,34
2035212,24
2035844,18
2036464,17
2037092,12
2037720,31
2038344,24
2038976,18
2039592,20
2040224,23
2040852,33
2041472,27
2042104,21
2042728,21
2043356,20
2043988,16
2044608,17
2045240,26
2045864,25
2046488,13
2047120,13
2047736,11
2048368,12
2048992,26
2049612,46
2050240,39
2050856,34
2051484,41
2052112,34
2052728,23
2053356,10
2053976,18
2054608,31
2055236,36
2055856,33
2056484,17
2057104,10
2057732,14
2058360,13
2058976,13
2059604,23
2060228,34
2060852,26
2061476,11
2062096,15
2062724,22
2063344,16
2063968,11
2064596,21
2065220,38
2065848,60
2066476,65
2067096,57
2067724,42
2068348,24
2068976,14
2069604,15
2070224,23
2070852,23
2071476,23
2072096,25
2072728,26
2073344,15
2073972,12
2074596,12
2075220,16
2075848,16
2076464,15
2077092,14
2077724,15
2078344,11
2078972,10
2079596,12
2080228,13
2080856,11
2081468,20
2082100,53
2082720,65
2083344,53
2083972,36
2084592,25
2085220,18
2085840,14
2086464,12
2087092,22
2087712,27
2088340,24
2088968,15
2089584,15
2090212,22
2090836,27
2091464,30
2092096,31
2092712,29
2093340,22
2093964,17
2094592,18
2095224,10
2095840,14
2096468,16
2097092,36
2097716,56
2098344,36
2098964,23
2099592,21
2100212,17
2100836,14
2101464,26
2102088,24
2102716,23
2103344,18
2103964,10
2104592,14
2105216,17
2105844,12
2106472,14
2107096,20
2107724,14
2108348,12
2108972,14
2109600,14
2110216,18
2110848,25
2111472,15
2112096,12
2112724,20
2113344,31
2113976,37
2114604,27
2115224,34
2115852,50
2116476,53
2117104,35
2117732,23
2118352,24
2118980,15
2119604,15
2120228,21
2120860,38
2121480,49
2122108,38
2122732,28
2123356,19
2123984,11
2124608,12
2125236,26
2125868,28
2126488,15
2127116,24
2127740,17
2128372,11
2129000,11
2129616,11
2130244,15
2130868,35
2131492,42
2132120,46
2132736,46
2133364,64
2133988,54
2134612,41
2135240,29
2135856,16
2136488,12
2137116,30
2137736,34
2138364,31
2138988,29
2139616,31
2140248,25
2140864,27
2141492,30
2142116,16
2142740,14
2143368,14
2143988,16
2144616,14
2145240,10
2145864,11
2146492,12
2147112,13
2147740,17
2148372,46
2148992,60
2149620,53
2150244,39
2150876,17
2151504,15
2152128,23
2152756,21
2153380,12
2154004,19
2154632,30
2155248,25
2155880,16
2156504,15
2157124,17
2157756,22
2158376,31
2159004,24
2159636,17
2160256,20
2160884,16
2161508,13
2162136,21
2162764,28
2163384,42
2164012,42
2164636,33
2165260,38
2165888,40
2166504,37
2167132,30
2167756,20
2168380,16
2169012,16
2169632,16
2170260,10
2170892,10
2171512,12
2172140,16
2172764,27
2173396,30
2174024,24
2174648,32
2175276,45
2175900,42
2176528,20
2177156,16
2177776,14
2178404,20
2179028,30
2179648,38
2180280,31
2180896,25
2181524,19
2182156,24
2182776,26
2183404,21
2184028,14
2184656,19
2185284,18
2185904,15
2186532,11
2187156,19
2187784,20
2188412,13
2189032,29
2189660,13
2190284,31
2190908,19
2191540,10
2192160,15
2192788,13
2193420,17
2194040,16
2194668,12
2195292,18
2195920,10
2196552,15
2197168,10
2197800,31
2198424,43
2199048,48
2199676,45
2200296,45
2200924,42
2201552,40
2202176,25
2202804,16
2203424,14
2204052,32
2204684,48
2205304,42
2205932,19
2206556,11
2207188,16
2207820,10
2208440,16
2209068,18
2209692,16
2210316,16
2210948,19
2211568,13
2212196,17
2212820,29
2213444,26
2214072,18
2214696,21
2215324,33
2215956,38
2216576,29
2217204,19
2217828,22
2218460,22
2219088,27
2219708,19
2220336,11
2220960,18
2221584,32
2222212,36
2222832,44
2223460,41
2224084,31
2224708,28
2225340,15
2225960,16
2226588,22
2227220,20
2227840,17
2228468,11
2229092,10
2229724,12
2230352,19
2230976,23
2231608,29
2232232,39
2232856,44
2233484,38
2234104,22
2234732,14
2235356,15
2235984,16
2236612,12
2237232,11
2237864,13
2238492,25
2239112,20
2239744,22
2240368,19
2240996,14
2241624,12
2242248,17
2242876,14
2243500,16
2244124,20
2244752,11
2245376,22
2246004,25
2246628,20
2247252,16
2247884,16
2248504,27
2249132,32
2249764,32
2250384,29
2251012,27
2251640,21
2252268,17
2252900,18
2253516,12
2254148,15
2254772,27
2255392,24
2256024,18
2256640,15
2257268,19
2257892,35
2258516,36
2259144,27
2259760,17
2260392,14
2261020,14
2261640,11
2262268,10
2262892,11
2263524,15
2264152,20
2264772,30
2265400,35
2266024,25
2266648,21
2267276,24
2267896,47
2268524,40
2269148,37
2269772,40
2270404,22
2271024,10
2271656,18
2272284,26
2272904,29
2273532,23
2274156,21
2274788,18
2275416,18
2276036,18
2276664,22
2277288,19
2277912,14
2278544,10
2279160,11
2279788,14
2280412,19
2281036,22
2281668,26
2282288,34
2282916,41
2283548,32
2284168,20
2284796,15
2285420,15
2286052,17
2286684,14
2287304,13
2287936,12
2288560,17
2289184,19
2289812,18
2290432,21
2291060,24
2291688,32
2292312,29
2292940,29
2293560,21
2294192,17
2294820,11
2295440,11
2296068,10
2296692,10
2297320,13
2297952,38
2298568,64
2299200,76
2299824,73
2300448,59
2301076,42
2301696,19
2302324,14
2302952,13
2303576,13
2304208,31
2304824,55
2305452,58
2306080,46
2306696,37
2307324,34
2307948,46
2308576,24
2309204,18
2309824,32
2310452,49
2311076,57
2311700,39
2312328,14
2312952,11
2313580,19
2314208,26
2314832,37
2315460,44
2316080,44
2316708,37
2317340,29
2317960,29
2318588,14
2319212,15
2319844,14
2320472,23
2321096,25
2321724,14
2322348,12
2322972,25
2323604,28
2324224,24
2324852,19
2325476,20
2326100,21
2326728,22
2327352,18
2327980,12
2328612,22
2329232,21
2329860,20
2330484,23
2331116,29
2331744,34
2332364,43
2332992,47
2333616,45
2334240,33
2334872,25
2335488,15
2336116,19
2336740,24
2337364,26
2337992,27
2338616,23
2339244,14
2339876,10
2340496,12
2341124,15
2341748,23
2342380,22
2343012,22
2343632,21
2344260,18
2344884,11
2345508,11
2346140,14
2346760,21
2347388,20
2348016,20
2348640,32
2349268,39
2349892,39
2350524,39
2351156,37
2351776,27
2352408,21
2353032,19
2353660,12
2354292,18
2354912,25
2355544,25
2356164,29
2356788,23
2357420,18
2358040,17
2358668,17
2359292,16
2359920,17
2360552,14
2361176,17
2361804,20
2362436,15
2363056,13
2363684,11
2364308,10
2364936,26
2365564,34
2366184,26
2366812,20
2367440,20
2368064,21
2368692,20
2369312,17
2369940,10
2370572,11
2371192,17
2371824,21
2372448,18
2373076,14
2373708,16
2374328,23
2374960,19
2375584,19
2376208,27
2376836,26
2377456,28
2378084,14
2378708,16
2379332,25
2379964,21
2380584,34
2381216,50
2381844,54
2382464,58
2383092,54
2383716,43
2384348,29
2384980,16
2385600,15
2386228,11
2386852,20
2387476,26
2388108,28
2388728,25
2389356,21
2389984,19
2390608,14
2391236,20
2391856,35
2392488,31
2393116,14
2393736,30
2394364,31
2394992,21
2395620,16
2396252,16
2396872,18
2397500,17
2398128,19
2398752,23
2399384,34
2400000,33
2400628,27
2401252,26
2401876,17
2402508,14
2403128,13
2403756,13
2404388,20
2405008,26
2405636,24
2406264,18
2406892,10
2407520,12
2408144,18
2408772,17
2409396,14
2410020,15
2410648,14
2411272,12
2411900,16
2412528,14
2413152,11
2413780,12
2414404,11
2415036,14
2415664,23
2416288,32
2416916,33
2417540,33
2418172,30
2418800,31
2419420,38
2420048,33
2420672,23
2421296,9
2421872,18
2422496,25
2423124,28
2423748,33
2424372,27
2425004,26
2425624,27
2426252,22
2426876,18
2427504,23
2428136,15
2428760,11
2429392,11
2430020,11
2430640,15
2431272,29
2431896,54
2432520,61
2433152,46
2433768,33
2434396,22
2435024,16
2435648,15
2436276,12
2436896,24
2437524,17
2438156,14
2438776,11
2439404,11
2440028,12
2440660,10
2441288,11
2441908,22
2442536,30
2443160,22
2443784,14
2444416,16
2445036,16
2445664,12
2446288,12
2446912,10
2447544,10
2448164,15
2448792,33
2449420,43
2450040,47
2450668,41
2451292,34
2451924,21
2452556,16
2453176,11
2453808,15
2454432,27
2455056,27
2455684,27
2456304,35
2456936,35
2457560,34
2458184,16
2458816,16
2459432,15
2460060,15
2460688,22
2461312,20
2461940,17
2462564,24
2463192,19
2463824,27
2464440,36
2465068,38
2465692,38
2466316,37
2466944,39
2467568,49
2468196,38
2468820,20
2469444,15
2470072,21
2470688,23
2471320,29
2471948,30
2472568,23
2473196,18
2473820,12
2474452,11
2475080,15
2475700,14
2476328,14
2476952,15
2477576,15
2478204,10
2478824,13
2479452,17
2480076,19
2480700,19
2481328,27
2481952,35
2482580,31
2483212,28
2483828,20
2484460,15
2485084,14
2485712,16
2486340,11
2486960,12
2487588,11
2488212,23
2488836,23
2489468,20
2490088,15
2490716,15
2491340,16
2491964,21
2492596,25
2493216,27
2493844,26
2494476,14
2495096,11
2495728,10
2496352,27
2496980,46
2497608,48
2498232,46
2498860,56
2499484,62
2500108,44
2500736,30
2501360,21
2501988,14
2502612,15
2503236,21
2503868,26
2504488,27
2505116,27
2505748,24
2506368,18
2506996,15
2507620,13
2508252,17
2508884,17
2509504,18
2510132,17
2510756,16
2511380,11
2512012,11
2512632,13
2513260,19
2513888,30
2514512,24
2515140,18
2515760,21
2516388,22
2517020,22
2517640,42
2518272,48
2518896,39
2519524,24
2520156,13
2520776,11
2521404,17
2522032,30
2522656,29
2523284,22
2523904,19
2524536,22
2525160,28
2525784,23
2526412,23
2527032,27
2527664,18
2528292,14
2528912,19
2529544,17
2530168,13
2530796,20
2531428,26
2532048,38
2532676,55
2533304,53
2533928,43
2534560,30
2535176,23
2535808,17
2536432,15
2537056,26
2537684,32
2538312,43
2538940,31
2539572,12
2540192,21
2540820,23
2541444,23
2542076,19
2542708,16
2543328,16
2543960,16
2544584,37
2545208,41
2545836,36
2546456,36
2547088,28
2547720,17
2548336,19
2548968,29
2549592,29
2550224,28
2550856,24
2551472,16
2552104,17
2552728,20
2553352,20
2553984,12
2554600,13
2555232,12
2555856,11
2556480,17
2557112,15
2557732,21
2558364,31
2558996,28
2559616,19
2560252,15
2560872,15
2561500,27
2562128,29
2562744,21
2563372,16
2563996,19
2564616,28
2565244,40
2565860,48
2566492,43
2567112,25
2567736,17
2568364,24
2568984,28
2569612,16
2570232,14
2570856,27
2571488,24
2572108,27
2572740,24
2573368,22
2573992,25
2574620,24
2575244,22
2575872,17
2576504,15
2577120,14
2577748,12
2578372,11
2578996,11
2579624,10
2580248,14
2580876,20
2581500,22
2582128,35
2582756,45
2583380,43
2584008,33
2584636,29
2585256,20
2585884,15
2586508,11
2587136,14
2587768,27
2588384,30
2589012,36
2589636,36
2590260,25
2590888,20
2591512,19
2592140,15
2592764,14
2593392,14
2594020,15
2594644,10
2595272,11
2595900,11
2596520,11
2597148,23
2597772,25
2598400,26
2599032,36
2599648,40
2600280,47
2600904,51
2601528,54
2602156,40
2602776,27
2603404,11
2604028,17
2604656,28
2605284,29
2605908,38
2606540,37
2607168,22
2607788,25
2608416,29
2609040,27
2609668,29
2610300,26
2610920,18
2611548,10
2612172,12
2612796,21
2613428,42
2614048,45
2614676,51
2615308,61
2615928,65
2616560,50
2617180,40
2617812,40
2618440,20
2619064,14
2619692,12
2620316,17
2620944,25
2621572,25
2622192,26
2622820,22
2623444,28
2624064,26
2624692,24
2625308,22
2625936,29
2626568,39
2627184,30
2627812,14
2628436,49
2629064,61
2629692,53
2630312,45
2630940,32
2631564,29
2632192,31
2632824,45
2633440,40
2634068,24
2634692,15
2635312,14
2635944,17
2636560,15
2637188,16
2637812,27
2638436,31
2639064,27
2639688,18
2640316,17
2640944,15
2641560,14
2642192,13
2642812,16
2643444,16
2644072,14
2644688,11
2645316,10
2645940,12
2646560,10
2647192,13
2647808,16
2648436,32
2649060,41
2649684,37
2650312,23
2650928,18
2651556,14
2652188,15
2652808,25
2653436,11
2654060,12
2654688,21
2655316,24
2655936,27
2656568,23
2657188,19
2657812,26
2658444,25
2659064,21
2659692,16
2660316,15
2660940,16
2661568,16
2662192,14
2662820,15
2663448,10
2664068,10
2664696,11
2665320,16
2665948,33
2666576,45
2667192,36
2667820,21
2668444,17
2669068,20
2669696,10
2670312,11
2670940,16
2671564,14
2672188,11
2672816,15
2673432,19
2674060,20
2674684,16
2675312,22
2675940,23
2676564,22
2677192,21
2677820,12
2678440,11
2679068,10
2679692,23
2680320,29
2680948,27
2681568,39
2682196,48
2682820,49
2683444,41
2684072,30
2684696,24
2685324,20
2685948,14
2686576,11
2687204,16
2687828,20
2688460,16
2689088,24
2689704,31
2690332,29
2690956,22
2691584,22
2692212,20
2692832,17
2693460,14
2694084,16
2694704,15
2695332,16
2695952,25
2696580,26
2697204,28
2697828,35
2698456,37
2699080,39
2699708,41
2700340,38
2700960,29
2701588,22
2702212,15
2702840,11
2703472,19
2704088,29
2704716,31
2705340,26
2705960,22
2706592,19
2707208,20
2707836,20
2708460,16
2709084,14
2709712,16
2710332,13
2710960,15
2711588,12
2712208,15
2712836,19
2713460,18
2714092,27
2714720,11
2715336,46
2715968,58
2716592,46
2717216,43
2717844,45
2718464,23
2719092,14
2719716,10
2720340,10
2720968,13
2721592,15
2722220,28
2722848,30
2723472,19
2724100,11
2724724,17
2725352,19
2725980,13
2726600,20
2727228,23
2727852,23
2728472,22
2729104,21
2729720,22
2730348,19
2730972,16
2731596,29
2732224,36
2732844,46
2733472,51
2734100,35
2734720,22
2735348,15
2735972,13
2736604,18
2737232,15
2737856,16
2738484,26
2739108,33
2739736,28
2740364,20
2740984,24
2741612,23
2742236,18
2742860,20
2743492,20
2744112,24
2744740,13
2745372,10
2745992,20
2746620,24
2747244,19
2747872,18
2748504,23
2749120,38
2749752,45
2750376,35
2751000,28
2751632,29
2752248,28
2752876,27
2753500,23
2754124,10
2754756,22
2755376,27
2756004,26
2756632,28
2757256,39
2757884,35
2758508,25
2759140,15
2759768,13
2760392,15
2761020,13
2761644,12
2762268,10
2762896,11
2763520,11
2764148,12
2764776,23
2765400,35
2766028,38
2766648,35
2767276,44
2767908,45
2768528,40
2769156,30
2769780,16
2770412,11
2771040,19
2771656,20
2772288,15
2772912,16
2773536,13
2774164,12
2774784,21
2775412,19
2776036,16
2776660,15
2777292,14
2777912,10
2778540,14
2779172,12
2779792,11
2780424,24
2781048,33
2781676,39
2782308,39
2782928,40
2783556,31
2784184,25
2784808,21
2785436,16
2786056,12
2786684,13
2787308,21
2787932,28
2788560,22
2789180,18
2789808,16
2790436,13
2791056,17
2791684,26
2792308,19
2792936,14
2793568,14
2794184,14
2794816,13
2795440,16
2796064,17
2796692,17
2797312,16
2797940,23
2798564,40
2799188,51
2799820,44
2800440,22
2801068,14
2801700,14
2802320,17
2802948,10
2803572,14
2804204,15
2804832,12
2805448,13
2806080,16
2806704,22
2807328,33
2807956,28
2808576,21
2809204,17
2809828,24
2810452,24
2811084,14
2811704,22
2812332,18
2812964,13
2813584,16
2814212,20
2814840,33
2815468,33
2816100,46
2816716,63
2817348,57
2817968,31
2818592,17
2819220,11
2819840,11
2820468,12
2821092,22
2821716,19
2822344,18
2822964,23
2823592,23
2824220,23
2824840,19
2825468,16
2826092,14
2826724,16
2827352,18
2827968,19
2828596,12
2829220,16
2829844,21
2830472,31
2831096,33
2831724,37
2832348,38
2832972,37
2833604,30
2834224,17
2834852,14
2835484,14
2836104,11
2836732,24
2837356,41
2837988,55
2838616,39
2839240,24
2839868,13
2840492,10
2841116,10
2841748,12
2842368,16
2842996,16
2843620,15
2844244,13
2844872,15
2845496,17
2846124,15
2846756,14
2847376,17
2848004,25
2848628,32
2849256,36
2849888,30
2850504,20
2851136,16
2851760,15
2852384,15
2853012,15
2853632,16
2854260,13
2854888,13
2855508,15
2856140,12
2856760,11
2857392,11
2858020,14
2858640,24
2859268,22
2859896,19
2860524,14
2861156,12
2861776,16
2862408,12
2863032,14
2863656,19
2864288,22
2864904,34
2865536,51
2866160,56
2866784,45
2867416,31
2868036,17
2868668,15
2869296,10
2869912,14
2870540,20
2871164,24
2871796,21
2872424,24
2873040,31
2873672,29
2874296,24
2874916,21
2875548,18
2876168,18
2876796,15
2877420,14
2878048,11
2878676,14
2879300,11
2879932,10
2880564,12
2881180,26
2881812,51
2882436,60
2883064,55
2883692,40
2884312,24
2884940,15
2885564,14
2886188,10
2886816,13
2887432,21
2888060,17
2888684,16
2889308,14
2889936,11
2890552,12
2891180,11
2891812,16
2892432,17
2893060,17
2893684,15
2894312,12
2894944,11
2895560,11
2896188,18
2896812,18
2897436,14
2898064,21
2898680,32
2899312,38
2899936,29
2900556,13
2901188,14
2901808,15
2902436,17
2903068,10
2903688,10
2904316,13
2904940,10
2905572,17
2906204,18
2906824,13
2907452,12
2908076,18
2908704,21
2909332,18
2909952,19
2910580,16
2911204,9
2911780,11
2912416,12
2913032,13
2913660,26
2914284,29
2914908,41
2915540,55
2916164,53
2916792,42
2917424,27
2918040,16
2918672,13
2919292,18
2919924,28
2920552,17
2921176,30
2921804,31
2922428,25
2923052,19
2923680,16
2924304,24
2924932,24
2925556,17
2926180,14
2926812,14
2927436,14
2928064,19
2928696,27
2929312,30
2929940,23
2930564,15
2931196,19
2931828,30
2932448,40
2933076,43
2933704,35
2934328,25
2934956,21
2935576,15
2936208,11
2936832,18
2937456,31
2938088,37
2938712,33
2939340,37
2939972,32
2940592,27
2941224,20
2941848,14
2942472,17
2943104,14
2943720,15
2944352,14
2944976,12
2945600,12
2946228,38
2946848,54
2947476,42
2948108,38
2948728,46
2949360,60
2949980,63
2950612,48
2951240,29
2951856,14
2952488,16
2953112,17
2953736,25
2954364,31
2954984,30
2955612,22
2956236,21
2956860,26
2957488,30
2958112,28
2958740,17
2959372,14
2959992,15
2960620,14
2961244,14
2961876,15
2962504,13
2963128,14
2963756,24
2964380,33
2965004,38
2965636,34
2966256,29
2966884,25
2967508,29
2968136,30
2968764,18
2969384,11
2970016,12
2970644,16
2971264,21
2971892,20
2972516,17
2973144,15
2973776,18
2974392,27
2975024,29
2975648,28
2976272,23
2976900,14
2977520,17
2978148,15
2978772,11
2979396,11
2980028,14
2980648,17
2981276,31
2981908,44
2982528,53
2983156,40
2983780,29
2984412,23
2985040,21
2985656,16
2986288,12
2986912,14
2987536,23
2988164,22
2988784,21
2989416,18
2990040,18
2990664,24
2991292,28
2991912,27
2992544,23
2993172,16
2993792,15
2994420,18
2995044,14
2995676,11
2996308,16
2996928,26
2997556,33
2998180,41
2998804,41
2999436,36
3000056,32
3000684,25
3001308,22
3001932,15
3002564,16
3003184,29
3003816,26
3004444,30
3005064,22
3005696,15
3006320,12
3006948,10
3007580,11
3008200,17
3008828,17
3009452,16
3010076,16
3010708,16
3011328,13
3011956,11
3012580,17
3013204,15
3013836,14
3014456,23
3015084,32
3015716,40
3016336,52
3016964,42
3017588,26
3018220,15
3018852,16
3019472,15
3020104,17
3020728,24
3021352,24
3021984,19
3022604,14
3023232,11
3023856,11
3024480,12
3025108,15
3025736,15
3026364,17
3026996,15
3027616,22
3028244,25
3028872,16
3029500,13
3030132,14
3030752,15
3031384,24
3032008,38
3032632,38
3033264,26
3033880,16
3034512,14
3035140,17
3035760,13
3036392,11
3037016,11
3037648,12
3038276,18
3038896,15
3039528,14
3040152,15
3040776,19
3041404,22
3042024,22
3042652,18
3043276,17
3043900,15
3044532,13
3045152,23
3045784,22
3046412,16
3047032,13
3047660,28
3048288,45
3048916,42
3049548,46
3050168,40
3050800,28
3051424,18
3052048,15
3052676,11
3053296,13
3053924,20
3054552,27
3055176,25
3055808,24
3056424,19
3057056,15
3057688,11
3058304,13
3058936,15
3059560,15
3060188,15
3060820,10
3061440,11
3062072,10
3062696,12
3063320,12
3063952,15
3064572,26
3065200,43
3065828,55
3066452,48
3067084,50
3067704,51
3068336,38
3068968,19
3069584,13
3070216,24
3070840,27
3071472,30
3072104,21
3072724,20
3073356,21
3073976,23
3074600,25
3075228,28
3075848,23
3076476,17
3077100,14
3077724,16
3078352,16
3078976,27
3079604,44
3080236,49
3080856,52
3081484,52
3082108,50
3082740,47
3083368,31
3083984,16
3084616,14
3085240,15
3085864,20
3086492,38
3087112,43
3087740,39
3088364,29
3088988,18
3089620,10
3090244,10
3090872,14
3091504,17
3092120,14
3092748,14
3093372,18
3094004,28
3094632,26
3095256,12
3095884,11
3096508,12
3097136,11
3097764,18
3098384,34
3099012,42
3099636,40
3100260,25
3100892,14
3101516,14
3102148,14
3102776,10
3103400,11
3104032,11
3104652,19
3105284,32
3105912,42
3106536,44
3107168,44
3107792,37
3108416,24
3109044,18
3109664,16
3110296,16
3110928,11
3111544,16
3112176,23
3112800,24
3113432,25
3114060,23
3114680,32
3115308,47
3115936,62
3116560,55
3117188,44
3117808,32
3118440,27
3119064,13
3119688,12
3120316,22
3120936,22
3121564,16
3122196,22
3122816,35
3123448,32
3124068,25
3124700,23
3125328,18
3125948,19
3126576,18
3127200,15
3127824,15
3128452,14
3129072,13
3129700,14
3130324,13
3130948,10
3131580,12
3132200,33
3132832,42
3133460,35
3134080,38
3134708,17
3135336,15
3135964,13
3136596,10
3137216,10
3137844,11
3138468,10
3139092,11
3139724,20
3140344,22
3140972,16
3141600,19
3142224,16
3142852,14
3143472,15
3144104,16
3144732,20
3145352,20
3145984,20
3146608,24
3147236,21
3147868,30
3148488,36
3149120,45
3149744,47
3150368,40
3151000,30
3151616,22
3152248,15
3152872,13
3153496,19
3154128,24
3154744,25
3155372,26
3156004,25
3156624,23
3157252,24
3157880,27
3158508,24
3159140,14
3159760,16
3160392,14
3161016,12
3161640,13
3162268,16
3162888,21
3163516,24
3164144,32
3164768,41
3165400,46
3166024,58
3166656,48
3167284,34
3167904,22
3168536,14
3169160,19
3169792,23
3170420,15
3171040,14
3171672,24
3172296,33
3172920,43
3173552,47
3174172,39
3174804,35
3175432,25
3176056,15
3176684,15
3177308,13
3177940,13
3178572,16
3179192,18
3179824,21
3180448,31
3181072,45
3181704,54
3182320,62
3182952,55
3183576,37
3184204,33
3184832,28
3185456,28
3186088,16
3186716,10
3187336,12
3187968,13
3188592,32
3189224,42
3189852,26
3190472,14
3191104,11
3191728,16
3192352,28
3192984,31
3193604,24
3194236,11
3194860,11
3195488,12
3196116,11
3196744,15
3197376,17
3198008,12
3198624,30
3199256,38
3199884,38
3200516,31
3201144,18
3201760,15
3202388,18
3203012,14
3203636,10
3204264,11
3204880,13
3205508,16
3206132,11
3206756,25
3207384,38
3208008,47
3208636,53
3209264,44
3209888,22
3210516,17
3211140,32
3211772,18
3212400,11
3213020,10
3213648,35
3214272,51
3214896,57
3215524,58
3216144,50
3216772,39
3217396,37
3218020,28
3218648,20
3219272,13
3219900,11
3220528,14
3221152,26
3221780,32
3222404,40
3223032,31
3223664,29
3224284,26
3224912,22
3225536,14
3226160,19
3226788,22
3227408,32
3228036,45
3228660,49
3229284,45
3229916,50
3230540,43
3231168,30
3231800,27
3232416,19
3233044,13
3233668,33
3234300,40
3234928,29
3235548,19
3236176,19
3236800,26
3237420,27
3238052,20
3238672,28
3239300,31
3239924,32
3240548,29
3241180,21
3241804,16
3242432,15
3243060,13
3243680,17
3244308,21
3244932,26
3245564,30
3246192,30
3246816,34
3247444,37
3248068,46
3248692,57
3249320,57
3249944,44
3250572,37
3251200,29
3251824,16
3252452,12
3253076,27
3253708,33
3254340,38
3254960,48
3255592,48
3256216,32
3256840,19
3257468,13
3258088,15
3258716,21
3259344,21
3259968,21
3260596,22
3261216,35
3261848,36
3262476,35
3263096,35
3263728,23
3264352,22
3264980,24
3265612,22
3266232,21
3266864,12
3267488,16
3268112,20
3268740,19
3269360,17
3269988,13
3270616,18
3271240,19
3271868,27
3272488,34
3273116,35
3273748,31
3274368,27
3275000,23
3275624,20
3276256,15
3276884,13
3277500,11
3278128,18
3278752,18
3279372,33
3280004,41
3280620,47
3281248,54
3281868,59
3282492,55
3283120,47
3283736,38
3284368,27
3284988,16
3285612,11
3286244,22
3286864,28
3287492,27
3288120,30
3288736,31
3289364,23
3289988,10
3290616,11
3291244,16
3291864,26
3292492,46
3293112,43
3293736,20
3294368,14
3294984,25
3295612,27
3296236,27
3296860,28
3297488,30
3298104,32
3298732,33
3299360,40
3299976,31
3300608,20
3301228,18
3301860,16
3302488,11
3303104,15
3303732,15
3304356,20
3304980,25
3305608,26
3306224,14
3306852,18
3307476,42
3308100,52
3308728,30
3309352,18
3309980,23
3310612,13
3311232,12
3311860,13
3312484,28
3313116,57
3313744,40
3314364,13
3314992,25
3315616,34
3316240,34
3316868,34
3317488,31
3318116,30
3318740,29
3319364,19
3319992,12
3320612,11
3321240,13
3321868,11
3322488,10
3323116,18
3323740,40
3324368,42
3325000,28
3325616,21
3326244,17
3326868,15
3327496,12
3328124,18
3328740,17
3329368,14
3329992,15
3330616,23
3331244,40
3331860,49
3332492,51
3333112,49
3333736,39
3334364,31
3334988,23
3335616,13
3336248,17
3336864,29
3337492,41
3338116,44
3338748,47
3339376,39
3339992,19
3340620,10
3341244,13
3341868,16
3342496,19
3343116,15
3343744,18
3344368,23
3344988,17
3345620,10
3346240,10
3346872,10
3347500,18
3348120,21
3348748,32
3349372,47
3350000,35
3350632,22
3351248,17
3351880,23
3352504,19
3353128,11
3353756,18
3354376,25
3355004,22
3355628,16
3356252,11
3356884,18
3357504,18
3358136,14
3358764,14
3359384,17
3360012,23
3360632,22
3361264,18
3361892,10
3362512,12
3363140,10
3363764,18
3364388,28
3365016,42
3365632,58
3366260,68
3366884,57
3367508,33
3368136,19
3368752,17
3369384,10
3370012,11
3370632,25
3371260,29
3371884,23
3372512,19
3373144,16
3373760,16
3374388,16
3375012,17
3375636,14
3376268,14
3376888,19
3377516,27
3378140,15
3378764,13
3379396,26
3380016,28
3380644,28
3381272,21
3381888,30
3382516,34
3383140,37
3383768,35
3384400,29
3385016,21
3385644,10
3386268,25
3386888,27
3387520,37
3388136,28
3388764,11
3389388,10
3390012,14
3390644,20
3391264,21
3391892,14
3392524,15
3393144,19
3393772,26
3394396,37
3395024,32
3395656,22
3396272,12
3396900,10
3397524,12
3398152,14
3398780,41
3399400,61
3400028,54
3400652,39
3401276,17
3401904,14
3402520,21
3403152,31
3403780,21
3404400,13
3405028,18
3405652,19
3406280,15
3406908,12
3407528,21
3408156,24
3408780,19
3409408,27
3410036,39
3410656,38
3411284,29
3411908,14
3412532,17
3413160,27
3413776,23
3414408,44
3415032,56
3415656,57
3416284,46
3416908,48
3417540,38
3418172,37
3418792,33
3419424,23
3420048,11
3420676,29
3421308,56
3421928,55
3422556,54
3423184,37
3423808,17
3424436,22
3425056,29
3425684,21
3426316,14
3426936,20
3427564,28
3428188,35
3428820,27
3429448,23
3430072,24
3430704,30
3431328,38
3431952,42
3432580,51
3433200,51
3433828,37
3434452,39
3435076,35
3435708,35
3436328,21
3436956,28
3437588,76
3438208,97
3438840,64
3439464,35
3440092,29
3440724,22
3441344,22
3441972,14
3442596,13
3443216,14
3443848,12
3444464,17
3445092,34
3445716,41
3446340,34
3446972,38
3447592,53
3448224,66
3448852,68
3449472,65
3450100,33
3450724,14
3451356,28
3451988,34
3452608,29
3453236,24
3453864,24
3454488,13
3455116,13
3455736,13
3456368,13
3456988,15
3457612,11
3458240,14
3458864,17
3459492,26
3460124,34
3460744,35
3461372,12
3461996,25
3462628,27
3463256,20
3463872,12
3464504,31
3465128,48
3465752,63
3466380,70
3467000,42
3467628,54
3468252,59
3468876,31
3469508,14
3470128,17
3470756,11
3471388,14
3472008,42
3472636,48
3473260,29
3473892,11
3474520,13
3475144,13
3475776,14
3476400,21
3477024,21
3477652,17
3478272,44
3478904,55
3479528,47
3480152,19
3480784,15
3481400,30
3482032,49
3482660,48
3483280,35
3483908,23
3484532,14
3485160,15
3485788,11
3486408,19
3487036,22
3487660,12
3488284,13
3488912,18
3489536,15
3490164,18
3490788,30
3491412,21
3492040,76
3492664,106
3493344,94
3493968,72
3494584,45
3495216,14
3495840,92
3496460,93
3497092,94
3497712,85
3498340,30
3498964,16
3499588,19
3500220,16
3500840,17
3501468,16
3502100,12
3502720,11
3503348,10
3503976,10
3504604,13
3505236,12
3505856,10
3506484,12
3507112,16
3507736,17
3508364,13
3508984,19
3509612,24
3510236,27
3510864,33
3511492,26
3512112,17
3512744,10
3513372,18
3513992,42
3514624,41
3515248,39
3515876,43
3516508,26
3517128,14
3517760,13
3518384,13
3519008,15
3519640,35
3520260,37
3520888,26
3521512,18
3522136,13
3522764,18
3523384,32
3524012,26
3524640,15
3525256,31
3525888,37
3526512,36
3527140,27
3527768,19
3528392,12
3529020,16
3529644,24
3530268,41
3530896,65
3531520,105
3532200,94
3532828,66
3533448,53
3534076,38
3534700,15
3535328,49
3535956,65
3536576,104
3537256,92
3537880,84
3538504,71
3539132,36
3539752,17
3540380,10
3541012,11
3541632,17
3542264,29
3542888,27
3543516,56
3544148,56
3544768,52
3545396,64
3546024,57
3546644,37
3547276,23
3547896,39
3548528,37
3549148,31
3549772,21
3550404,19
3551024,16
3551656,18
3552284,27
3552904,32
3553532,11
3554160,19
3554788,11
3555420,10
3556040,58
3556668,119
3557344,72
3557968,38
3558600,14
3559216,18
3559844,15
3560476,13
3561096,23
3561724,18
3562352,14
3562980,15
3563612,16
3564232,43
3564860,53
3565484,61
3566108,46
3566740,45
3567360,49
3567988,28
3568616,20
3569240,12
3569868,21
3570488,27
3571116,19
3571748,28
3572368,27
3573000,15
3573624,13
3574252,17
3574884,23
3575504,34
3576136,29
3576760,32
3577384,21
3578016,79
3578632,95
3579264,66
3579892,24
3580516,14
3581148,46
3581772,69
3582404,74
3583036,66
3583660,64
3584292,38
3584912,22
3585540,23
3586172,12
3586792,45
3587420,56
3588044,44
3588668,36
3589300,24
3589920,21
3590548,25
3591180,24
3591800,22
3592428,15
3593052,17
3593684,15
3594312,18
3594936,35
3595564,32
3596188,26
3596812,30
3597444,62
3598064,71
3598696,60
3599320,23
3599944,29
3600576,16
3601192,69
3601820,93
3602452,74
3603072,57
3603704,15
3604328,54
3604956,81
3605584,96
3606208,35
3606836,27
3607460,29
3608084,15
3608712,18
3609328,37
3609960,16
3610584,68
3611204,81
3611836,60
3612456,37
3613084,29
3613716,14
3614336,23
3614964,49
3615588,69
3616220,79
3616848,80
3617464,88
3618092,57
3618716,37
3619340,73
3619972,75
3620592,63
3621220,48
3621844,47
3622468,33
3623096,16
3623720,15
3624348,13
3624980,12
3625600,13
3626228,15
3626852,17
3627480,14
3628112,10
3628732,10
3629360,10
3629984,19
3630608,19
3631236,15
3631856,32
3632488,33
3633112,33
3633736,76
3634364,73
3634984,74
3635616,36
3636244,10
3636864,19
3637492,36
3638116,26
3638748,21
3639376,31
3639996,39
3640628,33
3641252,15
3641876,31
3642504,35
3643124,19
3643752,13
3644376,13
3645004,13
3645632,20
3646252,32
3646880,35
3647508,51
3648128,74
3648756,85
3649380,75
3650008,62
3650640,59
3651256,16
3651884,49
3652508,69
3653132,52
3653764,54
3654384,41
3655016,26
3655640,12
3656264,9
3656840,22
3657464,29
3658096,39
3658720,33
3659344,17
3659976,36
3660592,21
3661224,11
3661852,12
3662472,20
3663100,16
3663728,32
3664356,25
3664988,36
3665608,44
3666236,19
3666860,16
3667488,34
3668116,28
3668736,21
3669364,26
3669992,41
3670616,13
3671248,15
3671864,74
3672496,99
3673124,90
3673744,73
3674376,39
3675000,17
3675628,33
3676260,76
3676880,94
3677508,80
3678136,58
3678760,21
3679388,45
3680008,79
3680636,63
3681260,29
3681884,25
3682516,56
3683140,49
3683772,34
3684404,34
3685024,21
3685656,42
3686280,60
3686912,36
3687540,10
3688160,21
3688788,32
3689412,29
3690036,13
3690664,16
3691280,38
3691908,36
3692532,24
3693156,20
3693784,49
3694408,48
3695040,30
3695668,22
3696288,22
3696916,14
3697540,29
3698172,47
3698800,63
3699416,41
3700048,13
3700672,15
3701296,20
3701924,26
3702544,13
3703172,20
3703796,29
3704424,20
3705052,12
3705676,41
3706308,28
3706936,37
3707560,31
3708188,57
3708812,17
3709444,43
3710072,50
3710692,16
3711324,27
3711948,40
3712572,29
3713204,15
3713824,42
3714452,92
3715084,100
3715756,62
3716384,19
3717008,17
3717636,32
3718268,78
3718888,87
3719516,75
3720144,48
3720764,13
3721396,12
3722016,21
3722644,19
3723276,22
3723896,32
3724528,17
3725152,51
3725780,53
3726412,44
3727032,48
3727664,17
3728288,38
3728912,38
3729540,35
3730160,12
3730788,29
3731412,41
3732036,48
3732668,34
3733288,17
3733916,40
3734548,81
3735168,95
3735800,82
3736424,67
3737052,36
3737684,36
3738304,95
3738932,66
3739556,42
3740180,35
3740812,44
3741432,52
3742064,45
3742688,34
3743312,15
3743944,34
3744564,28
3745192,18
3745824,22
3746440,38
3747068,47
3747696,54
3748324,67
3748956,75
3749576,59
3750208,37
3750832,24
3751456,21
3752088,13
3752704,35
3753336,41
3753960,40
3754584,22
3755216,14
3755832,24
3756464,36
3757096,44
3757712,45
3758344,37
3758968,24
3759600,14
3760228,23
3760848,37
3761476,39
3762104,36
3762728,34
3763360,36
3763976,43
3764608,51
3765232,85
3765856,96
3766488,50
3767112,41
3767740,19
3768372,88
3768992,148
3769672,92
3770296,56
3770920,34
3771548,32
3772168,40
3772796,24
3773424,24
3774048,64
3774680,93
3775304,119
3775988,106
3776668,77
3777288,63
3777916,16
3778540,104
3779220,148
3779896,75
3780520,21
3781144,16
3781772,23
3782392,25
3783024,14
3783648,17
3784272,33
3784904,47
3785520,40
3786152,14
3786780,11
3787400,16
3788032,11
3788656,67
3789288,65
3789916,28
3790536,36
3791164,44
3791792,21
3792416,16
3793044,27
3793664,14
3794292,14
3794920,13
3795544,10
3796172,13
3796792,17
3797424,25
3798056,36
3798672,47
3799304,59
3799928,59
3800560,39
3801188,26
3801808,18
3802436,20
3803060,30
3803688,26
3804316,12
3804936,15
3805568,10
3806192,24
3806816,26
3807448,23
3808072,24
3808700,18
3809332,14
3809952,24
3810580,28
3811204,87
3811836,133
3812520,182
3813188,168
3813868,74
3814496,18
3815112,62
3815744,125
3816420,163
3817092,109
3817772,46
3818392,23
3819016,22
3819648,26
3820264,50
3820896,45
3821520,23
3822144,11
3822776,12
3823392,16
3824024,36
3824652,49
3825272,68
3825904,47
3826528,37
3827160,34
3827792,21
3828412,10
3829044,18
3829668,32
3830292,40
3830924,21
3831544,18
3832176,31
3832800,21
3833424,35
3834056,79
3834676,69
3835308,60
3835940,26
3836560,11
3837192,58
3837820,111
3838504,72
3839128,63
3839748,41
3840380,53
3841004,52
3841628,61
3842256,53
3842872,24
3843500,15
3844132,39
3844752,45
3845380,49
3846004,52
3846636,39
3847264,30
3847888,43
3848516,43
3849140,43
3849764,18
3850396,16
3851016,17
3851644,13
3852268,11
3852892,11
3853520,10
3854144,11
3854772,11
3855404,11
3856024,15
3856652,10
3857276,12
3857904,25
3858536,33
3859156,19
3859784,16
3860412,11
3861036,13
3861664,23
3862284,30
3862912,49
3863536,55
3864164,47
3864792,36
3865416,13
3866048,30
3866676,32
3867296,20
3867924,16
3868548,11
3869180,25
3869812,30
3870432,40
3871064,43
3871688,16
3872312,18
3872940,18
3873560,17
3874188,17
3874812,24
3875440,28
3876068,28
3876692,20
3877324,35
3877956,39
3878576,13
3879204,67
3879828,69
3880456,66
3881084,62
3881704,50
3882332,14
3882956,36
3883584,19
3884212,12
3884832,18
3885460,41
3886092,51
3886712,32
3887344,21
3887968,24
3888600,18
3889232,15
3889848,11
3890480,13
3891104,15
3891728,14
3892360,15
3892976,14
3893608,17
3894232,24
3894856,21
3895484,31
3896104,46
3896732,59
3897364,81
3897984,75
3898616,51
3899240,26
3899868,19
3900500,30
3901120,29
3901752,16
3902376,11
3903000,33
3903632,31
3904248,80
3904880,108
3905560,99
3906176,21
3906804,63
3907428,200
3908112,172
3908788,108
3909460,37
3910088,15
3910716,13
3911336,18
3911968,17
3912592,13
3913224,20
3913852,40
3914472,33
3915104,35
3915728,48
3916352,45
3916984,33
3917600,21
3918232,15
3918860,21
3919480,37
3920112,36
3920736,37
3921364,14
3921996,34
3922616,54
3923244,45
3923868,31
3924496,16
3925124,77
3925744,72
3926376,20
3927000,16
3927624,11
3928256,11
3928872,16
3929504,19
3930136,16
3930752,28
3931384,45
3932012,45
3932644,39
3933272,36
3933892,39
3934520,43
3935144,42
3935768,31
3936400,21
3937016,10
3937644,41
3938268,71
3938892,83
3939524,47
3940144,35
3940772,19
3941404,28
3942024,43
3942656,51
3943276,32
3943908,11
3944536,14
3945160,10
3945788,25
3946412,14
3947036,43
3947668,42
3948288,48
3948916,33
3949540,13
3950164,13
3950796,15
3951416,19
3952048,25
3952676,20
3953296,16
3953924,11
3954548,12
3955180,39
3955812,38
3956432,28
3957060,28
3957688,35
3958312,63
3958940,53
3959560,15
3960192,47
3960816,33
3961440,20
3962068,60
3962696,57
3963324,17
3963956,19
3964576,21
3965208,48
3965832,19
3966460,13
3967092,35
3967712,23
3968344,15
3968968,11
3969588,25
3970220,66
3970840,65
3971468,45
3972096,12
3972720,31
3973352,16
3973976,15
3974604,23
3975236,22
3975856,20
3976484,35
3977108,21
3977736,14
3978364,36
3978984,43
3979612,47
3980236,96
3980864,102
3981544,80
3982160,61
3982788,15
3983420,43
3984040,77
3984668,30
3985292,22
3985924,13
3986552,42
3987172,44
3987804,28
3988428,20
3989052,20
3989684,14
3990304,13
3990936,30
3991568,46
3992184,82
3992816,81
3993440,79
3994072,41
3994704,54
3995324,97
3995952,47
3996576,12
3997204,39
3997832,53
3998452,84
3999084,50
3999708,35
4000332,54
4000960,23
4001576,18
4002204,15
4002836,10
4003456,24
4004084,49
4004708,73
4005336,59
4005968,31
4006584,17
4007216,15
4007836,19
4008460,19
4009092,18
4009712,21
4010340,11
4010964,11
4011588,20
4012220,38
4012840,45
4013468,45
4014100,54
4014720,56
4015348,55
4015972,43
4016604,31
4017232,31
4017852,30
4018480,22
4019104,10
4019728,12
4020356,17
4020976,17
4021604,16
4022228,24
4022852,11
4023480,17
4024104,28
4024732,14
4025364,26
4025984,57
4026612,95
4027236,58
4027868,13
4028496,15
4029120,17
4029748,15
4030372,15
4031000,38
4031628,66
4032248,71
4032880,49
4033500,31
4034124,15
4034756,14
4035376,12
4036004,15
4036636,19
4037256,15
4037884,11
4038508,28
4039140,37
4039772,12
4040392,35
4041020,27
4041644,24
4042268,74
4042900,77
4043520,23
4044148,33
4044776,55
4045400,66
4046028,64
4046648,48
4047276,21
4047908,10
4048528,12
4049156,22
4049780,24
4050412,27
4051040,37
4051664,33
4052296,18
4052920,24
4053544,17
4054176,11
4054792,38
4055424,52
4056048,56
4056672,65
4057300,47
4057924,20
4058556,13
4059184,14
4059804,15
4060436,13
4061060,13
4061688,17
4062316,28
4062936,36
4063568,35
4064192,37
4064816,33
4065444,16
4066064,17
4066692,22
4067316,27
4067944,33
4068572,21
4069196,21
4069828,27
4070460,10
4071080,24
4071708,12
4072336,16
4072964,20
4073596,28
4074216,16
4074848,16
4075472,19
4076096,15
4076728,26
4077344,33
4077976,20
4078608,16
4079224,16
4079856,15
4080480,21
4081108,15
4081740,32
4082360,43
4082992,47
4083616,38
4084240,31
4084872,34
4085488,19
4086120,14
4086744,10
4087368,38
4087996,47
4088616,12
4089248,24
4089880,16
4090496,13
4091128,43
4091752,71
4092384,61
4093016,59
4093636,31
4094264,15
4094892,41
4095516,56
4096148,42
4096764,24
4097392,38
4098012,49
4098636,38
4099264,27
4099880,23
4100508,17
4101136,14
4101752,12
4102380,13
4103004,16
4103632,26
4104260,20
4104880,19
4105508,17
4106132,10
4106756,12
4107388,16
4108008,16
4108636,31
4109260,47
4109880,49
4110508,42
4111128,31
4111756,29
4112380,54
4113008,38
4113636,12
4114260,26
4114888,22
4115516,16
4116136,15
4116764,14
4117388,16
4118016,14
4118648,16
4119264,15
4119892,14
4120516,15
4121140,15
4121768,17
4122388,16
4123020,13
4123644,21
4124264,24
4124892,21
4125516,17
4126148,19
4126776,46
4127392,59
4128020,60
4128644,38
4129272,38
4129900,28
4130520,28
4131148,11
4131772,15
4132396,33
4133028,46
4133648,22
4134276,31
4134900,46
4135524,21
4136156,11
4136776,12
4137408,33
4138036,62
4138656,33
4139284,11
4139908,19
4140536,12
4141168,46
4141784,87
4142412,64
4143036,18
4143660,12
4144292,10
4144912,20
4145540,45
4146164,31
4146788,20
4147420,18
4148040,39
4148672,45
4149300,34
4149920,18
4150548,15
4151172,18
4151804,15
4152432,14
4153052,16
4153680,21
4154304,20
4154928,18
4155556,17
4156176,12
4156804,13
4157428,14
4158052,12
4158684,18
4159308,16
4159940,20
4160568,14
4161188,14
4161820,11
4162440,19
4163072,37
4163700,59
4164320,62
4164948,57
4165572,41
4166196,21
4166824,13
4167440,14
4168072,15
4168692,15
4169316,12
4169944,16
4170568,23
4171196,15
4171828,15
4172448,17
4173076,13
4173700,51
4174332,59
4174960,27
4175576,13
4176208,15
4176832,11
4177452,13
4178084,22
4178700,30
4179332,21
4179956,20
4180576,12
4181208,29
4181828,80
4182460,86
4183088,44
4183704,14
4184332,17
4184956,35
4185588,34
4186216,23
4186832,16
4187464,47
4188088,44
4188712,49
4189340,37
4189960,18
4190588,13
4191212,11
4191836,13
4192468,13
4193092,15
4193720,21
4194352,33
4194968,31
4195596,17
4196220,25
4196852,37
4197480,44
4198104,52
4198736,54
4199356,21
4199980,15
4200612,14
4201232,16
4201860,12
4202484,12
4203104,18
4203736,19
4204360,24
4204988,21
4205616,12
4206236,23
4206864,12
4207488,24
4208116,63
4208748,64
4209368,29
4209996,14
4210620,11
4211244,26
4211872,32
4212488,34
4213120,40
4213740,55
4214364,48
4214996,35
4215620,20
4216252,14
4216880,14
4217504,13
4218136,13
4218760,18
4219388,29
4220020,36
4220640,30
4221268,25
4221892,22
4222516,11
4223148,10
4223768,17
4224400,24
4225020,13
4225648,14
4226276,13
4226900,24
4227528,22
4228156,20
4228776,20
4229404,24
4230028,33
4230660,43
4231288,50
4231904,58
4232536,47
4233160,22
4233784,20
4234412,55
4235032,63
4235660,35
4236288,48
4236912,73
4237540,21
4238164,59
4238796,75
4239428,52
4240048,105
4240728,128
4241396,72
4242016,39
4242644,21
4243268,12
4243896,13
4244528,17
4245144,28
4245772,26
4246396,24
4247028,39
4247660,58
4248280,57
4248908,45
4249536,26
4250160,20
4250788,14
4251408,14
4252036,11
4252660,12
4253284,17
4253916,11
4254540,10
4255172,10
4255800,18
4256424,31
4257052,15
4257676,47
4258308,27
4258936,13
4259560,33
4260188,33
4260812,12
4261436,12
4262064,10
4262684,12
4263312,25
4263940,35
4264560,36
4265188,25
4265812,22
4266440,23
4267068,30
4267688,35
4268316,37
4268940,27
4269568,12
4270200,14
4270816,16
4271448,25
4272072,18
4272692,12
4273324,10
4273944,19
4274572,24
4275196,20
4275824,21
4276452,15
4277076,20
4277708,18
4278336,15
4278960,25
4279588,15
4280216,15
4280840,28
4281468,34
4282088,42
4282716,48
4283340,39
4283964,22
4284596,14
4285216,13
4285844,33
4286476,30
4287096,22
4287724,15
4288352,14
4288980,17
4289608,16
4290232,13
4290860,15
4291484,23
4292108,15
4292740,23
4293360,36
4293988,44
4294616,18
4295236,10
4295868,15
4296488,16
4297116,32
4297748,40
4298368,29
4298996,16
4299624,13
4300252,24
4300884,19
4301500,18
4302132,17
4302756,15
4303380,14
4304008,13
4304624,13
4305252,10
4305876,10
4306500,13
4307132,18
4307752,15
4308380,13
4309012,14
4309632,19
4310260,21
4310888,21
4311516,30
4312148,36
4312768,45
4313396,42
4314024,37
4314648,24
4315276,15
4315896,18
4316528,23
4317152,38
4317776,43
4318404,32
4319024,11
4319656,29
4320288,34
4320904,41
4321532,73
4322156,49
4322788,27
4323416,24
4324036,29
4324664,23
4325288,15
4325912,16
4326540,18
4327160,34
4327788,34
4328412,47
4329036,63
4329664,68
4330288,64
4330916,50
4331548,26
4332168,16
4332796,30
4333424,36
4334052,23
4334684,18
4335304,11
4335936,19
4336560,52
4337184,41
4337812,23
4338432,13
4339060,17
4339688,24
4340312,19
4340940,14
4341560,14
4342192,15
4342820,14
4343440,15
4344068,23
4344692,31
4345324,45
4345952,38
4346576,44
4347204,80
4347828,92
4348452,83
4349084,62
4349704,49
4350336,29
4350960,22
4351584,36
4352216,67
4352836,97
4353468,121
4354148,92
4354768,48
4355396,30
4356020,12
4356644,11
4357272,25
4357892,24
4358520,15
4359144,20
4359768,28
4360396,32
4361016,29
4361644,37
4362276,38
4362896,32
4363524,30
4364148,36
4364776,44
4365408,50
4366024,39
4366656,25
4367280,14
4367904,15
4368532,12
4369152,12
4369780,10
4370404,13
4371028,23
4371660,29
4372280,40
4372908,35
4373540,19
4374160,16
4374788,33
4375416,25
4376044,20
4376676,24
4377296,11
4377928,12
4378552,12
4379176,20
4379804,31
4380424,46
4381052,62
4381680,69
4382304,65
4382936,57
4383560,64
4384188,62
4384816,38
4385440,33
4386068,93
4386692,92
4387324,69
4387952,56
4388572,33
4389200,15
4389824,15
4390448,15
4391080,14
4391696,17
4392328,19
4392952,13
4393576,23
4394208,23
4394832,20
4395464,27
4396092,20
4396712,17
4397344,47
4397968,59
4398600,51
4399228,45
4399848,38
4400480,15
4401104,17
4401728,23
4402356,44
4402976,74
4403608,57
4404236,17
4404856,11
4405484,10
4406108,12
4406740,16
4407368,21
4407984,16
4408616,17
4409240,26
4409864,28
4410492,38
4411112,43
4411744,35
4412368,41
4412992,40
4413620,46
4414240,61
4414868,79
4415500,110
4416172,84
4416796,16
4417420,70
4418052,79
4418680,73
4419304,57
4419932,44
4420556,37
4421184,39
4421812,30
4422432,31
4423060,40
4423692,30
4424312,28
4424940,16
4425564,21
4426196,33
4426824,45
4427448,51
4428076,49
4428704,28
4429328,21
4429956,12
4430576,33
4431204,33
4431828,32
4432456,33
4433084,28
4433704,14
4434332,19
4434964,11
4435584,11
4436212,11
4436836,17
4437468,44
4438100,26
4438720,20
4439348,35
4439976,33
4440600,19
4441228,51
4441848,112
4442528,88
4443160,30
4443776,17
4444408,33
4445032,30
4445660,21
4446292,18
4446912,23
4447540,31
4448168,35
4448792,38
4449420,38
4450040,36
4450668,25
4451292,21
4451920,13
4452548,10
4453168,17
4453800,20
4454428,15
4455048,16
4455676,13
4456300,11
4456932,12
4457564,16
4458184,14
4458816,16
4459440,16
4460064,29
4460692,12
4461312,11
4461944,12
4462568,28
4463192,21
4463824,27
4464444,47
4465072,55
4465704,39
4466324,26
4466952,32
4467576,33
4468204,23
4468836,16
4469456,22
4470088,46
4470712,77
4471336,54
4471968,24
4472588,17
4473216,16
4473844,27
4474468,13
4475100,27
4475724,35
4476356,31
4476988,28
4477608,15
4478240,17
4478864,24
4479496,24
4480128,36
4480744,41
4481372,53
4481996,42
4482620,16
4483248,24
4483872,28
4484500,38
4485132,34
4485752,12
4486380,21
4487004,28
4487636,13
4488264,12
4488888,14
4489516,18
4490140,11
4490768,15
4491396,36
4492016,26
4492644,17
4493268,14
4493896,21
4494524,18
4495144,11
4495776,18
4496404,18
4497024,29
4497652,44
4498276,55
4498908,48
4499540,31
4500160,24
4500788,21
4501416,18
4502040,10
4502672,19
4503288,27
4503920,29
4504544,30
4505168,27
4505800,22
4506416,17
4507044,13
4507672,22
4508296,26
4508924,20
4509548,16
4510176,19
4510808,19
4511424,22
4512056,19
4512680,12
4513300,15
4513932,12
4514552,11
4515180,23
4515808,67
4516432,60
4517060,39
4517680,35
4518308,53
4518940,12
4519560,48
4520188,64
4520812,62
4521444,47
4522072,41
4522692,28
4523324,10
4523948,16
4524572,24
4525200,15
4525824,18
4526452,13
4527076,10
4527704,16
4528332,10
4528952,20
4529580,45
4530212,48
4530832,54
4531464,63
4532088,56
4532716,35
4533348,46
4533968,65
4534596,28
4535224,17
4535848,17
4536476,10
4537096,59
4537728,94
4538348,52
4538976,31
4539604,43
4540228,48
4540860,45
4541488,20
4542112,31
4542744,34
4543368,12
4543996,21
4544632,31
4545248,37
4545880,36
4546504,36
4547128,46
4547756,55
4548376,58
4549004,42
4549632,30
4550256,37
4550888,49
4551512,51
4552140,19
4552772,10
4553392,46
4554024,92
4554648,79
4555272,58
4555904,35
4556520,20
4557152,17
4557776,15
4558400,29
4559028,17
4559648,23
4560280,64
4560908,72
4561528,61
4562160,55
4562780,28
4563412,13
4564044,12
4564664,38
4565292,32
4565920,29
4566544,25
4567172,18
4567792,13
4568424,32
4569048,55
4569672,36
4570300,14
4570920,14
4571548,41
4572180,84
4572800,41
4573428,12
4574056,21
4574688,20
4575316,14
4575936,14
4576568,34
4577196,44
4577820,36
4578448,10
4579072,11
4579704,14
4580328,36
4580952,26
4581584,11
4582204,14
4582832,19
4583464,35
4584084,27
4584712,19
4585340,11
4585968,11
4586600,11
4587220,11
4587852,10
4588476,17
4589100,20
4589728,15
4590348,15
4590976,13
4591604,13
4592228,14
4592856,20
4593480,34
4594108,39
4594740,42
4595360,51
4595988,52
4596612,55
4597244,59
4597876,63
4598496,34
4599124,40
4599748,68
4600376,38
4601004,19
4601624,19
4602252,13
4602876,12
4603504,21
4604136,30
4604760,37
4605392,21
4606024,10
4606640,10
4607272,19
4607896,16
4608520,14
4609152,14
4609768,15
4610396,25
4611020,34
4611644,32
4612272,32
4612896,31
4613524,35
4614156,49
4614776,61
4615404,29
4616028,14
4616656,16
4617288,26
4617904,29
4618532,17
4619156,22
4619784,42
4620412,44
4621032,57
4621660,53
4622284,35
4622908,40
4623540,42
4624160,21
4624788,14
4625420,19
4626040,13
4626668,23
4627292,25
4627924,19
4628552,22
4629176,29
4629804,37
4630428,46
4631052,61
4631684,70
4632304,57
4632936,46
4633560,41
4634184,43
4634812,40
4635432,29
4636060,32
4636692,11
4637312,29
4637944,16
4638568,58
4639196,56
4639828,52
4640448,98
4641076,148
4641752,80
4642368,17
4643000,22
4643616,27
4644244,23
4644876,36
4645496,41
4646124,49
4646752,57
4647380,46
4648012,51
4648632,57
4649260,40
4649884,14
4650508,22
4651140,22
4651760,12
4652388,15
4653016,16
4653640,13
4654268,10
4654888,14
4655516,26
4656148,18
4656768,43
4657396,45
4658024,25
4658652,14
4659284,14
4659904,11
4660532,13
4661156,36
4661780,44
4662412,24
4663032,10
4663664,21
4664288,31
4664912,23
4665544,14
4666160,15
4666792,13
4667424,19
4668040,24
4668672,23
4669296,19
4669928,17
4670556,12
4671176,12
4671808,15
4672432,21
4673056,10
4673684,13
4674304,14
4674932,19
4675556,36
4676180,28
4676812,11
4677432,41
4678064,43
4678692,43
4679312,49
4679944,31
4680568,43
4681196,27
4681828,38
4682448,72
4683076,48
4683700,14
4684328,14
4684956,23
4685576,29
4686204,12
4686828,17
4687456,10
4688084,13
4688708,12
4689340,16
4689968,19
4690588,39
4691216,27
4691840,17
4692468,48
4693100,48
4693720,23
4694352,13
4694976,24
4695600,17
4696232,19
4696848,51
4697480,70
4698104,79
4698728,71
4699360,47
4699984,40
4700612,24
4701244,12
4701864,16
4702496,23
4703120,16
4703752,14
4704384,25
4705000,34
4705632,27
4706256,17
4706880,14
4707512,16
4708132,14
4708760,13
4709392,18
4710016,19
4710648,18
4711272,22
4711904,40
4712536,48
4713152,36
4713784,34
4714404,38
4715028,30
4715660,13
4716280,21
4716908,17
4717532,15
4718160,11
4718788,11
4719408,27
4720040,24
4720668,11
4721288,12
4721916,19
4722544,17
4723172,13
4723804,25
4724424,24
4725056,24
4725680,16
4726304,14
4726936,23
4727552,45
4728184,55
4728808,45
4729432,30
4730064,23
4730684,13
4731312,17
4731944,18
4732564,23
4733196,44
4733820,42
4734452,16
4735084,16
4735704,11
4736336,13
4736960,10
4737584,59
4738212,68
4738832,44
4739460,43
4740088,44
4740712,21
4741344,13
4741968,19
4742596,22
4743228,14
4743848,17
4744476,16
4745104,11
4745732,11
4746364,14
4746984,27
4747616,41
4748240,33
4748864,25
4749492,26
4750112,18
4750744,13
4751372,14
4751992,13
4752624,10
4753248,13
4753876,27
4754508,10
4755128,22
4755760,16
4756384,17
4757008,15
4757636,15
4758256,17
4758888,16
4759512,25
4760136,25
4760768,20
4761384,10
4762016,33
4762648,36
4763264,11
4763896,19
4764520,28
4765148,27
4765780,16
4766400,24
4767028,33
4767656,31
4768280,38
4768908,32
4769528,12
4770156,28
4770784,45
4771408,36
4772040,22
4772656,16
4773288,12
4773916,22
4774536,47
4775164,52
4775792,25
4776420,18
4777052,54
4777672,37
4778304,45
4778928,19
4779552,13
4780184,20
4780800,37
4781432,64
4782056,56
4782684,51
4783316,45
4783940,18
4784572,20
4785204,22
4785824,36
4786456,61
4787080,53
4787712,31
4788344,11
4788960,19
4789592,12
4790216,13
4790844,15
4791476,52
4792096,53
4792728,28
4793360,10
4793980,22
4794608,40
4795236,44
4795864,39
4796496,45
4797120,67
4797752,67
4798376,49
4799004,12
4799636,14
4800256,21
4800888,20
4801512,17
4802136,15
4802764,11
4803384,18
4804012,18
4804644,13
4805264,29
4805892,33
4806516,21
4807148,18
4807780,18
4808400,22
4809028,15
4809652,14
4810276,18
4810908,14
4811528,27
4812156,38
4812784,52
4813408,41
4814040,24
4814664,17
4815292,17
4815924,14
4816544,18
4817172,15
4817796,15
4818428,18
4819060,17
4819680,43
4820308,39
4820932,30
4821556,19
4822188,22
4822808,25
4823436,13
4824064,16
4824688,15
4825316,18
4825944,27
4826572,36
4827204,10
4827824,11
4828456,23
4829080,13
4829704,33
4830336,19
4830952,21
4831584,45
4832212,30
4832836,15
4833464,15
4834088,24
4834716,22
4835348,12
4835968,11
4836596,22
4837224,17
4837852,10
4838484,10
4839104,9
4839680,11
4840312,13
4840940,14
4841572,14
4842192,14
4842824,19
4843448,20
4844072,11
4844700,35
4845320,27
4845948,12
4846576,29
4847200,42
4847828,50
4848456,50
4849084,36
4849716,38
4850336,41
4850968,35
4851592,14
4852224,14
4852852,26
4853472,38
4854104,57
4854728,73
4855352,55
4855984,24
4856604,16
4857232,16
4857864,16
4858480,28
4859112,25
4859736,22
4860368,39
4860996,52
4861616,29
4862248,12
4862872,11
4863496,13
4864128,18
4864744,27
4865372,26
4865996,42
4866620,33
4867252,18
4867872,16
4868500,30
4869132,35
4869752,31
4870384,17
4871008,14
4871640,16
4872268,12
4872888,13
4873516,15
4874144,16
4874768,14
4875396,14
4876016,18
4876644,25
4877272,35
4877896,21
4878524,20
4879144,26
4879776,15
4880404,22
4881024,20
4881652,27
4882276,21
4882908,17
4883540,13
4884160,13
4884788,13
4885416,16
4886040,21
4886668,27
4887288,26
4887916,19
4888544,12
4889168,11
4889800,10
4890416,25
4891044,31
4891676,26
4892296,22
4892928,19
4893552,31
4894180,38
4894812,19
4895432,15
4896064,61
4896688,71
4897312,61
4897940,51
4898560,27
4899188,75
4899816,82
4900440,30
4901072,21
4901688,31
4902320,38
4902952,25
4903576,18
4904208,10
4904832,12
4905464,27
4906092,57
4906712,63
4907344,42
4907968,21
4908596,13
4909228,19
4909848,30
4910480,42
4911112,23
4911732,23
4912364,29
4912988,24
4913620,25
4914252,32
4914872,42
4915504,43
4916128,17
4916752,31
4917380,50
4918000,64
4918628,56
4919252,64
4919876,45
4920508,20
4921128,10
4921756,16
4922388,28
4923008,40
4923636,58
4924260,67
4924892,40
4925520,23
4926140,29
4926768,12
4927392,11
4928016,22
4928644,32
4929264,33
4929892,29
4930516,17
4931140,11
4931772,14
4932392,31
4933024,21
4933652,16
4934272,23
4934904,20
4935528,10
4936156,24
4936788,27
4937408,26
4938036,12
4938660,17
4939284,18
4939916,13
4940536,24
4941168,49
4941788,61
4942412,33
4943044,10
4943664,18
4944292,16
4944924,10
4945544,21
4946176,42
4946796,56
4947428,57
4948060,56
4948680,48
4949308,27
4949932,18
4950560,16
4951188,11
4951808,11
4952440,12
4953064,20
4953688,23
4954316,28
4954936,32
4955568,25
4956196,34
4956816,17
4957444,29
4958068,39
4958700,28
4959332,24
4959952,11
4960584,13
4961208,58
4961832,34
4962460,14
4963080,35
4963708,41
4964332,55
4964960,87
4965588,74
4966212,59
4966844,41
4967472,14
4968096,67
4968724,87
4969348,51
4969980,25
4970608,15
4971228,11
4971856,15
4972480,13
4973104,41
4973732,23
4974352,23
4974984,25
4975608,18
4976232,11
4976864,11
4977484,14
4978116,13
4978748,17
4979368,24
4979996,33
4980620,37
4981252,36
4981884,34
4982504,37
4983132,25
4983760,13
4984384,15
4985012,10
4985632,9
4986208,14
4986840,17
4987464,18
4988096,13
4988712,13
4989344,14
4989972,11
4990592,39
4991224,42
4991852,22
4992484,15
4993112,11
4993732,23
4994360,16
4994984,10
4995612,16
4996240,20
4996864,31
4997496,39
4998116,36
4998744,31
4999372,29
4999992,25
5000624,30
5001252,23
5001872,13
5002500,25
5003124,40
5003756,33
5004388,18
5005008,10
5005636,10
5006264,11
5006888,13
5007516,15
5008136,19
5008764,19
5009388,13
5010012,17
5010644,29
5011268,25
5011900,27
5012532,25
5013152,22
5013784,52
5014408,24
5015036,29
5015668,21
5016288,18
5016920,14
5017544,17
5018168,14
5018800,16
5019416,20
5020048,23
5020676,26
5021296,19
5021924,10
5022552,10
5023180,11
5023812,24
5024432,19
5025060,14
5025688,17
5026312,15
5026940,18
5027560,19
5028192,17
5028816,16
5029440,15
5030068,27
5030688,43
5031320,44
5031952,31
5032572,33
5033200,40
5033828,42
5034456,37
5035088,25
5035708,12
5036340,25
5036964,48
5037588,51
5038220,48
5038840,53
5039472,65
5040096,60
5040720,41
5041348,23
5041968,18
5042596,21
5043228,34
5043848,39
5044476,47
5045104,45
5045732,30
5046364,26
5046984,28
5047616,34
5048240,40
5048864,24
5049496,14
5050112,13
5050744,15
5051368,15
5051992,14
5052624,10
5053244,12
5053876,11
5054504,10
5055128,10
5055760,10
5056388,13
5057020,12
5057648,13
5058268,13
5058900,17
5059524,22
5060148,19
5060780,13
5061400,17
5062032,18
5062664,34
5063280,39
5063912,35
5064536,61
5065168,60
5065800,25
5066416,16
5067048,24
5067672,18
5068296,34
5068928,53
5069552,41
5070184,29
5070808,32
5071432,37
5072064,55
5072680,82
5073312,65
5073944,34
5074564,19
5075192,14
5075820,13
5076448,23
5077080,44
5077704,69
5078336,85
5078964,88
5079588,78
5080220,62
5080840,15
5081468,16
5082096,30
5082720,42
5083352,24
5083976,16
5084608,16
5085236,24
5085856,37
5086488,70
5087112,62
5087744,40
5088376,28
5088992,17
5089624,14
5090248,46
5090872,83
5091504,97
5092124,52
5092752,67
5093384,82
5094008,39
5094640,27
5095264,69
5095896,34
5096528,11
5097144,11
5097776,23
5098400,27
5099024,34
5099656,30
5100276,24
5100904,16
5101532,10
5102156,11
5102788,18
5103408,14
5104040,12
5104672,21
5105288,35
5105920,22
5106544,14
5107176,18
5107808,19
5108428,14
5109060,24
5109688,21
5110312,19
5110944,43
5111564,57
5112196,56
5112824,44
5113448,22
5114080,13
5114704,16
5115340,16
5115972,12
5116596,14
5117228,15
5117852,12
5118480,19
5119112,12
5119732,11
5120368,14
5120988,20
5121612,22
5122240,25
5122856,21
5123484,17
5124112,16
5124728,19
5125360,16
5125984,16
5126612,26
5127240,20
5127856,23
5128488,37
5129108,42
5129732,43
5130364,48
5130984,47
5131612,34
5132236,20
5132860,17
5133488,14
5134104,15
5134736,19
5135360,24
5135984,13
5136612,10
5137236,13
5137868,23
5138496,23
5139120,44
5139748,61
5140376,47
5141000,24
5141628,13
5142248,14
5142876,15
5143500,15
5144124,19
5144756,19
5145376,23
5146004,25
5146636,34
5147256,22
5147884,13
5148508,17
5149140,22
5149768,21
5150388,17
5151016,12
5151644,10
5152268,10
5152896,13
5153512,15
5154144,13
5154768,16
5155392,23
5156020,25
5156640,25
5157268,17
5157900,16
5158520,15
5159148,20
5159772,14
5160404,11
5161032,16
5161656,20
5162284,27
5162908,40
5163532,38
5164160,31
5164776,54
5165408,55
5166032,58
5166656,47
5167284,35
5167904,11
5168536,43
5169164,46
5169784,39
5170412,36
5171040,34
5171668,31
5172300,19
5172920,16
5173548,16
5174172,13
5174796,13
5175428,14
5176048,20
5176676,11
5177300,17
5177924,25
5178556,22
5179176,33
5179808,25
5180436,29
5181056,38
5181688,30
5182308,17
5182940,17
5183572,22
5184192,29
5184820,34
5185444,37
5186068,13
5186696,14
5187320,12
5187948,12
5188572,43
5189200,73
5189828,39
5190448,30
5191076,22
5191708,12
5192328,22
5192956,13
5193584,17
5194212,18
5194844,40
5195464,29
5196096,27
5196720,51
5197344,57
5197976,41
5198592,34
5199224,31
5199848,21
5200472,22
5201100,13
5201720,42
5202348,49
5202980,35
5203600,33
5204228,43
5204852,23
5205484,13
5206112,21
5206732,23
5207360,30
5207984,25
5208608,33
5209236,19
5209856,37
5210484,47
5211108,57
5211736,58
5212364,47
5212984,16
5213612,12
5214244,14
5214864,38
5215496,54
5216120,44
5216748,37
5217380,21
5218000,11
5218628,22
5219252,27
5219880,27
5220508,16
5221128,11
5221756,12
5222384,20
5223008,21
5223640,19
5224264,13
5224892,14
5225524,14
5226144,11
5226772,19
5227400,24
5228028,22
5228660,26
5229280,43
5229908,50
5230536,36
5231160,37
5231792,32
5232408,14
5233040,26
5233668,26
5234288,15
5234916,11
5235544,17
5236172,22
5236804,20
5237424,19
5238056,20
5238680,23
5239304,25
5239936,30
5240556,24
5241184,18
5241808,15
5242432,14
5243064,13
5243680,25
5244308,29
5244936,34
5245556,37
5246184,45
5246808,46
5247436,45
5248068,44
5248684,32
5249312,28
5249936,23
5250564,20
5251192,15
5251808,30
5252440,37
5253064,30
5253688,17
5254316,23
5254936,26
5255564,12
5256188,27
5256816,28
5257444,51
5258068,36
5258696,16
5259324,17
5259944,35
5260572,11
5261196,10
5261828,22
5262456,24
5263072,22
5263704,26
5264328,30
5264948,34
5265580,36
5266200,40
5266828,35
5267452,22
5268080,19
5268708,17
5269332,14
5269960,22
5270592,48
5271208,59
5271840,41
5272464,33
5273092,21
5273724,14
5274344,16
5274972,14
5275596,17
5276220,36
5276848,41
5277464,39
5278092,15
5278716,10
5279344,10
5279972,22
5280600,52
5281228,56
5281860,32
5282480,28
5283108,26
5283732,32
5284360,31
5284988,16
5285608,15
5286236,10
5286860,10
5287480,21
5288112,52
5288728,85
5289356,74
5289980,43
5290608,15
5291236,14
5291860,28
5292488,19
5293120,15
5293736,29
5294364,27
5294988,36
5295620,46
5296248,38
5296872,42
5297500,41
5298124,16
5298748,15
5299380,13
5300000,14
5300628,27
5301256,11
5301880,17
5302508,15
5303132,18
5303764,25
5304396,18
5305016,11
5305644,10
5306268,12
5306892,15
5307520,13
5308140,14
5308768,20
5309392,24
5310016,26
5310644,23
5311264,24
5311896,24
5312524,23
5313144,37
5313772,47
5314396,43
5315028,41
5315660,31
5316280,17
5316908,14
5317532,12
5318160,12
5318788,18
5319408,23
5320040,17
5320660,10
5321284,10
5321916,13
5322536,20
5323164,17
5323796,16
5324416,15
5325048,27
5325668,35
5326296,15
5326928,15
5327544,40
5328172,58
5328796,71
5329420,47
5330048,14
5330664,20
5331292,28
5331916,18
5332540,14
5333168,15
5333784,18
5334416,12
5335040,14
5335664,25
5336292,30
5336916,15
5337548,12
5338176,19
5338800,17
5339428,11
5340052,16
5340680,17
5341308,35
5341928,15
5342556,17
5343180,36
5343808,27
5344436,12
5345056,14
5345684,12
5346316,26
5346936,25
5347564,31
5348188,32
5348820,51
5349448,81
5350064,77
5350696,43
5351320,47
5351944,59
5352572,10
5353192,37
5353820,78
5354448,43
5355068,38
5355700,82
5356320,62
5356948,34
5357580,18
5358200,15
5358828,13
5359452,14
5360084,10
5360712,19
5361336,23
5361964,23
5362588,21
5363212,32
5363844,44
5364464,47
5365092,42
5365720,29
5366344,21
5366972,15
5367592,15
5368220,10
5368852,10
5369472,19
5370100,29
5370724,29
5371356,22
5371988,14
5372608,13
5373236,20
5373864,21
5374488,16
5375116,19
5375736,45
5376368,45
5376992,37
5377616,36
5378244,18
5378864,11
5379492,28
5380120,10
5380744,29
5381372,40
5381996,23
5382628,14
5383256,13
5383872,14
5384504,12
5385128,18
5385752,22
5386380,31
5387000,12
5387628,11
5388252,32
5388876,40
5389504,21
5390128,27
5390756,33
5391388,49
5392008,41
5392636,21
5393260,10
5393892,11
5394520,10
5395144,15
5395776,28
5396400,38
5397024,49
5397652,38
5398272,21
5398904,13
5399528,27
5400152,36
5400780,35
5401400,15
5402032,9
5402604,10
5403232,11
5403860,12
5404484,12
5405116,34
5405748,28
5406368,32
5407000,38
5407624,29
5408252,14
5408880,16
5409504,14
5410132,16
5410756,14
5411380,15
5412008,18
5412632,22
5413260,33
5413884,35
5414512,35
5415140,23
5415764,18
5416396,14
5417024,14
5417648,11
5418276,11
5418900,10
5419528,15
5420156,25
5420776,20
5421408,10
5422032,30
5422656,44
5423284,49
5423904,42
5424536,15
5425164,49
5425784,62
5426416,21
5427040,11
5427668,21
5428300,19
5428920,12
5429548,34
5430172,46
5430796,49
5431428,49
5432048,39
5432676,16
5433300,33
5433924,24
5434556,26
5435176,15
5435808,13
5436436,12
5437056,14
5437688,20
5438308,28
5438940,28
5439572,22
5440192,17
5440820,13
5441444,14
5442064,22
5442696,28
5443312,29
5443940,45
5444564,54
5445188,43
5445816,30
5446440,34
5447068,13
5447696,15
5448320,13
5448948,23
5449572,26
5450200,15
5450828,14
5451448,11
5452076,21
5452700,37
5453328,31
5453956,22
5454576,19
5455204,15
5455828,22
5456452,17
5457084,14
5457704,17
5458332,15
5458964,16
5459584,30
5460212,35
5460836,30
5461468,10
5462096,11
5462712,15
5463344,36
5463968,60
5464592,59
5465224,47
5465840,38
5466468,25
5467092,16
5467716,19
5468348,32
5468968,33
5469596,31
5470228,24
5470848,18
5471476,14
5472104,21
5472732,30
5473364,34
5473984,38
5474612,38
5475236,15
5475860,33
5476492,32
5477112,31
5477744,17
5478368,25
5478992,24
5479624,17
5480240,43
5480872,53
5481500,40
5482120,30
5482748,17
5483372,22
5484004,22
5484636,9
5485204,12
5485836,12
5486460,13
5487092,17
5487724,16
5488344,10
5488972,11
5489596,15
5490220,21
5490852,14
5491472,14
5492100,22
5492724,12
5493348,14
5493980,23
5494604,25
5495236,25
5495864,17
5496488,21
5497116,34
5497744,35
5498372,29
5499004,24
5499624,18
5500252,24
5500880,22
5501504,13
5502132,10
5502752,22
5503384,27
5504016,25
5504632,20
5505260,26
5505884,40
5506516,33
5507148,22
5507768,14
5508400,19
5509024,34
5509648,47
5510276,38
5510896,11
5511524,10
5512152,13
5512776,20
5513404,30
5514024,43
5514656,46
5515284,28
5515904,19
5516536,18
5517160,33
5517792,50
5518420,46
5519040,22
5519672,15
5520296,84
5520920,97
5521548,64
5522168,47
5522796,33
5523424,16
5524048,48
5524676,46
5525296,40
5525928,14
5526556,20
5527176,66
5527808,75
5528432,28
5529064,17
5529692,31
5530312,41
5530940,50
5531564,41
5532188,42
5532816,32
5533440,21
5534068,15
5534696,25
5535320,20
5535948,11
5536568,10
5537200,12
5537828,11
5538448,11
5539076,10
5539704,15
5540332,16
5540964,22
5541584,18
5542216,16
5542840,11
5543464,11
5544092,18
5544712,24
5545344,22
5545968,12
5546592,12
5547220,27
5547848,37
5548476,37
5549108,30
5549728,30
5550360,27
5550984,11
5551616,13
5552244,19
5552864,21
5553492,18
5554120,17
5554744,11
5555376,32
5555992,32
5556624,50
5557256,60
5557872,51
5558504,26
5559128,11
5559760,15
5560388,34
5561008,36
5561640,37
5562264,29
5562888,27
5563516,12
5564136,22
5564768,29
5565392,24
5566020,20
5566652,16
5567272,24
5567904,39
5568536,27
5569156,17
5569784,10
5570408,11
5571040,13
5571668,22
5572288,21
5572916,15
5573544,13
5574168,22
5574796,20
5575416,22
5576048,24
5576668,13
5577292,17
5577924,11
5578544,17
5579176,29
5579804,41
5580424,38
5581056,36
5581680,22
5582308,17
5582940,25
5583560,17
5584188,11
5584812,24
5585436,23
5586068,22
5586688,15
5587316,11
5587944,9
5588516,10
5589148,9
5589716,15
5590352,13
5590976,13
5591600,14
5592232,14
5592848,25
5593480,33
5594104,33
5594728,34
5595360,33
5595984,27
5596616,22
5597244,32
5597864,46
5598496,42
5599120,34
5599752,15
5600384,26
5601000,36
5601628,26
5602252,27
5602876,41
5603508,40
5604128,30
5604756,21
5605388,14
5606008,33
5606640,23
5607260,13
5607892,14
5608520,13
5609144,15
5609772,14
5610396,10
5611020,9
5611600,17
5612224,36
5612856,50
5613480,41
5614104,37
5614732,39
5615352,37
5615984,27
5616608,20
5617232,26
5617860,24
5618480,19
5619108,12
5619740,10
5620360,31
5620992,30
5621616,27
5622244,18
5622876,22
5623496,53
5624128,54
5624752,34
5625376,19
5626008,11
5626624,15
5627256,15
5627880,20
5628504,27
5629136,34
5629752,46
5630384,49
5631016,51
5631636,30
5632268,19
5632892,19
5633520,21
5634148,15
5634768,12
5635396,16
5636020,19
5636644,16
5637272,21
5637892,22
5638520,19
5639144,26
5639768,26
5640396,24
5641016,22
5641644,14
5642276,26
5642896,33
5643524,41
5644148,40
5644780,26
5645408,29
5646032,32
5646660,29
5647284,12
5647908,21
5648540,14
5649160,29
5649788,28
5650412,24
5651036,21
5651668,30
5652292,13
5652924,22
5653552,22
5654176,39
5654804,59
5655428,22
5656060,13
5656688,31
5657308,39
5657936,34
5658560,26
5659184,12
5659812,9
5660380,10
5661012,11
5661636,15
5662264,17
5662892,35
5663512,60
5664144,73
5664764,57
5665392,38
5666020,19
5666644,14
5667276,13
5667904,10
5668528,10
5669156,10
5669780,10
5670408,16
5671036,38
5671656,36
5672288,29
5672912,23
5673536,27
5674168,25
5674784,20
5675416,15
5676044,28
5676664,32
5677296,28
5677920,18
5678548,17
5679180,12
5679800,11
5680432,29
5681056,46
5681680,45
5682308,43
5682928,36
5683560,26
5684180,21
5684804,19
5685436,15
5686056,11
5686684,15
5687316,34
5687936,47
5688568,32
5689192,20
5689820,14
5690452,12
5691072,23
5691704,33
5692328,27
5692952,11
5693584,19
5694200,21
5694832,13
5695456,21
5696080,35
5696708,50
5697328,56
5697956,54
5698588,42
5699208,38
5699836,26
5700460,15
5701092,21
5701724,22
5702344,23
5702976,14
5703600,10
5704224,18
5704852,30
5705472,19
5706104,18
5706728,23
5707352,19
5707984,16
5708604,13
5709232,22
5709864,30
5710484,34
5711112,23
5711736,21
5712368,19
5713000,11
5713616,31
5714248,35
5714872,30
5715496,27
5716128,20
5716744,14
5717376,14
5718000,24
5718624,34
5719256,37
5719880,27
5720512,25
5721144,20
5721760,12
5722392,13
5723016,13
5723648,13
5724280,14
5724896,14
5725528,19
5726152,33
5726776,26
5727408,18
5728028,21
5728656,20
5729288,20
5729908,38
5730540,76
5731164,75
5731796,65
5732428,63
5733048,29
5733680,45
5734308,71
5734936,51
5735564,44
5736184,44
5736812,39
5737436,40
5738060,25
5738692,10
5739312,21
5739944,33
5740572,26
5741192,15
5741820,16
5742448,13
5743076,13
5743708,16
5744328,14
5744956,10
5745580,35
5746208,46
5746836,50
5747456,65
5748084,71
5748708,38
5749332,14
5749964,23
5750584,22
5751212,28
5751844,34
5752464,39
5753096,32
5753720,21
5754348,16
5754980,10
5755600,11
5756228,14
5756856,16
5757480,25
5758108,21
5758728,21
5759360,15
5759984,10
5760608,10
5761240,10
5761860,16
5762492,29
5763120,43
5763740,58
5764368,66
5764992,71
5765620,64
5766252,55
5766872,28
5767500,12
5768124,19
5768748,44
5769376,60
5770000,35
5770628,17
5771252,30
5771876,38
5772508,30
5773132,43
5773760,43
5774392,57
5775012,86
5775640,57
5776264,21
5776896,11
5777524,14
5778144,25
5778772,31
5779396,19
5780020,17
5780652,34
5781272,21
5781900,13
5782524,14
5783152,43
5783780,69
5784408,66
5785036,48
5785668,24
5786288,10
5786916,52
5787540,65
5788168,47
5788796,39
5789416,23
5790048,13
5790672,14
5791296,13
5791928,14
5792544,14
5793176,20
5793804,17
5794424,15
5795052,24
5795680,31
5796308,37
5796940,44
5797560,51
5798192,40
5798816,23
5799440,15
5800068,12
5800688,11
5801316,18
5801940,18
5802564,19
5803196,20
5803816,21
5804448,26
5805076,20
5805696,21
5806324,21
5806952,17
5807580,15
5808212,12
5808832,15
5809460,17
5810084,17
5810708,15
5811340,18
5811960,25
5812588,29
5813216,37
5813840,41
5814468,35
5815088,24
5815720,26
5816348,26
5816968,19
5817596,11
5818224,11
5818852,23
5819484,26
5820104,38
5820736,54
5821360,46
5821984,37
5822616,23
5823232,15
5823864,32
5824488,44
5825112,38
5825740,50
5826360,77
5826992,27
5827620,19
5828240,18
5828868,11
5829492,11
5830124,14
5830756,19
5831376,17
5832008,17
5832632,21
5833256,24
5833888,26
5834504,11
5835136,13
5835760,18
5836388,13
5837020,11
5837644,25
5838272,32
5838900,28
5839520,32
5840152,25
5840772,20
5841404,17
5842032,14
5842656,20
5843284,23
5843908,29
5844532,26
5845164,18
5845784,11
5846412,16
5847036,46
5847664,61
5848296,52
5848920,36
5849552,24
5850180,13
5850800,20
5851432,11
5852056,15
5852680,15
5853312,12
5853928,11
5854560,18
5855184,18
5855808,32
5856440,34
5857064,30
5857696,17
5858324,14
5858944,11
5859572,10
5860200,13
5860828,14
5861460,16
5862080,21
5862712,29
5863336,32
5863960,20
5864588,15
5865208,13
5865836,15
5866464,24
5867088,28
5867720,36
5868336,30
5868968,23
5869596,24
5870216,19
5870848,21
5871472,48
5872104,66
5872736,81
5873352,75
5873984,49
5874608,15
5875232,19
5875860,17
5876480,20
5877112,19
5877736,19
5878364,18
5878996,25
5879620,37
5880252,43
5880884,44
5881504,37
5882136,24
5882760,18
5883392,19
5884024,14
5884640,11
5885272,11
5885896,25
5886524,51
5887156,40
5887776,32
5888412,28
5889040,25
5889656,18
5890288,13
5890912,17
5891540,18
5892172,22
5892792,40
5893424,47
5894048,43
5894672,56
5895304,46
5895920,13
5896552,26
5897176,18
5897800,41
5898432,36
5899048,21
5899676,16
5900308,14
5900928,17
5901556,47
5902180,51
5902812,31
5903440,24
5904064,20
5904692,13
5905316,10
5905940,13
5906572,18
5907192,16
5907824,16
5908448,15
5909072,14
5909704,16
5910320,15
5910952,19
5911580,28
5912200,49
5912832,68
5913456,77
5914088,47
5914716,23
5915336,15
5915968,20
5916592,21
5917216,12
5917848,12
5918464,15
5919096,27
5919720,36
5920344,18
5920972,20
5921592,24
5922220,17
5922852,18
5923472,13
5924100,39
5924724,63
5925356,37
5925988,15
5926608,11
5927236,13
5927860,19
5928484,15
5929116,14
5929736,19
5930364,32
5930992,34
5931616,17
5932244,15
5932872,19
5933500,16
5934132,12
5934752,24
5935384,28
5936008,27
5936636,12
5937268,18
5937888,24
5938520,11
5939144,19
5939768,30
5940400,42
5941016,47
5941648,23
5942276,14
5942896,20
5943524,20
5944148,21
5944780,41
5945412,43
5946032,32
5946660,41
5947288,53
5947912,52
5948540,20
5949160,14
5949792,16
5950416,16
5951040,13
5951668,23
5952288,18
5952920,13
5953548,14
5954168,15
5954796,16
5955424,17
5956052,21
5956684,28
5957304,18
5957932,16
5958560,34
5959184,53
5959816,31
5960432,13
5961060,21
5961684,36
5962308,11
5962940,20
5963560,11
5964188,19
5964820,36
5965440,42
5966068,30
5966692,19
5967324,17
5967956,12
5968576,14
5969208,31
5969832,38
5970456,36
5971088,29
5971704,23
5972336,20
5972960,17
5973584,13
5974216,28
5974836,40
5975464,34
5976096,33
5976716,38
5977348,21
5977972,10
5978604,11
5979236,18
5979856,23
5980488,29
5981112,39
5981736,36
5982368,17
5982984,15
5983616,15
5984240,12
5984864,15
5985492,9
5986068,10
5986704,17
5987332,10
5987952,11
5988584,29
5989208,31
5989840,58
5990468,53
5991088,19
5991716,20
5992344,17
5992968,19
5993596,16
5994216,14
5994848,11
5995472,17
5996096,10
5996728,21
5997344,40
5997976,48
5998608,47
5999228,40
5999856,40
6000484,37
6001116,13
6001744,17
6002364,26
6002992,22
6003620,21
6004244,27
6004872,40
6005496,58
6006128,45
6006752,21
6007376,15
6008008,20
6008624,25
6009256,22
6009884,13
6010504,10
6011136,10
6011760,20
6012392,40
6013024,55
6013640,70
6014272,83
6014900,53
6015524,45
6016156,38
6016776,25
6017404,10
6018032,14
6018656,16
6019284,51
6019908,70
6020540,77
6021172,74
6021792,44
6022420,12
6023044,13
6023676,15
6024308,18
6024928,17
6025560,11
6026184,11
6026808,13
6027436,20
6028056,31
6028688,32
6029320,26
6029936,19
6030568,32
6031192,27
6031824,16
6032456,13
6033072,14
6033704,13
6034328,10
6034952,10
6035584,10
6036204,12
6036832,15
6037456,20
6038084,11
6038716,34
6039336,39
6039968,40
6040600,18
6041224,25
6041856,27
6042480,13
6043108,10
6043740,18
6044360,13
6044992,21
6045616,11
6046240,19
6046872,49
6047488,68
6048120,63
6048744,54
6049368,17
6049996,32
6050616,18
6051248,13
6051876,12
6052496,14
6053128,13
6053752,11
6054384,11
6055016,11
6055636,10
6056268,21
6056892,39
6057516,38
6058148,22
6058768,18
6059400,14
6060024,30
6060648,43
6061280,50
6061904,44
6062536,38
6063168,39
6063784,26
6064416,19
6065040,14
6065668,24
6066300,32
6066920,35
6067552,17
6068176,14
6068800,20
6069428,15
6070048,20
6070680,39
6071308,39
6071928,33
6072560,28
6073188,14
6073816,14
6074448,13
6075068,16
6075700,10
6076324,10
6076952,23
6077580,30
6078200,27
6078832,17
6079460,40
6080084,66
6080716,74
6081336,57
6081964,58
6082596,20
6083216,25
6083844,46
6084468,42
6085100,46
6085732,55
6086352,41
6086984,34
6087608,34
6088232,13
6088864,10
6089480,14
6090112,17
6090736,21
6091360,20
6091992,19
6092616,20
6093248,15
6093876,10
6094496,18
6095124,32
6095752,40
6096384,57
6097012,72
6097632,68
6098264,60
6098888,46
6099512,19
6100144,16
6100760,15
6101392,11
6102024,18
6102644,19
6103272,24
6103900,25
6104532,23
6105160,12
6105784,29
6106412,28
6107040,22
6107664,21
6108296,15
6108912,15
6109544,45
6110168,40
6110792,24
6111424,11
6112044,19
6112672,24
6113304,16
6113924,29
6114552,50
6115180,47
6115812,35
6116444,20
6117064,11
6117696,18
6118320,18
6118944,30
6119576,38
6120200,29
6120832,19
6121456,16
6122080,27
6122712,31
6123336,22
6123968,19
6124600,13
6125220,21
6125848,27
6126476,31
6127108,34
6127740,37
6128360,23
6128992,18
6129620,31
6130244,31
6130876,37
6131500,39
6132128,30
6132760,17
6133384,14
6134016,10
6134644,16
6135276,22
6135908,10
6136532,10
6137160,11
6137788,10
6138412,13
6139044,20
6139664,13
6140300,21
6140924,39
6141552,37
6142188,17
6142812,27
6143444,19
6144080,13
6144692,36
6145324,45
6145944,18
6146568,12
6147200,15
6147816,21
6148444,13
6149068,15
6149692,27
6150324,24
6150944,14
6151572,12
6152204,21
6152824,34
6153452,40
6154076,40
6154708,19
6155340,10
6155960,14
6156592,19
6157216,24
6157840,20
6158468,18
6159088,18
6159720,18
6160344,19
6160968,39
6161596,52
6162216,38
6162848,48
6163476,51
6164096,41
6164724,17
6165348,21
6165980,21
6166608,14
6167232,24
6167860,28
6168488,26
6169108,23
6169740,22
6170360,20
6170988,15
6171612,15
6172236,17
6172868,20
6173488,16
6174116,14
6174748,16
6175368,22
6175996,13
6176624,11
6177252,10
6177884,20
6178504,38
6179136,60
6179760,68
6180384,72
6181016,70
6181632,34
6182264,36
6182888,38
6183512,32
6184144,47
6184760,39
6185392,13
6186020,16
6186640,15
6187268,19
6187896,26
6188524,37
6189156,57
6189776,45
6190408,21
6191032,14
6191656,16
6192288,24
6192904,32
6193536,20
6194160,15
6194784,21
6195416,14
6196040,37
6196668,48
6197300,39
6197920,37
6198552,30
6199176,16
6199808,14
6200436,14
6201056,20
6201688,11
6202308,25
6202936,25
6203564,23
6204184,22
6204816,13
6205440,30
6206064,46
6206696,42
6207320,19
6207952,13
6208584,18
6209200,32
6209832,36
6210456,22
6211080,11
6211712,11
6212328,19
6212960,42
6213584,49
6214208,48
6214840,35
6215460,22
6216088,19
6216720,18
6217340,10
6217972,11
6218596,18
6219228,33
6219860,31
6220480,28
6221112,24
6221736,30
6222360,29
6222992,28
6223612,19
6224240,17
6224868,30
6225492,38
6226124,28
6226744,30
6227372,20
6228004,10
6228624,11
6229252,14
6229880,22
6230508,37
6231140,40
6231760,36
6232392,20
6233016,13
6233640,16
6234268,36
6234888,41
6235516,27
6236144,14
6236768,12
6237400,13
6238024,21
6238656,14
6239288,34
6239904,24
6240536,14
6241164,25
6241792,30
6242420,11
6243040,24
6243672,14
6244296,11
6244920,11
6245552,30
6246168,47
6246800,51
6247428,50
6248048,23
6248676,18
6249300,17
6249932,14
6250560,12
6251180,31
6251808,41
6252432,54
6253064,53
6253692,59
6254312,12
6254944,41
6255568,108
6256244,108
6256920,56
6257544,40
6258176,47
6258804,20
6259424,13
6260052,13
6260680,19
6261304,25
6261932,31
6262552,38
