tempo_arduino_micro_s,valor_ADC
500,59
1004,76
1500,93
2000,78
2500,65
3000,50
3500,27
4000,14
4500,30
5000,36
5500,50
6000,60
6500,54
7000,42
7500,38
8000,30
8500,30
9000,48
9500,60
10000,56
10508,45
11028,32
11556,24
12076,18
12604,14
13124,13
13648,25
14172,32
14700,34
15220,32
15748,34
16268,45
16796,63
17316,52
17836,22
18356,17
18876,26
19396,37
19916,29
20436,27
20956,22
21476,11
21996,26
22516,36
23036,35
23564,33
24084,26
24612,30
25132,33
25660,34
26180,28
26708,23
27228,25
27756,23
28276,17
28804,15
29324,14
29852,13
30372,29
30900,41
31420,48
31948,45
32468,38
32996,47
33516,55
34044,75
34564,85
35092,71
35612,36
36140,16
36660,15
37188,13
37708,33
38236,68
38760,69
39284,46
39804,21
40332,13
40852,23
41372,25
41892,13
42412,10
42932,10
43452,12
43972,12
44492,13
45012,15
45532,13
46052,17
46572,23
47092,34
47612,37
48140,32
48660,36
49188,45
49708,47
50236,46
50756,48
51284,57
51804,63
52332,46
52852,25
53380,15
53900,18
54428,17
54948,10
55476,13
55996,32
56524,73
57044,84
57572,82
58096,64
58620,42
59140,33
59668,39
60188,43
60716,47
61240,55
61764,65
62284,31
62812,12
63332,23
63860,19
64384,39
64908,71
65428,84
65948,80
66468,83
66988,91
67508,95
68028,86
68548,72
69068,45
69588,22
70108,14
70628,13
71148,12
71668,22
72192,46
72716,61
73236,63
73764,62
74284,45
74812,31
75336,29
75860,25
76380,17
76908,14
77428,12
77956,15
78480,16
79004,14
79528,14
80052,22
80572,16
81100,12
81620,13
82148,19
82668,31
83196,58
83720,68
84244,66
84764,55
85292,41
85812,39
86340,58
86860,65
87388,37
87908,11
88436,23
88956,38
89484,43
90004,38
90524,39
91044,43
91564,46
92084,37
92604,29
93124,21
93644,21
94164,21
94684,17
95204,13
95724,16
96248,16
96764,15
97292,13
97812,12
98340,15
98860,36
99388,66
99908,92
100436,108
101052,116
101680,90
102252,52
102832,25
103400,13
103968,39
104544,72
105112,81
105696,73
106264,68
106840,42
107408,17
107984,11
108568,17
109136,49
109720,119
110340,134
110968,88
111540,56
112116,24
112696,17
113264,31
113840,27
114408,16
114992,21
115560,51
116144,90
116712,113
117340,117
117968,90
118536,56
119120,44
119688,33
120272,27
120848,27
121416,11
122000,15
122568,13
123152,10
123720,15
124304,14
124872,15
125448,32
126032,61
126604,82
127184,77
127756,30
128336,18
128912,40
129488,45
130064,47
130632,33
131208,19
131776,11
132352,18
132920,14
133504,45
134072,64
134648,70
135232,68
135800,55
136384,35
136952,19
137536,13
138104,40
138688,59
139256,72
139832,67
140416,46
140988,26
141568,13
142136,13
142720,13
143288,16
143868,14
144448,15
145016,21
145592,24
146164,26
146744,25
147312,15
147896,10
148464,19
149044,36
149624,49
150192,47
150776,47
151348,50
151928,34
152500,18
153076,14
153656,13
154224,15
154800,14
155368,10
155952,13
156524,16
157104,18
157676,12
158252,10
158832,11
159400,10
159984,30
160556,76
161136,112
161756,87
162328,58
162904,45
163472,50
164056,33
164624,17
165200,11
165768,25
166344,42
166920,34
167488,61
168064,79
168632,75
169208,44
169776,23
170352,13
170920,12
171496,17
172080,26
172648,39
173232,34
173800,17
174384,15
174952,18
175536,11
176104,48
176680,62
177264,54
177832,35
178416,28
178984,29
179568,12
180136,28
180704,18
181288,15
181856,14
182440,38
183008,49
183592,57
184164,90
184744,94
185312,67
185888,36
186472,16
187040,14
187624,26
188192,34
188776,34
189348,37
189924,27
190504,17
191076,15
191656,15
192228,14
192808,10
193376,16
193952,15
194520,16
195100,15
195680,14
196248,11
196832,11
197400,12
197984,10
198556,11
199128,14
199712,29
200280,42
200864,56
201432,58
202016,45
202584,35
203168,18
203740,15
204316,11
204896,13
205464,11
206040,36
206608,69
207192,67
207760,39
208336,33
208920,46
209488,49
210064,29
210632,13
211208,31
211776,47
212352,23
212920,11
213496,10
214080,20
214648,19
215232,19
215800,23
216384,38
216952,41
217536,47
218108,54
218680,43
219264,27
219832,13
220416,17
220984,14
221568,10
222140,10
222716,41
223296,70
223868,50
224448,18
225016,10
225600,9
226116,22
226696,70
227264,68
227840,32
228424,27
228992,24
229576,11
230148,32
230728,57
231296,75
231880,70
232456,62
233028,72
233608,72
234176,78
234760,67
235332,42
235912,20
236484,14
237056,14
237640,15
238208,17
238792,15
239364,15
239944,12
240516,15
241096,12
241672,16
242240,30
242824,39
243396,74
243976,72
244548,60
245128,65
245696,20
246276,50
246856,71
247424,44
248008,35
248576,23
249160,10
249732,11
250312,10
250888,27
251456,25
252040,14
252608,16
253192,32
253764,37
254344,43
254916,21
255492,19
256072,37
256644,46
257224,74
257792,64
258368,41
258936,39
259520,45
260088,51
260656,41
261232,22
261800,27
262384,59
262956,61
263536,35
264108,11
264680,17
265264,50
265836,75
266416,83
266984,94
267560,108
268180,82
268752,21
269328,17
269896,15
270480,14
271048,16
271632,46
272204,59
272784,58
273356,59
273932,62
274512,59
275084,52
275664,29
276236,19
276816,13
277384,24
277968,36
278544,35
279116,46
279696,67
280268,71
280848,69
281416,62
282000,49
282576,48
283152,58
283736,66
284308,81
284888,73
285456,56
286040,35
286612,24
287188,14
287768,33
288340,79
288920,103
289540,113
290168,85
290740,57
291312,40
291896,39
292464,34
293048,25
293620,17
294200,15
294772,27
295352,32
295924,13
296500,11
297080,26
297648,37
298232,37
298804,38
299384,61
299956,92
300532,69
301112,69
301684,68
302264,38
302836,24
303416,20
303988,15
304568,35
305148,50
305724,67
306304,72
306876,58
307456,38
308032,24
308616,23
309184,13
309764,15
310344,19
310916,25
311496,27
312068,18
312648,16
313220,39
313800,39
314384,50
314956,59
315536,62
316108,70
316688,66
317268,46
317848,40
318428,34
319004,15
319584,20
320160,14
320736,21
321304,19
321888,13
322456,26
323032,41
323616,38
324184,32
324768,31
325340,40
325920,36
326492,38
327072,53
327644,38
328220,21
328800,14
329368,17
329944,23
330512,26
331096,15
331668,10
332240,12
332824,19
333392,57
333968,93
334536,96
335120,68
335688,37
336272,18
336840,22
337416,15
337992,27
338560,47
339144,56
339716,49
340296,47
340864,46
341448,32
342024,12
342596,52
343176,110
343800,109
344428,82
344996,41
345568,23
346152,22
346724,59
347304,71
347876,70
348456,24
349024,11
349608,25
350176,56
350756,68
351336,63
351908,50
352488,32
353064,21
353648,13
354216,27
354796,26
355376,25
355948,19
356528,10
357096,13
357680,19
358252,39
358832,41
359408,35
359984,27
360568,15
361136,14
361720,13
362288,18
362872,27
363444,25
364020,20
364600,11
365172,10
365752,11
366324,11
366904,15
367476,11
368056,25
368624,32
369204,30
369784,34
370356,59
370936,59
371508,15
372088,21
372656,35
373236,27
373816,12
374384,16
374968,38
375540,47
376120,15
376692,13
377272,19
377844,24
378420,19
379000,22
379572,59
380152,71
380724,77
381304,71
381884,88
382460,99
383040,74
383612,14
384192,50
384764,45
385344,31
385912,39
386496,65
387068,64
387644,33
388224,10
388796,12
389376,10
389952,11
390536,15
391108,25
391684,19
392264,18
392836,29
393416,46
393988,39
394568,31
395140,17
395720,16
396296,21
396868,20
397448,28
398020,51
398600,69
399180,64
399760,66
400340,70
400916,82
401496,75
402068,35
402648,13
403216,14
403800,16
404372,34
404948,43
405528,55
406100,60
406680,49
407252,33
407832,21
408404,21
408984,19
409556,22
410132,25
410712,26
411280,19
411864,23
412432,25
413016,15
413584,26
414160,56
414744,58
415312,38
415896,42
416468,57
417048,71
417616,88
418200,84
418768,49
419344,21
419928,15
420496,22
421080,31
421648,27
422232,12
422804,15
423376,10
423960,24
424532,11
425112,22
425680,21
426264,18
426832,13
427416,17
427988,33
428564,40
429144,47
429716,44
430296,25
430864,13
431448,17
432016,27
432592,44
433176,71
433748,83
434328,75
434900,50
435480,20
436048,14
436632,29
437204,50
437776,51
438360,43
438932,39
439512,37
440084,32
440664,29
441232,27
441812,19
442392,11
442964,11
443544,14
444116,14
444696,19
445268,28
445848,21
446420,11
446996,11
447576,13
448148,10
448728,21
449296,40
449880,51
450452,54
451028,57
451608,63
452176,67
452760,60
453332,40
453912,17
454484,21
455064,48
455636,68
456212,64
456792,59
457364,36
457944,29
458516,35
459096,29
459668,18
460244,11
460824,13
461392,14
461968,18
462540,21
463120,23
463692,50
464272,61
464844,58
465416,43
466000,47
466568,59
467152,68
467724,74
468304,64
468876,48
469456,33
470032,50
470604,63
471184,39
471756,16
472336,59
472908,82
473488,81
474060,59
474636,53
475216,72
475788,89
476368,100
477000,80
477576,35
478148,14
478724,14
479304,15
479876,14
480456,15
481028,36
481608,51
482176,35
482760,29
483336,26
483908,37
484488,59
485056,85
485640,108
486264,99
486840,73
487408,24
487984,32
488568,66
489140,82
489720,86
490292,51
490872,31
491444,38
492020,54
492600,58
493172,58
493752,33
494324,15
494904,13
495476,14
496056,13
496624,17
497204,32
497784,39
498356,43
498936,52
499508,71
500088,73
500660,74
501236,68
501816,41
502388,24
502968,13
503540,14
504120,12
504692,11
505272,14
505844,10
506420,21
507000,19
507572,11
508152,27
508732,67
509312,75
509892,62
510468,49
511048,47
511620,42
512204,48
512772,39
513352,15
513920,30
514504,51
515080,52
515648,58
516232,79
516804,89
517384,95
517952,90
518536,81
519104,66
519684,46
520264,20
520832,13
521416,32
521988,39
522568,28
523136,25
523720,37
524296,49
524868,58
525448,46
526016,36
526600,26
527168,17
527752,15
528324,15
528896,15
529480,13
530052,16
530632,12
531204,17
531784,12
532356,38
532936,69
533520,90
534092,90
534672,77
535244,46
535824,31
536396,20
536976,14
537544,18
538124,25
538704,27
539276,22
539856,15
540428,18
541008,21
541580,30
542160,37
542736,41
543304,40
543888,32
544460,28
545040,28
545608,30
546192,11
546764,32
547340,50
547920,62
548492,70
549072,87
549644,105
550276,92
550848,37
551420,49
552000,91
552568,70
553152,36
553724,31
554304,29
554876,33
555456,19
556040,11
556612,10
557192,10
557764,12
558344,21
558916,30
559496,35
560076,27
560648,16
561232,15
561804,14
562384,15
562956,26
563536,25
564112,22
564692,20
565272,40
565844,70
566424,93
566996,97
567576,114
568208,120
568836,95
569412,70
569984,37
570560,17
571132,21
571712,58
572292,96
572872,100
573508,82
574076,63
574656,47
575228,46
575808,52
576380,51
576960,33
577528,20
578108,15
578688,16
579256,10
579840,21
580408,24
580992,24
581564,34
582140,30
582720,42
583292,66
583872,75
584444,53
585024,31
585596,44
586176,42
586760,42
587332,35
587912,20
588484,11
589064,12
589636,17
590216,31
590788,61
591364,97
591944,107
592568,88
593144,61
593716,32
594296,17
594876,15
595452,14
596032,12
596604,14
597184,12
597756,30
598340,51
598916,74
599496,111
600132,150
600752,161
601380,131
602004,84
602576,42
603152,13
603724,50
604304,115
604928,165
605556,127
606180,85
606752,70
607328,62
607900,47
608484,35
609060,35
609640,38
610220,22
610796,16
611376,24
611948,29
612528,47
613100,64
613684,77
614260,67
614844,51
615416,40
615996,52
616576,59
617148,49
617728,41
618300,35
618880,21
619452,13
620028,14
620608,23
621180,16
621760,10
622332,14
622912,13
623484,17
624064,20
624648,11
625216,16
625800,35
626372,77
626952,107
627584,88
628160,43
628732,16
629308,12
629888,15
630460,21
631040,32
631612,44
632192,38
632772,48
633348,77
633932,105
634556,109
635184,82
635756,76
636340,59
636916,40
637492,21
638072,15
638648,11
639224,14
639804,27
640388,61
640960,101
641588,128
642216,134
642840,135
643468,103
644088,58
644656,27
645240,14
645808,29
646392,53
646964,67
647544,69
648116,66
648692,73
649272,85
649844,86
650424,83
650992,76
651576,48
652148,28
652728,19
653308,14
653884,15
654464,19
655036,32
655616,35
656192,27
656776,17
657344,18
657920,16
658504,29
659072,35
659656,29
660224,24
660808,22
661376,14
661952,20
662524,25
663096,13
663680,11
664248,11
664832,18
665400,19
665984,30
666552,34
667128,34
667712,35
668284,32
668864,22
669432,18
670016,14
670588,14
671168,25
671740,32
672316,22
672896,16
673464,34
674048,23
674616,10
675200,29
675768,32
676348,24
676928,21
677496,18
678080,14
678648,15
679232,25
679804,34
680384,39
680952,32
681532,28
682112,29
682684,45
683264,46
683836,37
684416,13
684988,14
685560,24
686144,33
686712,43
687296,37
687868,15
688448,13
689016,29
689600,39
690168,58
690748,67
691328,79
691900,90
692480,79
693048,64
693632,39
694204,19
694780,13
695360,20
695932,34
696512,49
697084,68
697664,79
698232,77
698816,51
699400,36
699972,45
700552,55
701124,52
701704,29
702276,17
702856,16
703436,21
704012,30
704592,48
705164,68
705744,75
706316,54
706896,32
707476,25
708052,19
708632,13
709204,11
709784,17
710356,18
710936,20
711516,13
712096,18
712676,10
713252,17
713832,28
714408,15
714984,16
715556,22
716136,12
716716,15
717292,27
717872,49
718444,40
719024,38
719596,38
720176,35
720752,36
721336,38
721908,30
722484,14
723064,13
723636,26
724216,39
724788,42
725368,37
725940,47
726516,50
727096,27
727668,17
728248,17
728820,45
729400,78
729972,77
730552,64
731124,60
731700,58
732280,41
732852,26
733432,24
734004,31
734584,28
735164,30
735740,33
736324,18
736892,15
737472,35
738044,60
738624,57
739196,39
739776,26
740360,22
740932,36
741512,42
742084,46
742664,49
743232,44
743816,31
744388,22
744964,15
745544,22
746116,45
746696,59
747268,52
747848,51
748428,57
749008,61
749592,74
750164,74
750744,60
751316,48
751896,18
752476,14
753056,18
753636,24
754212,14
754792,16
755364,40
755944,55
756516,57
757096,62
757676,77
758252,90
758832,82
759404,70
759984,52
760560,29
761136,13
761708,28
762288,37
762860,48
763436,61
764016,59
764592,61
765168,56
765748,53
766328,64
766908,66
767484,55
768068,41
768636,26
769216,15
769788,14
770368,23
770940,28
771520,34
772092,38
772668,43
773248,46
773820,46
774400,36
774968,27
775552,17
776124,20
776700,23
777280,13
777852,22
778432,23
779004,24
779584,26
780156,35
780736,36
781320,16
781892,18
782472,14
783044,30
783624,37
784204,35
784784,20
785356,13
785932,16
786512,30
787084,26
787664,11
788244,15
788824,18
789404,19
789980,27
790560,32
791132,29
791712,17
792288,10
792864,14
793444,25
794024,34
794604,39
795180,27
795760,16
796336,15
796912,14
797492,10
798072,13
798652,13
799228,13
799808,25
800384,36
800960,51
801528,50
802112,23
802684,15
803264,18
803836,11
804412,11
804992,13
805564,16
806144,14
806716,10
807296,11
807868,19
808444,73
809024,98
809596,79
810176,54
810748,37
811328,27
811908,16
812488,12
813072,22
813644,40
814224,56
814796,60
815376,53
815956,69
816540,84
817116,95
817692,73
818272,33
818844,13
819424,17
820000,14
820576,17
821144,15
821712,11
822296,21
822864,14
823448,12
824016,18
824600,54
825168,97
825752,98
826320,60
826896,27
827480,15
828048,19
828632,29
829204,45
829784,45
830352,27
830932,14
831512,10
832084,20
832664,47
833232,58
833808,75
834376,75
834960,61
835528,52
836104,54
836688,54
837260,25
837840,15
838408,30
838992,26
839564,49
840144,79
840720,87
841288,67
841872,34
842444,18
843024,19
843596,22
844176,31
844748,28
845324,15
845904,14
846476,12
847056,11
847628,13
848208,12
848776,14
849360,41
849936,67
850504,68
851088,42
851660,28
852240,36
852808,29
853392,17
853964,14
854540,28
855120,35
855692,32
856272,20
856844,11
857424,13
857996,11
858576,12
859152,15
859724,13
860304,15
860876,14
861456,15
862024,14
862608,20
863180,32
863756,36
864336,28
864908,22
865488,11
866056,27
866640,48
867208,62
867792,49
868368,32
868940,28
869520,31
870092,28
870672,14
871252,20
871832,40
872404,51
872976,57
873560,50
874132,44
874712,29
875284,14
875864,12
876436,15
877012,14
877592,13
878164,24
878744,34
879316,62
879896,59
880476,29
881056,11
881624,37
882200,58
882784,87
883356,100
883988,62
884560,24
885136,15
885708,13
886284,13
886864,14
887436,12
888016,9
888536,12
889112,11
889684,20
890264,32
890836,15
891412,52
891992,70
892568,41
893144,22
893724,15
894304,14
894884,13
895460,20
896040,22
896612,22
897192,18
897764,10
898344,13
898916,11
899496,29
900068,37
900644,37
901224,19
901796,15
902376,17
902948,14
903528,13
904100,10
904672,11
905256,14
905828,11
906408,11
906976,12
907560,15
908132,10
908712,21
909292,33
909868,54
910448,70
911020,51
911600,51
912180,50
912760,25
913332,12
913908,37
914488,52
915060,82
915640,117
916264,125
916896,88
917464,65
918044,45
918624,41
919196,43
919776,34
920356,14
920936,27
921516,44
922092,57
922672,67
923244,83
923824,86
924396,65
924976,40
925548,18
926128,12
926700,11
927276,19
927856,30
928428,38
929008,46
929580,52
930160,37
930740,20
931316,12
931896,10
932468,17
933048,22
933620,44
934200,59
934780,44
935360,34
935932,33
936508,30
937088,18
937660,11
938240,31
938812,55
939392,63
939972,64
940548,52
941128,48
941700,39
942280,23
942852,44
943432,62
944004,36
944584,15
945160,33
945732,57
946312,54
946888,48
947464,39
948044,42
948624,37
949196,42
949772,67
950352,94
950924,87
951504,58
952084,29
952664,18
953244,14
953820,24
954400,25
954972,30
955552,36
956128,55
956708,67
957284,65
957864,48
958444,20
959020,10
959604,19
960176,19
960752,13
961324,13
961904,18
962476,49
963052,42
963632,13
964204,19
964784,23
965356,37
965936,74
966516,91
967096,109
967724,106
968344,76
968920,57
969492,43
970072,36
970652,12
971228,33
971808,50
972380,53
972960,61
973532,88
974112,84
974684,80
975264,67
975836,39
976412,20
976992,14
977564,16
978144,18
978724,26
979304,33
979876,34
980452,21
981032,15
981604,20
982184,29
982756,37
983336,46
983916,51
984496,31
985072,19
985652,15
986232,16
986804,24
987384,33
987956,21
988536,25
989116,40
989692,28
990272,11
990844,10
991424,24
991996,40
992580,40
993156,35
993736,30
994320,14
994892,14
995472,11
996044,39
996624,57
997196,27
997776,18
998356,35
998932,44
999512,48
1000084,53
1000708,48
1001332,44
1001960,33
1002588,16
1003208,14
1003836,12
1004460,14
1005080,15
1005712,14
1006328,13
1006956,10
1007580,18
1008204,30
1008832,30
1009456,29
1010084,36
1010712,38
1011336,27
1011964,14
1012588,23
1013216,56
1013848,71
1014464,64
1015096,71
1015716,78
1016344,79
1016972,65
1017592,32
1018224,19
1018848,15
1019468,16
1020100,30
1020720,47
1021348,54
1021980,44
1022600,24
1023228,11
1023856,12
1024484,11
1025112,11
1025728,13
1026356,17
1026976,14
1027600,14
1028228,14
1028844,30
1029472,20
1030096,15
1030716,11
1031348,10
1031968,23
1032596,58
1033224,70
1033840,54
1034468,33
1035092,29
1035720,23
1036348,21
1036968,13
1037592,28
1038216,47
1038844,32
1039472,18
1040096,12
1040724,10
1041344,17
1041964,15
1042592,12
1043212,22
1043840,20
1044464,13
1045088,20
1045716,33
1046336,38
1046968,37
1047596,12
1048216,40
1048844,23
1049468,28
1050096,61
1050724,74
1051344,51
1051972,30
1052596,15
1053216,13
1053844,20
1054464,51
1055092,55
1055716,40
1056336,29
1056964,26
1057580,25
1058212,29
1058840,19
1059456,21
1060084,17
1060708,14
1061336,14
1061964,23
1062584,38
1063212,42
1063832,34
1064456,18
1065088,16
1065704,39
1066332,55
1066952,59
1067576,43
1068204,16
1068820,15
1069448,16
1070072,15
1070696,12
1071324,25
1071948,29
1072580,33
1073208,33
1073824,24
1074452,13
1075076,13
1075708,23
1076336,38
1076952,37
1077580,29
1078204,15
1078828,29
1079456,37
1080072,36
1080700,41
1081324,44
1081948,37
1082576,41
1083192,69
1083824,79
1084452,54
1085072,20
1085700,18
1086324,23
1086952,30
1087580,42
1088200,68
1088828,75
1089448,51
1090072,43
1090700,44
1091320,24
1091948,20
1092572,33
1093192,49
1093824,60
1094440,56
1095068,43
1095696,18
1096320,13
1096948,26
1097572,11
1098200,37
1098828,30
1099448,15
1100076,47
1100700,46
1101324,25
1101956,16
1102576,18
1103204,16
1103828,12
1104452,10
1105084,14
1105704,16
1106332,10
1106964,10
1107584,11
1108212,30
1108836,41
1109464,31
1110092,18
1110712,15
1111340,15
1111964,11
1112588,13
1113220,12
1113840,16
1114468,19
1115092,29
1115716,40
1116348,56
1116968,66
1117596,68
1118228,54
1118848,48
1119476,25
1120100,13
1120732,26
1121360,31
1121976,32
1122604,25
1123228,14
1123852,13
1124480,24
1125096,25
1125728,38
1126352,40
1126976,20
1127604,18
1128224,18
1128852,12
1129480,22
1130096,16
1130724,10
1131348,19
1131976,12
1132608,45
1133224,64
1133856,64
1134480,44
1135108,18
1135736,15
1136360,25
1136988,23
1137612,11
1138236,15
1138864,20
1139484,12
1140112,13
1140740,17
1141360,17
1141988,11
1142612,39
1143244,44
1143872,15
1144492,59
1145120,36
1145744,17
1146372,26
1147004,33
1147624,20
1148252,11
1148876,34
1149496,37
1150128,71
1150744,83
1151372,44
1151996,22
1152624,15
1153252,14
1153876,10
1154504,23
1155132,41
1155752,46
1156380,51
1157004,49
1157632,34
1158260,31
1158880,24
1159508,23
1160132,27
1160756,29
1161384,27
1162000,12
1162628,29
1163252,49
1163876,60
1164504,61
1165128,55
1165756,59
1166384,54
1167008,54
1167636,43
1168260,21
1168888,17
1169516,22
1170136,19
1170764,10
1171388,22
1172012,49
1172640,59
1173260,56
1173888,66
1174512,68
1175136,44
1175764,18
1176388,13
1177016,13
1177648,18
1178264,20
1178892,33
1179516,24
1180144,10
1180776,19
1181392,32
1182020,37
1182644,54
1183268,65
1183900,84
1184520,71
1185148,46
1185772,31
1186396,26
1187024,13
1187648,42
1188276,56
1188908,56
1189528,43
1190156,22
1190780,17
1191412,37
1192040,36
1192656,19
1193288,19
1193912,15
1194536,23
1195164,26
1195784,22
1196412,18
1197036,19
1197664,16
1198292,18
1198916,25
1199548,37
1200176,80
1200800,109
1201480,103
1202148,92
1202768,74
1203396,42
1204016,19
1204644,80
1205272,118
1205944,129
1206616,111
1207292,89
1207920,73
1208552,24
1209172,17
1209804,42
1210432,56
1211052,52
1211680,37
1212304,13
1212932,16
1213564,22
1214184,16
1214812,14
1215436,51
1216064,73
1216692,74
1217312,59
1217940,21
1218568,24
1219192,29
1219820,22
1220444,19
1221076,26
1221704,32
1222328,27
1222956,22
1223584,17
1224208,10
1224836,11
1225456,18
1226084,20
1226712,14
1227336,15
1227964,21
1228584,11
1229216,11
1229844,14
1230464,25
1231092,32
1231716,46
1232344,68
1232972,66
1233592,58
1234220,48
1234844,25
1235468,17
1236096,14
1236712,26
1237340,21
1237964,22
1238588,40
1239220,50
1239840,27
1240468,13
1241096,11
1241716,24
1242344,35
1242968,31
1243596,14
1244224,14
1244840,29
1245472,21
1246096,15
1246724,21
1247352,12
1247972,23
1248600,31
1249224,40
1249848,47
1250476,55
1251096,72
1251724,74
1252348,66
1252976,55
1253604,29
1254228,11
1254860,28
1255488,24
1256104,16
1256736,15
1257360,11
1257988,10
1258616,28
1259240,42
1259868,20
1260492,14
1261116,22
1261748,14
1262368,19
1262996,22
1263628,18
1264248,49
1264876,55
1265500,15
1266132,40
1266760,66
1267384,75
1268012,64
1268636,49
1269260,40
1269892,22
1270512,13
1271140,37
1271764,65
1272388,60
1273020,30
1273640,11
1274268,11
1274900,21
1275520,47
1276148,53
1276772,57
1277404,49
1278036,18
1278656,32
1279288,35
1279912,35
1280536,44
1281164,52
1281780,74
1282412,82
1283032,67
1283656,57
1284284,48
1284900,33
1285532,14
1286160,18
1286776,25
1287404,37
1288028,44
1288656,42
1289284,40
1289904,39
1290532,22
1291156,12
1291780,18
1292412,32
1293032,32
1293660,31
1294284,27
1294904,26
1295536,39
1296152,64
1296780,62
1297404,48
1298024,15
1298652,11
1299276,21
1299904,28
1300532,14
1301152,20
1301780,23
1302404,33
1303032,25
1303660,11
1304280,35
1304908,47
1305532,35
1306156,29
1306788,20
1307408,49
1308036,80
1308660,72
1309284,55
1309912,34
1310536,21
1311164,17
1311796,14
1312416,24
1313044,47
1313664,43
1314292,40
1314920,50
1315536,71
1316164,57
1316788,21
1317408,22
1318036,41
1318656,55
1319284,49
1319904,28
1320528,11
1321156,28
1321776,50
1322404,52
1323032,32
1323648,20
1324276,22
1324900,14
1325528,12
1326156,12
1326776,15
1327404,17
1328028,20
1328648,12
1329276,10
1329896,13
1330524,15
1331148,16
1331772,25
1332400,29
1333016,39
1333644,40
1334268,19
1334888,13
1335516,14
1336140,13
1336768,14
1337400,41
1338016,41
1338644,31
1339268,18
1339896,13
1340524,24
1341144,34
1341772,36
1342396,42
1343016,17
1343648,33
1344264,42
1344892,42
1345512,55
1346136,56
1346764,48
1347384,31
1348012,11
1348640,20
1349256,16
1349884,44
1350508,54
1351136,51
1351764,43
1352384,39
1353012,34
1353632,29
1354256,13
1354884,26
1355504,51
1356132,45
1356756,37
1357380,33
1358008,35
1358624,59
1359256,88
1359884,56
1360504,16
1361132,15
1361752,13
1362384,16
1363012,28
1363632,18
1364260,11
1364880,13
1365508,24
1366136,46
1366760,56
1367388,43
1368012,19
1368632,28
1369260,40
1369880,25
1370508,19
1371132,26
1371760,24
1372388,14
1373012,32
1373640,27
1374272,19
1374888,37
1375516,46
1376140,36
1376768,43
1377400,28
1378016,23
1378644,12
1379268,31
1379888,46
1380516,66
1381136,72
1381764,95
1382388,78
1383012,61
1383640,73
1384264,47
1384892,14
1385524,40
1386144,41
1386772,54
1387396,41
1388028,12
1388656,10
1389272,14
1389904,34
1390528,48
1391148,82
1391780,139
1392452,123
1393128,82
1393756,39
1394376,21
1395004,41
1395628,40
1396252,38
1396880,58
1397496,74
1398124,77
1398748,88
1399372,99
1400000,110
1400676,94
1401300,76
1401932,86
1402552,59
1403180,27
1403804,35
1404428,55
1405060,72
1405680,98
1406308,110
1406992,80
1407608,33
1408240,11
1408860,11
1409488,21
1410116,16
1410736,17
1411364,23
1411988,31
1412612,33
1413244,16
1413864,31
1414492,44
1415112,47
1415736,49
1416368,42
1416984,53
1417612,42
1418236,25
1418860,14
1419488,21
1420112,48
1420740,25
1421372,30
1421992,24
1422620,25
1423244,43
1423876,31
1424504,12
1425128,18
1425756,33
1426380,53
1427004,51
1427636,40
1428256,37
1428884,47
1429516,28
1430136,29
1430764,25
1431388,14
1432020,14
1432648,14
1433272,11
1433904,15
1434524,13
1435148,20
1435776,21
1436400,30
1437028,23
1437652,29
1438276,35
1438904,39
1439520,39
1440152,27
1440780,11
1441400,21
1442028,26
1442648,30
1443280,21
1443908,18
1444528,23
1445156,20
1445776,57
1446404,60
1447032,63
1447652,70
1448280,71
1448904,48
1449524,12
1450156,19
1450776,15
1451404,25
1452028,14
1452656,21
1453284,19
1453908,13
1454540,32
1455168,40
1455784,37
1456416,24
1457036,16
1457668,42
1458296,77
1458916,82
1459544,53
1460168,26
1460788,17
1461420,14
1462040,24
1462668,30
1463292,42
1463920,35
1464548,43
1465172,58
1465804,103
1466484,135
1467156,100
1467832,25
1468464,13
1469080,19
1469708,40
1470332,72
1470964,80
1471592,59
1472216,39
1472844,15
1473468,37
1474092,51
1474720,28
1475344,21
1475972,29
1476596,23
1477216,16
1477848,25
1478468,24
1479100,28
1479728,25
1480344,16
1480976,11
1481596,17
1482228,45
1482856,66
1483480,71
1484108,74
1484732,61
1485356,39
1485988,18
1486608,21
1487236,25
1487860,21
1488484,21
1489112,36
1489736,61
1490364,67
1490992,51
1491616,39
1492244,32
1492868,35
1493496,44
1494128,20
1494744,37
1495372,59
1495996,75
1496620,80
1497252,66
1497872,41
1498500,20
1499124,17
1499748,41
1500376,57
1501000,57
1501632,41
1502260,14
1502880,28
1503508,42
1504132,60
1504764,68
1505392,58
1506016,49
1506644,28
1507268,15
1507892,25
1508520,18
1509144,46
1509772,64
1510396,69
1511024,46
1511656,48
1512280,45
1512908,23
1513540,18
1514160,19
1514788,14
1515416,31
1516040,11
1516668,17
1517288,20
1517916,18
1518540,20
1519164,33
1519796,14
1520416,20
1521044,24
1521676,31
1522296,49
1522924,51
1523552,42
1524180,39
1524808,44
1525432,39
1526064,17
1526684,14
1527308,28
1527940,48
1528560,74
1529188,81
1529812,79
1530436,65
1531068,47
1531688,17
1532316,11
1532948,19
1533568,34
1534200,30
1534824,35
1535456,20
1536084,14
1536700,23
1537328,31
1537952,35
1538576,53
1539204,80
1539820,64
1540452,48
1541076,49
1541700,36
1542328,21
1542944,14
1543576,34
1544204,48
1544824,48
1545452,40
1546076,10
1546704,9
1547284,17
1547908,47
1548536,67
1549160,65
1549792,53
1550420,43
1551040,23
1551668,21
1552292,14
1552916,13
1553548,14
1554168,31
1554796,44
1555420,45
1556044,33
1556676,24
1557296,29
1557924,52
1558552,55
1559176,29
1559804,24
1560428,45
1561060,44
1561688,47
1562304,32
1562932,11
1563556,11
1564180,21
1564808,32
1565432,53
1566060,68
1566684,80
1567308,62
1567940,26
1568560,14
1569188,17
1569820,17
1570440,20
1571068,31
1571692,50
1572324,53
1572952,45
1573572,47
1574200,56
1574824,51
1575448,18
1576076,23
1576696,50
1577324,63
1577948,67
1578572,57
1579204,34
1579824,14
1580452,12
1581084,14
1581704,25
1582332,15
1582960,13
1583588,46
1584220,48
1584840,45
1585468,32
1586092,37
1586716,53
1587348,42
1587968,39
1588596,46
1589220,65
1589844,76
1590476,49
1591096,25
1591724,28
1592356,24
1592976,18
1593604,15
1594228,22
1594860,32
1595492,40
1596112,29
1596744,32
1597368,38
1597992,31
1598624,42
1599240,69
1599872,89
1600496,89
1601116,52
1601748,23
1602368,14
1602996,13
1603624,16
1604248,31
1604876,59
1605500,64
1606128,61
1606756,32
1607376,20
1608004,26
1608624,30
1609248,19
1609876,13
1610496,16
1611124,42
1611748,17
1612372,10
1613000,13
1613624,32
1614252,45
1614880,54
1615496,80
1616128,93
1616748,89
1617380,90
1618008,79
1618624,55
1619256,25
1619876,20
1620500,31
1621128,51
1621752,86
1622380,78
1623004,67
1623628,53
1624260,22
1624880,15
1625508,43
1626140,42
1626760,29
1627388,16
1628012,14
1628644,10
1629272,53
1629892,71
1630520,43
1631144,29
1631768,30
1632400,36
1633016,16
1633644,69
1634268,86
1634892,73
1635524,39
1636144,14
1636772,11
1637404,23
1638024,32
1638656,26
1639276,15
1639904,13
1640532,16
1641148,11
1641776,16
1642396,17
1643020,14
1643648,17
1644264,19
1644892,17
1645512,24
1646132,36
1646764,42
1647380,45
1648008,43
1648632,57
1649252,67
1649884,67
1650504,52
1651132,26
1651760,13
1652380,21
1653012,24
1653632,25
1654260,30
1654892,36
1655512,29
1656140,31
1656764,24
1657384,37
1658012,39
1658632,60
1659260,62
1659884,18
1660504,23
1661132,30
1661752,22
1662380,26
1663008,29
1663632,10
1664260,16
1664884,11
1665508,32
1666140,37
1666760,45
1667388,47
1668008,31
1668628,30
1669256,42
1669876,23
1670508,10
1671128,18
1671752,34
1672380,32
1673000,27
1673628,24
1674256,14
1674872,10
1675500,20
1676124,25
1676752,39
1677380,45
1678000,36
1678628,19
1679252,13
1679876,17
1680508,16
1681124,15
1681752,20
1682376,45
1682996,65
1683628,66
1684248,48
1684872,43
1685496,41
1686120,32
1686748,14
1687368,12
1687996,41
1688628,71
1689248,69
1689876,63
1690500,52
1691128,53
1691756,58
1692376,65
1693004,58
1693624,46
1694248,34
1694876,12
1695496,12
1696124,16
1696744,24
1697368,43
1697996,67
1698616,88
1699244,102
1699924,87
1700540,71
1701172,46
1701792,31
1702416,33
1703044,19
1703664,35
1704292,70
1704916,79
1705540,58
1706168,53
1706784,44
1707412,24
1708044,10
1708664,11
1709292,12
1709916,14
1710544,23
1711176,49
1711792,60
1712420,32
1713044,13
1713668,26
1714300,38
1714920,11
1715548,19
1716172,11
1716796,25
1717424,41
1718048,46
1718676,35
1719308,43
1719928,54
1720560,45
1721180,22
1721808,23
1722440,64
1723056,64
1723684,66
1724308,79
1724932,102
1725616,90
1726232,49
1726860,20
1727484,14
1728112,24
1728740,26
1729360,26
1729992,28
1730620,40
1731240,77
1731868,86
1732488,79
1733120,70
1733748,66
1734368,50
1734996,15
1735620,70
1736244,64
1736876,56
1737496,58
1738124,56
1738748,34
1739376,36
1740004,29
1740628,11
1741260,20
1741888,24
1742504,30
1743132,36
1743756,37
1744388,19
1745016,14
1745632,21
1746260,10
1746884,10
1747504,10
1748136,10
1748752,15
1749380,44
1750004,72
1750628,58
1751260,38
1751884,29
1752512,25
1753140,27
1753760,15
1754388,21
1755012,36
1755644,20
1756272,15
1756888,15
1757520,10
1758144,31
1758768,19
1759396,12
1760016,15
1760644,33
1761268,38
1761892,14
1762520,25
1763144,11
1763772,13
1764400,11
1765024,35
1765652,77
1766276,97
1766904,76
1767532,22
1768152,17
1768780,21
1769404,35
1770028,35
1770656,36
1771272,29
1771904,19
1772524,16
1773148,10
1773780,11
1774400,16
1775032,25
1775660,18
1776280,15
1776908,15
1777532,15
1778164,12
1778792,9
1779360,11
1779988,21
1780612,31
1781244,47
1781872,80
1782488,98
1783120,95
1783740,81
1784364,41
1784996,15
1785616,21
1786244,27
1786868,27
1787492,36
1788120,45
1788744,31
1789376,22
1790004,19
1790624,16
1791256,15
1791880,18
1792512,24
1793140,58
1793760,64
1794388,23
1795012,18
1795636,30
1796264,41
1796880,62
1797508,67
1798132,49
1798756,39
1799384,41
1800008,43
1800636,27
1801264,14
1801888,23
1802516,21
1803140,25
1803768,12
1804396,10
1805016,13
1805644,26
1806264,26
1806888,11
1807516,13
1808136,25
1808764,60
1809388,45
1810008,24
1810636,20
1811256,20
1811884,11
1812512,10
1813128,10
1813760,11
1814380,11
1815012,26
1815640,48
1816264,79
1816892,111
1817568,122
1818236,120
1818912,99
1819536,57
1820164,17
1820792,77
1821412,69
1822040,53
1822664,35
1823288,34
1823920,60
1824536,65
1825164,47
1825788,36
1826416,15
1827044,42
1827668,24
1828296,21
1828928,20
1829544,19
1830172,13
1830796,54
1831428,65
1832056,20
1832680,24
1833308,49
1833932,47
1834556,29
1835188,31
1835808,34
1836436,29
1837068,18
1837688,20
1838316,11
1838940,10
1839572,12
1840204,20
1840824,11
1841452,28
1842076,23
1842700,35
1843332,44
1843948,17
1844580,18
1845200,22
1845824,25
1846452,16
1847068,16
1847700,21
1848328,23
1848944,58
1849572,57
1850196,48
1850828,36
1851456,22
1852072,24
1852704,17
1853328,14
1853956,12
1854588,11
1855208,27
1855836,35
1856460,34
1857084,24
1857712,28
1858336,32
1858964,31
1859592,22
1860216,17
1860844,15
1861468,45
1862096,59
1862728,67
1863344,72
1863972,61
1864596,41
1865220,49
1865852,60
1866472,45
1867100,31
1867724,28
1868348,18
1868976,14
1869600,15
1870228,26
1870856,38
1871480,55
1872108,72
1872732,83
1873364,65
1873992,47
1874608,37
1875240,31
1875860,31
1876484,22
1877116,23
1877736,72
1878368,87
1878992,57
1879616,45
1880244,47
1880864,52
1881492,29
1882124,11
1882744,28
1883372,12
1883996,16
1884628,18
1885260,22
1885880,25
1886508,40
1887132,44
1887756,35
1888388,26
1889008,12
1889636,14
1890260,11
1890884,10
1891512,10
1892132,14
1892760,27
1893388,26
1894008,27
1894636,33
1895260,38
1895892,23
1896520,11
1897136,14
1897768,12
1898392,37
1899016,63
1899644,80
1900264,78
1900892,54
1901516,37
1902140,18
1902772,18
1903392,32
1904024,55
1904652,56
1905272,45
1905900,48
1906524,40
1907156,37
1907788,40
1908408,41
1909036,31
1909664,13
1910288,27
1910916,22
1911536,17
1912168,13
1912792,10
1913416,11
1914048,48
1914664,78
1915296,103
1915976,108
1916652,73
1917280,41
1917904,20
1918528,14
1919160,14
1919776,50
1920412,94
1921040,94
1921656,91
1922284,92
1922908,73
1923536,40
1924164,22
1924784,16
1925412,13
1926036,23
1926660,32
1927292,38
1927912,61
1928540,81
1929164,74
1929788,85
1930416,91
1931032,95
1931664,117
1932344,148
1933020,120
1933696,53
1934312,17
1934940,16
1935568,37
1936188,84
1936816,168
1937496,154
1938164,104
1938840,58
1939468,57
1940088,64
1940716,52
1941340,47
1941972,49
1942600,51
1943224,33
1943852,27
1944480,21
1945100,27
1945732,74
1946352,93
1946980,89
1947604,82
1948228,83
1948856,92
1949472,68
1950100,54
1950732,38
1951352,15
1951980,14
1952608,23
1953236,11
1953868,46
1954488,73
1955116,51
1955744,29
1956368,16
1956996,18
1957616,29
1958244,53
1958872,45
1959492,15
1960124,27
1960744,24
1961372,25
1962004,38
1962624,43
1963252,50
1963876,65
1964508,62
1965136,56
1965760,68
1966388,85
1967012,79
1967636,41
1968268,25
1968888,55
1969516,46
1970140,47
1970764,46
1971392,56
1972008,63
1972636,67
1973268,50
1973888,30
1974516,15
1975140,12
1975768,15
1976400,14
1977016,15
1977644,21
1978268,44
1978892,62
1979520,69
1980136,14
1980768,26
1981392,17
1982016,56
1982644,69
1983264,56
1983892,28
1984524,13
1985144,14
1985772,15
1986396,21
1987024,10
1987656,14
1988272,31
1988900,28
1989524,24
1990148,17
1990780,14
1991400,36
1992028,51
1992652,53
1993276,23
1993908,16
1994528,15
1995156,10
1995788,12
1996408,12
1997036,27
1997660,32
1998292,36
1998920,55
1999540,74
2000168,97
2000792,82
2001412,73
2002044,64
2002664,46
2003292,13
2003916,15
2004540,27
2005168,56
2005784,82
2006412,78
2007036,40
2007664,25
2008292,16
2008916,19
2009548,35
2010176,37
2010792,20
2011424,19
2012048,11
2012676,21
2013308,34
2013928,32
2014556,18
2015180,16
2015808,37
2016436,36
2017056,19
2017684,13
2018312,16
2018936,13
2019564,23
2020188,30
2020820,23
2021448,10
2022064,16
2022696,11
2023320,12
2023944,15
2024572,16
2025192,13
2025820,16
2026444,15
2027068,40
2027700,62
2028320,31
2028948,13
2029576,21
2030200,13
2030828,20
2031452,19
2032084,32
2032712,39
2033336,39
2033964,49
2034588,68
2035212,61
2035844,49
2036464,26
2037092,13
2037720,16
2038344,11
2038976,36
2039592,18
2040224,11
2040852,16
2041472,11
2042104,13
2042728,13
2043356,14
2043988,35
2044608,65
2045240,41
2045864,40
2046488,49
2047116,24
2047736,17
2048368,15
2048992,30
2049612,56
2050240,73
2050856,65
2051484,63
2052112,52
2052728,35
2053356,11
2053976,23
2054608,44
2055236,46
2055856,37
2056484,28
2057104,19
2057732,15
2058360,20
2058976,17
2059604,15
2060224,21
2060848,26
2061476,40
2062092,43
2062724,35
2063344,22
2063968,23
2064596,18
2065220,21
2065848,17
2066476,50
2067096,56
2067724,28
2068348,14
2068976,14
2069604,12
2070220,18
2070852,28
2071476,39
2072100,48
2072728,43
2073344,38
2073972,44
2074596,34
2075220,27
2075848,15
2076464,17
2077092,36
2077724,46
2078344,49
2078972,31
2079596,18
2080228,11
2080856,10
2081472,17
2082100,12
2082720,14
2083344,23
2083972,22
2084592,29
2085220,48
2085840,49
2086464,39
2087092,14
2087712,16
2088340,19
2088968,15
2089584,19
2090212,24
2090836,27
2091464,16
2092096,14
2092712,19
2093340,20
2093964,22
2094592,14
2095224,26
2095840,28
2096468,20
2097092,11
2097716,11
2098344,19
2098960,40
2099592,59
2100216,43
2100836,20
2101464,15
2102088,14
2102716,15
2103344,11
2103964,11
2104592,26
2105216,43
2105844,33
2106472,12
2107088,14
2107720,32
2108344,40
2108968,38
2109596,13
2110216,15
2110844,20
2111468,11
2112092,30
2112720,27
2113336,11
2113964,11
2114592,23
2115216,59
2115844,70
2116468,49
2117096,50
2117724,54
2118344,51
2118972,46
2119596,20
2120220,19
2120852,42
2121472,80
2122100,109
2122784,105
2123452,88
2124076,62
2124704,37
2125328,27
2125956,18
2126576,33
2127204,16
2127828,17
2128452,16
2129084,18
2129704,27
2130332,27
2130960,28
2131584,41
2132212,70
2132836,87
2133464,64
2134092,23
2134712,15
2135340,17
2135964,23
2136588,29
2137216,58
2137840,44
2138468,17
2139092,25
2139716,42
2140344,28
2140968,11
2141596,22
2142224,30
2142848,14
2143476,20
2144100,21
2144728,23
2145360,16
2145976,11
2146604,11
2147228,21
2147852,46
2148480,66
2149096,50
2149728,56
2150352,51
2150976,34
2151604,16
2152224,16
2152852,32
2153480,53
2154104,43
2154732,38
2155356,46
2155988,45
2156616,34
2157236,28
2157864,36
2158488,37
2159112,20
2159740,13
2160360,15
2160988,13
2161612,14
2162236,15
2162864,11
2163480,13
2164112,42
2164732,93
2165360,112
2166040,119
2166708,107
2167380,60
2168004,28
2168624,30
2169252,40
2169884,40
2170504,26
2171132,31
2171756,19
2172388,10
2173016,10
2173640,15
2174268,41
2174892,72
2175516,59
2176148,50
2176768,67
2177396,44
2178016,27
2178640,26
2179268,26
2179888,11
2180516,13
2181144,19
2181760,28
2182388,48
2183016,84
2183644,98
2184276,79
2184896,60
2185524,42
2186148,19
2186772,13
2187400,23
2188024,32
2188652,29
2189276,20
2189900,25
2190532,24
2191152,19
2191784,19
2192412,20
2193032,13
2193660,34
2194284,44
2194916,24
2195544,10
2196164,11
2196792,11
2197416,11
2198040,20
2198668,19
2199288,17
2199916,33
2200544,27
2201168,22
2201796,26
2202416,19
2203044,21
2203672,48
2204292,36
2204920,23
2205544,24
2206172,31
2206804,36
2207424,62
2208052,67
2208676,56
2209300,40
2209928,14
2210544,28
2211176,34
2211800,23
2212424,19
2213052,14
2213672,31
2214300,56
2214932,76
2215552,93
2216180,98
2216804,71
2217436,36
2218064,30
2218684,20
2219312,15
2219936,18
2220560,19
2221188,27
2221808,17
2222436,14
2223060,10
2223684,12
2224316,16
2224936,13
2225564,17
2226196,14
2226816,13
2227444,14
2228068,23
2228700,35
2229328,42
2229952,40
2230580,33
2231208,36
2231832,54
2232460,73
2233080,67
2233708,26
2234332,14
2234956,25
2235588,64
2236208,67
2236836,45
2237468,48
2238088,43
2238716,23
2239344,15
2239976,16
2240608,10
2241224,15
2241852,25
2242476,32
2243100,41
2243732,73
2244352,57
2244980,30
2245604,19
2246228,11
2246860,42
2247480,59
2248108,57
2248740,71
2249360,73
2249988,68
2250612,50
2251244,38
2251876,37
2252496,29
2253124,14
2253748,11
2254372,13
2255000,10
2255624,16
2256252,27
2256876,23
2257500,27
2258128,23
2258744,31
2259376,19
2260004,14
2260624,17
2261252,31
2261876,26
2262504,12
2263136,24
2263752,23
2264380,22
2265004,41
2265628,51
2266256,52
2266872,46
2267504,37
2268128,24
2268752,18
2269380,13
2270000,24
2270628,34
2271260,34
2271880,19
2272512,9
2273084,10
2273716,21
2274348,42
2274968,37
2275596,26
2276220,17
2276852,36
2277480,22
2278104,17
2278736,31
2279356,38
2279980,41
2280612,42
2281232,53
2281860,63
2282484,59
2283108,62
2283740,52
2284364,37
2284992,24
2285624,14
2286240,33
2286868,55
2287492,77
2288124,62
2288756,35
2289376,17
2290004,10
2290628,13
2291252,15
2291884,16
2292504,19
2293132,14
2293760,14
2294384,15
2295012,14
2295636,10
2296268,24
2296896,39
2297516,30
2298144,21
2298768,12
2299400,16
2300028,17
2300648,27
2301276,25
2301904,13
2302528,16
2303156,28
2303776,35
2304408,27
2305036,10
2305656,28
2306284,50
2306908,40
2307536,20
2308164,10
2308784,15
2309412,26
2310036,20
2310660,15
2311292,14
2311912,24
2312540,33
2313164,25
2313788,14
2314420,18
2315040,48
2315668,60
2316300,71
2316920,55
2317548,22
2318172,14
2318804,14
2319432,27
2320052,40
2320680,50
2321304,27
2321924,18
2322556,23
2323176,17
2323808,10
2324432,39
2325056,68
2325684,51
2326304,19
2326932,15
2327564,14
2328184,11
2328812,10
2329436,23
2330068,52
2330696,56
2331320,22
2331948,21
2332572,21
2333196,49
2333828,40
2334448,14
2335076,17
2335700,18
2336324,31
2336956,50
2337576,54
2338204,29
2338836,16
2339456,11
2340084,12
2340708,12
2341340,17
2341968,24
2342588,29
2343216,21
2343840,14
2344464,12
2345092,14
2345712,20
2346340,21
2346964,25
2347588,30
2348220,46
2348840,57
2349468,57
2350100,38
2350720,13
2351348,15
2351976,15
2352608,25
2353236,34
2353856,33
2354488,25
2355112,14
2355736,9
2356316,10
2356940,12
2357568,10
2358196,12
2358820,21
2359448,33
2360068,25
2360696,17
2361320,15
2361944,11
2362572,10
2363192,20
2363824,18
2364452,40
2365072,33
2365704,12
2366328,11
2366956,13
2367588,14
2368208,23
2368836,22
2369460,20
2370084,17
2370712,25
2371336,21
2371964,18
2372588,19
2373212,23
2373844,31
2374468,45
2375100,33
2375728,21
2376352,16
2376980,19
2377604,14
2378232,26
2378864,37
2379484,33
2380112,42
2380736,54
2381364,65
2381992,67
2382616,63
2383244,85
2383868,82
2384496,65
2385124,41
2385748,23
2386380,11
2387008,40
2387632,95
2388260,96
2388884,75
2389512,54
2390140,36
2390760,32
2391392,32
2392016,23
2392640,18
2393268,14
2393888,19
2394516,27
2395148,27
2395768,13
2396400,10
2397024,11
2397652,11
2398284,26
2398904,59
2399536,79
2400160,75
2400784,61
2401412,24
2402032,25
2402660,36
2403284,26
2403908,12
2404536,34
2405160,36
2405788,36
2406420,28
2407040,17
2407668,19
2408292,25
2408920,23
2409548,23
2410168,15
2410796,21
2411424,51
2412048,73
2412676,62
2413296,46
2413924,39
2414548,64
2415172,98
2415804,54
2416424,15
2417052,42
2417684,29
2418304,22
2418932,67
2419556,104
2420240,84
2420864,72
2421480,55
2422108,41
2422732,26
2423356,14
2423988,28
2424608,28
2425236,22
2425868,18
2426488,15
2427116,20
2427744,25
2428372,29
2429004,18
2429624,13
2430252,13
2430880,25
2431504,43
2432136,66
2432752,104
2433432,86
2434060,45
2434680,26
2435308,17
2435932,16
2436564,31
2437192,90
2437816,83
2438444,51
2439068,38
2439692,42
2440324,46
2440944,40
2441572,34
2442200,25
2442824,14
2443452,18
2444072,23
2444700,36
2445332,42
2445952,40
2446584,37
2447208,41
2447836,27
2448468,38
2449088,58
2449716,78
2450344,70
2450968,34
2451596,13
2452216,15
2452848,27
2453472,50
2454096,49
2454724,17
2455344,11
2455976,11
2456608,10
2457224,27
2457856,23
2458480,20
2459108,35
2459736,36
2460360,26
2460988,16
2461612,12
2462232,18
2462864,15
2463480,21
2464108,43
2464732,69
2465356,97
2465984,90
2466600,74
2467232,52
2467860,22
2468480,13
2469108,17
2469732,33
2470360,56
2470992,64
2471608,58
2472240,53
2472864,37
2473488,29
2474116,26
2474736,16
2475364,14
2475988,16
2476616,22
2477244,24
2477864,11
2478492,29
2479124,42
2479744,58
2480372,67
2480996,73
2481628,107
2482308,111
2482980,84
2483604,58
2484236,16
2484856,19
2485484,25
2486108,44
2486736,70
2487368,83
2487984,51
2488616,35
2489240,23
2489864,13
2490492,36
2491112,79
2491744,107
2492424,74
2493040,23
2493668,18
2494292,40
2494924,50
2495556,51
2496176,44
2496804,42
2497428,47
2498056,56
2498684,60
2499304,59
2499932,49
2500556,23
2501180,15
2501808,15
2502432,13
2503060,29
2503692,78
2504312,77
2504940,53
2505568,31
2506196,17
2506828,14
2507448,11
2508076,18
2508704,13
2509328,21
2509956,30
2510576,34
2511204,41
2511828,31
2512456,25
2513084,22
2513704,18
2514332,10
2514964,24
2515584,63
2516212,79
2516840,79
2517468,64
2518100,38
2518720,19
2519352,20
2519976,49
2520600,64
2521228,82
2521848,86
2522476,66
2523100,35
2523724,15
2524356,10
2524976,13
2525604,12
2526236,12
2526856,16
2527488,24
2528112,33
2528740,39
2529372,42
2529992,33
2530624,25
2531248,28
2531872,37
2532500,45
2533120,54
2533752,44
2534376,36
2535000,20
2535632,15
2536252,26
2536880,38
2537512,45
2538132,41
2538764,34
2539388,23
2540020,14
2540648,22
2541272,30
2541904,17
2542528,15
2543152,32
2543784,30
2544400,11
2545032,14
2545656,12
2546280,19
2546908,33
2547536,17
2548164,23
2548796,58
2549416,73
2550048,51
2550672,19
2551304,17
2551932,15
2552552,14
2553184,16
2553808,17
2554432,21
2555064,35
2555680,43
2556312,42
2556944,37
2557564,26
2558196,17
2558820,13
2559452,22
2560084,20
2560700,23
2561328,31
2561948,17
2562572,56
2563200,51
2563816,13
2564444,71
2565068,106
2565740,120
2566416,114
2567084,68
2567704,30
2568332,15
2568952,19
2569580,35
2570204,57
2570828,84
2571456,68
2572072,48
2572700,31
2573332,26
2573952,15
2574580,11
2575204,13
2575832,13
2576460,14
2577080,14
2577708,11
2578332,19
2578956,19
2579584,27
2580208,37
2580836,29
2581460,37
2582084,37
2582712,29
2583328,14
2583960,17
2584588,14
2585208,14
2585836,15
2586460,13
2587088,13
2587716,9
2588284,13
2588916,17
2589540,11
2590168,17
2590800,13
2591416,27
2592044,61
2592668,47
2593292,30
2593920,34
2594536,39
2595164,21
2595788,11
2596412,24
2597044,38
2597664,64
2598292,93
2598924,110
2599596,106
2600276,41
2600896,15
2601520,24
2602148,25
2602768,18
2603396,16
2604020,31
2604644,57
2605276,95
2605900,72
2606528,43
2607156,32
2607776,17
2608404,15
2609028,14
2609660,14
2610288,20
2610912,45
2611544,49
2612164,59
2612788,58
2613420,43
2614040,39
2614668,37
2615292,33
2615920,44
2616552,51
2617176,42
2617804,47
2618432,54
2619056,44
2619684,11
2620308,56
2620936,75
2621564,48
2622184,47
2622812,46
2623432,50
2624056,35
2624684,20
2625300,13
2625928,16
2626552,22
2627176,19
2627804,29
2628428,32
2629056,29
2629684,25
2630304,24
2630932,33
2631556,43
2632184,27
2632812,34
2633432,39
2634060,32
2634684,26
2635308,24
2635936,11
2636552,37
2637180,49
2637804,48
2638428,31
2639056,16
2639672,19
2640300,29
2640928,30
2641552,28
2642180,42
2642804,48
2643432,43
2644060,24
2644676,13
2645308,24
2645928,21
2646552,26
2647180,43
2647800,75
2648428,87
2649052,79
2649676,85
2650304,55
2650920,19
2651548,15
2652180,19
2652800,29
2653428,52
2654052,71
2654680,56
2655308,40
2655928,23
2656556,15
2657180,12
2657804,11
2658432,14
2659056,25
2659684,29
2660308,30
2660932,31
2661560,38
2662184,32
2662816,27
2663440,35
2664060,37
2664688,36
2665312,47
2665940,57
2666568,54
2667192,35
2667820,14
2668444,14
2669064,17
2669696,14
2670312,11
2670940,11
2671564,43
2672188,52
2672816,41
2673432,51
2674060,87
2674684,107
2675364,64
2675988,19
2676612,22
2677240,33
2677868,35
2678488,27
2679116,31
2679740,44
2680364,51
2680992,59
2681608,48
2682236,50
2682860,69
2683484,56
2684112,27
2684736,15
2685364,13
2685996,18
2686616,26
2687244,36
2687868,30
2688500,15
2689128,12
2689744,12
2690372,21
2690996,17
2691620,12
2692248,13
2692864,31
2693492,33
2694116,32
2694740,31
2695368,23
2695984,14
2696612,10
2697244,10
2697864,13
2698492,29
2699116,54
2699744,60
2700376,42
2700992,41
2701624,31
2702248,27
2702868,15
2703500,10
2704120,10
2704748,10
2705368,22
2705992,23
2706620,18
2707240,30
2707868,55
2708496,75
2709120,35
2709748,14
2710372,18
2711000,37
2711632,48
2712252,48
2712880,32
2713504,13
2714128,10
2714756,24
2715376,57
2716004,86
2716628,97
2717252,60
2717880,16
2718504,17
2719132,15
2719764,14
2720384,19
2721012,43
2721636,50
2722264,43
2722892,22
2723512,15
2724140,18
2724764,22
2725388,17
2726016,29
2726632,23
2727260,17
2727884,40
2728508,20
2729136,19
2729756,30
2730384,48
2731012,46
2731632,25
2732260,32
2732884,33
2733512,18
2734144,16
2734760,15
2735388,14
2736012,27
2736640,41
2737272,32
2737888,25
2738516,22
2739140,26
2739768,29
2740396,38
2741016,41
2741644,22
2742268,12
2742896,19
2743524,22
2744148,40
2744780,54
2745408,50
2746032,38
2746660,20
2747284,14
2747908,27
2748540,32
2749160,41
2749788,43
2750412,32
2751036,14
2751668,14
2752288,25
2752916,33
2753548,23
2754168,21
2754796,14
2755420,11
2756052,15
2756680,26
2757296,68
2757928,115
2758604,108
2759276,71
2759904,42
2760528,48
2761156,39
2761788,12
2762408,34
2763036,74
2763660,105
2764344,109
2765020,96
2765640,73
2766268,51
2766896,36
2767512,37
2768144,23
2768768,15
2769396,17
2770024,35
2770648,43
2771276,81
2771900,81
2772524,31
2773152,23
2773776,33
2774404,31
2775028,17
2775652,13
2776284,14
2776908,14
2777540,28
2778168,34
2778792,24
2779420,17
2780048,19
2780676,21
2781308,34
2781928,39
2782556,45
2783184,44
2783808,39
2784440,44
2785056,33
2785688,25
2786316,16
2786936,12
2787564,21
2788188,26
2788820,29
2789448,29
2790064,26
2790696,25
2791320,25
2791944,25
2792572,22
2793192,23
2793820,15
2794444,12
2795068,16
2795700,34
2796320,33
2796948,21
2797580,34
2798200,65
2798828,80
2799452,67
2800084,34
2800712,20
2801328,15
2801960,14
2802584,28
2803204,32
2803836,32
2804456,31
2805084,23
2805708,25
2806332,29
2806964,34
2807584,54
2808212,49
2808844,30
2809464,14
2810092,18
2810716,40
2811348,65
2811976,90
2812600,72
2813232,21
2813856,17
2814480,40
2815108,71
2815728,51
2816360,14
2816980,64
2817604,75
2818232,43
2818852,35
2819480,34
2820108,30
2820728,61
2821356,53
2821980,11
2822608,15
2823240,17
2823856,22
2824484,15
2825108,16
2825736,27
2826364,23
2826984,16
2827612,22
2828236,11
2828860,13
2829488,11
2830104,19
2830732,11
2831356,42
2831984,75
2832616,82
2833236,67
2833868,30
2834500,15
2835120,15
2835748,20
2836376,10
2837000,16
2837628,22
2838248,24
2838876,20
2839500,37
2840128,56
2840756,45
2841376,31
2842008,17
2842636,14
2843256,14
2843884,16
2844508,19
2845140,35
2845768,45
2846388,42
2847016,36
2847640,30
2848268,35
2848896,34
2849512,37
2850140,24
2850764,15
2851388,15
2852020,13
2852640,13
2853268,26
2853900,36
2854520,29
2855148,13
2855772,14
2856404,23
2857032,16
2857656,12
2858284,15
2858908,20
2859532,16
2860164,22
2860784,14
2861416,25
2862040,35
2862664,18
2863292,11
2863912,26
2864544,49
2865176,48
2865792,34
2866424,20
2867048,15
2867680,14
2868308,22
2868928,36
2869556,41
2870180,45
2870804,29
2871432,15
2872052,26
2872680,34
2873304,39
2873928,32
2874556,22
2875176,13
2875804,15
2876436,14
2877056,13
2877684,10
2878308,14
2878940,17
2879568,20
2880192,40
2880820,60
2881444,63
2882064,67
2882692,59
2883312,22
2883940,17
2884560,15
2885184,33
2885812,26
2886432,18
2887060,22
2887688,30
2888304,24
2888932,21
2889556,22
2890184,51
2890816,65
2891432,56
2892064,40
2892688,28
2893316,19
2893944,14
2894568,11
2895196,25
2895820,31
2896444,56
2897072,74
2897692,78
2898320,79
2898948,82
2899568,69
2900196,46
2900820,16
2901448,21
2902080,37
2902696,45
2903324,59
2903948,60
2904580,40
2905208,25
2905832,16
2906460,14
2907084,12
2907708,20
2908340,30
2908960,29
2909588,26
2910216,16
2910840,24
2911468,45
2912092,47
2912724,18
2913352,24
2913972,33
2914600,24
2915224,29
2915848,53
2916476,42
2917096,38
2917728,35
2918352,40
2918976,43
2919604,32
2920224,11
2920852,34
2921484,65
2922104,60
2922732,53
2923356,49
2923988,47
2924616,63
2925240,67
2925868,47
2926492,28
2927116,15
2927748,40
2928368,76
2928996,91
2929620,62
2930244,50
2930872,52
2931496,64
2932124,68
2932756,52
2933376,23
2934008,31
2934632,43
2935260,31
2935892,10
2936512,11
2937140,22
2937768,15
2938392,43
2939020,44
2939640,45
2940268,48
2940896,51
2941520,63
2942148,33
2942768,22
2943400,21
2944028,14
2944648,11
2945276,13
2945900,9
2946476,17
2947108,10
2947728,48
2948356,83
2948984,89
2949612,74
2950244,38
2950864,30
2951492,22
2952116,13
2952740,25
2953368,32
2953992,26
2954620,11
2955244,13
2955868,19
2956500,10
2957124,13
2957752,11
2958380,26
2959000,43
2959632,32
2960256,13
2960884,21
2961512,29
2962128,26
2962760,26
2963384,31
2964004,34
2964636,38
2965256,34
2965884,30
2966508,28
2967132,21
2967764,13
2968388,19
2969016,34
2969648,38
2970260,32
2970892,27
2971512,10
2972144,11
2972772,30
2973392,45
2974020,55
2974644,65
2975268,47
2975900,22
2976520,15
2977148,25
2977772,33
2978396,28
2979024,17
2979652,18
2980280,51
2980908,88
2981528,103
2982208,96
2982832,76
2983456,37
2984084,20
2984704,17
2985332,17
2985956,30
2986580,28
2987212,22
2987832,29
2988464,28
2989092,20
2989712,13
2990344,11
2990968,24
2991596,29
2992228,16
2992848,15
2993476,14
2994100,17
2994724,23
2995356,39
2995976,25
2996604,11
2997228,32
2997852,36
2998484,28
2999108,57
2999736,79
3000368,67
3000984,47
3001612,19
3002236,19
3002868,41
3003496,44
3004120,47
3004752,38
3005376,33
3006000,28
3006628,20
3007248,10
3007880,18
3008504,27
3009128,33
3009756,37
3010380,23
3011012,13
3011644,15
3012264,36
3012892,18
3013516,13
3014148,26
3014780,33
3015400,39
3016032,52
3016656,50
3017280,41
3017908,34
3018528,19
3019160,19
3019788,33
3020408,41
3021040,34
3021664,27
3022292,28
3022924,27
3023544,38
3024176,26
3024800,19
3025420,17
3026052,13
3026672,18
3027304,23
3027928,17
3028552,11
3029180,11
3029800,31
3030432,39
3031060,60
3031680,73
3032312,62
3032936,49
3033564,21
3034196,14
3034816,20
3035448,19
3036072,19
3036696,21
3037328,28
3037944,28
3038576,27
3039200,18
3039824,17
3040456,23
3041072,25
3041704,31
3042332,32
3042952,19
3043584,20
3044208,50
3044836,71
3045468,58
3046088,47
3046716,49
3047344,59
3047968,53
3048596,12
3049216,33
3049848,27
3050472,33
3051096,37
3051728,14
3052344,20
3052976,25
3053604,10
3054224,59
3054856,109
3055532,96
3056152,74
3056784,34
3057400,17
3058032,30
3058656,37
3059280,48
3059908,42
3060528,41
3061156,47
3061788,45
3062408,37
3063036,33
3063664,16
3064296,23
3064924,37
3065544,42
3066176,33
3066800,24
3067424,25
3068056,21
3068672,16
3069304,14
3069932,11
3070556,21
3071188,25
3071816,32
3072448,35
3073076,28
3073696,24
3074324,31
3074948,24
3075576,14
3076204,20
3076824,27
3077452,20
3078076,18
3078700,27
3079328,10
3079952,12
3080580,11
3081204,36
3081828,31
3082460,13
3083084,14
3083712,15
3084340,18
3084960,39
3085588,37
3086212,19
3086844,10
3087472,13
3088088,20
3088720,22
3089340,21
3089964,27
3090596,38
3091216,42
3091844,42
3092468,26
3093092,14
3093724,27
3094348,33
3094980,26
3095608,12
3096232,11
3096864,19
3097488,29
3098116,43
3098748,42
3099368,40
3099996,30
3100624,19
3101248,16
3101876,20
3102496,11
3103128,20
3103756,26
3104376,22
3105004,12
3105628,22
3106260,27
3106892,31
3107512,21
3108144,17
3108768,14
3109392,22
3110024,27
3110640,25
3111272,22
3111896,24
3112520,32
3113152,23
3113768,12
3114396,11
3115028,32
3115648,42
3116276,46
3116900,31
3117532,15
3118164,14
3118784,33
3119416,43
3120040,30
3120660,35
3121292,38
3121912,36
3122544,36
3123168,36
3123792,40
3124420,40
3125040,32
3125668,20
3126300,14
3126920,14
3127548,11
3128176,15
3128804,21
3129432,24
3130056,45
3130684,66
3131312,92
3131936,113
3132616,96
3133240,61
3133872,24
3134500,14
3135120,18
3135752,11
3136376,32
3137004,70
3137636,65
3138256,44
3138884,23
3139508,12
3140132,13
3140764,12
3141384,40
3142012,36
3142640,32
3143264,23
3143892,19
3144516,24
3145148,24
3145780,20
3146400,13
3147028,35
3147656,47
3148284,69
3148916,92
3149536,97
3150168,67
3150792,37
3151416,15
3152048,18
3152664,21
3153292,18
3153920,19
3154544,31
3155176,44
3155800,40
3156432,12
3157060,27
3157680,36
3158312,31
3158936,33
3159560,55
3160192,49
3160808,12
3161440,49
3162064,68
3162688,41
3163320,38
3163936,24
3164568,23
3165196,43
3165816,44
3166448,41
3167072,24
3167704,15
3168336,13
3168952,11
3169584,9
3170156,22
3170792,49
3171424,43
3172040,25
3172672,14
3173296,15
3173920,11
3174552,17
3175168,12
3175800,15
3176424,14
3177048,15
3177676,14
3178296,13
3178924,11
3179556,25
3180176,47
3180804,60
3181432,57
3182060,60
3182692,60
3183312,28
3183944,13
3184568,14
3185196,14
3185828,12
3186448,10
3187080,19
3187704,29
3188328,37
3188960,45
3189584,49
3190216,46
3190848,23
3191464,26
3192096,42
3192724,36
3193352,17
3193984,18
3194604,38
3195236,45
3195860,44
3196484,53
3197116,58
3197736,69
3198368,74
3199000,82
3199620,65
3200252,28
3200872,14
3201504,13
3202132,18
3202752,15
3203380,10
3204004,10
3204624,14
3205256,30
3205872,67
3206500,92
3207124,75
3207748,59
3208376,26
3208992,13
3209620,13
3210248,34
3210872,22
3211500,19
3212124,24
3212756,10
3213384,26
3214008,63
3214636,83
3215260,87
3215884,91
3216516,71
3217136,34
3217764,13
3218388,18
3219012,21
3219644,26
3220264,11
3220892,11
3221524,19
3222144,19
3222772,22
3223396,28
3224028,52
3224656,80
3225280,71
3225912,35
3226532,15
3227156,21
3227788,22
3228408,28
3229036,44
3229660,62
3230284,66
3230916,70
3231536,71
3232168,73
3232796,66
3233416,35
3234044,14
3234668,21
3235300,30
3235928,36
3236552,46
3237180,52
3237804,61
3238428,50
3239056,24
3239680,12
3240308,12
3240932,19
3241556,19
3242188,16
3242808,15
3243436,17
3244068,26
3244688,23
3245316,11
3245940,31
3246572,25
3247204,11
3247824,24
3248456,31
3249080,41
3249700,41
3250332,32
3250952,35
3251584,49
3252208,45
3252832,37
3253460,24
3254084,15
3254716,34
3255344,27
3255968,13
3256600,11
3257224,14
3257852,46
3258484,54
3259104,33
3259736,19
3260360,15
3260984,22
3261612,28
3262232,33
3262864,21
3263492,13
3264112,25
3264740,37
3265364,55
3265996,75
3266624,46
3267248,14
3267876,21
3268500,23
3269128,22
3269756,22
3270376,30
3271008,41
3271632,39
3272256,33
3272888,22
3273504,19
3274136,11
3274768,13
3275388,13
3276020,16
3276644,15
3277276,26
3277904,38
3278520,35
3279148,37
3279772,64
3280392,67
3281020,67
3281636,75
3282268,82
3282888,90
3283508,38
3284140,46
3284756,77
3285388,95
3286008,112
3286684,71
3287308,23
3287932,11
3288560,10
3289188,12
3289808,13
3290436,19
3291056,22
3291680,19
3292308,14
3292928,14
3293556,15
3294176,26
3294800,31
3295432,31
3296048,37
3296676,41
3297304,48
3297920,59
3298548,69
3299172,81
3299800,68
3300428,46
3301048,37
3301676,40
3302300,18
3302924,43
3303552,84
3304168,92
3304800,91
3305420,78
3306044,46
3306672,36
3307296,24
3307924,15
3308552,14
3309176,17
3309804,22
3310428,24
3311056,13
3311688,33
3312304,36
3312932,35
3313556,43
3314184,49
3314812,56
3315432,79
3316060,73
3316684,45
3317308,28
3317936,21
3318560,21
3319188,12
3319816,50
3320440,68
3321068,67
3321692,48
3322320,45
3322948,43
3323568,31
3324196,20
3324820,29
3325444,24
3326076,13
3326696,15
3327324,12
3327952,11
3328576,14
3329204,28
3329820,36
3330452,37
3331080,54
3331696,67
3332324,71
3332948,70
3333576,46
3334204,22
3334824,18
3335452,13
3336076,11
3336704,17
3337332,12
3337952,11
3338580,22
3339204,36
3339824,28
3340456,19
3341072,29
3341700,24
3342324,30
3342948,84
3343576,67
3344200,46
3344828,19
3345456,10
3346072,11
3346704,16
3347328,49
3347956,81
3348584,95
3349208,68
3349836,20
3350460,21
3351084,50
3351712,47
3352332,44
3352960,42
3353584,48
3354208,46
3354836,32
3355460,29
3356092,29
3356720,34
3357340,31
3357968,28
3358592,21
3359220,13
3359852,22
3360472,40
3361100,47
3361724,43
3362344,41
3362976,50
3363592,71
3364220,75
3364844,53
3365468,49
3366096,50
3366712,46
3367340,20
3367972,12
3368592,21
3369220,10
3369844,27
3370472,44
3371100,54
3371720,91
3372348,124
3373024,135
3373692,99
3374316,59
3374940,42
3375572,21
3376200,32
3376824,92
3377452,136
3378128,117
3378796,82
3379424,54
3380044,43
3380672,59
3381300,61
3381920,39
3382548,46
3383172,45
3383800,21
3384428,14
3385048,14
3385676,18
3386300,58
3386920,89
3387552,82
3388168,59
3388796,43
3389420,36
3390044,41
3390676,32
3391300,14
3391928,18
3392560,28
3393176,31
3393808,27
3394432,19
3395060,21
3395688,28
3396312,30
3396940,30
3397564,41
3398188,52
3398820,62
3399440,56
3400068,48
3400692,37
3401316,23
3401944,17
3402568,10
3403196,11
3403828,11
3404448,11
3405076,13
3405700,20
3406328,57
3406960,81
3407576,85
3408204,69
3408828,36
3409452,14
3410080,27
3410696,37
3411328,32
3411948,35
3412572,36
3413204,36
3413828,41
3414456,66
3415084,89
3415704,90
3416332,49
3416956,17
3417588,15
3418220,22
3418840,57
3419468,84
3420092,76
3420720,56
3421348,43
3421968,46
3422596,34
3423220,23
3423844,21
3424476,19
3425100,16
3425732,14
3426360,19
3426980,29
3427608,44
3428232,53
3428860,49
3429492,42
3430112,41
3430744,74
3431368,94
3431988,91
3432620,76
3433240,45
3433868,17
3434492,28
3435120,88
3435752,104
3436428,81
3437052,79
3437684,67
3438304,57
3438936,38
3439560,13
3440184,34
3440812,64
3441432,77
3442060,79
3442684,66
3443308,39
3443936,12
3444556,23
3445188,17
3445816,11
3446432,16
3447064,11
3447688,11
3448316,11
3448944,14
3449568,18
3450200,17
3450824,14
3451448,14
3452076,13
3452696,12
3453324,11
3453952,12
3454576,17
3455204,16
3455832,12
3456464,11
3457092,16
3457712,36
3458340,44
3458964,27
3459588,14
3460220,23
3460840,37
3461468,51
3462092,39
3462716,10
3463344,10
3463968,50
3464596,79
3465228,83
3465848,57
3466476,37
3467100,46
3467732,51
3468360,16
3468980,56
3469608,66
3470232,47
3470856,63
3471484,86
3472104,65
3472732,34
3473356,16
3473980,10
3474612,12
3475232,13
3475860,16
3476492,20
3477112,12
3477744,18
3478368,17
3479000,14
3479628,10
3480248,11
3480876,39
3481504,73
3482128,90
3482756,72
3483376,58
3484004,43
3484628,18
3485252,19
3485880,26
3486496,39
3487128,37
3487756,28
3488376,21
3489004,24
3489628,43
3490256,45
3490884,33
3491504,24
3492132,18
3492756,13
3493384,20
3494012,40
3494632,47
3495260,61
3495884,60
3496508,34
3497140,34
3497760,55
3498388,72
3499020,76
3499640,53
3500268,16
3500892,14
3501524,17
3502156,15
3502776,27
3503404,51
3504028,63
3504652,50
3505284,40
3505904,26
3506536,12
3507160,19
3507784,36
3508412,36
3509032,39
3509664,29
3510292,12
3510912,41
3511544,73
3512168,44
3512800,11
3513428,20
3514048,37
3514680,39
3515304,33
3515928,32
3516560,24
3517176,16
3517808,15
3518432,14
3519056,11
3519688,10
3520308,12
3520936,24
3521564,26
3522184,31
3522812,27
3523436,22
3524068,19
3524696,16
3525312,14
3525940,17
3526564,25
3527188,42
3527820,52
3528440,52
3529068,50
3529692,39
3530316,19
3530944,24
3531568,35
3532196,62
3532828,38
3533448,15
3534076,19
3534700,14
3535328,12
3535960,23
3536580,46
3537208,43
3537832,37
3538456,36
3539084,33
3539704,35
3540332,20
3540956,19
3541580,17
3542212,14
3542832,19
3543464,24
3544092,20
3544712,25
3545340,48
3545968,72
3546596,88
3547224,79
3547848,54
3548476,62
3549104,66
3549728,33
3550356,15
3550976,40
3551608,47
3552232,46
3552856,50
3553484,41
3554104,30
3554732,22
3555364,22
3555984,18
3556616,19
3557240,27
3557868,42
3558500,34
3559120,19
3559748,13
3560376,24
3560996,29
3561628,29
3562248,29
3562876,18
3563504,12
3564128,30
3564756,41
3565384,42
3566012,40
3566644,38
3567264,36
3567896,44
3568520,46
3569148,19
3569780,28
3570400,81
3571028,90
3571656,72
3572280,49
3572908,29
3573528,27
3574160,27
3574788,22
3575408,16
3576040,15
3576664,29
3577292,71
3577924,77
3578544,35
3579176,26
3579800,56
3580424,71
3581056,91
3581672,99
3582304,71
3582932,23
3583556,13
3584188,35
3584808,44
3585436,41
3586064,32
3586680,30
3587312,34
3587936,45
3588564,63
3589196,54
3589816,43
3590444,37
3591068,39
3591692,16
3592324,23
3592944,33
3593572,39
3594200,44
3594824,33
3595452,16
3596072,13
3596700,12
3597332,44
3597952,85
3598584,101
3599260,102
3599932,66
3600560,32
3601176,21
3601804,16
3602428,43
3603056,51
3603684,62
3604308,59
3604940,61
3605568,50
3606192,42
3606820,38
3607444,31
3608068,33
3608700,36
3609320,17
3609948,41
3610572,35
3611196,27
3611824,17
3612444,13
3613072,26
3613700,51
3614320,107
3615000,117
3615676,92
3616296,48
3616924,32
3617544,49
3618172,46
3618796,20
3619420,72
3620052,100
3620724,105
3621400,72
3622032,45
3622648,32
3623276,21
3623900,17
3624524,14
3625156,26
3625776,23
3626404,16
3627032,26
3627656,15
3628284,10
3628908,19
3629540,25
3630168,29
3630788,40
3631416,32
3632040,35
3632664,41
3633292,46
3633912,51
3634544,40
3635168,24
3635792,12
3636420,19
3637040,36
3637668,47
3638300,36
3638920,29
3639548,24
3640176,27
3640804,26
3641432,20
3642056,14
3642684,15
3643308,14
3643932,29
3644564,43
3645184,43
3645816,31
3646436,31
3647060,31
3647692,40
3648312,53
3648940,50
3649572,25
3650192,17
3650820,17
3651444,16
3652076,10
3652704,17
3653324,49
3653952,71
3654576,61
3655200,44
3655832,27
3656448,16
3657080,15
3657704,17
3658328,16
3658956,13
3659576,15
3660204,21
3660836,26
3661456,33
3662084,69
3662708,94
3663340,91
3663972,90
3664592,90
3665224,99
3665848,73
3666472,15
3667100,46
3667720,24
3668348,13
3668972,30
3669596,61
3670228,76
3670856,69
3671484,51
3672116,35
3672736,30
3673368,23
3673992,23
3674620,26
3675252,34
3675872,52
3676504,39
3677128,30
3677752,17
3678384,14
3679004,27
3679632,30
3680264,17
3680888,19
3681516,55
3682140,94
3682772,108
3683456,78
3684072,45
3684700,19
3685328,15
3685952,37
3686584,63
3687200,63
3687828,41
3688456,33
3689080,34
3689708,41
3690328,37
3690960,31
3691588,15
3692208,23
3692836,46
3693460,55
3694084,56
3694716,40
3695336,36
3695968,51
3696592,62
3697216,63
3697844,44
3698464,27
3699092,25
3699724,14
3700344,33
3700972,19
3701596,23
3702228,25
3702860,12
3703480,29
3704108,56
3704736,48
3705360,32
3705988,21
3706608,36
3707236,27
3707860,19
3708484,14
3709116,17
3709736,20
3710368,24
3710996,39
3711616,48
3712248,50
3712872,50
3713500,46
3714128,58
3714752,64
3715380,63
3716004,63
3716628,29
3717260,48
3717880,58
3718508,47
3719132,29
3719756,25
3720388,38
3721008,53
3721636,31
3722268,10
3722888,21
3723516,11
3724140,21
3724772,13
3725404,26
3726024,19
3726652,90
3727280,113
3727956,57
3728584,12
3729200,51
3729828,68
3730460,70
3731080,69
3731712,62
3732336,41
3732964,20
3733596,16
3734216,14
3734848,13
3735472,15
3736096,17
3736724,15
3737344,26
3737976,30
3738600,21
3739224,10
3739852,12
3740472,11
3741100,13
3741732,14
3742352,15
3742984,15
3743608,11
3744236,11
3744868,16
3745488,22
3746116,28
3746744,30
3747368,45
3747996,64
3748616,80
3749244,70
3749872,38
3750496,15
3751124,13
3751748,16
3752380,25
3753012,35
3753632,41
3754260,34
3754884,23
3755516,26
3756148,27
3756768,24
3757400,37
3758024,61
3758648,52
3759280,24
3759900,15
3760532,22
3761160,24
3761784,20
3762416,14
3763040,19
3763668,41
3764300,62
3764920,89
3765548,86
3766176,67
3766800,46
3767432,29
3768048,24
3768680,17
3769304,11
3769928,12
3770556,18
3771176,28
3771808,29
3772436,15
3773056,12
3773688,21
3774312,21
3774940,19
3775572,23
3776192,28
3776820,16
3777444,71
3778068,82
3778700,36
3779320,20
3779948,33
3780576,17
3781200,11
3781828,29
3782448,50
3783076,35
3783708,12
3784328,17
3784956,15
3785584,15
3786212,15
3786844,22
3787464,10
3788096,10
3788720,11
3789344,10
3789972,22
3790592,34
3791220,43
3791848,31
3792472,23
3793100,25
3793720,12
3794352,33
3794980,55
3795600,75
3796232,95
3796856,100
3797536,82
3798160,42
3798780,11
3799408,12
3800036,14
3800660,14
3801288,19
3801908,26
3802536,34
3803168,35
3803788,27
3804420,26
3805044,23
3805672,17
3806304,30
3806924,44
3807556,40
3808180,25
3808804,17
3809436,14
3810056,24
3810684,15
3811308,29
3811936,15
3812564,29
3813188,41
3813820,62
3814452,72
3815072,96
3815704,99
3816328,74
3816956,44
3817588,18
3818208,23
3818840,13
3819464,12
3820088,24
3820716,23
3821336,14
3821968,20
3822600,42
3823216,53
3823848,54
3824476,58
3825104,64
3825736,34
3826356,17
3826988,31
3827612,35
3828240,37
3828868,61
3829488,67
3830120,59
3830744,63
3831368,59
3832000,33
3832616,14
3833248,36
3833880,31
3834500,14
3835132,11
3835756,24
3836388,42
3837020,44
3837640,36
3838272,42
3838896,60
3839524,67
3840156,60
3840776,44
3841404,13
3842028,31
3842652,45
3843280,56
3843896,65
3844524,64
3845156,52
3845776,37
3846404,21
3847028,15
3847656,34
3848288,50
3848908,60
3849536,41
3850160,20
3850784,14
3851412,14
3852032,23
3852660,41
3853284,38
3853908,35
3854540,39
3855160,44
3855788,37
3856420,30
3857040,21
3857668,17
3858292,15
3858924,22
3859552,37
3860172,45
3860800,47
3861424,43
3862048,35
3862676,24
3863296,27
3863924,60
3864552,76
3865176,67
3865808,69
3866424,57
3867052,33
3867684,16
3868304,52
3868932,81
3869556,93
3870188,96
3870820,56
3871440,13
3872068,31
3872692,25
3873316,11
3873948,11
3874568,13
3875196,14
3875824,37
3876448,74
3877080,25
3877704,21
3878332,42
3878964,40
3879584,39
3880216,47
3880840,60
3881468,48
3882100,20
3882720,14
3883352,19
3883976,36
3884600,36
3885232,34
3885848,37
3886480,41
3887108,39
3887728,23
3888360,11
3888984,11
3889612,12
3890244,10
3890864,15
3891496,13
3892120,16
3892744,25
3893372,18
3893992,16
3894620,28
3895248,35
3895868,56
3896500,64
3897120,49
3897748,57
3898380,64
3899000,53
3899632,40
3900256,21
3900884,22
3901516,22
3902136,27
3902768,30
3903392,57
3904016,64
3904644,32
3905264,15
3905892,20
3906516,20
3907144,12
3907772,15
3908392,19
3909024,16
3909652,14
3910272,11
3910904,9
3911476,11
3912112,16
3912740,20
3913360,24
3913992,55
3914616,73
3915248,67
3915876,49
3916496,24
3917128,19
3917752,20
3918376,13
3919008,15
3919624,27
3920256,27
3920880,16
3921504,11
3922136,11
3922760,31
3923388,50
3924020,80
3924640,81
3925268,27
3925896,21
3926524,42
3927156,48
3927776,51
3928408,56
3929032,65
3929656,33
3930284,41
3930904,67
3931536,74
3932168,39
3932784,35
3933412,59
3934036,37
3934668,17
3935300,12
3935920,21
3936552,36
3937176,39
3937800,42
3938428,38
3939048,42
3939676,51
3940304,36
3940928,27
3941556,13
3942176,21
3942808,31
3943436,37
3944056,38
3944684,35
3945308,37
3945936,34
3946568,12
3947184,37
3947816,53
3948440,57
3949064,56
3949692,28
3950312,16
3950944,21
3951568,14
3952192,17
3952820,45
3953440,80
3954068,59
3954700,32
3955320,23
3955948,13
3956572,18
3957204,30
3957832,36
3958456,35
3959084,21
3959708,14
3960336,11
3960964,12
3961584,15
3962216,10
3962840,15
3963464,29
3964096,44
3964712,50
3965344,44
3965972,28
3966592,25
3967224,23
3967848,16
3968480,12
3969108,24
3969728,29
3970356,32
3970984,41
3971608,44
3972236,24
3972856,16
3973484,11
3974108,13
3974732,14
3975364,18
3975984,33
3976616,40
3977244,36
3977864,14
3978492,11
3979120,17
3979748,30
3980380,42
3981000,47
3981628,55
3982252,43
3982880,25
3983508,13
3984128,14
3984756,14
3985380,10
3986008,11
3986636,20
3987256,39
3987884,52
3988516,52
3989136,60
3989768,57
3990392,68
3991024,57
3991656,36
3992276,28
3992904,17
3993532,11
3994156,22
3994788,33
3995408,38
3996036,51
3996664,71
3997288,90
3997916,100
3998596,90
3999224,67
3999852,41
4000472,32
4001100,25
4001724,12
4002348,25
4002976,61
4003600,65
4004228,57
4004852,58
4005476,54
4006104,51
4006728,37
4007356,23
4007988,24
4008608,28
4009236,15
4009860,21
4010492,41
4011120,38
4011744,45
4012372,54
4013000,57
4013624,71
4014252,81
4014872,79
4015500,51
4016124,12
4016752,24
4017380,29
4018004,31
4018632,36
4019264,27
4019880,11
4020508,18
4021132,22
4021760,11
4022392,11
4023008,21
4023636,31
4024264,44
4024888,32
4025516,18
4026136,16
4026764,15
4027388,29
4028016,39
4028644,33
4029268,11
4029900,13
4030532,20
4031152,43
4031784,70
4032408,53
4033032,44
4033660,37
4034280,29
4034908,13
4035532,17
4036156,41
4036788,88
4037408,112
4038088,78
4038720,39
4039336,35
4039968,21
4040592,18
4041220,37
4041852,46
4042472,44
4043100,30
4043728,12
4044352,37
4044984,57
4045600,50
4046228,15
4046860,46
4047480,85
4048108,95
4048732,75
4049364,59
4049992,64
4050612,61
4051240,45
4051864,37
4052488,19
4053116,10
4053736,16
4054368,33
4054992,34
4055616,19
4056244,23
4056864,24
4057492,37
4058124,23
4058744,19
4059372,14
4059996,33
4060628,29
4061260,14
4061880,10
4062508,14
4063136,13
4063760,13
4064392,27
4065008,53
4065636,63
4066260,51
4066884,34
4067516,13
4068136,17
4068764,24
4069396,39
4070016,40
4070648,38
4071272,40
4071900,22
4072532,10
4073152,15
4073784,23
4074408,31
4075032,22
4075664,14
4076280,25
4076908,32
4077536,42
4078160,56
4078788,58
4079408,62
4080040,52
4080668,38
4081288,51
4081916,52
4082544,21
4083172,13
4083804,17
4084424,18
4085056,11
4085680,21
4086304,36
4086936,60
4087552,65
4088184,47
4088808,35
4089432,30
4090064,14
4090680,13
4091312,13
4091944,15
4092564,14
4093196,18
4093820,10
4094452,17
4095084,28
4095704,16
4096340,11
4096960,39
4097580,59
4098208,66
4098824,57
4099452,33
4100072,16
4100696,19
4101324,14
4101940,16
4102572,35
4103200,53
4103816,61
4104444,45
4105068,34
4105696,31
4106324,20
4106940,12
4107572,13
4108192,15
4108816,18
4109444,29
4110060,42
4110692,51
4111316,55
4111940,49
4112568,43
4113184,47
4113812,69
4114444,70
4115064,44
4115692,19
4116316,13
4116948,21
4117576,35
4118192,34
4118820,37
4119444,32
4120068,35
4120700,35
4121320,35
4121948,29
4122572,16
4123196,10
4123824,12
4124440,16
4125072,23
4125696,56
4126320,52
4126948,34
4127572,30
4128200,37
4128828,19
4129444,23
4130076,33
4130700,31
4131328,19
4131956,11
4132576,13
4133204,13
4133828,20
4134452,23
4135080,11
4135696,14
4136328,17
4136952,30
4137576,36
4138204,34
4138828,43
4139456,26
4140088,12
4140704,19
4141332,24
4141956,23
4142588,21
4143216,27
4143840,33
4144468,24
4145092,25
4145716,21
4146348,20
4146968,24
4147596,34
4148220,44
4148848,44
4149476,32
4150100,31
4150728,26
4151360,16
4151976,19
4152608,37
4153228,54
4153860,63
4154488,72
4155112,68
4155744,49
4156368,29
4156992,15
4157620,13
4158240,43
4158868,80
4159500,76
4160120,72
4160748,70
4161372,60
4162000,24
4162628,28
4163244,21
4163876,22
4164496,45
4165124,65
4165752,71
4166376,65
4167004,41
4167628,15
4168252,39
4168880,43
4169504,53
4170132,87
4170764,66
4171384,35
4172012,22
4172636,18
4173268,12
4173896,16
4174512,21
4175144,21
4175768,41
4176392,29
4177020,14
4177640,17
4178268,18
4178892,14
4179516,11
4180144,21
4180760,32
4181388,48
4182012,62
4182640,48
4183268,29
4183892,19
4184520,14
4185152,21
4185768,36
4186396,35
4187020,28
4187648,28
4188280,31
4188896,21
4189524,11
4190148,24
4190772,40
4191400,47
4192024,52
4192652,46
4193276,43
4193904,15
4194532,32
4195156,51
4195788,35
4196420,13
4197040,22
4197668,40
4198296,55
4198920,56
4199548,48
4200168,33
4200796,17
4201420,13
4202044,29
4202672,48
4203288,54
4203920,66
4204540,46
4205168,16
4205796,11
4206420,9
4206996,11
4207628,12
4208248,17
4208876,23
4209500,22
4210128,27
4210760,27
4211376,19
4212008,11
4212628,11
4213252,27
4213884,44
4214504,63
4215132,72
4215756,53
4216380,32
4217012,15
4217632,33
4218260,49
4218892,50
4219512,45
4220140,36
4220764,21
4221396,17
4222028,16
4222648,25
4223276,20
4223904,13
4224528,13
4225156,21
4225776,32
4226404,20
4227028,10
4227648,17
4228280,31
4228896,45
4229524,47
4230156,54
4230776,78
4231404,88
4232028,53
4232656,23
4233288,35
4233904,16
4234532,15
4235156,11
4235784,10
4236412,30
4237032,20
4237660,21
4238284,19
4238908,17
4239540,13
4240160,55
4240788,112
4241468,127
4242140,84
4242764,51
4243388,28
4244012,11
4244644,18
4245264,31
4245892,40
4246516,57
4247140,79
4247772,104
4248448,109
4249120,91
4249752,79
4250368,55
4250996,47
4251620,25
4252244,13
4252872,38
4253496,40
4254124,16
4254756,28
4255376,53
4256004,47
4256628,33
4257260,16
4257888,13
4258508,33
4259136,63
4259764,66
4260388,34
4261016,10
4261632,14
4262264,15
4262888,15
4263508,29
4264140,38
4264760,53
4265388,55
4266020,28
4266640,25
4267268,27
4267892,19
4268520,11
4269152,22
4269768,22
4270400,17
4271024,13
4271648,11
4272276,9
4272844,11
4273476,13
4274100,13
4274724,18
4275356,15
4275976,14
4276604,16
4277228,14
4277852,10
4278484,18
4279108,11
4279736,37
4280368,79
4280984,76
4281612,66
4282236,35
4282864,17
4283492,32
4284112,17
4284740,17
4285368,33
4285992,36
4286620,31
4287240,32
4287872,33
4288496,23
4289116,11
4289748,23
4290372,26
4291004,14
4291632,15
4292252,15
4292880,47
4293504,39
4294132,11
4294764,10
4295384,14
4296012,19
4296636,21
4297260,21
4297892,38
4298512,45
4299140,17
4299768,15
4300392,14
4301024,15
4301648,11
4302276,14
4302904,25
4303524,32
4304152,27
4304776,20
4305404,17
4306032,28
4306656,23
4307284,19
4307908,14
4308532,15
4309160,21
4309776,14
4310408,25
4311032,32
4311656,28
4312284,20
4312912,14
4313540,38
4314172,61
4314792,76
4315424,74
4316048,72
4316676,67
4317308,54
4317928,47
4318556,25
4319184,19
4319808,70
4320440,108
4321108,81
4321732,52
4322364,50
4322984,42
4323612,25
4324236,16
4324868,13
4325496,14
4326112,17
4326744,15
4327368,17
4327988,25
4328620,11
4329240,18
4329868,31
4330492,56
4331120,64
4331752,64
4332376,63
4333004,49
4333636,33
4334256,20
4334884,11
4335508,23
4336136,31
4336764,14
4337384,13
4338012,10
4338636,26
4339264,56
4339892,63
4340512,40
4341140,17
4341772,14
4342392,24
4343020,33
4343648,22
4344276,11
4344908,10
4345528,13
4346160,17
4346784,31
4347408,47
4348036,55
4348656,51
4349288,35
4349912,27
4350536,14
4351168,15
4351784,12
4352416,13
4353048,10
4353664,23
4354292,49
4354916,44
4355544,29
4356176,46
4356792,57
4357424,44
4358048,18
4358668,17
4359300,13
4359920,17
4360548,16
4361172,43
4361796,41
4362428,22
4363048,11
4363676,43
4364308,59
4364928,60
4365556,39
4366180,17
4366812,17
4367440,16
4368056,11
4368688,12
4369308,22
4369932,55
4370564,91
4371184,89
4371816,40
4372440,17
4373064,11
4373692,15
4374312,20
4374944,25
4375572,29
4376192,33
4376824,36
4377448,35
4378076,37
4378708,46
4379328,49
4379956,48
4380584,56
4381208,71
4381836,68
4382456,53
4383088,37
4383712,34
4384336,39
4384964,28
4385584,17
4386212,27
4386844,61
4387464,110
4388144,138
4388820,102
4389492,56
4390120,41
4390744,33
4391372,20
4392004,14
4392624,15
4393256,15
4393880,11
4394504,13
4395136,31
4395752,28
4396384,26
4397008,55
4397632,73
4398264,65
4398880,58
4399512,53
4400144,35
4400760,14
4401392,38
4402016,47
4402644,53
4403276,58
4403896,44
4404524,33
4405148,31
4405772,31
4406400,39
4407016,33
4407648,13
4408272,45
4408896,55
4409524,59
4410144,72
4410776,61
4411404,52
4412024,46
4412652,53
4413280,55
4413908,61
4414540,57
4415160,50
4415792,43
4416416,29
4417040,14
4417668,25
4418288,58
4418916,91
4419540,97
4420168,77
4420796,43
4421416,21
4422048,13
4422676,23
4423296,27
4423928,32
4424552,16
4425180,14
4425808,26
4426432,48
4427060,51
4427684,45
4428308,17
4428940,16
4429560,15
4430188,51
4430812,70
4431436,64
4432068,60
4432688,55
4433316,53
4433948,48
4434568,34
4435196,10
4435824,30
4436452,47
4437084,63
4437704,57
4438336,77
4438960,77
4439584,59
4440216,57
4440832,46
4441460,35
4442088,17
4442712,22
4443340,35
4443960,49
4444592,60
4445220,56
4445840,33
4446468,19
4447092,15
4447724,31
4448356,55
4448976,61
4449604,57
4450228,39
4450852,15
4451484,22
4452104,39
4452736,42
4453360,42
4453984,43
4454616,43
4455240,45
4455868,45
4456500,21
4457120,31
4457748,33
4458376,37
4459004,41
4459636,44
4460256,42
4460884,34
4461508,12
4462136,15
4462764,14
4463384,28
4464016,39
4464640,14
4465264,13
4465892,19
4466520,15
4467148,17
4467780,18
4468400,13
4469028,10
4469656,21
4470280,47
4470912,29
4471528,13
4472160,19
4472784,47
4473408,50
4474040,36
4474656,16
4475288,15
4475920,17
4476540,21
4477172,29
4477796,33
4478428,31
4479060,18
4479680,20
4480312,37
4480936,49
4481560,63
4482188,62
4482808,60
4483436,59
4484060,47
4484684,22
4485316,18
4485936,41
4486564,37
4487196,38
4487816,59
4488444,61
4489068,54
4489700,51
4490328,37
4490948,19
4491576,15
4492200,17
4492824,34
4493452,19
4494072,12
4494704,23
4495328,16
4495952,27
4496584,66
4497200,88
4497828,88
4498460,88
4499080,63
4499712,33
4500336,25
4500964,26
4501596,21
4502216,21
4502848,23
4503472,11
4504096,33
4504728,79
4505344,88
4505976,67
4506600,88
4507220,94
4507852,46
4508472,14
4509100,15
4509732,12
4510352,14
4510984,37
4511608,49
4512236,46
4512864,29
4513488,36
4514116,54
4514740,68
4515364,51
4515996,33
4516616,29
4517244,21
4517868,15
4518492,15
4519124,27
4519748,35
4520376,22
4521004,19
4521624,12
4522252,20
4522876,23
4523508,16
4524140,12
4524760,16
4525392,13
4526016,21
4526640,24
4527268,16
4527888,11
4528520,11
4529140,21
4529764,37
4530396,49
4531020,53
4531652,46
4532280,38
4532904,24
4533532,14
4534156,24
4534788,36
4535420,54
4536040,70
4536668,59
4537292,16
4537916,33
4538548,39
4539168,39
4539800,49
4540428,39
4541048,31
4541680,31
4542304,32
4542932,34
4543564,10
4544184,27
4544816,29
4545440,23
4546064,13
4546692,42
4547312,67
4547940,59
4548564,49
4549188,37
4549820,27
4550440,21
4551068,14
4551700,34
4552320,55
4552948,59
4553576,59
4554204,44
4554836,22
4555456,11
4556088,12
4556712,21
4557336,27
4557968,42
4558588,31
4559216,15
4559840,17
4560464,23
4561092,10
4561712,15
4562344,12
4562972,26
4563592,39
4564224,37
4564848,14
4565476,13
4566108,14
4566728,25
4567356,32
4567984,29
4568608,10
4569236,46
4569856,53
4570484,44
4571108,83
4571736,82
4572364,70
4572984,58
4573612,28
4574244,11
4574864,24
4575496,30
4576120,34
4576748,39
4577380,28
4578000,27
4578628,31
4579256,37
4579880,53
4580508,66
4581128,67
4581760,59
4582384,32
4583008,14
4583640,13
4584264,14
4584896,11
4585524,20
4586144,40
4586776,47
4587400,42
4588032,33
4588660,27
4589280,21
4589908,17
4590532,31
4591160,41
4591788,35
4592408,21
4593036,13
4593660,30
4594288,48
4594916,79
4595544,89
4596172,102
4596856,132
4597524,132
4598204,107
4598884,48
4599504,28
4600136,47
4600760,49
4601384,97
4602016,111
4602684,72
4603312,56
4603940,43
4604560,19
4605192,10
4605816,12
4606448,14
4607076,15
4607696,15
4608328,16
4608948,16
4609572,14
4610200,34
4610824,59
4611452,72
4612076,42
4612700,27
4613328,12
4613944,13
4614576,11
4615204,28
4615824,31
4616452,14
4617076,19
4617708,23
4618336,10
4618956,30
4619584,47
4620208,43
4620832,33
4621460,24
4622080,19
4622708,18
4623332,17
4623956,19
4624588,14
4625208,14
4625836,16
4626468,21
4627088,10
4627720,15
4628344,11
4628972,38
4629604,64
4630224,83
4630852,85
4631476,83
4632104,49
4632732,18
4633352,16
4633984,14
4634608,16
4635232,35
4635860,62
4636484,63
4637116,35
4637744,20
4638368,22
4639000,28
4639624,25
4640252,15
4640884,20
4641504,35
4642132,20
4642756,13
4643380,10
4644012,16
4644632,17
4645260,18
4645884,26
4646512,42
4647140,45
4647764,55
4648396,69
4649024,61
4649648,48
4650276,34
4650900,19
4651528,9
4652104,14
4652728,27
4653360,36
4653984,40
4654608,41
4655236,43
4655856,42
4656488,31
4657112,26
4657736,17
4658364,14
4658984,18
4659616,23
4660244,26
4660864,19
4661492,12
4662116,12
4662748,12
4663376,29
4664000,46
4664628,57
4665252,53
4665880,41
4666508,28
4667128,29
4667760,21
4668384,13
4669008,27
4669640,28
4670256,19
4670884,15
4671516,30
4672136,38
4672768,51
4673392,71
4674020,69
4674648,34
4675272,14
4675900,15
4676524,26
4677148,47
4677780,61
4678400,76
4679028,78
4679652,100
4680332,102
4681008,83
4681632,70
4682256,40
4682884,14
4683504,54
4684136,66
4684760,79
4685384,94
4686016,93
4686632,69
4687264,51
4687896,23
4688512,10
4689144,11
4689768,17
4690396,26
4691028,34
4691648,31
4692276,16
4692904,51
4693528,76
4694160,68
4694776,55
4695408,31
4696032,29
4696656,43
4697284,42
4697904,39
4698536,22
4699164,20
4699784,26
4700416,21
4701040,23
4701672,25
4702300,10
4702920,10
4703552,13
4704176,35
4704800,30
4705432,22
4706052,15
4706680,34
4707308,23
4707932,25
4708564,49
4709188,51
4709820,38
4710452,19
4711072,11
4711700,12
4712324,27
4712956,48
4713588,70
4714208,84
4714840,83
4715464,63
4716088,25
4716716,48
4717336,61
4717968,49
4718600,48
4719216,81
4719848,75
4720472,45
4721104,16
4721732,20
4722352,21
4722984,28
4723608,34
4724232,30
4724860,33
4725480,30
4726112,25
4726736,12
4727360,19
4727988,14
4728608,11
4729240,17
4729872,23
4730488,41
4731120,46
4731744,45
4732376,42
4733004,40
4733624,45
4734256,39
4734880,14
4735504,28
4736136,48
4736752,38
4737380,51
4738004,65
4738628,57
4739260,42
4739880,30
4740512,33
4741140,22
4741760,17
4742388,13
4743016,11
4743644,11
4744276,18
4744896,28
4745528,24
4746152,13
4746776,15
4747408,18
4748024,51
4748656,67
4749280,59
4749904,49
4750536,29
4751160,17
4751792,10
4752424,15
4753044,20
4753672,18
4754296,24
4754928,24
4755556,16
4756176,20
4756808,17
4757428,13
4758056,15
4758688,16
4759304,15
4759936,32
4760560,46
4761184,54
4761816,57
4762440,61
4763068,48
4763700,36
4764320,12
4764948,17
4765572,15
4766204,21
4766836,14
4767456,14
4768088,10
4768708,10
4769336,13
4769964,16
4770584,15
4771212,15
4771840,18
4772464,25
4773096,22
4773720,21
4774348,46
4774980,48
4775600,25
4776232,17
4776856,15
4777480,27
4778112,45
4778728,55
4779360,55
4779984,68
4780608,70
4781240,51
4781860,20
4782492,14
4783120,14
4783744,17
4784376,15
4785000,11
4785632,15
4786260,15
4786880,11
4787512,21
4788136,53
4788760,72
4789392,80
4790012,69
4790640,39
4791268,25
4791892,21
4792524,15
4793144,22
4793776,47
4794404,61
4795024,66
4795656,68
4796280,68
4796912,75
4797544,74
4798164,62
4798792,39
4799420,15
4800044,12
4800672,18
4801296,21
4801924,32
4802548,37
4803172,48
4803804,66
4804428,70
4805056,47
4805688,34
4806304,18
4806936,14
4807560,18
4808192,22
4808820,14
4809440,13
4810068,13
4810696,15
4811320,20
4811948,19
4812568,14
4813200,31
4813820,32
4814448,22
4815076,39
4815700,68
4816332,86
4816960,86
4817584,59
4818216,17
4818836,17
4819464,61
4820092,74
4820712,57
4821344,52
4821968,43
4822592,31
4823220,18
4823840,13
4824468,25
4825100,30
4825720,25
4826348,22
4826972,51
4827604,38
4828236,37
4828856,50
4829484,62
4830112,77
4830736,60
4831364,44
4831984,25
4832616,23
4833240,44
4833864,35
4834492,24
4835112,20
4835744,13
4836372,21
4836992,28
4837620,28
4838248,20
4838876,17
4839508,32
4840128,26
4840756,23
4841380,21
4842004,17
4842636,13
4843256,27
4843884,64
4844512,38
4845136,16
4845764,12
4846384,38
4847016,62
4847644,69
4848264,58
4848892,29
4849516,25
4850148,16
4850780,14
4851400,10
4852028,27
4852656,24
4853280,11
4853908,20
4854528,26
4855156,11
4855784,23
4856408,22
4857036,32
4857656,38
4858288,39
4858920,17
4859536,15
4860168,22
4860792,23
4861424,19
4862056,12
4862676,14
4863308,41
4863932,54
4864560,71
4865188,66
4865808,48
4866436,37
4867060,32
4867688,13
4868316,33
4868940,40
4869572,45
4870204,36
4870824,38
4871452,51
4872080,54
4872708,54
4873340,44
4873960,29
4874592,19
4875216,13
4875840,17
4876468,19
4877088,27
4877716,28
4878348,23
4878968,33
4879600,52
4880224,72
4880852,76
4881484,80
4882104,52
4882732,18
4883360,16
4883980,14
4884612,11
4885232,17
4885860,27
4886488,26
4887112,11
4887740,11
4888360,15
4888988,11
4889620,32
4890240,60
4890868,42
4891492,36
4892124,23
4892756,12
4893376,43
4894008,51
4894632,32
4895256,31
4895888,29
4896508,25
4897136,16
4897760,12
4898384,14
4899016,16
4899636,21
4900268,25
4900896,19
4901520,12
4902152,13
4902776,11
4903408,16
4904036,20
4904656,25
4905288,12
4905912,17
4906536,23
4907168,32
4907788,25
4908420,14
4909044,14
4909668,26
4910300,33
4910928,36
4911556,29
4912192,20
4912808,23
4913440,37
4914064,49
4914696,48
4915328,45
4915944,47
4916572,66
4917196,83
4917820,68
4918448,31
4919072,14
4919700,59
4920332,78
4920952,73
4921580,80
4922204,76
4922836,45
4923464,46
4924088,35
4924716,57
4925344,66
4925968,32
4926596,14
4927216,53
4927844,76
4928472,81
4929092,70
4929724,66
4930344,60
4930972,67
4931604,34
4932224,50
4932852,79
4933476,64
4934108,19
4934736,10
4935360,10
4935988,16
4936612,20
4937236,16
4937868,10
4938488,18
4939116,32
4939740,27
4940368,27
4940996,27
4941616,21
4942244,14
4942876,18
4943496,22
4944124,24
4944748,26
4945380,22
4946012,19
4946632,25
4947260,21
4947884,27
4948508,31
4949140,23
4949760,21
4950388,29
4951016,23
4951640,11
4952272,26
4952888,30
4953520,33
4954152,36
4954768,31
4955400,45
4956024,28
4956656,19
4957284,12
4957904,18
4958536,35
4959160,43
4959784,49
4960416,49
4961032,45
4961660,53
4962284,31
4962908,53
4963540,74
4964164,87
4964792,82
4965424,27
4966040,38
4966672,69
4967292,119
4967976,100
4968648,71
4969272,46
4969900,30
4970532,12
4971152,17
4971784,16
4972408,42
4973036,29
4973668,18
4974288,38
4974916,41
4975544,35
4976168,47
4976796,40
4977416,13
4978044,11
4978668,24
4979296,34
4979924,62
4980548,77
4981176,67
4981808,64
4982424,71
4983056,61
4983680,17
4984308,45
4984940,70
4985560,87
4986192,75
4986816,60
4987440,44
4988072,32
4988688,31
4989320,29
4989944,21
4990568,15
4991200,14
4991824,17
4992456,17
4993084,15
4993704,11
4994332,11
4994960,26
4995588,42
4996220,56
4996840,61
4997468,63
4998092,67
4998716,48
4999348,28
4999968,22
5000596,21
5001228,22
5001848,55
5002476,56
5003100,40
5003732,26
5004364,18
5004984,17
5005612,23
5006236,29
5006864,35
5007492,55
5008112,42
5008740,18
5009364,49
5009992,61
5010620,66
5011240,67
5011868,65
5012500,57
5013120,64
5013752,65
5014376,56
5015008,35
5015640,14
5016260,19
5016888,20
5017516,21
5018140,33
5018772,43
5019392,49
5020024,41
5020648,41
5021272,41
5021900,46
5022520,47
5023152,27
5023780,16
5024400,14
5025028,18
5025652,41
5026284,53
5026916,44
5027536,40
5028168,52
5028792,65
5029416,69
5030048,66
5030664,74
5031296,71
5031920,43
5032544,21
5033176,58
5033800,32
5034432,33
5035060,47
5035680,33
5036312,19
5036936,11
5037568,16
5038200,42
5038816,34
5039448,17
5040072,38
5040696,84
5041324,102
5041996,60
5042624,14
5043252,31
5043872,41
5044500,47
5045124,45
5045756,53
5046388,58
5047008,69
5047640,67
5048264,49
5048888,28
5049516,14
5050136,26
5050768,23
5051400,22
5052016,22
5052648,22
5053272,44
5053904,46
5054536,23
5055156,21
5055788,22
5056412,35
5057036,17
5057668,24
5058288,52
5058920,48
5059544,49
5060168,31
5060800,28
5061416,25
5062048,30
5062680,24
5063296,17
5063928,35
5064552,59
5065184,55
5065816,40
5066432,23
5067064,14
5067688,11
5068316,33
5068948,64
5069568,66
5070200,46
5070824,29
5071448,35
5072080,36
5072696,32
5073328,15
5073956,14
5074576,22
5075208,27
5075832,22
5076464,22
5077096,27
5077716,25
5078348,26
5078972,20
5079600,28
5080232,84
5080848,131
5081532,130
5082212,129
5082884,96
5083508,63
5084136,19
5084760,132
5085444,125
5086116,124
5086788,104
5087468,63
5088088,65
5088720,42
5089348,32
5089968,23
5090600,12
5091224,17
5091848,14
5092480,22
5093096,17
5093728,21
5094352,21
5094980,37
5095612,56
5096232,65
5096864,70
5097496,65
5098116,54
5098748,26
5099372,35
5100004,51
5100636,39
5101256,39
5101888,38
5102516,26
5103140,11
5103772,13
5104392,21
5105024,11
5105652,17
5106276,28
5106908,27
5107536,23
5108164,14
5108796,15
5109420,25
5110052,22
5110676,23
5111304,22
5111936,24
5112556,36
5113188,52
5113816,55
5114440,47
5115072,46
5115700,39
5116332,33
5116964,24
5117584,14
5118220,10
5118844,20
5119476,29
5120112,31
5120728,28
5121356,24
5121976,26
5122600,21
5123228,15
5123844,15
5124476,16
5125096,16
5125720,14
5126348,27
5126968,45
5127596,42
5128228,28
5128848,24
5129476,26
5130100,46
5130728,45
5131356,36
5131976,24
5132604,13
5133228,17
5133852,24
5134484,48
5135104,81
5135732,65
5136356,22
5136980,11
5137608,10
5138232,10
5138860,16
5139492,12
5140112,15
5140740,13
5141364,29
5141996,46
5142624,48
5143244,43
5143872,40
5144496,41
5145120,13
5145748,49
5146368,25
5146996,18
5147620,33
5148244,37
5148872,31
5149496,27
5150124,15
5150756,12
5151376,13
5152004,10
5152628,10
5153260,17
5153888,29
5154508,36
5155136,14
5155764,19
5156388,13
5157016,19
5157636,35
5158268,43
5158892,95
5159516,92
5160144,34
5160768,12
5161400,23
5162028,48
5162648,58
5163276,57
5163900,45
5164532,61
5165160,65
5165784,27
5166412,26
5167036,30
5167660,11
5168292,17
5168912,33
5169540,33
5170168,34
5170792,28
5171420,21
5172044,18
5172676,13
5173304,14
5173920,16
5174552,17
5175176,15
5175808,25
5176436,33
5177056,13
5177684,13
5178308,10
5178932,17
5179564,32
5180184,41
5180812,52
5181436,62
5182064,50
5182696,30
5183320,14
5183952,13
5184584,13
5185200,17
5185828,17
5186452,39
5187080,29
5187708,10
5188328,13
5188956,17
5189580,13
5190208,14
5190836,12
5191456,16
5192088,26
5192716,41
5193336,42
5193968,31
5194592,14
5195220,19
5195852,52
5196472,83
5197104,81
5197728,62
5198352,57
5198984,45
5199600,18
5200232,27
5200856,12
5201480,16
5202108,60
5202728,87
5203356,95
5203988,74
5204608,40
5205236,27
5205860,26
5206492,27
5207120,15
5207740,13
5208368,14
5208992,14
5209616,16
5210244,14
5210864,17
5211496,31
5212120,39
5212744,56
5213376,76
5213992,76
5214624,67
5215256,33
5215872,21
5216504,15
5217128,15
5217756,21
5218388,32
5219008,43
5219640,27
5220264,19
5220888,18
5221516,14
5222136,19
5222768,14
5223392,17
5224016,29
5224644,14
5225264,14
5225892,45
5226524,62
5227144,49
5227776,41
5228400,13
5229028,68
5229660,102
5230332,104
5231012,109
5231692,85
5232312,50
5232944,16
5233568,38
5234192,30
5234824,54
5235440,66
5236072,66
5236696,65
5237320,59
5237952,71
5238568,46
5239200,32
5239832,28
5240448,23
5241080,16
5241704,17
5242332,32
5242964,50
5243584,57
5244212,49
5244836,26
5245456,29
5246088,66
5246704,85
5247332,80
5247960,69
5248584,50
5249212,48
5249832,41
5250460,33
5251088,24
5251704,91
5252336,99
5252960,77
5253588,51
5254216,36
5254836,50
5255464,53
5256088,24
5256708,14
5257340,18
5257960,19
5258588,15
5259212,25
5259836,37
5260464,28
5261088,19
5261716,33
5262348,36
5262968,51
5263596,56
5264220,60
5264852,47
5265480,24
5266096,14
5266724,19
5267348,14
5267972,11
5268604,14
5269224,22
5269852,17
5270476,10
5271100,11
5271728,16
5272352,48
5272980,55
5273612,50
5274232,37
5274860,20
5275484,14
5276112,20
5276744,35
5277364,30
5277992,19
5278616,13
5279240,24
5279868,37
5280488,44
5281116,42
5281740,40
5282364,35
5282992,23
5283612,19
5284240,12
5284860,10
5285488,23
5286116,30
5286740,25
5287368,19
5287996,14
5288616,17
5289244,15
5289868,17
5290496,17
5291124,15
5291744,15
5292372,16
5292996,14
5293620,14
5294248,20
5294872,24
5295500,27
5296124,45
5296752,51
5297380,45
5298004,40
5298632,26
5299264,24
5299880,26
5300508,19
5301132,10
5301760,18
5302392,24
5303008,24
5303640,23
5304264,24
5304888,32
5305516,34
5306136,34
5306764,33
5307388,26
5308016,19
5308644,13
5309268,15
5309900,19
5310532,24
5311152,25
5311784,17
5312408,16
5313032,47
5313660,66
5314280,79
5314908,70
5315532,87
5316156,121
5316840,107
5317508,56
5318136,33
5318764,27
5319384,23
5320012,131
5320688,169
5321364,126
5322040,95
5322664,84
5323288,75
5323920,64
5324536,71
5325168,30
5325788,29
5326412,30
5327040,41
5327656,55
5328284,68
5328912,53
5329536,48
5330164,71
5330788,78
5331416,68
5332048,46
5332664,49
5333292,24
5333916,13
5334540,13
5335168,22
5335792,52
5336420,80
5337044,87
5337668,59
5338296,34
5338920,28
5339548,29
5340180,48
5340800,44
5341428,21
5342052,14
5342684,21
5343312,28
5343932,36
5344564,38
5345188,36
5345812,38
5346440,50
5347056,63
5347688,63
5348312,41
5348936,31
5349564,16
5350184,13
5350816,14
5351444,14
5352064,23
5352692,42
5353316,41
5353948,33
5354576,36
5355196,36
5355824,28
5356448,16
5357072,14
5357704,15
5358324,14
5358952,23
5359576,36
5360200,35
5360828,28
5361448,41
5362076,41
5362708,46
5363328,51
5363956,66
5364580,80
5365212,62
5365840,24
5366464,25
5367092,40
5367716,52
5368340,57
5368968,56
5369592,33
5370224,13
5370848,18
5371472,31
5372100,32
5372720,40
5373352,56
5373980,78
5374600,60
5375232,18
5375856,25
5376488,24
5377116,18
5377736,31
5378364,51
5378988,46
5379612,17
5380240,13
5380856,11
5381488,12
5382112,13
5382736,13
5383364,30
5383984,38
5384612,25
5385244,12
5385864,15
5386492,35
5387116,51
5387748,44
5388376,26
5389000,42
5389628,48
5390252,29
5390876,16
5391508,15
5392128,28
5392756,43
5393380,48
5394004,53
5394636,49
5395256,49
5395884,66
5396516,79
5397136,72
5397764,57
5398388,16
5399020,13
5399652,13
5400272,14
5400900,12
5401528,24
5402152,25
5402780,29
5403400,40
5404028,40
5404656,31
5405280,36
5405908,32
5406532,29
5407164,22
5407792,14
5408416,13
5409044,13
5409668,17
5410296,18
5410924,18
5411544,22
5412172,32
5412796,44
5413420,44
5414052,49
5414672,44
5415300,23
5415924,16
5416548,17
5417180,15
5417804,20
5418432,36
5419064,37
5419680,21
5420312,14
5420936,32
5421564,56
5422196,42
5422816,22
5423444,13
5424072,14
5424692,17
5425324,14
5425944,22
5426572,28
5427200,28
5427820,33
5428452,35
5429076,41
5429704,57
5430336,71
5430956,75
5431584,66
5432208,57
5432840,33
5433468,14
5434088,45
5434716,67
5435344,63
5435968,50
5436596,56
5437216,54
5437848,28
5438476,12
5439096,12
5439728,13
5440352,15
5440980,41
5441608,34
5442232,18
5442860,38
5443484,71
5444108,74
5444736,23
5445356,12
5445984,39
5446608,59
5447232,53
5447860,18
5448480,23
5449108,51
5449736,56
5450360,40
5450988,35
5451612,37
5452244,23
5452872,43
5453488,68
5454120,40
5454744,32
5455364,37
5455996,38
5456616,39
5457244,16
5457868,45
5458492,60
5459124,62
5459744,70
5460372,55
5461004,36
5461624,11
5462252,19
5462880,39
5463508,86
5464140,81
5464760,48
5465388,15
5466016,25
5466640,29
5467268,19
5467888,18
5468516,17
5469140,30
5469764,39
5470396,48
5471016,57
5471648,62
5472276,49
5472896,27
5473524,13
5474148,21
5474780,33
5475412,36
5476032,31
5476660,15
5477288,37
5477912,69
5478540,86
5479160,89
5479788,80
5480412,84
5481036,82
5481668,29
5482288,13
5482916,35
5483548,70
5484168,49
5484796,15
5485424,13
5486052,45
5486684,51
5487304,31
5487936,29
5488560,48
5489184,56
5489812,31
5490432,17
5491060,17
5491688,13
5492312,19
5492940,18
5493560,16
5494192,21
5494820,26
5495440,43
5496068,64
5496692,80
5497324,77
5497956,75
5498576,73
5499208,56
5499828,28
5500456,19
5501084,44
5501704,58
5502336,73
5502960,63
5503584,47
5504216,46
5504840,57
5505468,43
5506100,19
5506720,17
5507348,17
5507972,21
5508604,21
5509236,24
5509856,27
5510484,27
5511108,17
5511732,28
5512364,41
5512984,47
5513612,44
5514236,45
5514864,38
5515496,19
5516120,21
5516752,26
5517384,14
5518000,16
5518632,39
5519256,49
5519880,34
5520512,16
5521128,14
5521756,17
5522384,14
5523008,13
5523640,16
5524256,35
5524888,25
5525516,18
5526136,23
5526768,20
5527392,11
5528024,44
5528652,21
5529272,27
5529904,55
5530528,60
5531152,46
5531780,31
5532400,32
5533028,29
5533652,37
5534276,17
5534908,14
5535528,33
5536160,73
5536788,88
5537408,67
5538036,23
5538660,11
5539292,13
5539924,22
5540544,22
5541172,22
5541796,14
5542424,23
5543052,12
5543672,12
5544304,13
5544928,15
5545552,11
5546184,11
5546800,15
5547432,39
5548064,37
5548680,19
5549312,16
5549936,21
5550568,13
5551196,12
5551816,18
5552448,32
5553072,30
5553696,24
5554328,11
5554944,12
5555576,16
5556200,30
5556824,37
5557452,23
5558072,27
5558704,69
5559336,76
5559956,49
5560584,11
5561212,18
5561840,27
5562472,38
5563092,45
5563720,53
5564348,71
5564972,73
5565604,43
5566224,15
5566856,25
5567480,42
5568104,61
5568736,52
5569360,37
5569992,33
5570620,27
5571240,15
5571868,11
5572492,32
5573124,39
5573752,28
5574372,25
5575004,15
5575628,12
5576252,13
5576884,10
5577504,33
5578136,18
5578764,17
5579384,38
5580016,57
5580640,77
5581272,66
5581900,26
5582520,27
5583148,27
5583776,18
5584400,25
5585028,39
5585648,39
5586276,24
5586900,12
5587528,37
5588156,32
5588776,25
5589408,13
5590036,14
5590656,22
5591288,14
5591912,19
5592544,12
5593172,20
5593792,20
5594424,37
5595048,67
5595672,30
5596304,24
5596920,44
5597552,53
5598176,53
5598800,43
5599432,23
5600052,15
5600680,21
5601308,17
5601928,33
5602556,30
5603180,19
5603812,16
5604444,20
5605064,26
5605692,31
5606320,28
5606944,15
5607572,16
5608192,22
5608820,21
5609444,24
5610068,23
5610700,33
5611320,28
5611952,30
5612580,40
5613200,45
5613828,49
5614452,48
5615084,14
5615716,17
5616336,14
5616964,14
5617588,19
5618212,41
5618844,40
5619464,13
5620092,27
5620716,29
5621344,16
5621972,11
5622600,15
5623228,22
5623860,46
5624480,57
5625108,39
5625736,17
5626364,25
5626996,37
5627616,32
5628248,35
5628872,54
5629496,83
5630128,88
5630744,85
5631376,65
5632008,50
5632624,21
5633252,52
5633876,74
5634504,79
5635136,54
5635752,39
5636384,37
5637008,31
5637636,23
5638268,19
5638888,11
5639516,32
5640140,36
5640764,33
5641396,28
5642016,26
5642644,23
5643276,16
5643896,11
5644524,10
5645148,33
5645780,61
5646408,70
5647032,53
5647664,61
5648288,61
5648908,38
5649540,32
5650160,65
5650788,75
5651416,55
5652040,50
5652668,42
5653288,45
5653916,37
5654548,14
5655168,13
5655796,15
5656424,35
5657052,54
5657684,45
5658304,27
5658932,21
5659556,26
5660180,16
5660808,10
5661432,27
5662060,44
5662688,77
5663312,89
5663944,108
5664612,130
5665288,116
5665968,68
5666592,47
5667220,24
5667852,14
5668472,62
5669104,79
5669728,72
5670356,63
5670988,46
5671608,32
5672240,24
5672864,24
5673488,18
5674116,21
5674736,20
5675368,14
5675992,15
5676616,47
5677248,84
5677864,100
5678548,87
5679176,64
5679796,42
5680424,50
5681052,43
5681676,17
5682304,53
5682924,27
5683556,18
5684180,31
5684804,38
5685432,37
5686052,41
5686680,33
5687308,26
5687928,25
5688560,26
5689184,34
5689812,34
5690444,24
5691064,17
5691696,14
5692320,21
5692944,45
5693572,40
5694192,26
5694824,15
5695448,15
5696072,21
5696700,31
5697320,50
5697948,40
5698580,18
5699200,15
5699828,15
5700452,22
5701084,26
5701716,16
5702336,11
5702968,12
5703592,10
5704216,13
5704848,15
5705464,15
5706096,22
5706720,22
5707344,27
5707976,44
5708596,35
5709224,27
5709856,29
5710476,13
5711104,21
5711732,47
5712364,56
5712996,60
5713616,65
5714248,60
5714872,26
5715496,21
5716128,23
5716744,31
5717376,17
5718000,33
5718624,53
5719256,35
5719880,39
5720512,29
5721140,16
5721760,13
5722388,13
5723016,21
5723648,25
5724280,23
5724896,24
5725528,39
5726152,16
5726776,51
5727408,63
5728028,42
5728660,22
5729288,11
5729912,29
5730544,48
5731168,64
5731800,67
5732432,71
5733052,64
5733684,52
5734308,24
5734936,22
5735564,68
5736184,93
5736812,80
5737436,62
5738060,52
5738692,42
5739312,27
5739940,15
5740572,14
5741192,13
5741820,13
5742448,15
5743076,24
5743708,28
5744328,25
5744956,31
5745580,51
5746208,76
5746836,104
5747508,108
5748188,78
5748816,55
5749432,33
5750064,15
5750688,24
5751312,67
5751944,69
5752560,33
5753192,16
5753816,16
5754440,24
5755072,28
5755688,14
5756320,15
5756952,13
5757568,18
5758200,20
5758824,13
5759456,11
5760084,38
5760700,37
5761332,19
5761952,19
5762576,63
5763204,92
5763824,79
5764452,51
5765076,37
5765700,21
5766328,13
5766952,13
5767580,12
5768212,32
5768832,56
5769460,56
5770084,55
5770716,43
5771344,31
5771964,23
5772592,16
5773220,14
5773844,24
5774472,21
5775092,19
5775720,21
5776344,29
5776968,35
5777596,10
5778216,23
5778844,21
5779476,63
5780096,70
5780724,61
5781348,31
5781980,13
5782608,16
5783232,14
5783860,11
5784484,11
5785108,10
5785740,17
5786360,29
5786988,30
5787612,19
5788236,11
5788864,14
5789488,48
5790116,54
5790748,20
5791368,17
5791996,14
5792624,12
5793252,11
5793884,10
5794504,11
5795132,18
5795760,43
5796384,65
5797012,67
5797632,61
5798264,21
5798888,18
5799508,16
5800140,23
5800760,77
5801392,100
5802072,68
5802688,28
5803316,13
5803944,10
5804568,18
5805196,26
5805816,25
5806448,19
5807068,15
5807696,21
5808324,18
5808944,18
5809572,24
5810204,40
5810824,41
5811456,35
5812080,37
5812708,59
5813340,86
5813960,92
5814592,64
5815216,21
5815840,18
5816472,18
5817088,33
5817716,56
5818340,58
5818964,65
5819596,55
5820216,39
5820844,21
5821476,14
5822096,10
5822724,14
5823352,20
5823980,22
5824612,14
5825232,15
5825864,13
5826488,14
5827112,27
5827740,31
5828360,40
5828988,56
5829616,72
5830240,79
5830868,63
5831496,28
5832124,13
5832756,24
5833376,25
5834008,23
5834632,44
5835264,81
5835892,70
5836512,40
5837144,27
5837768,16
5838392,24
5839020,36
5839640,27
5840268,26
5840892,34
5841520,31
5842152,32
5842776,40
5843404,14
5844036,38
5844656,49
5845284,25
5845908,22
5846536,57
5847164,79
5847784,79
5848416,64
5849040,67
5849664,68
5850292,46
5850912,10
5851540,36
5852172,50
5852792,33
5853424,28
5854048,35
5854680,47
5855308,43
5855928,29
5856560,22
5857184,25
5857808,24
5858436,18
5859056,12
5859688,21
5860312,35
5860936,21
5861568,11
5862184,18
5862816,45
5863444,54
5864064,55
5864692,36
5865316,31
5865948,25
5866580,15
5867200,26
5867828,38
5868456,23
5869080,13
5869708,12
5870328,11
5870960,10
5871584,27
5872208,50
5872840,47
5873456,39
5874088,36
5874716,34
5875336,46
5875968,44
5876592,15
5877224,22
5877856,47
5878472,68
5879104,82
5879728,91
5880352,101
5881032,84
5881656,31
5882288,16
5882916,20
5883536,28
5884168,41
5884792,43
5885424,16
5886056,30
5886676,31
5887308,10
5887932,19
5888560,25
5889188,32
5889808,69
5890436,112
5891120,69
5891736,25
5892368,12
5892992,11
5893624,11
5894252,12
5894872,15
5895504,27
5896128,40
5896752,43
5897384,48
5898000,56
5898632,53
5899256,43
5899880,28
5900508,13
5901132,15
5901764,27
5902392,38
5903016,29
5903648,19
5904272,18
5904900,22
5905532,17
5906152,13
5906784,18
5907408,32
5908032,47
5908660,51
5909280,52
5909908,36
5910540,10
5911160,35
5911792,39
5912416,19
5913044,45
5913676,50
5914296,42
5914924,39
5915552,35
5916176,27
5916804,17
5917424,11
5918056,18
5918680,30
5919304,49
5919936,46
5920556,36
5921184,37
5921816,37
5922432,38
5923064,24
5923688,15
5924316,14
5924948,14
5925568,11
5926200,14
5926824,13
5927448,12
5928076,31
5928696,58
5929328,89
5929948,100
5930624,84
5931256,64
5931880,41
5932512,27
5933140,14
5933760,27
5934392,41
5935016,48
5935640,42
5936272,25
5936888,34
5937520,33
5938144,15
5938768,13
5939400,14
5940016,12
5940644,17
5941276,14
5941896,14
5942524,17
5943148,11
5943780,32
5944412,52
5945032,59
5945660,56
5946284,81
5946908,134
5947592,140
5948260,106
5948936,54
5949568,24
5950184,15
5950816,66
5951440,144
5952116,152
5952792,153
5953468,109
5954140,64
5954768,43
5955384,32
5956012,28
5956644,24
5957264,23
5957896,14
5958520,13
5959148,11
5959780,22
5960400,32
5961028,32
5961652,30
5962276,45
5962908,62
5963528,91
5964160,94
5964784,57
5965408,26
5966036,15
5966664,13
5967292,12
5967924,20
5968544,39
5969176,39
5969800,39
5970432,25
5971060,14
5971680,10
5972308,11
5972936,15
5973560,13
5974192,16
5974808,15
5975440,15
5976072,9
5976636,17
5977272,17
5977892,12
5978520,30
5979152,42
5979776,47
5980408,64
5981032,73
5981664,79
5982296,57
5982912,40
5983544,29
5984168,15
5984792,13
5985424,14
5986040,19
5986668,27
5987296,39
5987920,32
5988548,26
5989168,55
5989800,66
5990428,38
5991048,15
5991676,18
5992304,12
5992932,11
5993564,10
5994184,10
5994816,12
5995440,18
5996064,33
5996696,41
5997312,40
5997944,35
5998572,45
5999196,37
5999828,25
6000452,13
6001084,15
6001716,33
6002336,47
6002968,37
6003592,18
6004220,11
6004852,12
6005472,11
6006104,13
6006728,15
6007352,18
6007984,15
6008600,30
6009232,20
6009864,11
6010480,15
6011112,17
6011736,14
6012368,11
6013000,14
6013616,14
6014248,13
6014872,12
6015496,22
6016128,30
6016752,18
6017380,12
6018004,21
6018628,23
6019260,11
6019880,10
6020508,13
6021140,22
6021760,23
6022388,12
6023016,24
6023648,30
6024276,14
6024896,30
6025528,18
6026152,11
6026776,11
6027408,13
6028024,46
6028656,52
6029280,61
6029904,61
6030536,54
6031152,36
6031788,27
6032416,18
6033040,14
6033672,11
6034296,10
6034928,14
6035556,21
6036176,21
6036808,26
6037432,50
6038056,100
6038740,90
6039360,50
6039992,30
6040624,16
6041244,16
6041876,37
6042500,43
6043128,31
6043760,27
6044380,30
6045012,39
6045636,50
6046260,47
6046892,54
6047512,70
6048144,53
6048772,38
6049392,47
6050024,76
6050648,70
6051280,41
6051908,21
6052528,18
6053160,43
6053784,121
6054460,134
6055136,95
6055760,60
6056392,50
6057024,49
6057640,27
6058272,15
6058896,15
6059528,17
6060156,10
6060776,10
6061412,13
6062036,26
6062664,43
6063292,44
6063912,45
6064544,37
6065176,47
6065792,58
6066424,72
6067048,70
6067680,56
6068308,22
6068928,12
6069560,15
6070184,17
6070808,40
6071440,60
6072056,57
6072688,41
6073312,26
6073940,29
6074568,34
6075192,35
6075824,18
6076456,10
6077076,15
6077708,37
6078332,60
6078964,68
6079596,67
6080220,67
6080848,65
6081472,43
6082096,28
6082724,28
6083344,19
6083972,11
6084600,20
6085224,32
6085852,34
6086476,38
6087108,44
6087736,58
6088360,56
6088988,31
6089616,27
6090244,23
6090876,14
6091496,14
6092128,12
6092756,12
6093380,21
6094012,26
6094632,32
6095264,36
6095892,54
6096512,75
6097144,86
6097768,74
6098400,51
6099028,30
6099648,22
6100280,13
6100904,10
6101528,13
6102160,22
6102780,26
6103408,21
6104036,16
6104660,18
6105292,38
6105912,76
6106544,69
6107172,28
6107792,15
6108424,21
6109048,13
6109680,13
6110312,10
6110932,13
6111564,15
6112188,50
6112812,70
6113444,88
6114064,81
6114696,47
6115320,28
6115944,22
6116576,25
6117200,19
6117832,16
6118464,45
6119080,37
6119712,27
6120336,17
6120968,11
6121596,12
6122216,10
6122848,14
6123476,13
6124100,15
6124732,22
6125352,33
6125984,48
6126616,27
6127240,27
6127872,28
6128496,11
6129128,38
6129760,55
6130380,62
6131012,44
6131636,26
6132264,25
6132896,32
6133512,23
6134148,20
6134772,54
6135400,53
6136032,31
6136656,12
6137288,22
6137920,27
6138540,18
6139172,17
6139796,15
6140424,14
6141056,30
6141676,27
6142308,11
6142936,31
6143560,41
6144196,30
6144816,33
6145444,39
6146072,40
6146688,39
6147320,45
6147944,40
6148572,43
6149204,37
6149824,28
6150452,12
6151076,36
6151700,73
6152332,62
6152952,35
6153584,32
6154208,37
6154832,36
6155464,26
6156080,19
6156708,13
6157340,14
6157960,24
6158588,33
6159216,31
6159844,28
6160476,28
6161096,25
6161724,23
6162348,41
6162972,41
6163604,30
6164224,26
6164852,27
6165476,25
6166100,17
6166732,12
6167352,16
6167984,36
6168612,47
6169232,47
6169864,36
6170488,31
6171116,27
6171748,31
6172368,27
6172996,17
6173624,13
6174248,22
6174876,38
6175496,61
6176128,57
6176752,51
6177376,53
6178004,47
6178628,49
6179260,38
6179888,12
6180512,12
6181140,13
6181768,14
6182396,19
6183028,16
6183648,15
6184280,37
6184904,45
6185528,42
6186156,32
6186776,24
6187408,11
6188036,10
6188656,13
6189288,15
6189912,21
6190544,17
6191172,34
6191792,85
6192424,67
6193048,17
6193672,28
6194304,45
6194920,36
6195552,37
6196180,50
6196804,71
6197432,61
6198052,42
6198684,38
6199312,36
6199936,28
6200568,11
6201192,28
6201824,45
6202452,52
6203072,49
6203704,38
6204328,23
6204952,20
6205584,18
6206200,14
6206832,15
6207456,15
6208080,14
6208708,10
6209328,15
6209956,23
6210588,20
6211208,17
6211836,22
6212464,46
6213096,67
6213724,77
6214344,52
6214976,28
6215604,25
6216228,28
6216860,14
6217480,19
6218112,45
6218736,56
6219360,42
6219992,32
6220616,41
6221248,43
6221880,38
6222496,23
6223128,13
6223752,20
6224384,21
6225016,24
6225632,42
6226264,61
6226888,68
6227512,59
6228144,53
6228760,58
6229392,45
6230020,20
6230640,13
6231272,23
6231896,19
6232528,16
6233156,14
6233776,18
6234408,17
6235032,11
6235656,11
6236288,10
6236904,9
6237484,11
6238112,16
6238736,22
6239368,59
6239984,72
6240616,44
6241244,18
6241868,12
6242496,11
6243120,10
6243752,10
6244384,15
6245000,43
6245632,109
6246308,136
6246980,126
6247656,99
6248280,88
6248908,61
6249540,22
6250160,113
6250844,158
6251516,142
6252196,124
6252872,88
6253496,54
6254120,47
6254748,41
6255368,29
6255996,16
6256624,13
6257248,24
6257880,42
6258504,58
6259132,70
6259768,67
6260384,58
6261016,47
6261640,36
6262272,41
