tempo_arduino_micro_s,valor_ADC
500,16
1004,10
1504,13
2000,24
2508,33
3000,38
3508,32
4000,27
4504,30
5000,24
5500,18
6000,18
6500,18
7004,14
7500,16
8000,18
8500,16
9000,18
9500,26
10000,27
10516,22
11036,18
11564,11
12084,16
12612,29
13132,44
13660,47
14180,42
14708,39
15228,26
15756,16
16276,22
16796,17
17316,17
17836,25
18356,16
18876,10
19396,15
19916,22
20436,27
20956,29
21476,26
21996,28
22516,27
23036,27
23564,22
24084,16
24612,17
25132,17
25660,18
26180,12
26708,11
27228,11
27756,11
28276,14
28804,25
29324,41
29852,43
30372,38
30900,45
31420,51
31948,29
32472,15
32996,16
33516,16
34044,11
34564,10
35092,13
35612,10
36140,9
36600,10
37140,9
37600,11
38140,16
38660,17
39188,12
39708,14
40236,12
40756,15
41284,14
41804,15
42332,12
42852,16
43380,18
43900,11
44428,11
44948,17
45468,19
45988,16
46508,18
47028,30
47548,39
48068,39
48588,28
49108,21
49628,17
50148,17
50668,11
51188,16
51712,12
52236,11
52756,22
53284,20
53804,12
54332,11
54852,11
55380,15
55900,27
56428,24
56948,25
57476,32
58000,28
58524,18
59044,11
59572,15
60092,26
60620,32
61144,32
61668,29
62188,25
62716,26
63240,26
63764,36
64288,46
64812,41
65332,25
65860,17
66380,16
66908,27
67428,31
67956,18
68476,10
69004,23
69524,43
70044,46
70564,29
71084,15
71604,12
72124,12
72644,16
73164,32
73684,35
74204,33
74728,31
75244,22
75764,12
76288,16
76812,12
77332,12
77860,21
78380,35
78908,45
79428,46
79956,45
80480,45
81004,43
81524,36
82052,25
82572,19
83100,20
83620,17
84148,14
84668,11
85196,10
85716,13
86244,20
86764,25
87292,25
87812,28
88340,26
88860,20
89388,16
89908,20
90436,19
90956,16
91484,15
92004,18
92532,12
93052,10
93580,12
94100,19
94620,14
95144,11
95664,11
96184,11
96700,16
97220,26
97740,32
98260,34
98780,40
99300,38
99820,32
100344,23
100904,17
101488,11
102056,23
102640,38
103208,38
103784,35
104352,35
104928,19
105504,14
106072,16
106656,15
107224,15
107808,15
108376,22
108960,13
109528,21
110096,27
110680,18
111248,28
111832,36
112404,29
112984,32
113552,39
114128,41
114704,38
115276,32
115856,28
116424,24
117008,17
117576,11
118160,13
118728,19
119304,24
119888,27
120460,23
121040,25
121608,23
122192,15
122760,24
123344,25
123920,22
124488,18
125072,16
125640,11
126224,10
126796,10
127376,9
127896,11
128468,13
129048,11
129616,17
130192,45
130760,68
131336,54
131904,22
132488,15
133056,14
133624,16
134208,13
134776,21
135360,16
135928,11
136512,9
137028,11
137608,15
138176,18
138744,26
139328,32
139900,23
140480,15
141048,18
141632,16
142200,15
142784,11
143352,15
143932,19
144512,18
145080,16
145664,19
146232,36
146816,65
147384,72
147960,55
148544,31
149112,17
149696,16
150268,16
150848,11
151420,16
152000,22
152568,29
153148,24
153728,14
154296,16
154872,20
155444,12
156024,10
156592,17
157172,23
157752,34
158324,36
158904,16
159472,11
160056,11
160624,17
161200,17
161768,22
162344,32
162928,50
163496,61
164080,64
164648,64
165224,59
165792,39
166360,21
166944,16
167512,11
168088,17
168656,19
169232,12
169800,15
170384,29
170952,34
171528,35
172112,38
172680,30
173264,24
173832,19
174416,16
174984,16
175560,13
176136,19
176704,18
177288,11
177856,9
178380,14
178956,18
179536,26
180104,41
180688,49
181264,52
181832,48
182416,30
182984,24
183568,17
184140,11
184720,13
185288,22
185864,21
186448,30
187016,38
187600,36
188168,13
188752,15
189324,21
189904,16
190480,23
191048,22
191632,16
192204,14
192784,14
193352,15
193936,10
194504,10
195084,11
195664,10
196232,16
196816,35
197384,57
197968,50
198540,34
199120,27
199696,24
200264,21
200848,21
201416,10
202000,13
202568,18
203152,21
203724,31
204300,41
204880,26
205448,14
206024,12
206592,14
207168,15
207736,18
208320,21
208888,13
209456,20
210032,28
210600,26
211176,15
211748,12
212328,15
212896,35
213472,50
214056,43
214624,36
215208,34
215776,33
216360,23
216928,16
217512,13
218084,10
218656,11
219240,18
219808,26
220392,28
220960,26
221544,20
222112,31
222692,30
223272,20
223844,15
224424,15
224992,16
225576,13
226144,12
226728,19
227296,23
227872,19
228456,11
229024,11
229608,33
230176,53
230760,56
231328,47
231904,38
232488,31
233056,18
233640,16
234208,12
234792,15
235364,15
235944,17
236516,19
237092,21
237672,23
238244,25
238824,20
239396,21
239976,21
240548,18
241124,16
241704,15
242272,12
242856,11
243428,22
244008,25
244576,21
245160,13
245732,13
246308,15
246888,22
247456,25
248040,27
248608,23
249192,20
249764,18
250336,19
250920,14
251488,13
252072,10
252644,15
253224,13
253796,13
254376,16
254948,23
255524,29
256104,28
256672,24
257256,19
257824,16
258408,16
258976,11
259544,19
260128,28
260696,36
261280,32
261848,24
262432,20
263000,19
263576,26
264148,30
264720,37
265304,37
265872,35
266456,21
267024,15
267600,11
268168,11
268752,25
269328,39
269896,40
270480,32
271048,26
271632,18
272200,19
272784,18
273352,17
273932,15
274512,19
275084,17
275664,15
276236,15
276816,14
277384,19
277968,21
278544,26
279116,17
279696,19
280268,34
280848,43
281416,32
282000,23
282576,16
283144,17
283728,22
284300,19
284880,13
285448,10
286032,11
286604,14
287184,22
287760,30
288332,42
288912,41
289480,39
290064,28
290632,18
291216,23
291784,32
292364,19
292944,11
293512,11
294096,14
294668,33
295248,53
295816,62
296400,49
296976,38
297544,47
298128,43
298700,30
299280,20
299856,18
300440,17
301012,11
301588,13
302168,25
302740,34
303320,37
303892,32
304472,27
305052,16
305628,15
306208,20
306780,15
307360,16
307932,18
308512,17
309080,11
309664,12
310236,19
310812,17
311392,13
311964,16
312544,22
313124,24
313704,37
314276,50
314852,51
315432,39
316004,31
316584,24
317156,15
317736,10
318316,15
318896,27
319476,32
320052,25
320632,27
321200,24
321784,19
322352,19
322936,29
323504,32
324084,22
324664,16
325236,16
325816,15
326388,18
326968,19
327548,22
328128,23
328696,17
329264,29
329840,44
330408,45
330992,41
331560,34
332144,23
332716,17
333292,16
333872,13
334440,21
335024,25
335596,25
336176,27
336744,31
337320,32
337888,30
338468,27
339048,21
339616,15
340200,12
340768,15
341352,16
341920,16
342496,11
343080,19
343648,38
344232,30
344804,10
345384,9
345904,20
346480,41
347048,47
347624,40
348208,34
348776,34
349360,34
349932,31
350512,20
351084,13
351664,9
352184,13
352752,11
353336,11
353904,11
354488,11
355056,18
355640,23
356212,27
356792,25
357364,22
357940,21
358520,17
359092,11
359672,13
360244,14
360824,11
361392,12
361972,15
362552,19
363124,24
363704,34
364276,43
364856,40
365424,32
366008,23
366580,24
367156,15
367736,11
368308,22
368888,27
369456,20
370040,19
370608,21
371184,22
371768,20
372340,20
372920,24
373492,27
374072,24
374644,20
375224,25
375796,19
376372,11
376952,30
377524,28
378104,30
378684,32
379264,27
379832,26
380412,29
380992,32
381564,25
382144,15
382716,16
383296,24
383876,35
384460,30
385040,23
385608,10
386192,18
386764,25
387344,23
387916,30
388496,39
389068,42
389644,36
390224,19
390796,24
391376,35
391948,26
392528,19
393100,11
393680,15
394256,11
394824,14
395408,30
395980,53
396560,60
397140,45
397720,32
398292,14
398868,21
399448,15
400020,16
400600,11
401168,10
401752,11
402324,17
402900,19
403480,18
404052,16
404632,17
405204,22
405784,27
406352,27
406936,20
407516,16
408092,15
408672,17
409244,13
409824,19
410400,21
410976,25
411544,21
412112,19
412696,26
413264,30
413848,41
414416,45
415000,35
415572,28
416152,20
416720,16
417296,13
417872,26
418440,30
419024,20
419596,19
420176,27
420744,29
421320,27
421896,30
422468,31
423048,29
423616,18
424200,17
424768,23
425352,31
425924,36
426496,35
427080,38
427652,38
428232,34
428804,29
429384,32
429956,31
430536,30
431112,35
431684,32
432264,25
432832,18
433416,17
433988,16
434568,19
435140,24
435716,20
436296,28
436868,39
437448,35
438020,35
438600,35
439172,36
439752,28
440328,17
440900,18
441480,22
442052,23
442632,22
443204,26
443784,33
444356,31
444932,28
445512,32
446084,38
446664,38
447236,29
447816,20
448388,18
448968,15
449544,16
450116,17
450696,12
451264,11
451848,12
452416,16
453000,17
453572,18
454148,18
454728,26
455296,27
455880,22
456452,18
457032,23
457604,27
458184,35
458760,19
459332,11
459912,24
460484,41
461064,43
461632,40
462216,40
462788,40
463364,39
463944,46
464516,34
465096,26
465668,26
466248,21
466816,16
467400,13
467976,15
468548,14
469128,26
469700,33
470280,40
470860,42
471440,42
472012,32
472588,14
473168,15
473740,18
474320,21
474892,16
475472,17
476044,14
476624,17
477200,14
477772,11
478352,25
478924,46
479504,60
480076,72
480656,68
481224,51
481804,37
482384,24
482956,16
483536,17
484108,10
484688,19
485260,32
485840,25
486416,19
486984,17
487568,12
488140,10
488720,13
489292,20
489872,21
490444,23
491020,25
491600,22
492172,15
492752,10
493324,14
493904,20
494476,14
495056,11
495632,24
496204,39
496784,46
497352,47
497936,45
498508,38
499088,27
499660,17
500232,15
500816,17
501388,19
501968,16
502548,13
503128,15
503700,24
504276,26
504856,26
505428,22
506008,21
506580,18
507160,13
507732,15
508312,16
508892,13
509468,11
510048,10
510620,16
511200,19
511780,13
512364,16
512936,31
513504,41
514088,47
514656,48
515232,37
515800,25
516384,21
516952,20
517536,11
518104,11
518680,22
519264,39
519836,42
520416,36
520984,30
521568,21
522140,16
522716,14
523296,15
523864,16
524448,19
525020,21
525600,21
526168,21
526752,13
527320,25
527900,25
528480,32
529048,42
529632,47
530204,52
530784,59
531356,54
531932,35
532512,21
533084,15
533664,16
534236,13
534816,15
535388,18
535968,25
536540,32
537116,33
537696,27
538268,19
538848,13
539416,14
540000,16
540568,19
541148,18
541728,27
542300,12
542880,11
543452,12
544032,12
544600,20
545184,17
545756,11
546332,22
546912,40
547484,49
548064,48
548636,39
549216,36
549796,36
550372,30
550956,12
551524,12
552104,15
552676,18
553256,25
553828,37
554408,37
554980,32
555556,27
556136,23
556708,20
557288,16
557868,15
558448,16
559028,11
559604,10
560184,10
560752,20
561336,22
561908,22
562488,29
563068,32
563648,39
564232,43
564804,40
565384,22
565956,18
566536,19
567108,26
567688,17
568260,10
568836,15
569416,24
569988,24
570568,15
571140,11
571720,11
572300,13
572880,18
573464,18
574032,19
574616,16
575188,17
575768,11
576348,12
576928,13
577496,11
578076,11
578656,17
579224,24
579808,37
580380,40
580960,39
581532,32
582108,22
582688,18
583260,19
583840,11
584412,29
584992,39
585564,15
586144,11
586724,12
587300,10
587880,10
588452,10
589032,19
589612,22
590192,21
590764,22
591340,24
591920,26
592496,11
593072,10
593644,12
594224,16
594796,15
595376,15
595956,35
596532,62
597112,73
597684,65
598264,42
598844,28
599424,24
600004,18
600580,11
601160,10
601732,20
602312,32
602884,30
603464,18
604036,11
604616,11
605200,12
605772,23
606352,27
606924,25
607504,20
608076,17
608656,16
609228,16
609804,12
610384,14
610956,23
611536,26
612116,20
612696,22
613276,29
613852,32
614436,34
615004,19
615584,15
616156,16
616736,19
617308,11
617888,10
618460,10
619036,15
619616,32
620188,45
620768,33
621340,19
621920,17
622492,22
623068,35
623648,27
624220,17
624800,31
625368,41
625952,38
626524,28
627104,25
627684,22
628260,17
628840,16
629412,24
629992,24
630572,32
631152,36
631732,23
632308,16
632888,18
633460,15
634040,10
634616,9
635140,11
635716,23
636296,35
636876,41
637452,32
638032,21
638604,13
639184,11
639764,16
640348,17
640920,16
641496,17
642080,19
642648,30
643232,27
643800,22
644384,17
644956,19
645536,24
646108,30
646684,30
647264,27
647836,31
648416,27
648984,30
649568,28
650140,22
650716,11
651296,14
651868,22
652448,33
653020,36
653600,31
654172,29
654752,25
655324,18
655900,16
656480,18
657048,15
657624,15
658192,18
658776,14
659348,11
659920,13
660504,17
661072,16
661656,17
662228,22
662808,31
663376,40
663960,49
664532,41
665108,27
665688,23
666256,23
666832,18
667400,11
667984,11
668556,17
669136,21
669712,18
670284,13
670864,13
671432,16
672016,25
672584,29
673160,29
673732,21
674304,19
674888,16
675456,12
676040,14
676608,12
677192,10
677764,13
678344,13
678920,23
679492,47
680072,52
680640,44
681224,28
681792,15
682376,16
682944,20
683520,24
684104,16
684676,10
685256,12
685828,22
686408,17
686976,10
687560,15
688136,23
688708,22
689288,19
689856,17
690440,15
691012,15
691592,21
692172,23
692748,16
693328,16
693900,11
694480,12
695048,17
695632,25
696204,34
696784,48
697360,54
697932,43
698512,33
699084,30
699664,27
700236,24
700816,10
701388,22
701964,34
702544,32
703116,25
703696,26
704276,32
704856,31
705428,27
706004,27
706584,19
707152,16
707736,14
708308,15
708888,12
709456,10
710040,16
710612,15
711188,13
711768,14
712340,15
712920,23
713492,33
714072,42
714652,42
715228,38
715808,26
716380,19
716960,16
717532,16
718112,23
718684,30
719264,27
719836,13
720412,10
720992,11
721560,11
722144,17
722712,27
723296,25
723864,24
724444,18
725024,18
725596,17
726176,12
726748,15
727328,29
727900,38
728480,33
729056,33
729636,38
730216,47
730788,50
731368,40
731948,32
732528,35
733108,35
733684,20
734264,11
734836,30
735416,42
735988,44
736572,32
737148,14
737728,13
738312,16
738884,21
739464,23
740036,22
740616,24
741188,18
741768,16
742340,11
742916,13
743496,13
744068,11
744648,14
745216,24
745800,40
746372,46
746952,39
747528,33
748100,26
748680,27
749252,22
749832,15
750404,14
750984,13
751556,11
752132,15
752712,11
753284,10
753864,10
754436,11
755016,11
755596,15
756176,21
756760,22
757332,20
757912,17
758488,15
759064,11
759636,11
760216,13
760796,14
761372,20
761952,22
762524,17
763104,22
763684,34
764264,46
764844,43
765420,38
766004,29
766576,19
767152,11
767728,11
768308,19
768880,30
769464,37
770036,42
770612,32
771192,23
771764,17
772344,19
772916,19
773496,15
774068,16
774644,15
775224,16
775796,11
776376,11
776948,14
777528,13
778108,10
778688,13
779272,19
779844,37
780424,51
780996,68
781576,64
782148,45
782728,16
783300,18
783876,15
784456,22
785028,21
785608,27
786180,29
786760,27
787340,17
787920,12
788496,12
789068,14
789648,22
790220,24
790800,21
791380,17
791960,16
792540,11
793116,10
793700,19
794268,17
794848,11
795420,28
796000,45
796580,55
797156,57
797736,50
798312,22
798892,17
799464,21
800040,24
800616,17
801192,13
801764,11
802336,17
802920,24
803492,21
804072,13
804644,17
805224,14
805796,15
806372,24
806952,23
807524,16
808104,16
808676,16
809256,17
809828,22
810408,20
810980,14
811556,10
812136,11
812708,16
813288,34
813868,37
814448,36
815028,35
815604,31
816184,19
816756,16
817336,11
817908,12
818488,12
819068,15
819652,17
820232,18
820800,23
821384,30
821952,29
822536,19
823104,16
823688,16
824256,16
824832,16
825416,22
825988,20
826568,22
827136,24
827720,25
828288,26
828872,17
829448,22
830016,31
830600,42
831172,43
831752,35
832324,22
832904,16
833472,18
834048,29
834632,57
835200,66
835784,78
836356,68
836936,43
837508,14
838088,40
838664,31
839232,24
839816,18
840384,20
840968,21
841536,24
842120,26
842688,26
843264,18
843848,16
844416,13
845000,12
845568,27
846152,41
846720,37
847304,43
847880,35
848452,27
849032,32
849604,22
850184,15
850752,19
851336,25
851904,37
852484,42
853064,32
853636,30
854216,29
854788,18
855368,16
855940,19
856520,13
857096,15
857668,15
858248,18
858816,13
859400,11
859972,10
860552,11
861132,15
861708,26
862288,33
862860,44
863440,55
864012,65
864592,60
865164,46
865744,37
866320,26
866892,15
867472,11
868044,15
868624,19
869196,26
869776,31
870348,37
870924,29
871504,21
872076,22
872656,23
873228,15
873808,17
874380,20
874960,20
875536,18
876108,16
876688,11
877260,22
877840,28
878412,37
878992,39
879564,43
880140,59
880720,69
881288,62
881872,30
882444,15
883024,15
883596,15
884176,9
884696,10
885268,14
885848,29
886416,43
887000,38
887572,38
888152,42
888732,44
889308,46
889888,40
890460,23
891040,22
891612,40
892192,49
892764,53
893344,41
893924,27
894500,23
895080,31
895652,41
896236,42
896808,40
897392,35
897964,33
898540,24
899120,18
899692,16
900272,15
900844,10
901424,10
901996,16
902576,21
903144,27
903724,39
904304,40
904876,43
905456,49
906028,47
906608,43
907180,41
907756,39
908336,28
908908,13
909488,12
910060,11
910640,19
911220,35
911800,58
912380,69
912956,77
913536,70
914108,74
914688,75
915268,57
915848,46
916420,31
916996,21
917576,11
918152,16
918728,26
919300,37
919880,45
920460,40
921040,32
921624,28
922196,26
922776,16
923348,17
923928,15
924500,15
925080,16
925652,11
926228,11
926808,10
927380,11
927960,16
928532,21
929112,28
929684,37
930260,39
930840,32
931412,27
931992,21
932564,23
933144,29
933716,24
934296,14
934876,10
935452,17
936032,26
936604,30
937184,31
937764,26
938344,20
938916,21
939492,22
940072,19
940648,16
941224,15
941796,18
942376,12
942956,10
943536,11
944116,10
944692,11
945272,10
945844,20
946424,36
947004,38
947584,35
948164,18
948740,16
949320,15
949892,17
950472,13
951044,10
951624,18
952204,17
952784,11
953368,25
953940,21
954520,18
955092,16
955672,11
956252,16
956832,22
957412,19
957988,17
958568,15
959144,12
959724,15
960300,14
960880,13
961448,14
962028,16
962608,19
963176,27
963760,32
964332,44
964912,39
965484,27
966064,20
966636,18
967212,11
967792,16
968364,38
968944,50
969516,52
970096,39
970676,28
971252,25
971832,22
972408,13
972984,15
973556,16
974136,22
974708,30
975288,19
975868,16
976444,18
977024,20
977596,20
978176,29
978756,25
979336,16
979916,16
980492,26
981072,34
981644,43
982224,35
982804,25
983384,19
983964,14
984540,26
985120,21
985692,20
986272,25
986844,40
987424,50
987996,40
988576,27
989156,18
989732,16
990312,15
990884,19
991464,24
992036,24
992616,24
993188,20
993764,18
994344,19
994916,18
995496,19
996068,19
996648,29
997220,36
997800,32
998380,18
998956,15
999536,20
1000108,23
1000732,24
1001356,17
1001984,10
1002612,12
1003232,23
1003860,29
1004484,36
1005104,34
1005736,30
1006352,28
1006980,25
1007604,18
1008228,17
1008856,13
1009480,21
1010108,34
1010736,33
1011356,14
1011984,10
1012608,17
1013236,32
1013868,67
1014488,75
1015116,37
1015740,16
1016364,17
1016992,13
1017612,9
1018188,10
1018816,11
1019440,19
1020068,23
1020688,31
1021316,31
1021944,27
1022568,22
1023196,24
1023820,23
1024452,16
1025080,15
1025696,15
1026324,13
1026944,17
1027572,26
1028200,22
1028816,26
1029444,35
1030064,43
1030688,47
1031316,28
1031936,17
1032564,15
1033184,16
1033808,11
1034436,10
1035052,11
1035684,16
1036312,23
1036928,25
1037556,26
1038176,26
1038808,28
1039436,28
1040056,21
1040680,15
1041304,15
1041924,21
1042552,20
1043176,12
1043804,10
1044428,10
1045048,15
1045676,11
1046296,11
1046924,21
1047544,52
1048168,74
1048796,66
1049420,44
1050048,27
1050676,13
1051296,11
1051924,15
1052544,26
1053176,27
1053804,22
1054424,16
1055052,14
1055676,19
1056296,30
1056928,31
1057544,25
1058172,17
1058796,20
1059416,23
1060048,18
1060664,18
1061292,22
1061920,21
1062536,31
1063168,37
1063788,40
1064420,34
1065048,30
1065664,21
1066292,15
1066912,14
1067536,11
1068164,10
1068780,26
1069412,38
1070036,30
1070660,17
1071288,15
1071904,24
1072532,25
1073164,24
1073784,22
1074412,19
1075036,16
1075664,20
1076296,22
1076912,25
1077540,33
1078164,31
1078788,22
1079416,27
1080040,34
1080668,32
1081288,42
1081912,41
1082540,27
1083160,21
1083788,11
1084412,40
1085040,57
1085668,54
1086292,51
1086920,48
1087548,46
1088168,36
1088796,18
1089416,13
1090048,13
1090676,16
1091296,23
1091924,26
1092544,35
1093168,41
1093796,47
1094416,49
1095044,45
1095668,45
1096292,45
1096920,45
1097544,25
1098172,16
1098800,15
1099424,16
1100052,24
1100676,15
1101308,15
1101936,42
1102552,59
1103184,55
1103808,51
1104432,56
1105060,44
1105680,37
1106308,23
1106932,15
1107556,18
1108184,28
1108808,27
1109436,14
1110064,12
1110688,19
1111316,32
1111940,41
1112572,58
1113200,54
1113824,34
1114452,25
1115076,40
1115700,53
1116332,54
1116952,44
1117580,11
1118204,38
1118832,50
1119460,30
1120084,19
1120716,17
1121344,14
1121960,19
1122588,27
1123212,27
1123840,18
1124468,16
1125088,25
1125716,27
1126340,25
1126968,19
1127596,19
1128216,20
1128844,20
1129464,23
1130088,22
1130716,21
1131340,31
1131972,34
1132600,28
1133216,20
1133848,11
1134472,18
1135100,32
1135732,34
1136352,27
1136980,14
1137604,20
1138228,27
1138856,13
1139476,14
1140104,17
1140728,23
1141352,17
1141980,12
1142604,11
1143232,18
1143864,18
1144480,21
1145112,21
1145736,22
1146364,21
1146996,25
1147616,37
1148244,37
1148868,30
1149488,16
1150120,16
1150736,11
1151364,18
1151988,27
1152612,32
1153244,31
1153864,27
1154496,15
1155124,12
1155744,13
1156372,20
1156996,21
1157624,21
1158256,17
1158872,11
1159500,12
1160124,11
1160748,10
1161376,14
1161992,21
1162624,41
1163248,55
1163868,47
1164500,34
1165124,15
1165752,15
1166380,20
1167000,19
1167628,13
1168252,18
1168880,11
1169512,11
1170128,20
1170756,38
1171380,42
1172004,24
1172632,25
1173248,25
1173880,22
1174504,17
1175124,17
1175756,21
1176376,27
1177004,20
1177636,16
1178252,19
1178884,24
1179504,36
1180136,47
1180764,46
1181384,35
1182012,21
1182636,15
1183260,16
1183892,14
1184512,17
1185140,23
1185764,27
1186388,23
1187020,19
1187640,11
1188268,10
1188900,26
1189520,35
1190148,25
1190772,15
1191404,20
1192032,20
1192648,18
1193280,21
1193900,17
1194524,15
1195156,10
1195776,11
1196404,19
1197028,40
1197652,34
1198284,35
1198904,51
1199532,60
1200164,39
1200784,15
1201412,17
1202036,37
1202664,38
1203296,31
1203912,26
1204540,23
1205164,15
1205788,14
1206416,14
1207032,15
1207664,21
1208288,32
1208912,14
1209540,14
1210160,22
1210788,31
1211420,22
1212040,26
1212668,29
1213292,32
1213924,50
1214552,62
1215176,46
1215808,32
1216432,21
1217056,11
1217684,14
1218304,24
1218932,33
1219556,39
1220180,39
1220808,28
1221432,19
1222060,11
1222692,14
1223312,13
1223944,15
1224568,16
1225196,15
1225828,10
1226448,12
1227076,10
1227700,11
1228328,19
1228956,28
1229572,42
1230204,40
1230824,31
1231448,34
1232076,31
1232696,21
1233324,16
1233952,12
1234568,12
1235196,10
1235820,12
1236452,10
1237080,10
1237696,21
1238328,24
1238952,18
1239576,15
1240204,14
1240824,16
1241452,19
1242076,13
1242700,10
1243328,10
1243944,10
1244576,13
1245204,11
1245824,15
1246452,48
1247076,63
1247708,54
1248336,52
1248952,39
1249584,22
1250208,18
1250832,10
1251460,19
1252080,35
1252708,34
1253332,34
1253956,31
1254588,32
1255208,26
1255836,23
1256464,19
1257088,20
1257716,22
1258340,15
1258968,13
1259600,19
1260216,27
1260844,28
1261468,26
1262092,21
1262720,26
1263336,39
1263968,51
1264592,43
1265216,21
1265844,18
1266464,29
1267092,40
1267724,26
1268344,11
1268972,20
1269596,32
1270228,33
1270860,26
1271480,19
1272108,20
1272732,29
1273356,24
1273988,18
1274608,15
1275236,14
1275860,12
1276484,15
1277116,10
1277736,13
1278368,15
1278996,18
1279616,21
1280248,25
1280868,47
1281496,47
1282124,42
1282740,35
1283368,23
1283992,14
1284616,25
1285244,26
1285860,29
1286492,22
1287112,17
1287736,20
1288364,21
1288980,18
1289612,15
1290232,15
1290856,16
1291484,16
1292108,11
1292736,11
1293364,11
1293984,15
1294612,15
1295236,12
1295864,26
1296492,36
1297112,36
1297740,49
1298364,55
1298988,49
1299616,34
1300232,19
1300860,10
1301484,14
1302108,16
1302736,22
1303352,27
1303984,30
1304616,20
1305232,26
1305860,37
1306484,32
1307112,25
1307744,18
1308360,16
1308988,10
1309612,17
1310236,27
1310864,26
1311484,27
1312116,29
1312736,12
1313356,15
1313984,15
1314604,34
1315236,51
1315864,47
1316480,42
1317108,24
1317728,10
1318360,11
1318988,11
1319608,15
1320236,15
1320856,11
1321480,13
1322108,10
1322724,14
1323356,14
1323976,22
1324600,23
1325228,14
1325848,12
1326476,10
1327096,10
1327720,12
1328348,11
1328972,22
1329600,40
1330228,50
1330848,48
1331476,41
1332100,37
1332728,25
1333356,18
1333976,10
1334604,15
1335224,18
1335848,26
1336476,22
1337096,17
1337724,15
1338344,17
1338968,16
1339596,20
1340216,22
1340844,23
1341472,17
1342088,11
1342716,11
1343340,16
1343968,21
1344600,27
1345216,24
1345844,28
1346468,33
1347088,36
1347720,43
1348336,41
1348964,35
1349588,21
1350208,13
1350840,15
1351456,24
1352084,35
1352712,31
1353328,23
1353960,23
1354580,21
1355212,34
1355840,50
1356456,45
1357084,37
1357708,23
1358336,17
1358964,30
1359584,22
1360212,26
1360836,46
1361456,38
1362084,34
1362700,41
1363332,51
1363952,55
1364576,56
1365204,35
1365824,16
1366456,16
1367084,12
1367704,19
1368332,20
1368956,24
1369584,21
1370212,15
1370832,13
1371460,13
1372084,19
1372708,20
1373336,17
1373952,16
1374584,17
1375208,14
1375828,15
1376460,16
1377080,20
1377708,31
1378336,31
1378956,27
1379584,33
1380208,37
1380836,31
1381464,20
1382084,17
1382712,16
1383336,17
1383956,18
1384588,16
1385208,20
1385836,28
1386460,36
1387080,34
1387712,20
1388328,12
1388956,13
1389588,14
1390208,22
1390836,15
1391460,17
1392092,11
1392720,10
1393336,11
1393964,10
1394588,12
1395212,11
1395840,33
1396456,53
1397084,64
1397708,58
1398332,53
1398960,38
1399584,20
1400212,13
1400844,10
1401464,18
1402092,29
1402716,25
1403344,25
1403976,33
1404592,34
1405220,24
1405844,21
1406468,16
1407100,16
1407720,17
1408352,21
1408972,18
1409596,17
1410224,15
1410840,19
1411468,20
1412092,30
1412720,44
1413348,43
1413972,45
1414600,39
1415228,28
1415848,23
1416476,17
1417100,11
1417728,25
1418356,41
1418976,37
1419604,20
1420228,13
1420852,14
1421480,18
1422096,24
1422724,19
1423348,16
1423972,17
1424604,22
1425228,13
1425856,13
1426484,27
1427104,36
1427732,30
1428356,27
1428988,23
1429616,13
1430232,23
1430864,38
1431488,42
1432112,36
1432744,30
1433360,35
1433992,22
1434612,13
1435236,28
1435864,37
1436488,32
1437116,22
1437744,27
1438364,28
1438992,39
1439616,37
1440244,24
1440872,25
1441488,17
1442116,25
1442740,21
1443360,23
1443988,27
1444608,25
1445236,28
1445860,36
1446480,38
1447108,35
1447728,34
1448356,31
1448984,21
1449600,18
1450228,14
1450852,11
1451480,12
1452112,13
1452728,17
1453356,22
1453980,25
1454604,23
1455236,21
1455856,22
1456484,24
1457108,27
1457732,19
1458360,19
1458980,21
1459608,12
1460236,16
1460856,12
1461484,27
1462108,38
1462736,53
1463364,56
1463984,57
1464612,35
1465236,18
1465860,16
1466492,15
1467112,12
1467740,16
1468364,22
1468988,18
1469620,14
1470240,13
1470868,15
1471500,17
1472120,17
1472748,17
1473372,14
1474000,15
1474632,17
1475248,12
1475876,13
1476500,10
1477124,14
1477752,16
1478376,17
1479004,22
1479628,36
1480252,47
1480884,42
1481504,36
1482132,29
1482764,23
1483384,17
1484012,10
1484636,17
1485268,28
1485896,28
1486512,33
1487140,34
1487764,33
1488388,21
1489020,14
1489640,16
1490268,16
1490892,18
1491512,22
1492144,18
1492760,10
1493392,19
1494020,22
1494640,25
1495268,30
1495892,44
1496524,50
1497152,45
1497768,37
1498400,26
1499020,19
1499652,15
1500280,11
1500900,11
1501528,10
1502152,11
1502776,15
1503404,24
1504024,22
1504652,13
1505276,21
1505904,44
1506532,38
1507156,29
1507788,25
1508420,19
1509040,13
1509668,19
1510296,22
1510920,43
1511548,42
1512168,38
1512796,44
1513420,39
1514044,40
1514676,36
1515296,33
1515928,28
1516556,21
1517176,15
1517804,9
1518376,17
1519012,27
1519644,28
1520264,32
1520892,32
1521516,29
1522148,30
1522776,26
1523396,18
1524024,17
1524648,16
1525272,11
1525900,10
1526520,11
1527148,15
1527772,18
1528396,25
1529028,24
1529648,25
1530276,31
1530908,42
1531528,44
1532156,37
1532784,24
1533416,16
1534044,10
1534664,13
1535296,26
1535920,28
1536544,25
1537176,26
1537792,25
1538420,22
1539044,27
1539668,27
1540296,19
1540912,16
1541540,17
1542172,10
1542792,11
1543420,13
1544044,12
1544672,13
1545304,26
1545920,43
1546548,45
1547172,47
1547796,25
1548428,15
1549048,16
1549676,16
1550300,14
1550924,24
1551556,21
1552176,9
1552752,12
1553376,18
1554000,20
1554628,16
1555248,15
1555876,17
1556508,15
1557128,15
1557756,15
1558380,18
1559008,11
1559640,10
1560256,10
1560888,12
1561512,14
1562136,20
1562764,32
1563384,34
1564012,41
1564636,33
1565260,22
1565888,16
1566512,16
1567140,21
1567772,38
1568392,47
1569020,39
1569644,35
1570272,35
1570900,22
1571520,13
1572148,17
1572772,31
1573396,37
1574028,28
1574648,32
1575276,37
1575900,31
1576524,22
1577156,10
1577776,15
1578404,15
1579036,26
1579656,32
1580284,32
1580908,27
1581540,27
1582168,22
1582792,19
1583420,17
1584048,11
1584668,20
1585300,31
1585920,37
1586548,27
1587176,16
1587800,19
1588428,19
1589048,20
1589676,17
1590308,14
1590928,16
1591556,15
1592184,11
1592812,10
1593444,12
1594064,17
1594692,24
1595320,25
1595944,31
1596572,43
1597192,52
1597824,38
1598448,27
1599072,25
1599700,22
1600328,13
1600952,16
1601584,38
1602200,52
1602828,49
1603452,40
1604080,43
1604708,36
1605328,34
1605956,42
1606580,57
1607200,31
1607832,19
1608448,45
1609076,76
1609700,87
1610320,70
1610952,53
1611568,49
1612196,49
1612828,44
1613444,42
1614076,38
1614700,28
1615328,21
1615956,17
1616576,16
1617204,11
1617828,19
1618452,24
1619080,26
1619700,27
1620328,32
1620952,31
1621572,29
1622204,26
1622824,23
1623452,22
1624084,16
1624704,16
1625332,17
1625956,23
1626588,25
1627216,23
1627832,17
1628460,13
1629084,21
1629708,38
1630340,47
1630960,41
1631588,33
1632216,26
1632836,20
1633468,16
1634088,10
1634716,14
1635348,21
1635968,26
1636596,29
1637224,31
1637852,28
1638484,22
1639100,19
1639728,19
1640348,17
1640972,18
1641596,18
1642216,11
1642844,24
1643464,24
1644084,16
1644712,23
1645336,25
1645964,25
1646584,33
1647208,44
1647836,33
1648460,17
1649088,25
1649716,26
1650332,13
1650964,10
1651584,13
1652216,47
1652844,60
1653460,33
1654092,11
1654712,15
1655336,11
1655964,14
1656584,14
1657212,15
1657836,17
1658456,21
1659088,25
1659704,30
1660332,27
1660960,19
1661576,23
1662204,37
1662828,52
1663456,57
1664084,43
1664700,22
1665328,20
1665948,15
1666572,16
1667200,10
1667812,22
1668444,31
1669064,16
1669688,11
1670316,10
1670936,10
1671564,11
1672188,14
1672812,19
1673444,23
1674064,23
1674692,19
1675320,11
1675944,13
1676572,16
1677196,20
1677824,21
1678452,18
1679072,22
1679700,29
1680324,46
1680944,47
1681572,37
1682192,29
1682820,19
1683440,14
1684060,10
1684688,17
1685312,27
1685940,35
1686568,34
1687184,37
1687812,34
1688436,23
1689064,19
1689692,16
1690308,17
1690936,16
1691556,16
1692180,12
1692808,14
1693424,17
1694052,19
1694676,17
1695300,21
1695928,36
1696548,42
1697176,48
1697804,39
1698424,32
1699052,30
1699676,22
1700304,11
1700932,15
1701552,24
1702180,36
1702804,47
1703428,45
1704056,31
1704680,21
1705308,16
1705928,14
1706552,17
1707180,17
1707800,17
1708428,14
1709052,12
1709680,17
1710308,29
1710932,33
1711560,28
1712192,13
1712808,32
1713436,31
1714060,35
1714688,53
1715320,57
1715936,40
1716564,43
1717188,32
1717812,10
1718440,42
1719064,76
1719692,83
1720316,82
1720944,46
1721572,40
1722196,90
1722824,88
1723456,51
1724072,16
1724700,17
1725324,12
1725956,18
1726584,13
1727200,13
1727832,15
1728456,25
1729076,39
1729708,65
1730328,65
1730956,38
1731580,20
1732204,21
1732832,31
1733456,23
1734084,12
1734712,12
1735332,11
1735960,13
1736584,10
1737212,13
1737840,16
1738464,21
1739092,21
1739716,21
1740340,23
1740972,24
1741588,29
1742220,25
1742840,15
1743464,11
1744092,14
1744716,10
1745344,13
1745972,28
1746592,45
1747220,57
1747840,66
1748472,45
1749100,29
1749720,16
1750348,20
1750972,20
1751596,23
1752228,26
1752848,29
1753476,26
1754100,31
1754724,28
1755352,27
1755976,25
1756608,22
1757236,15
1757856,19
1758484,20
1759108,23
1759740,19
1760372,14
1760992,20
1761620,25
1762244,35
1762864,43
1763492,44
1764112,37
1764740,27
1765364,20
1765984,18
1766616,18
1767236,11
1767868,11
1768496,18
1769112,25
1769740,26
1770364,33
1770992,29
1771624,18
1772240,15
1772868,26
1773492,28
1774116,20
1774744,16
1775360,10
1775992,15
1776616,16
1777240,21
1777868,22
1778488,20
1779116,23
1779748,25
1780368,20
1780996,23
1781620,31
1782252,31
1782880,33
1783496,26
1784128,14
1784752,17
1785376,25
1786004,26
1786624,16
1787252,10
1787876,19
1788500,32
1789132,31
1789752,29
1790380,20
1791012,16
1791632,19
1792264,12
1792884,27
1793512,26
1794144,17
1794760,11
1795388,16
1796012,28
1796636,39
1797264,45
1797880,43
1798512,30
1799136,20
1799756,15
1800388,10
1801008,11
1801636,12
1802264,15
1802884,14
1803516,20
1804136,20
1804768,19
1805396,23
1806016,24
1806644,15
1807268,15
1807888,16
1808520,18
1809136,33
1809764,29
1810388,21
1811012,16
1811640,17
1812256,27
1812888,35
1813516,36
1814136,38
1814764,28
1815388,15
1816016,24
1816648,20
1817264,30
1817892,42
1818516,59
1819140,52
1819772,34
1820392,17
1821020,11
1821644,24
1822268,22
1822896,16
1823520,21
1824148,24
1824776,35
1825392,29
1826024,29
1826648,30
1827276,21
1827904,18
1828520,16
1829152,13
1829776,15
1830404,17
1831032,14
1831656,15
1832284,16
1832908,21
1833532,16
1834164,10
1834784,11
1835412,10
1836044,28
1836664,33
1837296,23
1837916,21
1838548,11
1839180,16
1839800,16
1840432,20
1841052,16
1841676,14
1842308,10
1842928,13
1843556,12
1844180,9
1844752,13
1845380,10
1846000,20
1846628,70
1847252,91
1847872,75
1848504,56
1849120,47
1849748,37
1850376,20
1851000,16
1851628,40
1852252,52
1852880,48
1853512,37
1854128,29
1854756,26
1855380,14
1856004,17
1856632,20
1857256,16
1857884,20
1858508,18
1859132,13
1859760,11
1860376,11
1861008,13
1861636,10
1862256,17
1862884,28
1863508,45
1864140,47
1864768,42
1865384,44
1866016,43
1866640,29
1867268,14
1867896,14
1868520,28
1869148,24
1869772,14
1870396,17
1871028,15
1871648,13
1872276,14
1872908,18
1873528,35
1874156,32
1874780,17
1875412,11
1876040,11
1876656,13
1877288,17
1877912,23
1878536,45
1879164,54
1879784,35
1880412,29
1881036,23
1881660,27
1882292,25
1882912,24
1883540,25
1884172,11
1884792,16
1885420,32
1886044,23
1886672,24
1887304,25
1887924,29
1888552,34
1889176,21
1889800,15
1890428,24
1891048,31
1891676,22
1892300,20
1892924,19
1893556,14
1894176,12
1894808,13
1895436,26
1896056,41
1896684,32
1897308,27
1897936,20
1898568,15
1899184,15
1899816,15
1900440,12
1901064,10
1901692,14
1902312,18
1902944,17
1903568,23
1904192,31
1904820,34
1905440,40
1906068,31
1906700,16
1907320,17
1907948,19
1908572,17
1909204,14
1909832,14
1910452,10
1911080,11
1911704,13
1912332,11
1912960,38
1913580,67
1914212,65
1914836,54
1915460,41
1916092,26
1916712,15
1917344,13
1917976,23
1918592,29
1919224,33
1919848,30
1920480,23
1921108,18
1921728,21
1922356,32
1922980,47
1923604,38
1924232,16
1924852,25
1925480,38
1926104,49
1926724,51
1927356,44
1927976,34
1928604,26
1929236,29
1929856,30
1930484,33
1931108,26
1931736,18
1932368,15
1932984,17
1933612,15
1934236,16
1934860,25
1935492,28
1936112,27
1936740,16
1937364,15
1937988,34
1938616,28
1939240,23
1939868,16
1940500,18
1941120,20
1941748,16
1942372,13
1943004,21
1943636,26
1944256,32
1944884,13
1945508,11
1946136,34
1946764,52
1947384,51
1948012,37
1948636,36
1949260,31
1949888,22
1950512,10
1951140,27
1951772,39
1952392,49
1953020,41
1953644,27
1954276,12
1954904,11
1955520,11
1956152,22
1956776,20
1957400,17
1958028,16
1958648,17
1959276,20
1959900,21
1960524,21
1961156,14
1961776,12
1962404,14
1963036,21
1963656,21
1964284,29
1964908,48
1965540,44
1966172,35
1966792,17
1967420,10
1968044,14
1968664,32
1969292,39
1969912,37
1970540,26
1971164,23
1971788,30
1972416,29
1973040,33
1973668,23
1974296,17
1974920,24
1975548,23
1976172,17
1976804,14
1977432,17
1978048,39
1978680,41
1979304,50
1979924,57
1980556,40
1981176,31
1981804,28
1982428,16
1983052,16
1983684,26
1984304,20
1984932,18
1985564,28
1986184,35
1986812,29
1987436,18
1988064,23
1988696,32
1989312,35
1989940,30
1990564,23
1991188,23
1991820,11
1992440,24
1993068,39
1993692,23
1994316,17
1994948,26
1995568,31
1996196,37
1996828,45
1997448,47
1998076,29
1998700,15
1999328,15
1999960,16
2000580,10
2001208,15
2001832,25
2002456,21
2003084,20
2003704,26
2004332,25
2004956,30
2005580,19
2006212,14
2006832,22
2007460,19
2008092,14
2008712,11
2009340,10
2009964,13
2010592,15
2011220,11
2011840,11
2012468,10
2013092,17
2013716,27
2014344,36
2014968,34
2015596,29
2016224,28
2016844,11
2017476,10
2018096,16
2018724,14
2019352,10
2019976,11
2020604,11
2021228,10
2021860,17
2022488,19
2023112,18
2023740,16
2024364,15
2024988,13
2025616,10
2026232,12
2026864,10
2027488,14
2028112,20
2028740,30
2029360,42
2029988,47
2030620,44
2031240,37
2031868,26
2032496,16
2033124,17
2033756,10
2034376,21
2035008,49
2035632,54
2036256,39
2036884,24
2037504,29
2038136,23
2038760,13
2039384,16
2040012,28
2040632,34
2041264,25
2041892,16
2042512,21
2043144,25
2043768,24
2044396,19
2045028,11
2045648,19
2046276,37
2046904,61
2047528,67
2048160,54
2048772,31
2049400,17
2050020,23
2050644,25
2051272,28
2051884,24
2052512,25
2053144,29
2053756,35
2054388,27
2055008,30
2055640,39
2056268,42
2056884,20
2057512,26
2058136,24
2058760,27
2059388,14
2060008,11
2060636,11
2061260,17
2061880,17
2062508,18
2063128,55
2063756,74
2064380,75
2065008,53
2065636,29
2066256,15
2066888,13
2067516,16
2068136,28
2068764,32
2069388,18
2070016,21
2070644,34
2071264,45
2071892,33
2072516,18
2073140,16
2073768,17
2074384,16
2075012,12
2075636,10
2076260,10
2076888,18
2077508,21
2078140,11
2078768,15
2079384,22
2080012,26
2080636,28
2081264,19
2081892,14
2082512,19
2083140,29
2083764,22
2084384,19
2085016,19
2085632,19
2086260,14
2086884,10
2087504,13
2088136,17
2088752,28
2089380,35
2090008,22
2090628,16
2091260,15
2091880,12
2092512,10
2093140,10
2093760,11
2094388,16
2095012,21
2095636,26
2096264,37
2096880,43
2097508,36
2098132,31
2098756,28
2099384,19
2100000,12
2100628,15
2101260,12
2101880,18
2102508,25
2103132,29
2103760,26
2104388,22
2105008,25
2105636,31
2106260,13
2106884,17
2107512,23
2108136,28
2108764,28
2109388,18
2110016,11
2110644,12
2111264,15
2111892,16
2112524,19
2113144,35
2113772,47
2114396,40
2115024,33
2115656,20
2116272,16
2116900,12
2117524,14
2118148,19
2118780,23
2119400,29
2120028,30
2120652,26
2121276,27
2121904,25
2122524,28
2123152,30
2123780,32
2124400,26
2125028,13
2125652,17
2126280,19
2126912,18
2127528,13
2128156,13
2128780,11
2129408,20
2130040,36
2130656,43
2131284,44
2131908,43
2132528,35
2133160,30
2133776,34
2134404,29
2135028,13
2135652,15
2136280,27
2136904,39
2137536,35
2138164,18
2138784,22
2139412,26
2140036,19
2140664,15
2141296,16
2141912,11
2142540,12
2143164,20
2143788,30
2144420,39
2145040,39
2145668,39
2146292,45
2146916,37
2147544,33
2148168,27
2148796,22
2149428,18
2150048,16
2150676,10
2151300,16
2151928,23
2152560,30
2153176,35
2153804,32
2154428,23
2155052,26
2155680,29
2156296,27
2156928,24
2157552,17
2158176,16
2158804,15
2159428,23
2160056,20
2160688,16
2161304,21
2161932,32
2162556,46
2163184,43
2163816,34
2164432,34
2165060,39
2165684,38
2166308,31
2166936,13
2167560,34
2168188,42
2168812,33
2169436,24
2170068,33
2170692,42
2171320,43
2171948,30
2172568,17
2173196,19
2173820,23
2174452,17
2175080,13
2175700,15
2176328,16
2176952,11
2177576,24
2178204,44
2178824,47
2179452,58
2180076,68
2180700,55
2181328,45
2181944,39
2182572,33
2183200,30
2183824,14
2184452,10
2185076,10
2185704,13
2186336,12
2186952,17
2187580,28
2188204,33
2188828,33
2189456,28
2190080,26
2190708,23
2191332,17
2191956,11
2192588,11
2193208,12
2193836,14
2194468,14
2195088,19
2195716,27
2196344,37
2196972,50
2197604,50
2198224,45
2198852,28
2199476,20
2200104,11
2200732,12
2201352,21
2201984,20
2202604,16
2203228,23
2203860,27
2204480,25
2205112,24
2205740,23
2206360,21
2206988,18
2207612,17
2208244,26
2208872,20
2209496,13
2210124,13
2210748,13
2211372,11
2212004,11
2212624,32
2213252,54
2213876,47
2214500,26
2215128,25
2215752,24
2216380,29
2217012,26
2217632,11
2218260,17
2218884,29
2219512,31
2220144,25
2220764,28
2221392,33
2222016,28
2222644,17
2223272,18
2223892,15
2224520,23
2225144,25
2225768,14
2226396,19
2227024,23
2227652,32
2228284,24
2228904,22
2229532,26
2230156,37
2230788,42
2231420,36
2232040,29
2232668,23
2233292,17
2233916,10
2234548,12
2235168,26
2235800,31
2236428,28
2237048,25
2237676,27
2238304,27
2238932,40
2239564,28
2240184,19
2240812,18
2241436,15
2242060,12
2242688,12
2243304,15
2243932,21
2244556,20
2245180,23
2245808,48
2246432,60
2247060,58
2247692,35
2248312,21
2248940,17
2249564,18
2250196,11
2250828,13
2251448,28
2252076,39
2252704,30
2253328,16
2253956,9
2254524,11
2255156,10
2255780,16
2256404,23
2257032,25
2257648,21
2258280,17
2258900,29
2259524,28
2260152,10
2260776,25
2261404,31
2262036,42
2262656,54
2263284,43
2263908,36
2264540,37
2265168,53
2265788,50
2266416,30
2267040,11
2267660,20
2268292,24
2268912,26
2269540,16
2270164,13
2270788,13
2271420,14
2272040,23
2272668,19
2273300,18
2273920,16
2274548,15
2275172,10
2275804,13
2276432,15
2277056,24
2277684,21
2278308,17
2278936,21
2279564,28
2280184,28
2280812,18
2281436,19
2282060,23
2282692,21
2283312,15
2283940,13
2284572,13
2285192,13
2285820,20
2286444,20
2287076,21
2287708,26
2288328,27
2288956,29
2289580,20
2290208,15
2290836,19
2291456,16
2292084,10
2292708,16
2293332,30
2293964,38
2294584,34
2295212,26
2295840,14
2296464,26
2297092,43
2297716,36
2298348,17
2298976,16
2299592,16
2300224,15
2300848,11
2301472,10
2302100,14
2302720,17
2303348,24
2303976,26
2304600,23
2305228,22
2305848,16
2306476,15
2307104,15
2307724,15
2308352,12
2308976,13
2309604,15
2310232,16
2310856,21
2311484,15
2312108,21
2312732,31
2313364,30
2313984,36
2314612,47
2315236,29
2315860,19
2316492,30
2317112,13
2317740,17
2318372,24
2318992,39
2319620,51
2320248,54
2320876,56
2321504,40
2322120,18
2322752,15
2323376,25
2324000,30
2324628,28
2325248,20
2325876,11
2326500,12
2327124,12
2327752,20
2328376,14
2329004,17
2329636,29
2330256,40
2330884,30
2331508,29
2332136,27
2332768,28
2333388,31
2334016,18
2334640,13
2335264,16
2335896,25
2336516,37
2337144,51
2337768,40
2338392,15
2339020,21
2339640,17
2340268,15
2340900,14
2341520,17
2342148,15
2342772,14
2343404,13
2344032,18
2344656,27
2345284,33
2345908,33
2346532,41
2347164,36
2347784,27
2348412,21
2349036,16
2349664,18
2350292,11
2350916,10
2351548,13
2352180,28
2352800,37
2353428,35
2354056,29
2354684,20
2355316,16
2355936,18
2356564,18
2357188,23
2357812,27
2358440,14
2359064,10
2359692,18
2360316,30
2360944,40
2361572,49
2362200,56
2362828,61
2363460,64
2364080,56
2364708,34
2365336,16
2365960,17
2366588,19
2367208,25
2367836,31
2368464,22
2369088,13
2369716,22
2370336,32
2370968,34
2371596,32
2372216,24
2372844,17
2373468,19
2374100,20
2374732,16
2375352,23
2375984,24
2376608,19
2377232,23
2377860,12
2378480,11
2379108,33
2379736,46
2380360,45
2380988,42
2381608,47
2382236,50
2382868,27
2383488,14
2384116,10
2384740,11
2385372,11
2386000,28
2386624,26
2387252,15
2387876,11
2388500,19
2389132,28
2389752,33
2390384,31
2391008,25
2391632,15
2392264,10
2392880,15
2393512,24
2394144,27
2394764,29
2395392,31
2396016,35
2396648,35
2397276,36
2397896,33
2398528,33
2399152,16
2399776,29
2400408,33
2401024,29
2401652,47
2402276,51
2402900,33
2403532,16
2404152,24
2404780,13
2405412,20
2406032,16
2406664,19
2407284,27
2407916,34
2408544,29
2409168,21
2409796,14
2410420,12
2411044,17
2411676,32
2412296,38
2412924,45
2413548,47
2414172,32
2414804,21
2415428,21
2416056,16
2416688,10
2417304,11
2417932,21
2418556,22
2419188,27
2419816,34
2420440,24
2421068,16
2421692,19
2422316,25
2422948,23
2423568,17
2424196,15
2424824,15
2425448,11
2426076,11
2426700,17
2427332,19
2427964,18
2428584,19
2429212,25
2429840,37
2430468,39
2431100,28
2431720,33
2432352,32
2432976,29
2433600,13
2434228,14
2434848,34
2435476,47
2436108,34
2436728,31
2437360,30
2437980,25
2438612,13
2439240,14
2439864,15
2440492,16
2441116,16
2441740,13
2442372,14
2442992,15
2443620,13
2444244,25
2444868,37
2445500,36
2446120,49
2446748,68
2447380,60
2448000,44
2448628,20
2449252,15
2449884,11
2450516,14
2451136,21
2451768,33
2452392,43
2453016,36
2453648,25
2454264,20
2454896,27
2455520,32
2456144,25
2456776,22
2457392,19
2458024,15
2458656,13
2459272,13
2459900,10
2460524,11
2461152,23
2461780,30
2462400,29
2463028,27
2463652,25
2464276,27
2464904,23
2465520,15
2466152,17
2466776,18
2467400,15
2468028,10
2468648,24
2469276,11
2469904,10
2470524,10
2471152,11
2471776,16
2472404,31
2473036,25
2473656,16
2474284,17
2474908,14
2475532,26
2476160,33
2476784,29
2477412,21
2478040,27
2478664,29
2479292,36
2479912,45
2480544,38
2481172,28
2481792,17
2482420,16
2483044,16
2483676,16
2484304,28
2484920,38
2485552,33
2486176,29
2486800,20
2487428,16
2488048,24
2488676,16
2489300,14
2489924,16
2490552,16
2491176,19
2491808,20
2492436,14
2493056,15
2493684,21
2494308,26
2494940,25
2495572,34
2496192,43
2496820,41
2497444,33
2498068,23
2498696,18
2499320,17
2499948,11
2500572,10
2501196,19
2501824,36
2502448,54
2503076,43
2503708,34
2504328,35
2504956,29
2505580,37
2506212,33
2506844,16
2507464,16
2508096,16
2508720,13
2509344,20
2509972,28
2510592,25
2511220,27
2511844,32
2512472,40
2513100,50
2513720,61
2514348,51
2514980,40
2515600,29
2516228,32
2516852,30
2517484,22
2518116,11
2518736,32
2519368,32
2519992,20
2520616,16
2521244,16
2521864,22
2522492,25
2523116,16
2523740,15
2524372,15
2524996,10
2525628,12
2526256,17
2526880,15
2527508,16
2528136,20
2528764,33
2529396,38
2530016,42
2530644,27
2531268,23
2531892,26
2532524,24
2533144,17
2533776,11
2534404,27
2535024,40
2535652,37
2536280,33
2536908,29
2537540,19
2538160,15
2538792,16
2539416,21
2540040,20
2540668,15
2541288,18
2541916,19
2542544,20
2543168,17
2543796,16
2544416,20
2545044,24
2545676,32
2546296,39
2546928,42
2547552,35
2548180,25
2548812,18
2549432,16
2550064,12
2550688,11
2551312,16
2551944,23
2552564,33
2553192,30
2553820,27
2554444,36
2555076,34
2555696,29
2556328,24
2556960,16
2557576,15
2558208,12
2558836,11
2559468,13
2560100,14
2560716,22
2561344,21
2561964,20
2562588,17
2563216,13
2563832,27
2564460,37
2565084,25
2565708,17
2566336,17
2566952,11
2567580,20
2568208,33
2568832,43
2569460,26
2570080,20
2570712,27
2571340,26
2571960,11
2572588,24
2573212,36
2573836,52
2574464,45
2575080,45
2575712,35
2576336,23
2576956,20
2577588,19
2578208,15
2578836,14
2579468,27
2580088,40
2580716,39
2581340,33
2581968,31
2582600,24
2583216,11
2583844,13
2584468,18
2585092,26
2585724,30
2586344,30
2586972,28
2587596,20
2588216,21
2588848,23
2589464,19
2590092,15
2590716,14
2591344,16
2591972,11
2592600,11
2593228,13
2593856,17
2594480,22
2595108,31
2595732,42
2596360,43
2596988,40
2597608,34
2598236,31
2598860,23
2599484,15
2600116,14
2600736,23
2601364,31
2601996,24
2602616,22
2603244,17
2603868,20
2604496,19
2605128,19
2605744,20
2606376,19
2607000,19
2607624,18
2608252,11
2608872,12
2609500,15
2610124,19
2610748,18
2611380,14
2612000,15
2612628,18
2613256,31
2613880,38
2614508,39
2615132,38
2615764,25
2616392,14
2617008,16
2617640,26
2618264,35
2618888,55
2619516,63
2620136,68
2620768,60
2621392,48
2622016,42
2622644,36
2623264,19
2623892,28
2624520,74
2625140,103
2625824,92
2626440,73
2627068,47
2627696,48
2628312,50
2628940,48
2629564,29
2630188,11
2630816,15
2631432,20
2632060,15
2632684,18
2633304,22
2633936,12
2634552,15
2635180,28
2635812,29
2636432,49
2637060,45
2637684,28
2638312,21
2638940,15
2639560,22
2640188,23
2640812,24
2641432,27
2642060,18
2642676,16
2643308,10
2643928,11
2644552,13
2645180,14
2645800,11
2646428,14
2647056,38
2647672,49
2648300,40
2648924,22
2649552,16
2650184,14
2650800,32
2651428,33
2652052,27
2652676,15
2653308,10
2653928,11
2654556,19
2655180,25
2655804,28
2656436,22
2657056,17
2657684,26
2658312,22
2658932,14
2659560,15
2660184,13
2660812,12
2661440,22
2662064,44
2662692,59
2663316,53
2663940,43
2664568,30
2665188,17
2665820,16
2666440,19
2667060,15
2667692,10
2668308,22
2668940,25
2669560,28
2670184,43
2670812,34
2671436,31
2672064,37
2672696,30
2673312,21
2673940,21
2674564,16
2675192,26
2675820,19
2676440,12
2677068,12
2677692,11
2678316,34
2678944,50
2679564,47
2680192,45
2680816,40
2681436,41
2682068,27
2682692,18
2683320,11
2683948,19
2684568,29
2685196,24
2685820,25
2686448,28
2687080,24
2687696,25
2688324,21
2688948,16
2689572,14
2690200,16
2690816,15
2691444,15
2692068,16
2692688,15
2693320,15
2693936,17
2694564,20
2695192,28
2695816,41
2696444,49
2697068,44
2697696,27
2698324,20
2698944,18
2699572,17
2700196,11
2700820,15
2701448,29
2702064,44
2702696,59
2703320,56
2703944,44
2704572,39
2705192,37
2705820,35
2706452,26
2707072,16
2707700,23
2708324,36
2708952,45
2709584,43
2710200,46
2710828,48
2711452,48
2712076,49
2712708,42
2713328,38
2713960,41
2714580,42
2715204,33
2715832,25
2716452,15
2717080,15
2717708,28
2718328,39
2718956,23
2719580,16
2720212,21
2720840,20
2721456,22
2722084,23
2722708,18
2723332,16
2723964,14
2724584,15
2725212,10
2725836,10
2726456,11
2727084,13
2727704,14
2728332,14
2728956,23
2729580,36
2730208,45
2730832,21
2731460,16
2732092,18
2732712,26
2733340,15
2733964,13
2734596,17
2735224,20
2735848,10
2736476,11
2737100,19
2737724,20
2738356,22
2738976,22
2739604,21
2740236,22
2740856,23
2741484,13
2742108,20
2742740,15
2743368,12
2743988,18
2744616,21
2745240,37
2745864,52
2746492,60
2747112,65
2747740,43
2748364,38
2748988,34
2749620,23
2750240,11
2750868,24
2751500,38
2752120,36
2752748,29
2753372,28
2754000,21
2754628,30
2755248,31
2755876,26
2756500,28
2757124,29
2757756,28
2758376,22
2759008,12
2759632,11
2760256,12
2760884,27
2761504,39
2762136,44
2762764,31
2763384,34
2764012,23
2764636,43
2765268,47
2765900,22
2766520,12
2767148,15
2767772,11
2768396,18
2769024,23
2769648,29
2770276,19
2770900,16
2771524,17
2772152,21
2772776,16
2773404,15
2774036,16
2774656,16
2775284,13
2775908,15
2776540,25
2777168,22
2777792,47
2778420,73
2779044,77
2779668,71
2780300,52
2780920,20
2781548,15
2782172,15
2782800,21
2783428,14
2784048,10
2784676,15
2785308,24
2785928,31
2786556,30
2787180,21
2787808,28
2788440,36
2789056,33
2789684,28
2790308,17
2790932,16
2791564,11
2792184,11
2792812,14
2793436,15
2794060,25
2794692,36
2795312,41
2795944,42
2796572,39
2797192,26
2797820,22
2798448,27
2799076,27
2799708,20
2800328,12
2800956,24
2801580,23
2802204,20
2802832,24
2803456,29
2804084,34
2804708,35
2805332,32
2805964,13
2806584,15
2807212,18
2807844,24
2808464,23
2809092,17
2809716,13
2810344,13
2810976,23
2811592,23
2812224,32
2812848,35
2813472,36
2814100,27
2814720,28
2815348,17
2815976,16
2816600,12
2817228,10
2817848,10
2818476,10
2819104,17
2819728,23
2820356,20
2820980,18
2821608,13
2822240,18
2822856,25
2823484,23
2824108,15
2824732,16
2825360,13
2825984,15
2826612,17
2827236,10
2827860,12
2828488,22
2829104,24
2829736,34
2830364,37
2830984,27
2831612,26
2832236,26
2832868,26
2833496,14
2834112,11
2834744,20
2835368,32
2835992,36
2836620,38
2837240,31
2837868,21
2838492,22
2839116,16
2839748,16
2840368,16
2840996,17
2841628,10
2842248,12
2842876,11
2843500,16
2844132,15
2844760,22
2845380,26
2846008,14
2846632,30
2847260,47
2847888,56
2848508,43
2849136,44
2849760,32
2850384,12
2851012,32
2851632,49
2852260,37
2852892,10
2853512,11
2854144,13
2854768,21
2855396,23
2856028,18
2856648,17
2857276,15
2857900,16
2858524,14
2859156,19
2859776,13
2860404,19
2861032,40
2861656,56
2862284,64
2862904,62
2863536,54
2864164,42
2864784,31
2865416,17
2866040,17
2866668,24
2867300,31
2867920,39
2868548,30
2869172,31
2869792,30
2870424,22
2871040,14
2871668,19
2872292,27
2872916,19
2873548,15
2874168,18
2874796,26
2875428,34
2876048,27
2876676,27
2877300,16
2877932,16
2878564,22
2879184,23
2879816,23
2880440,27
2881060,26
2881688,27
2882308,24
2882940,18
2883564,12
2884184,24
2884812,30
2885432,27
2886060,21
2886688,15
2887312,12
2887940,11
2888564,15
2889192,15
2889820,17
2890440,16
2891068,16
2891692,19
2892316,20
2892944,16
2893560,20
2894192,26
2894816,25
2895436,34
2896068,31
2896688,30
2897316,31
2897944,20
2898568,16
2899196,16
2899820,17
2900448,21
2901080,16
2901696,13
2902324,12
2902952,22
2903576,33
2904204,38
2904824,22
2905452,27
2906076,29
2906700,15
2907332,24
2907952,35
2908584,33
2909212,28
2909832,30
2910460,28
2911084,30
2911716,24
2912344,32
2912968,39
2913596,27
2914220,15
2914844,14
2915476,14
2916096,15
2916724,10
2917348,11
2917976,10
2918604,11
2919224,32
2919852,35
2920484,30
2921104,17
2921732,13
2922356,18
2922988,17
2923616,14
2924232,16
2924864,19
2925488,24
2926112,17
2926740,12
2927360,17
2927988,28
2928616,35
2929240,33
2929868,39
2930488,32
2931116,25
2931748,18
2932368,18
2932996,15
2933624,11
2934252,13
2934884,16
2935504,23
2936136,21
2936760,20
2937384,17
2938016,17
2938632,19
2939264,15
2939888,16
2940512,15
2941140,16
2941764,21
2942396,22
2943028,12
2943648,11
2944280,20
2944904,23
2945532,31
2946164,32
2946784,35
2947412,30
2948036,22
2948660,24
2949292,26
2949912,16
2950540,10
2951164,18
2951792,27
2952420,25
2953044,23
2953672,25
2954304,24
2954920,22
2955552,25
2956176,20
2956804,15
2957432,16
2958056,13
2958684,11
2959312,11
2959936,15
2960564,17
2961184,15
2961812,18
2962444,36
2963064,54
2963692,49
2964316,44
2964948,24
2965576,17
2966196,16
2966824,11
2967448,12
2968072,29
2968704,50
2969320,52
2969952,41
2970576,28
2971196,13
2971828,20
2972448,23
2973076,17
2973708,19
2974328,15
2974956,22
2975580,46
2976212,53
2976840,36
2977464,27
2978092,22
2978716,31
2979340,36
2979968,36
2980592,31
2981220,32
2981844,23
2982468,19
2983096,12
2983720,16
2984348,20
2984980,24
2985600,19
2986228,17
2986852,21
2987484,30
2988112,39
2988736,25
2989368,17
2989992,20
2990616,17
2991244,16
2991864,21
2992496,22
2993116,21
2993744,29
2994372,31
2994992,29
2995624,33
2996252,40
2996872,44
2997500,35
2998128,27
2998756,22
2999388,18
3000008,11
3000636,23
3001260,32
3001888,34
3002516,33
3003136,31
3003768,32
3004392,26
3005016,20
3005648,25
3006264,24
3006896,21
3007524,18
3008144,21
3008772,15
3009396,42
3010028,38
3010660,37
3011280,35
3011908,42
3012532,43
3013156,60
3013788,72
3014408,62
3015036,36
3015664,19
3016288,22
3016916,25
3017544,29
3018172,35
3018804,31
3019424,33
3020056,29
3020680,11
3021312,13
3021940,27
3022560,35
3023188,30
3023816,20
3024440,17
3025068,16
3025688,18
3026316,13
3026944,10
3027568,33
3028200,44
3028824,41
3029452,40
3030084,36
3030704,24
3031336,27
3031960,32
3032584,28
3033212,14
3033832,17
3034460,36
3035088,35
3035712,27
3036340,23
3036960,17
3037588,23
3038220,12
3038840,14
3039472,16
3040096,16
3040724,16
3041356,13
3041976,11
3042604,13
3043228,15
3043852,16
3044484,16
3045104,13
3045736,17
3046360,25
3046984,17
3047612,19
3048232,40
3048860,41
3049492,32
3050112,22
3050744,11
3051368,21
3052000,21
3052628,17
3053248,17
3053876,15
3054504,13
3055128,25
3055760,30
3056376,21
3057008,16
3057632,23
3058256,19
3058888,12
3059504,11
3060136,11
3060764,11
3061384,14
3062016,25
3062640,44
3063268,59
3063900,60
3064520,43
3065152,23
3065776,15
3066400,19
3067032,17
3067648,15
3068280,29
3068904,41
3069528,35
3070160,36
3070780,47
3071412,40
3072044,14
3072660,23
3073288,17
3073912,15
3074540,18
3075172,24
3075792,17
3076420,11
3077044,10
3077668,22
3078300,32
3078920,55
3079548,64
3080172,52
3080796,34
3081428,24
3082052,22
3082680,20
3083308,10
3083928,15
3084556,22
3085180,27
3085812,19
3086440,19
3087060,23
3087688,25
3088312,29
3088936,33
3089564,22
3090184,16
3090812,15
3091436,13
3092064,23
3092692,29
3093316,22
3093948,15
3094576,16
3095196,20
3095824,18
3096448,23
3097080,31
3097712,16
3098328,21
3098956,35
3099580,39
3100204,24
3100836,10
3101456,13
3102084,15
3102712,18
3103336,24
3103968,32
3104592,33
3105220,35
3105852,30
3106472,23
3107104,16
3107728,19
3108360,24
3108988,21
3109608,25
3110236,26
3110864,22
3111488,16
3112120,15
3112736,24
3113368,33
3113996,24
3114616,18
3115244,25
3115868,26
3116500,11
3117132,20
3117752,28
3118384,13
3119008,10
3119632,13
3120264,17
3120880,22
3121508,21
3122132,26
3122756,26
3123388,20
3124008,17
3124636,22
3125264,27
3125888,35
3126516,30
3127140,25
3127772,26
3128400,26
3129024,29
3129652,27
3130276,20
3130900,20
3131532,26
3132152,25
3132784,23
3133408,15
3134032,17
3134664,15
3135280,33
3135912,47
3136540,38
3137160,34
3137788,26
3138412,20
3139044,29
3139672,22
3140296,16
3140924,20
3141552,24
3142176,31
3142808,31
3143424,33
3144056,33
3144680,28
3145304,29
3145932,32
3146552,37
3147184,33
3147812,30
3148432,23
3149064,21
3149688,15
3150316,11
3150948,22
3151568,28
3152200,29
3152824,30
3153448,26
3154080,24
3154696,20
3155324,21
3155948,21
3156576,18
3157204,14
3157828,16
3158460,13
3159092,20
3159712,21
3160344,21
3160968,28
3161596,28
3162228,26
3162848,30
3163480,35
3164104,24
3164728,25
3165360,24
3165976,18
3166608,11
3167240,15
3167856,23
3168488,39
3169112,55
3169744,58
3170376,45
3170992,29
3171624,15
3172252,15
3172876,14
3173508,17
3174128,32
3174760,40
3175384,43
3176008,28
3176636,19
3177256,24
3177888,30
3178516,28
3179136,30
3179768,31
3180392,36
3181024,28
3181652,23
3182272,29
3182904,32
3183528,18
3184152,11
3184784,21
3185400,25
3186032,38
3186656,41
3187280,44
3187908,30
3188528,20
3189160,14
3189792,17
3190408,18
3191040,16
3191664,13
3192296,11
3192928,12
3193548,13
3194180,14
3194804,27
3195432,45
3196060,55
3196680,65
3197312,53
3197936,29
3198564,18
3199192,15
3199820,11
3200452,10
3201080,15
3201704,27
3202332,37
3202956,41
3203584,42
3204212,34
3204832,28
3205460,18
3206084,14
3206704,15
3207332,16
3207952,25
3208580,29
3209204,20
3209828,22
3210456,19
3211080,22
3211708,29
3212340,40
3212960,47
3213588,47
3214212,29
3214840,19
3215472,19
3216088,16
3216720,14
3217340,25
3217964,27
3218592,31
3219216,28
3219844,33
3220468,35
3221092,27
3221720,23
3222344,25
3222976,16
3223604,16
3224224,18
3224852,15
3225476,12
3226108,11
3226740,10
3227360,15
3227988,37
3228612,54
3229236,55
3229868,52
3230488,42
3231116,27
3231740,21
3232368,29
3232996,13
3233620,16
3234248,34
3234880,38
3235496,37
3236128,37
3236752,38
3237380,25
3238012,14
3238632,14
3239260,29
3239884,38
3240508,29
3241140,16
3241760,40
3242388,52
3243020,47
3243640,34
3244268,28
3244892,21
3245524,26
3246152,31
3246772,41
3247400,39
3248024,35
3248648,38
3249276,25
3249896,13
3250528,15
3251152,37
3251776,43
3252408,31
3253024,23
3253652,22
3254284,16
3254904,19
3255532,21
3256160,21
3256788,16
3257420,16
3258040,14
3258668,13
3259292,10
3259920,20
3260548,35
3261168,39
3261800,43
3262424,34
3263048,16
3263676,20
3264296,26
3264928,20
3265556,14
3266176,16
3266804,12
3267428,14
3268060,20
3268688,26
3269312,35
3269944,39
3270568,34
3271192,41
3271824,37
3272444,19
3273072,15
3273696,31
3274320,42
3274952,39
3275568,27
3276200,17
3276832,23
3277448,26
3278076,27
3278696,29
3279324,37
3279952,42
3280576,40
3281204,34
3281824,27
3282448,18
3283076,10
3283696,13
3284324,17
3284944,23
3285564,23
3286196,24
3286816,21
3287444,21
3288072,27
3288688,33
3289316,28
3289940,21
3290568,15
3291196,17
3291816,20
3292444,20
3293068,17
3293696,20
3294324,18
3294944,21
3295572,22
3296196,25
3296820,31
3297448,23
3298064,23
3298692,24
3299316,31
3299936,18
3300564,10
3301188,12
3301816,15
3302448,15
3303064,25
3303692,34
3304316,31
3304944,35
3305572,33
3306192,25
3306820,19
3307444,16
3308068,24
3308696,18
3309312,11
3309944,11
3310568,18
3311188,35
3311820,42
3312440,37
3313068,22
3313700,13
3314320,31
3314948,57
3315572,52
3316204,36
3316832,23
3317448,10
3318080,33
3318700,49
3319324,40
3319956,34
3320576,26
3321204,15
3321828,15
3322452,14
3323080,16
3323696,20
3324328,21
3324956,16
3325576,11
3326204,20
3326828,27
3327460,33
3328092,46
3328708,44
3329336,48
3329956,59
3330580,57
3331208,33
3331828,15
3332460,19
3333084,11
3333708,14
3334336,28
3334952,38
3335580,40
3336212,34
3336832,19
3337460,11
3338084,12
3338712,18
3339340,19
3339960,16
3340588,21
3341212,15
3341836,10
3342464,10
3343080,10
3343712,12
3344336,9
3344904,13
3345540,20
3346160,41
3346788,50
3347412,51
3348036,47
3348664,32
3349284,24
3349912,11
3350540,24
3351160,49
3351788,45
3352412,51
3353044,71
3353672,58
3354296,27
3354924,13
3355548,33
3356172,43
3356800,34
3357416,29
3358048,26
3358672,17
3359296,12
3359924,16
3360544,28
3361172,33
3361800,33
3362416,39
3363044,40
3363668,30
3364300,28
3364928,27
3365544,23
3366172,21
3366796,10
3367424,31
3368056,39
3368672,31
3369300,35
3369924,36
3370544,45
3371176,29
3371792,17
3372424,18
3373048,15
3373672,19
3374300,24
3374924,25
3375552,31
3376184,27
3376800,19
3377432,17
3378056,12
3378684,10
3379316,18
3379936,55
3380564,62
3381184,54
3381808,43
3382436,29
3383056,11
3383684,12
3384304,16
3384932,21
3385560,27
3386184,33
3386812,29
3387444,34
3388064,31
3388692,25
3389316,28
3389948,23
3390576,19
3391200,14
3391828,11
3392452,12
3393076,12
3393704,16
3394328,26
3394956,25
3395580,22
3396208,34
3396836,58
3397460,45
3398088,25
3398720,22
3399336,35
3399964,25
3400588,10
3401220,23
3401848,35
3402464,28
3403092,25
3403716,22
3404340,20
3404972,18
3405588,18
3406220,14
3406844,16
3407468,16
3408096,14
3408720,12
3409348,12
3409976,13
3410592,18
3411224,23
3411844,28
3412476,33
3413104,35
3413724,31
3414352,36
3414980,28
3415604,17
3416232,12
3416852,10
3417480,20
3418104,37
3418728,43
3419356,43
3419980,56
3420612,65
3421244,51
3421864,35
3422492,32
3423116,23
3423748,15
3424380,22
3425000,45
3425628,65
3426252,53
3426876,62
3427508,58
3428128,49
3428756,39
3429388,43
3430008,51
3430640,32
3431260,16
3431892,17
3432520,20
3433144,28
3433772,39
3434396,21
3435020,13
3435652,9
3436220,11
3436852,16
3437476,19
3438100,18
3438732,14
3439352,14
3439984,16
3440608,16
3441232,12
3441860,14
3442480,15
3443108,17
3443740,15
3444360,23
3444988,33
3445612,48
3446240,40
3446872,22
3447488,13
3448116,15
3448740,18
3449364,18
3449996,10
3450616,11
3451244,20
3451868,22
3452492,27
3453124,22
3453744,22
3454372,17
3455004,11
3455624,18
3456256,16
3456876,15
3457508,18
3458136,17
3458752,18
3459384,16
3460008,14
3460628,40
3461260,56
3461880,56
3462508,49
3463132,42
3463756,30
3464384,18
3465008,15
3465636,15
3466264,10
3466888,11
3467516,10
3468140,17
3468772,28
3469404,33
3470024,35
3470652,34
3471280,30
3471904,16
3472532,15
3473152,17
3473780,17
3474404,19
3475028,10
3475660,12
3476280,24
3476908,27
3477540,29
3478160,34
3478792,30
3479416,22
3480044,22
3480676,24
3481296,26
3481928,29
3482548,28
3483172,14
3483800,12
3484424,21
3485052,36
3485676,37
3486300,31
3486932,44
3487556,45
3488184,34
3488812,24
3489432,15
3490060,37
3490684,54
3491312,55
3491944,44
3492560,38
3493188,30
3493812,21
3494436,17
3495064,22
3495688,32
3496316,37
3496940,28
3497564,24
3498196,21
3498820,18
3499452,15
3500080,10
3500704,18
3501336,30
3501960,37
3502592,33
3503220,24
3503840,29
3504468,31
3505096,31
3505720,20
3506348,19
3506968,22
3507600,18
3508220,18
3508848,25
3509476,11
3510100,15
3510732,14
3511364,20
3511984,41
3512616,41
3513240,25
3513864,23
3514492,18
3515112,20
3515744,23
3516368,17
3516992,10
3517624,19
3518240,28
3518872,27
3519504,27
3520124,18
3520752,12
3521376,13
3522004,19
3522636,40
3523256,52
3523884,45
3524508,16
3525128,40
3525760,46
3526376,48
3527004,33
3527628,27
3528252,30
3528884,35
3529504,39
3530132,45
3530764,34
3531384,25
3532012,24
3532636,25
3533268,13
3533900,11
3534520,20
3535148,22
3535772,26
3536396,33
3537028,26
3537648,21
3538276,17
3538900,27
3539524,35
3540156,24
3540776,16
3541404,12
3542036,10
3542656,12
3543284,13
3543908,17
3544540,11
3545168,29
3545792,51
3546420,70
3547044,61
3547668,43
3548300,23
3548920,15
3549548,17
3550172,40
3550800,35
3551428,16
3552048,12
3552676,10
3553308,10
3553928,11
3554556,13
3555184,25
3555812,24
3556444,16
3557064,16
3557696,15
3558320,11
3558944,11
3559572,13
3560192,11
3560820,19
3561444,27
3562068,35
3562700,56
3563320,70
3563952,53
3564580,40
3565200,21
3565828,17
3566452,11
3567084,20
3567716,24
3568336,27
3568964,36
3569588,28
3570212,27
3570844,32
3571464,22
3572092,20
3572716,18
3573344,17
3573972,22
3574600,24
3575228,20
3575860,18
3576480,15
3577108,11
3577736,11
3578364,14
3578996,12
3579616,14
3580248,32
3580872,51
3581496,49
3582128,29
3582744,20
3583376,16
3584008,10
3584628,14
3585260,23
3585884,25
3586512,14
3587140,19
3587760,25
3588388,30
3589012,31
3589640,17
3590268,24
3590888,18
3591516,14
3592144,14
3592768,13
3593396,22
3594016,31
3594644,38
3595276,55
3595896,58
3596528,47
3597152,29
3597780,24
3598412,16
3599032,16
3599664,21
3600288,26
3600912,21
3601540,23
3602160,29
3602788,23
3603412,21
3604036,23
3604668,23
3605288,22
3605916,16
3606544,17
3607160,18
3607792,13
3608416,17
3609044,28
3609672,38
3610296,37
3610924,19
3611544,15
3612168,19
3612796,30
3613416,33
3614044,44
3614668,40
3615292,24
3615924,16
3616544,17
3617172,18
3617804,26
3618424,24
3619052,28
3619676,15
3620308,19
3620936,24
3621552,15
3622184,15
3622808,16
3623432,16
3624060,18
3624680,14
3625308,16
3625932,23
3626556,15
3627184,12
3627808,14
3628436,16
3629068,20
3629688,20
3630316,29
3630940,36
3631572,39
3632204,15
3632824,19
3633452,22
3634076,12
3634700,11
3635332,18
3635952,25
3636580,17
3637204,23
3637828,18
3638456,13
3639080,13
3639708,15
3640340,17
3640960,19
3641588,14
3642212,11
3642844,14
3643476,22
3644096,28
3644724,28
3645352,41
3645976,57
3646604,59
3647224,53
3647852,39
3648480,33
3649100,26
3649732,16
3650352,17
3650980,33
3651612,39
3652232,29
3652860,28
3653484,32
3654116,25
3654744,14
3655368,21
3655996,22
3656624,19
3657248,15
3657876,10
3658496,10
3659124,13
3659748,11
3660376,19
3661004,11
3661624,11
3662252,13
3662884,14
3663504,46
3664136,66
3664760,62
3665388,60
3666020,44
3666640,29
3667268,16
3667892,10
3668516,12
3669148,15
3669768,16
3670396,13
3671024,25
3671648,63
3672280,58
3672904,44
3673536,22
3674168,22
3674784,41
3675416,28
3676040,13
3676672,10
3677300,11
3677920,12
3678552,24
3679176,33
3679800,35
3680432,50
3681052,37
3681680,20
3682308,15
3682928,11
3683556,19
3684184,21
3684812,19
3685444,20
3686064,17
3686696,12
3687316,15
3687940,19
3688572,32
3689192,31
3689820,22
3690444,20
3691064,14
3691696,12
3692312,23
3692940,35
3693564,20
3694192,19
3694820,22
3695444,36
3696076,44
3696704,31
3697320,17
3697952,15
3698576,21
3699204,35
3699832,17
3700452,17
3701080,27
3701704,40
3702328,41
3702960,20
3703580,10
3704208,15
3704840,18
3705456,18
3706088,19
3706712,27
3707344,24
3707972,15
3708592,17
3709220,9
3709796,11
3710428,30
3711060,36
3711680,17
3712312,13
3712936,29
3713560,28
3714188,24
3714808,22
3715436,17
3716060,12
3716684,10
3717316,14
3717936,30
3718564,18
3719196,10
3719816,11
3720444,9
3721016,24
3721652,41
3722284,30
3722904,23
3723532,20
3724156,19
3724788,13
3725420,32
3726040,27
3726668,35
3727296,26
3727920,29
3728548,42
3729168,43
3729796,44
3730420,40
3731048,29
3731676,29
3732300,21
3732932,11
3733560,10
3734184,11
3734816,28
3735440,31
3736068,27
3736700,34
3737320,48
3737952,35
3738576,24
3739200,21
3739828,15
3740448,15
3741076,15
3741708,12
3742328,19
3742960,21
3743584,11
3744212,11
3744844,22
3745464,33
3746092,34
3746716,31
3747344,24
3747972,34
3748592,37
3749220,28
3749848,20
3750472,10
3751100,14
3751720,13
3752352,11
3752980,16
3753600,23
3754228,21
3754856,19
3755484,23
3756116,19
3756736,17
3757368,19
3757992,19
3758616,16
3759248,12
3759868,10
3760500,11
3761124,25
3761748,51
3762380,76
3763000,90
3763632,64
3764264,35
3764880,16
3765508,17
3766136,37
3766764,54
3767396,56
3768016,57
3768648,40
3769268,21
3769892,11
3770524,24
3771144,21
3771776,16
3772400,13
3773024,19
3773652,21
3774276,16
3774908,33
3775540,43
3776160,44
3776788,40
3777412,43
3778044,21
3778676,20
3779296,43
3779924,37
3780548,15
3781176,16
3781804,16
3782424,25
3783052,11
3783676,12
3784304,10
3784936,23
3785560,36
3786192,32
3786820,35
3787440,49
3788072,36
3788696,21
3789320,16
3789952,16
3790568,16
3791196,12
3791824,21
3792448,23
3793076,23
3793696,15
3794324,19
3794956,35
3795576,49
3796204,49
3796832,42
3797460,35
3798092,22
3798712,15
3799344,15
3799968,30
3800592,29
3801224,16
3801840,18
3802468,9
3803040,11
3803672,21
3804304,24
3804920,21
3805552,21
3806176,25
3806800,21
3807428,16
3808048,10
3808680,11
3809308,20
3809928,25
3810556,27
3811184,28
3811812,31
3812444,29
3813064,37
3813696,40
3814320,31
3814944,18
3815576,16
3816196,11
3816824,29
3817448,33
3818072,11
3818704,16
3819320,16
3819952,20
3820584,10
3821200,31
3821832,49
3822456,40
3823088,29
3823716,16
3824336,13
3824968,11
3825592,11
3826216,20
3826848,44
3827468,60
3828100,64
3828724,66
3829348,53
3829980,44
3830608,17
3831236,17
3831868,24
3832488,26
3833120,18
3833744,45
3834376,45
3835008,47
3835628,52
3836256,37
3836884,20
3837508,12
3838140,20
3838760,43
3839392,43
3840028,46
3840644,37
3841276,25
3841896,14
3842528,13
3843156,16
3843776,21
3844404,21
3845028,27
3845652,37
3846284,48
3846904,49
3847532,34
3848156,20
3848780,15
3849412,25
3850032,33
3850664,21
3851292,36
3851912,55
3852540,48
3853164,33
3853796,16
3854424,12
3855048,17
3855676,30
3856300,32
3856924,21
3857556,16
3858176,24
3858804,17
3859428,19
3860052,29
3860684,32
3861304,45
3861932,53
3862564,56
3863184,57
3863812,48
3864440,40
3865068,31
3865700,14
3866320,25
3866948,34
3867572,40
3868196,45
3868828,44
3869448,32
3870076,25
3870704,17
3871328,14
3871960,16
3872584,16
3873212,16
3873844,17
3874464,14
3875092,16
3875720,13
3876348,21
3876980,16
3877600,13
3878228,11
3878856,39
3879480,51
3880112,57
3880728,60
3881360,47
3881980,20
3882608,16
3883236,10
3883864,17
3884492,36
3885124,43
3885744,27
3886376,11
3887000,14
3887624,25
3888256,31
3888872,28
3889504,28
3890128,22
3890752,19
3891384,11
3892000,14
3892628,23
3893260,28
3893880,27
3894508,17
3895132,34
3895764,50
3896392,62
3897016,64
3897644,43
3898268,23
3898892,15
3899524,16
3900144,28
3900776,41
3901400,51
3902024,53
3902656,31
3903272,26
3903904,29
3904536,20
3905152,15
3905784,19
3906408,26
3907036,31
3907668,22
3908288,19
3908916,18
3909544,17
3910168,15
3910800,12
3911416,34
3912048,17
3912672,36
3913296,51
3913924,40
3914544,16
3915176,27
3915804,31
3916424,17
3917056,11
3917680,24
3918308,29
3918940,21
3919560,16
3920192,25
3920816,11
3921440,28
3922068,34
3922688,31
3923316,29
3923944,17
3924568,17
3925196,11
3925816,12
3926448,55
3927076,69
3927696,54
3928328,37
3928952,36
3929584,40
3930212,32
3930832,21
3931464,29
3932088,32
3932712,20
3933340,15
3933960,20
3934588,26
3935212,29
3935836,21
3936468,21
3937092,24
3937724,34
3938352,42
3938972,46
3939600,36
3940224,22
3940852,16
3941484,24
3942104,27
3942736,28
3943356,36
3943980,33
3944612,32
3945232,40
3945860,45
3946484,45
3947108,36
3947740,26
3948364,18
3948992,16
3949624,14
3950240,21
3950868,23
3951496,26
3952124,19
3952756,24
3953376,25
3954004,21
3954628,21
3955252,23
3955884,16
3956504,16
3957132,17
3957756,10
3958384,13
3959016,22
3959640,22
3960272,13
3960900,14
3961520,15
3962152,27
3962776,45
3963400,51
3964028,35
3964648,19
3965276,17
3965904,15
3966528,13
3967160,16
3967776,11
3968408,13
3969040,22
3969656,23
3970284,17
3970908,19
3971540,18
3972168,14
3972792,17
3973424,16
3974048,15
3974672,11
3975300,10
3975920,12
3976548,17
3977172,21
3977800,29
3978428,44
3979048,56
3979676,56
3980308,31
3980928,17
3981556,16
3982184,16
3982812,10
3983444,12
3984064,22
3984692,22
3985316,41
3985940,61
3986572,66
3987192,62
3987824,39
3988448,21
3989072,18
3989704,16
3990320,16
3990952,30
3991584,41
3992204,46
3992832,41
3993460,39
3994092,30
3994720,21
3995340,32
3995968,38
3996596,66
3997220,64
3997848,39
3998472,19
3999104,18
3999728,27
4000352,31
4000980,34
4001604,27
4002232,21
4002860,10
4003480,13
4004108,11
4004732,13
4005364,35
4005992,25
4006612,15
4007240,16
4007864,16
4008488,22
4009116,14
4009736,11
4010364,12
4010988,20
4011612,39
4012244,57
4012868,61
4013496,52
4014128,35
4014744,21
4015372,17
4015996,21
4016628,16
4017256,18
4017880,27
4018508,39
4019132,31
4019760,16
4020388,14
4021008,19
4021636,17
4022260,15
4022884,16
4023516,16
4024140,17
4024768,13
4025396,14
4026016,19
4026644,18
4027268,17
4027900,26
4028528,40
4029152,55
4029784,47
4030408,30
4031032,19
4031660,24
4032280,17
4032908,13
4033532,11
4034160,15
4034788,19
4035412,21
4036044,29
4036672,32
4037296,33
4037924,26
4038548,31
4039176,24
4039804,17
4040424,18
4041052,11
4041676,11
4042300,11
4042932,16
4043552,25
4044184,29
4044812,28
4045432,45
4046060,56
4046684,37
4047316,21
4047944,20
4048568,19
4049196,22
4049820,25
4050444,16
4051076,10
4051696,11
4052324,16
4052952,19
4053576,25
4054204,30
4054824,38
4055456,40
4056084,30
4056704,19
4057332,16
4057960,19
4058588,14
4059220,10
4059840,12
4060468,15
4061092,17
4061720,43
4062348,63
4062968,63
4063600,31
4064224,23
4064848,16
4065476,20
4066096,23
4066724,29
4067356,26
4067976,22
4068608,22
4069232,11
4069860,21
4070492,11
4071112,16
4071744,17
4072368,15
4072992,17
4073620,16
4074240,19
4074868,11
4075496,11
4076120,14
4076752,11
4077368,11
4078000,12
4078632,17
4079248,48
4079880,53
4080504,49
4081132,45
4081764,22
4082384,16
4083016,12
4083640,29
4084264,49
4084892,58
4085512,48
4086144,15
4086768,16
4087392,35
4088024,36
4088648,21
4089276,16
4089908,16
4090528,15
4091160,22
4091784,17
4092416,11
4093048,18
4093664,14
4094296,24
4094924,34
4095548,16
4096180,30
4096796,39
4097424,22
4098044,21
4098668,29
4099296,11
4099920,11
4100548,15
4101176,12
4101792,35
4102420,28
4103040,19
4103668,24
4104300,16
4104920,13
4105548,13
4106172,21
4106792,29
4107424,21
4108040,15
4108668,11
4109292,10
4109912,12
4110544,15
4111160,15
4111788,43
4112420,58
4113040,65
4113668,60
4114292,43
4114920,19
4115548,16
4116168,11
4116796,18
4117420,25
4118040,48
4118672,57
4119288,41
4119916,35
4120540,20
4121164,11
4121796,14
4122416,17
4123044,16
4123672,21
4124288,25
4124916,25
4125540,12
4126172,14
4126800,35
4127416,44
4128044,46
4128668,52
4129288,68
4129916,84
4130536,70
4131164,41
4131788,19
4132412,16
4133040,19
4133664,40
4134292,40
4134924,32
4135544,40
4136172,50
4136796,50
4137428,47
4138056,42
4138672,23
4139300,20
4139924,25
4140548,18
4141180,38
4141800,43
4142428,38
4143052,42
4143676,50
4144308,72
4144928,73
4145556,61
4146188,53
4146808,39
4147436,26
4148060,19
4148688,17
4149320,27
4149936,33
4150564,29
4151188,19
4151816,10
4152444,10
4153064,17
4153692,17
4154316,31
4154940,38
4155568,34
4156192,26
4156820,20
4157452,14
4158072,11
4158700,11
4159328,15
4159956,13
4160588,28
4161208,52
4161836,58
4162456,62
4163080,54
4163708,35
4164328,22
4164956,18
4165580,16
4166204,29
4166832,46
4167448,39
4168076,17
4168700,28
4169328,33
4169956,17
4170580,11
4171208,12
4171836,14
4172456,16
4173084,16
4173708,15
4174340,13
4174968,19
4175588,22
4176216,17
4176840,13
4177460,15
4178092,16
4178708,13
4179340,11
4179964,14
4180584,13
4181212,15
4181836,28
4182468,31
4183096,25
4183712,12
4184344,19
4184968,13
4185596,19
4186228,18
4186848,22
4187476,14
4188100,13
4188724,19
4189356,16
4189976,18
4190604,31
4191228,46
4191856,35
4192488,29
4193108,24
4193740,15
4194368,13
4194988,21
4195616,29
4196240,32
4196868,37
4197500,27
4198120,17
4198748,17
4199372,11
4199996,11
4200624,16
4201248,27
4201876,36
4202504,37
4203128,38
4203756,35
4204380,44
4205008,49
4205640,37
4206256,21
4206884,25
4207508,24
4208136,13
4208764,35
4209384,51
4210012,51
4210636,53
4211260,43
4211888,45
4212504,59
4213136,59
4213764,48
4214384,43
4215012,38
4215640,25
4216268,10
4216900,20
4217520,38
4218152,62
4218776,60
4219400,41
4220028,15
4220648,13
4221276,16
4221900,17
4222524,17
4223156,18
4223776,16
4224408,16
4225036,16
4225656,17
4226284,11
4226908,18
4227536,11
4228164,10
4228784,28
4229412,44
4230036,42
4230664,33
4231292,37
4231912,49
4232540,16
4233164,22
4233788,32
4234420,22
4235040,17
4235668,19
4236300,19
4236920,15
4237548,34
4238172,35
4238804,15
4239432,15
4240052,16
4240680,18
4241304,27
4241924,40
4242556,32
4243176,22
4243808,11
4244432,31
4245056,17
4245684,54
4246304,54
4246936,58
4247564,50
4248184,23
4248812,23
4249436,19
4250068,14
4250696,31
4251320,28
4251948,34
4252572,37
4253196,24
4253828,14
4254448,21
4255076,28
4255700,14
4256328,16
4256956,17
4257576,15
4258204,11
4258836,10
4259456,13
4260084,25
4260708,32
4261336,43
4261968,53
4262584,38
4263212,32
4263836,22
4264460,19
4265088,16
4265704,17
4266336,22
4266956,24
4267580,33
4268212,26
4268832,19
4269460,11
4270088,11
4270712,11
4271340,16
4271964,25
4272596,35
4273228,22
4273848,16
4274476,23
4275100,24
4275728,33
4276356,28
4276976,27
4277604,33
4278228,44
4278852,46
4279484,32
4280104,24
4280732,22
4281364,16
4281984,17
4282612,18
4283236,31
4283868,30
4284496,29
4285112,47
4285744,41
4286368,19
4286992,15
4287620,15
4288240,17
4288868,35
4289492,23
4290116,15
4290744,15
4291368,39
4291996,53
4292628,40
4293248,21
4293876,18
4294500,11
4295132,21
4295764,39
4296384,43
4297012,39
4297636,31
4298264,18
4298892,16
4299512,12
4300144,12
4300768,32
4301392,43
4302024,57
4302640,50
4303268,16
4303900,19
4304520,29
4305148,17
4305772,15
4306404,21
4307032,30
4307652,19
4308280,13
4308904,23
4309528,31
4310156,30
4310776,12
4311408,19
4312032,52
4312656,79
4313284,88
4313904,71
4314532,59
4315164,36
4315784,15
4316416,17
4317040,25
4317668,25
4318300,22
4318920,34
4319552,55
4320176,33
4320800,20
4321428,40
4322048,30
4322676,15
4323300,17
4323924,16
4324552,17
4325176,17
4325804,13
4326436,17
4327056,17
4327684,33
4328308,52
4328936,54
4329568,39
4330188,38
4330816,42
4331440,25
4332064,20
4332692,12
4333312,12
4333940,22
4334568,32
4335192,30
4335820,31
4336440,43
4337068,40
4337700,37
4338320,39
4338952,29
4339576,24
4340204,24
4340836,16
4341456,14
4342088,11
4342708,18
4343332,17
4343964,18
4344584,56
4345212,80
4345836,71
4346460,54
4347092,36
4347716,41
4348348,39
4348976,19
4349596,11
4350228,10
4350852,10
4351484,10
4352112,18
4352736,25
4353364,25
4353988,20
4354608,14
4355240,18
4355856,20
4356484,16
4357108,17
4357732,10
4358364,11
4358988,13
4359616,16
4360244,18
4360864,32
4361492,37
4362116,30
4362748,27
4363376,17
4364000,14
4364628,16
4365252,16
4365876,11
4366508,30
4367128,56
4367760,50
4368380,36
4369008,16
4369636,17
4370260,19
4370892,14
4371520,20
4372140,13
4372768,16
4373392,17
4374024,20
4374652,24
4375272,25
4375904,23
4376528,18
4377152,15
4377784,21
4378400,35
4379028,44
4379660,38
4380280,25
4380908,23
4381532,19
4382164,16
4382796,16
4383416,25
4384044,37
4384668,35
4385292,13
4385920,16
4386544,17
4387176,10
4387800,22
4388424,31
4389052,24
4389672,17
4390304,18
4390932,13
4391552,15
4392184,30
4392808,29
4393436,19
4394068,14
4394688,17
4395320,26
4395944,48
4396568,51
4397200,30
4397816,20
4398448,20
4399072,15
4399696,11
4400328,11
4400944,13
4401572,13
4402204,26
4402824,36
4403456,41
4404076,29
4404708,27
4405336,14
4405956,17
4406584,18
4407208,45
4407832,36
4408460,22
4409080,21
4409708,11
4410332,11
4410956,16
4411588,18
4412208,71
4412840,94
4413468,74
4414088,59
4414716,53
4415344,53
4415972,37
4416604,10
4417224,14
4417852,13
4418476,17
4419104,19
4419732,25
4420352,40
4420984,56
4421608,70
4422232,60
4422864,20
4423480,17
4424112,19
4424740,25
4425360,12
4425988,11
4426612,33
4427244,45
4427872,25
4428492,29
4429120,55
4429744,66
4430368,58
4430996,33
4431616,17
4432244,17
4432868,21
4433492,19
4434124,28
4434744,25
4435372,27
4436004,30
4436624,17
4437252,11
4437876,17
4438508,24
4439140,20
4439760,17
4440392,15
4441016,11
4441640,19
4442268,22
4442888,23
4443516,30
4444144,27
4444768,33
4445400,26
4446024,31
4446652,38
4447284,26
4447904,27
4448536,25
4449160,13
4449788,14
4450420,26
4451040,37
4451672,35
4452296,19
4452920,13
4453552,10
4454168,11
4454800,23
4455428,25
4456048,20
4456676,19
4457300,24
4457932,13
4458564,14
4459184,12
4459816,16
4460440,25
4461064,34
4461696,41
4462312,42
4462944,60
4463568,59
4464192,32
4464824,15
4465440,16
4466068,19
4466700,10
4467320,20
4467948,15
4468576,18
4469204,28
4469836,18
4470456,19
4471084,19
4471712,17
4472336,16
4472968,15
4473584,17
4474216,15
4474840,15
4475464,17
4476096,11
4476712,35
4477344,43
4477976,47
4478596,47
4479228,37
4479852,27
4480484,23
4481116,28
4481736,30
4482364,20
4482988,14
4483612,27
4484244,29
4484864,25
4485492,31
4486116,33
4486740,24
4487368,26
4487992,28
4488620,21
4489252,18
4489872,20
4490500,20
4491124,17
4491756,26
4492388,16
4493008,11
4493636,17
4494260,34
4494888,34
4495516,30
4496136,33
4496764,29
4497388,26
4498012,26
4498644,37
4499268,39
4499896,17
4500528,11
4501148,22
4501776,36
4502400,55
4503032,41
4503664,24
4504284,11
4504912,16
4505540,26
4506164,24
4506796,14
4507416,13
4508044,9
4508616,13
4509240,20
4509868,13
4510488,23
4511116,31
4511740,53
4512368,55
4512996,40
4513620,39
4514252,32
4514880,19
4515496,16
4516128,15
4516752,27
4517380,32
4518012,28
4518632,31
4519260,25
4519884,20
4520508,13
4521140,14
4521760,21
4522388,22
4523020,20
4523640,16
4524268,15
4524892,23
4525524,22
4526152,15
4526776,17
4527404,18
4528028,24
4528652,35
4529280,56
4529904,54
4530536,32
4531160,25
4531784,17
4532412,13
4533032,15
4533660,14
4534292,16
4534912,19
4535544,20
4536168,36
4536796,26
4537428,26
4538048,26
4538676,16
4539304,21
4539928,45
4540560,23
4541176,14
4541808,13
4542432,21
4543056,47
4543688,61
4544304,64
4544936,53
4545568,40
4546184,44
4546816,41
4547436,20
4548068,16
4548700,17
4549320,13
4549948,25
4550576,39
4551200,27
4551828,21
4552448,19
4553076,15
4553704,26
4554328,34
4554956,20
4555576,18
4556208,26
4556836,21
4557456,12
4558084,13
4558708,11
4559340,21
4559972,26
4560592,23
4561224,32
4561848,56
4562472,55
4563104,45
4563720,44
4564352,52
4564976,30
4565600,16
4566228,20
4566856,32
4567488,43
4568116,37
4568736,17
4569364,11
4569992,13
4570620,13
4571252,16
4571872,13
4572504,16
4573128,20
4573752,19
4574384,10
4575004,16
4575632,15
4576264,13
4576888,28
4577516,37
4578144,45
4578772,47
4579404,38
4580024,33
4580656,21
4581280,17
4581904,17
4582536,12
4583152,15
4583784,19
4584408,18
4585032,15
4585664,31
4586280,43
4586912,35
4587540,22
4588160,23
4588788,24
4589412,17
4590044,16
4590676,12
4591296,13
4591928,13
4592552,13
4593176,17
4593804,26
4594424,30
4595056,31
4595680,45
4596304,61
4596932,58
4597552,37
4598184,19
4598812,20
4599432,19
4600064,9
4600636,10
4601272,17
4601900,28
4602520,38
4603152,23
4603776,13
4604408,15
4605036,26
4605656,22
4606288,16
4606912,16
4607536,13
4608168,11
4608784,13
4609412,11
4610036,11
4610660,12
4611288,19
4611908,25
4612540,19
4613168,20
4613788,55
4614416,64
4615040,74
4615668,49
4616300,17
4616920,20
4617548,33
4618172,35
4618800,47
4619428,44
4620048,16
4620676,10
4621300,15
4621924,25
4622556,36
4623180,39
4623812,27
4624440,10
4625060,11
4625688,12
4626312,11
4626940,11
4627572,16
4628192,49
4628820,47
4629444,43
4630068,38
4630700,34
4631320,33
4631952,22
4632580,10
4633200,35
4633832,33
4634456,27
4635084,14
4635716,10
4636336,15
4636964,25
4637588,38
4638216,43
4638844,31
4639464,23
4640092,16
4640716,29
4641340,37
4641968,27
4642592,19
4643220,19
4643848,20
4644472,20
4645100,28
4645724,47
4646356,39
4646988,26
4647608,18
4648236,23
4648860,23
4649484,13
4650116,16
4650736,19
4651364,12
4651992,17
4652616,20
4653244,29
4653864,32
4654496,36
4655124,20
4655744,18
4656376,22
4657000,25
4657628,17
4658260,20
4658880,23
4659508,14
4660136,11
4660756,12
4661388,32
4662008,47
4662636,47
4663260,39
4663888,31
4664516,29
4665136,25
4665768,17
4666396,11
4667016,10
4667648,19
4668272,45
4668900,35
4669532,32
4670152,32
4670784,32
4671408,41
4672032,29
4672660,22
4673280,16
4673908,20
4674532,16
4675156,10
4675788,11
4676408,14
4677036,15
4677668,19
4678288,35
4678920,48
4679544,53
4680172,33
4680804,18
4681424,15
4682052,16
4682680,13
4683304,17
4683932,14
4684552,27
4685184,11
4685808,15
4686432,11
4687060,22
4687684,34
4688316,31
4688944,21
4689568,16
4690200,18
4690824,12
4691452,22
4692084,26
4692704,11
4693332,49
4693960,65
4694584,75
4695212,77
4695832,68
4696464,47
4697092,27
4697712,22
4698340,26
4698968,17
4699596,10
4700228,15
4700848,32
4701476,35
4702104,44
4702728,42
4703360,39
4703976,40
4704608,30
4705236,25
4705860,17
4706492,15
4707112,17
4707744,16
4708376,11
4708996,13
4709624,13
4710252,10
4710884,17
4711512,39
4712132,54
4712764,59
4713388,53
4714012,34
4714640,26
4715264,29
4715896,18
4716520,11
4717144,25
4717772,24
4718392,26
4719024,36
4719656,36
4720276,20
4720904,16
4721528,24
4722156,26
4722788,18
4723408,19
4724036,18
4724660,19
4725288,14
4725916,10
4726536,11
4727164,29
4727792,36
4728416,33
4729044,29
4729672,23
4730300,23
4730932,25
4731552,17
4732184,27
4732808,22
4733436,15
4734068,26
4734688,16
4735320,24
4735944,15
4736572,10
4737204,12
4737824,33
4738452,41
4739084,22
4739704,21
4740336,23
4740960,16
4741588,15
4742220,12
4742840,10
4743468,18
4744096,13
4744720,22
4745348,27
4745968,30
4746600,20
4747224,17
4747848,22
4748480,17
4749096,14
4749728,35
4750360,36
4750980,29
4751608,12
4752232,10
4752864,17
4753492,15
4754112,24
4754740,27
4755368,15
4755992,17
4756620,23
4757240,22
4757868,22
4758496,20
4759120,28
4759748,42
4760368,40
4760996,36
4761628,34
4762248,38
4762876,39
4763500,33
4764132,21
4764764,19
4765384,24
4766016,45
4766640,56
4767264,53
4767896,18
4768512,10
4769144,11
4769768,11
4770392,18
4771024,36
4771644,24
4772272,16
4772904,31
4773524,23
4774152,34
4774780,54
4775408,47
4776040,42
4776660,40
4777288,35
4777912,31
4778536,17
4779168,11
4779788,17
4780416,29
4781044,43
4781668,42
4782300,24
4782924,18
4783556,12
4784188,10
4784808,25
4785436,38
4786064,35
4786696,42
4787328,48
4787944,42
4788576,27
4789200,26
4789824,17
4790456,16
4791072,12
4791704,10
4792336,10
4792960,11
4793588,13
4794216,39
4794848,64
4795480,66
4796100,56
4796728,46
4797356,32
4797984,23
4798612,17
4799232,10
4799864,14
4800492,10
4801116,10
4801748,18
4802372,30
4803000,23
4803628,16
4804248,13
4804876,16
4805500,16
4806132,15
4806760,15
4807384,13
4808012,13
4808636,10
4809260,13
4809892,18
4810512,19
4811144,25
4811768,33
4812392,36
4813024,39
4813648,28
4814276,19
4814904,15
4815528,15
4816156,19
4816780,25
4817412,35
4818040,27
4818664,27
4819292,20
4819916,13
4820540,32
4821172,15
4821792,22
4822420,29
4823052,22
4823672,18
4824304,11
4824928,13
4825556,19
4826188,32
4826808,35
4827436,26
4828064,25
4828688,33
4829320,46
4829936,40
4830568,28
4831192,26
4831816,18
4832448,14
4833072,28
4833704,36
4834332,38
4834952,51
4835584,30
4836208,12
4836836,10
4837468,10
4838088,19
4838716,19
4839344,17
4839968,25
4840596,12
4841216,32
4841844,51
4842468,35
4843092,11
4843724,15
4844344,14
4844972,26
4845604,46
4846224,59
4846856,35
4847480,23
4848108,24
4848740,27
4849360,24
4849988,15
4850616,11
4851240,15
4851868,19
4852488,21
4853116,30
4853744,33
4854368,31
4855000,51
4855624,49
4856256,25
4856884,16
4857504,15
4858136,18
4858760,34
4859392,37
4860024,43
4860640,31
4861272,21
4861896,21
4862520,16
4863152,15
4863772,18
4864404,21
4865032,47
4865656,52
4866284,27
4866908,25
4867540,51
4868168,45
4868792,28
4869424,19
4870048,10
4870672,11
4871300,14
4871920,13
4872552,15
4873176,15
4873800,17
4874432,17
4875048,12
4875676,14
4876308,16
4876928,30
4877556,38
4878184,48
4878812,54
4879444,55
4880064,41
4880692,19
4881316,17
4881940,20
4882572,10
4883192,16
4883824,36
4884448,40
4885072,39
4885704,54
4886320,57
4886952,35
4887580,11
4888200,26
4888828,29
4889456,22
4890084,20
4890716,18
4891336,22
4891968,28
4892592,17
4893216,12
4893848,22
4894464,30
4895096,35
4895720,50
4896344,48
4896972,17
4897592,15
4898224,24
4898852,23
4899472,14
4900104,11
4900728,24
4901360,43
4901988,50
4902608,31
4903240,12
4903864,11
4904488,14
4905120,14
4905736,19
4906368,21
4906992,20
4907616,13
4908248,11
4908872,14
4909504,16
4910132,17
4910752,11
4911384,36
4912008,36
4912640,49
4913272,52
4913892,48
4914524,36
4915148,27
4915776,18
4916404,14
4917024,10
4917652,14
4918284,13
4918904,36
4919532,51
4920156,40
4920788,14
4921416,15
4922036,15
4922664,17
4923288,18
4923912,14
4924540,16
4925160,17
4925788,11
4926412,11
4927036,18
4927668,28
4928288,27
4928916,32
4929548,25
4930168,16
4930796,20
4931420,27
4932052,18
4932680,11
4933300,14
4933928,13
4934552,24
4935176,24
4935808,27
4936424,54
4937052,56
4937676,33
4938300,16
4938932,16
4939552,16
4940180,21
4940812,28
4941432,41
4942060,43
4942684,30
4943316,24
4943944,28
4944568,43
4945196,50
4945824,41
4946448,27
4947076,17
4947696,17
4948324,19
4948948,22
4949572,10
4950204,14
4950824,26
4951456,27
4952084,30
4952704,42
4953336,37
4953960,32
4954592,23
4955220,18
4955840,18
4956472,18
4957096,16
4957720,21
4958348,26
4958968,26
4959600,19
4960224,17
4960848,25
4961476,38
4962096,46
4962724,41
4963356,26
4963976,20
4964604,18
4965228,23
4965860,15
4966492,10
4967112,18
4967740,32
4968364,41
4968988,41
4969616,39
4970232,29
4970864,20
4971488,49
4972112,46
4972740,15
4973360,15
4973988,15
4974620,12
4975240,52
4975872,59
4976496,49
4977124,52
4977756,56
4978376,56
4979008,45
4979632,37
4980256,35
4980884,30
4981504,21
4982136,15
4982760,16
4983384,19
4984012,22
4984632,26
4985264,20
4985892,15
4986512,22
4987144,29
4987768,21
4988400,15
4989028,14
4989648,15
4990280,15
4990904,11
4991528,17
4992160,10
4992776,21
4993404,23
4994028,17
4994652,18
4995284,52
4995908,64
4996540,49
4997168,42
4997792,32
4998420,15
4999044,11
4999676,12
5000304,10
5000928,15
5001556,20
5002184,13
5002808,13
5003436,16
5004056,26
5004684,24
5005316,23
5005936,20
5006568,19
5007192,18
5007824,12
5008452,12
5009072,11
5009704,9
5010276,10
5010912,11
5011540,20
5012160,39
5012792,58
5013416,68
5014040,57
5014672,29
5015288,15
5015920,11
5016544,10
5017168,11
5017800,19
5018416,28
5019044,27
5019676,26
5020296,31
5020924,39
5021552,30
5022180,16
5022812,16
5023432,17
5024064,17
5024688,22
5025312,38
5025940,36
5026560,34
5027188,23
5027816,26
5028440,35
5029072,32
5029688,30
5030320,17
5030952,15
5031572,17
5032200,12
5032824,11
5033456,10
5034088,10
5034708,16
5035340,31
5035964,26
5036588,35
5037220,30
5037840,26
5038472,24
5039096,21
5039720,18
5040352,25
5040976,23
5041604,27
5042236,20
5042856,13
5043488,30
5044112,42
5044740,54
5045372,57
5045992,52
5046624,52
5047248,38
5047872,19
5048504,17
5049120,26
5049752,35
5050384,27
5051000,11
5051632,10
5052256,13
5052888,21
5053516,22
5054136,20
5054768,29
5055392,24
5056016,19
5056648,16
5057264,12
5057896,11
5058520,12
5059144,15
5059776,17
5060392,15
5061024,21
5061656,28
5062272,41
5062904,54
5063532,47
5064160,28
5064792,17
5065412,15
5066044,13
5066668,21
5067296,30
5067928,24
5068544,13
5069176,10
5069804,14
5070428,19
5071060,19
5071684,18
5072316,17
5072948,18
5073568,19
5074200,11
5074824,22
5075456,19
5076088,14
5076704,16
5077336,17
5077964,32
5078588,43
5079220,38
5079840,30
5080472,18
5081100,17
5081720,29
5082348,24
5082976,35
5083604,39
5084236,28
5084856,19
5085484,12
5086112,16
5086736,25
5087368,28
5087984,31
5088616,15
5089244,23
5089868,24
5090500,14
5091120,16
5091752,30
5092384,30
5093004,26
5093632,18
5094260,16
5094892,23
5095524,24
5096144,35
5096776,37
5097400,42
5098024,26
5098656,16
5099276,10
5099908,10
5100532,12
5101156,18
5101788,27
5102416,19
5103044,26
5103676,30
5104300,43
5104928,40
5105556,29
5106184,16
5106816,15
5107436,13
5108068,20
5108692,22
5109320,28
5109952,31
5110572,25
5111204,19
5111836,21
5112460,32
5113092,31
5113716,24
5114348,18
5114980,16
5115600,13
5116232,18
5116860,33
5117488,27
5118120,20
5118740,20
5119372,19
5120004,19
5120620,15
5121248,14
5121868,15
5122500,16
5123128,17
5123744,17
5124372,19
5124996,23
5125624,25
5126256,23
5126872,18
5127500,19
5128124,25
5128748,34
5129376,35
5129996,33
5130624,31
5131248,28
5131872,23
5132500,11
5133124,15
5133752,21
5134380,16
5135000,14
5135628,14
5136252,14
5136884,17
5137512,25
5138128,26
5138760,22
5139384,22
5140008,18
5140636,10
5141256,11
5141884,14
5142508,16
5143132,16
5143760,20
5144384,35
5145012,46
5145644,48
5146264,37
5146892,20
5147516,17
5148144,15
5148776,16
5149396,23
5150024,27
5150648,23
5151272,18
5151900,19
5152520,22
5153148,16
5153772,11
5154396,16
5155028,20
5155652,22
5156284,21
5156912,17
5157532,12
5158160,15
5158788,13
5159416,19
5160044,11
5160664,25
5161292,53
5161916,92
5162540,99
5163172,65
5163792,44
5164420,22
5165044,16
5165668,13
5166300,29
5166924,43
5167552,39
5168184,24
5168800,21
5169432,15
5170056,11
5170684,13
5171316,16
5171936,16
5172564,20
5173188,23
5173812,24
5174444,22
5175064,17
5175692,14
5176316,10
5176944,15
5177572,22
5178200,29
5178828,38
5179460,38
5180080,24
5180708,17
5181336,22
5181960,19
5182588,11
5183208,11
5183836,18
5184464,32
5185088,43
5185716,43
5186336,33
5186964,17
5187596,28
5188216,33
5188844,17
5189468,16
5190100,15
5190732,15
5191352,19
5191984,25
5192608,34
5193232,32
5193864,23
5194480,24
5195108,31
5195736,31
5196360,18
5196992,15
5197608,16
5198236,16
5198868,16
5199488,11
5200120,10
5200740,16
5201372,20
5202000,18
5202624,26
5203252,18
5203876,12
5204500,16
5205128,15
5205748,16
5206376,20
5207000,19
5207624,12
5208252,12
5208872,20
5209500,17
5210132,18
5210752,21
5211384,25
5212008,32
5212636,35
5213268,27
5213888,28
5214516,22
5215144,16
5215768,35
5216400,27
5217016,11
5217644,31
5218268,33
5218892,17
5219524,10
5220144,12
5220776,17
5221404,28
5222024,32
5222656,24
5223276,17
5223908,11
5224540,10
5225160,11
5225788,10
5226412,16
5227036,27
5227668,32
5228288,37
5228916,46
5229540,39
5230168,27
5230796,25
5231416,25
5232048,17
5232676,10
5233296,15
5233924,24
5234548,28
5235180,42
5235812,56
5236432,44
5237064,35
5237688,35
5238312,26
5238944,25
5239560,19
5240192,17
5240816,23
5241444,17
5242072,11
5242700,20
5243328,43
5243960,64
5244576,76
5245204,62
5245828,46
5246456,37
5247088,17
5247704,16
5248332,16
5248956,10
5249576,11
5250208,10
5250824,16
5251452,39
5252076,41
5252700,24
5253328,22
5253944,22
5254572,21
5255200,24
5255824,41
5256452,28
5257076,13
5257704,30
5258332,40
5258952,43
5259580,36
5260204,11
5260828,15
5261456,29
5262072,68
5262704,71
5263328,51
5263952,32
5264580,22
5265200,18
5265828,15
5266456,24
5267080,21
5267708,14
5268332,15
5268964,16
5269592,17
5270208,29
5270840,28
5271464,20
5272088,16
5272716,15
5273336,17
5273968,17
5274588,37
5275212,31
5275844,17
5276464,13
5277092,10
5277724,14
5278344,25
5278976,36
5279600,36
5280228,27
5280856,24
5281472,19
5282104,13
5282724,10
5283348,21
5283976,41
5284600,40
5285228,27
5285852,14
5286472,13
5287104,17
5287720,22
5288348,22
5288976,19
5289600,17
5290228,15
5290852,13
5291480,16
5292108,13
5292728,11
5293356,14
5293980,21
5294604,35
5295236,36
5295856,32
5296484,27
5297108,20
5297732,22
5298364,34
5298984,17
5299612,19
5300244,38
5300864,59
5301492,33
5302116,19
5302748,11
5303376,14
5303996,35
5304628,18
5305248,26
5305872,52
5306504,44
5307120,16
5307752,11
5308376,19
5309000,29
5309628,12
5310248,13
5310876,20
5311508,46
5312128,53
5312756,55
5313380,46
5314012,27
5314640,17
5315256,19
5315888,21
5316512,32
5317136,35
5317764,14
5318384,13
5319016,12
5319640,11
5320264,13
5320892,10
5321512,15
5322144,16
5322772,17
5323392,25
5324024,12
5324648,23
5325276,25
5325908,35
5326528,24
5327156,21
5327780,60
5328404,74
5329032,52
5329648,16
5330276,17
5330900,17
5331524,15
5332152,16
5332768,13
5333400,12
5334028,11
5334648,24
5335276,12
5335900,32
5336532,24
5337160,43
5337780,82
5338408,40
5339032,40
5339656,71
5340284,56
5340904,35
5341532,11
5342156,11
5342780,14
5343412,12
5344032,21
5344660,31
5345288,32
5345912,37
5346540,41
5347164,31
5347796,25
5348424,17
5349044,19
5349672,30
5350296,41
5350920,39
5351548,18
5352168,11
5352796,11
5353420,12
5354044,10
5354676,18
5355296,23
5355924,37
5356556,48
5357176,16
5357804,29
5358428,32
5359060,27
5359692,22
5360312,12
5360940,11
5361564,22
5362192,13
5362820,46
5363440,52
5364068,37
5364692,33
5365316,26
5365948,14
5366568,11
5367196,22
5367828,30
5368448,13
5369076,10
5369700,15
5370332,17
5370960,12
5371584,16
5372212,16
5372840,17
5373464,17
5374092,18
5374712,12
5375344,17
5375968,14
5376592,12
5377224,13
5377840,39
5378468,45
5379096,58
5379720,57
5380348,46
5380972,31
5381600,18
5382232,10
5382848,23
5383476,33
5384100,32
5384724,33
5385356,31
5385976,27
5386604,15
5387228,17
5387852,23
5388480,24
5389104,27
5389732,22
5390364,16
5390984,18
5391612,10
5392240,10
5392868,14
5393496,14
5394120,27
5394748,37
5395372,33
5395996,37
5396628,42
5397248,43
5397876,34
5398500,29
5399124,13
5399756,16
5400376,28
5401004,25
5401636,21
5402256,19
5402884,15
5403508,28
5404140,31
5404768,28
5405392,20
5406024,15
5406648,18
5407272,21
5407900,16
5408520,11
5409148,12
5409772,21
5410396,34
5411024,69
5411648,64
5412276,40
5412908,16
5413528,19
5414156,43
5414780,39
5415412,16
5416044,16
5416664,51
5417292,26
5417916,13
5418540,13
5419172,36
5419792,41
5420424,33
5421048,40
5421672,31
5422300,19
5422924,31
5423556,41
5424188,32
5424808,24
5425436,14
5426060,12
5426692,13
5427324,12
5427944,30
5428572,63
5429196,73
5429820,53
5430448,31
5431064,14
5431696,23
5432324,11
5432944,12
5433572,11
5434200,29
5434828,61
5435460,81
5436080,53
5436708,12
5437336,24
5437960,29
5438592,20
5439208,28
5439836,35
5440464,23
5441088,15
5441716,12
5442336,17
5442964,16
5443596,12
5444216,18
5444844,36
5445468,43
5446096,29
5446728,18
5447344,16
5447972,17
5448596,22
5449220,14
5449852,28
5450472,38
5451100,27
5451724,29
5452348,25
5452980,17
5453600,11
5454228,13
5454856,17
5455480,20
5456108,43
5456732,43
5457360,26
5457992,17
5458608,29
5459240,44
5459860,52
5460488,56
5461116,41
5461736,38
5462368,45
5462992,43
5463616,31
5464248,22
5464864,19
5465492,11
5466124,10
5466744,15
5467372,10
5468000,27
5468628,19
5469260,14
5469880,11
5470508,16
5471136,44
5471760,29
5472388,23
5473008,16
5473636,18
5474260,11
5474884,13
5475516,20
5476136,27
5476768,35
5477396,28
5478016,26
5478648,39
5479272,39
5479900,28
5480532,16
5481152,15
5481780,15
5482404,13
5483028,21
5483660,30
5484280,31
5484908,24
5485532,29
5486156,24
5486788,12
5487408,24
5488036,35
5488668,38
5489288,22
5489916,24
5490540,12
5491172,30
5491804,21
5492424,28
5493052,37
5493676,59
5494304,57
5494932,68
5495552,80
5496184,75
5496808,45
5497432,25
5498064,17
5498680,11
5499312,21
5499940,35
5500560,36
5501192,32
5501816,32
5502448,24
5503076,16
5503696,13
5504328,17
5504952,23
5505576,20
5506204,16
5506824,16
5507452,12
5508076,11
5508704,13
5509332,11
5509956,12
5510588,16
5511216,18
5511840,20
5512468,23
5513096,27
5513724,25
5514356,25
5514976,21
5515608,15
5516232,13
5516856,15
5517484,30
5518104,35
5518736,20
5519364,20
5519984,20
5520616,19
5521240,21
5521868,16
5522500,15
5523120,17
5523752,11
5524376,10
5525000,13
5525628,11
5526248,14
5526880,15
5527504,30
5528128,47
5528760,42
5529376,31
5530008,23
5530640,15
5531256,17
5531884,20
5532508,15
5533140,15
5533768,10
5534392,11
5535024,13
5535648,12
5536272,27
5536900,35
5537520,40
5538148,14
5538772,15
5539400,17
5540028,27
5540648,34
5541276,27
5541908,37
5542528,47
5543156,37
5543784,21
5544412,14
5545044,11
5545664,20
5546292,15
5546916,31
5547544,39
5548172,16
5548792,23
5549424,25
5550048,19
5550672,12
5551304,14
5551920,10
5552552,17
5553184,21
5553804,25
5554436,26
5555060,17
5555692,15
5556320,16
5556944,14
5557576,19
5558200,18
5558824,17
5559456,21
5560072,23
5560704,16
5561328,23
5561952,33
5562584,19
5563208,15
5563836,18
5564468,30
5565088,31
5565720,25
5566344,11
5566976,10
5567608,10
5568224,17
5568856,27
5569480,27
5570104,23
5570736,19
5571352,20
5571980,20
5572604,18
5573232,20
5573860,11
5574484,13
5575116,11
5575748,16
5576368,29
5576996,33
5577620,35
5578248,45
5578876,54
5579496,41
5580128,23
5580752,24
5581376,30
5582008,23
5582624,12
5583256,13
5583888,28
5584504,40
5585132,47
5585760,49
5586388,31
5587020,12
5587640,21
5588268,20
5588896,25
5589520,35
5590148,22
5590768,11
5591400,19
5592024,41
5592648,53
5593276,40
5593896,14
5594528,15
5595160,17
5595776,25
5596408,21
5597032,19
5597664,20
5598296,33
5598912,37
5599544,29
5600172,13
5600792,14
5601424,23
5602040,34
5602672,32
5603296,25
5603920,22
5604548,16
5605168,15
5605796,16
5606428,15
5607048,14
5607676,17
5608300,15
5608932,20
5609560,20
5610184,18
5610816,26
5611440,27
5612064,29
5612692,21
5613312,19
5613940,29
5614568,37
5615192,36
5615820,18
5616440,12
5617068,30
5617700,35
5618320,25
5618948,18
5619576,13
5620204,12
5620836,16
5621456,19
5622088,17
5622712,18
5623336,22
5623968,14
5624584,10
5625216,14
5625840,15
5626464,19
5627096,20
5627720,21
5628348,30
5628980,25
5629600,26
5630232,25
5630856,18
5631488,17
5632120,14
5632736,12
5633364,9
5633936,11
5634564,10
5635192,24
5635816,37
5636444,34
5637072,31
5637696,25
5638324,32
5638944,35
5639572,29
5640204,16
5640824,11
5641452,19
5642076,46
5642708,53
5643336,64
5643960,51
5644588,41
5645216,47
5645836,48
5646468,38
5647088,25
5647716,16
5648344,19
5648964,23
5649596,34
5650216,22
5650848,10
5651476,14
5652096,10
5652724,17
5653348,12
5653980,11
5654608,18
5655232,28
5655860,30
5656484,24
5657108,12
5657740,25
5658360,33
5658988,31
5659612,27
5660236,17
5660868,20
5661488,35
5662116,42
5662748,38
5663368,25
5663996,19
5664624,17
5665252,12
5665884,10
5666504,16
5667132,28
5667760,29
5668384,21
5669012,21
5669632,15
5670260,11
5670888,17
5671512,28
5672140,25
5672760,17
5673392,17
5674020,14
5674640,12
5675272,16
5675896,14
5676524,13
5677156,23
5677776,34
5678408,31
5679032,27
5679656,23
5680288,15
5680904,21
5681536,31
5682160,11
5682784,17
5683416,30
5684040,35
5684668,47
5685296,31
5685920,43
5686548,37
5687172,11
5687804,18
5688436,16
5689056,23
5689684,49
5690308,63
5690936,45
5691564,13
5692184,26
5692816,16
5693440,23
5694064,33
5694696,42
5695320,51
5695952,45
5696580,22
5697200,27
5697828,27
5698452,18
5699080,19
5699708,19
5700328,11
5700956,17
5701584,24
5702208,22
5702840,13
5703456,13
5704088,19
5704716,22
5705336,19
5705968,17
5706592,17
5707224,11
5707852,14
5708472,18
5709104,17
5709728,15
5710352,21
5710984,34
5711604,29
5712232,20
5712856,18
5713480,20
5714112,15
5714728,16
5715360,11
5715988,10
5716608,15
5717240,23
5717864,28
5718496,23
5719124,13
5719744,17
5720376,24
5721000,22
5721624,16
5722252,17
5722872,16
5723504,15
5724128,15
5724752,22
5725384,22
5726008,21
5726640,34
5727272,31
5727892,26
5728524,26
5729148,27
5729780,34
5730412,26
5731032,18
5731664,17
5732288,10
5732916,16
5733548,34
5734168,31
5734804,18
5735432,23
5736048,20
5736676,16
5737300,24
5737928,26
5738560,25
5739176,27
5739808,23
5740432,18
5741060,11
5741692,12
5742312,16
5742944,25
5743568,46
5744192,39
5744820,43
5745440,59
5746068,44
5746700,28
5747320,20
5747948,19
5748572,21
5749204,35
5749832,28
5750456,27
5751084,25
5751712,13
5752336,23
5752964,26
5753584,15
5754216,30
5754840,45
5755464,24
5756096,16
5756712,16
5757344,11
5757976,23
5758592,30
5759224,33
5759852,35
5760484,21
5761112,12
5761728,11
5762356,14
5762980,26
5763604,67
5764232,90
5764856,78
5765484,32
5766108,12
5766732,14
5767360,16
5767976,31
5768608,39
5769236,33
5769856,15
5770484,19
5771108,29
5771740,26
5772368,17
5772992,17
5773620,15
5774244,16
5774868,12
5775500,10
5776120,11
5776748,14
5777372,29
5777996,44
5778624,46
5779248,43
5779876,23
5780508,19
5781128,16
5781756,15
5782380,9
5782960,13
5783588,26
5784208,28
5784836,27
5785460,23
5786092,15
5786724,16
5787344,14
5787972,18
5788596,21
5789220,19
5789852,16
5790472,12
5791100,18
5791728,22
5792352,22
5792980,22
5793604,16
5794232,22
5794864,27
5795484,31
5796116,45
5796736,41
5797368,33
5797996,15
5798616,22
5799244,28
5799868,34
5800492,43
5801124,42
5801744,19
5802372,13
5802996,13
5803624,16
5804252,24
5804876,21
5805508,23
5806136,33
5806760,56
5807388,51
5808016,37
5808644,13
5809272,10
5809896,11
5810528,12
5811152,17
5811776,17
5812408,19
5813028,27
5813656,25
5814288,18
5814904,29
5815536,47
5816160,37
5816792,15
5817420,10
5818040,10
5818668,19
5819292,31
5819920,33
5820548,25
5821168,28
5821800,19
5822424,18
5823048,18
5823676,12
5824296,11
5824928,16
5825556,16
5826176,18
5826804,26
5827428,31
5828060,40
5828692,44
5829312,29
5829944,17
5830568,19
5831192,22
5831820,19
5832440,11
5833068,16
5833696,27
5834320,27
5834952,27
5835568,26
5836200,17
5836832,13
5837448,17
5838080,17
5838704,17
5839332,17
5839964,16
5840584,27
5841212,21
5841836,11
5842464,11
5843092,16
5843712,25
5844340,37
5844968,34
5845588,31
5846220,27
5846840,24
5847468,19
5848100,14
5848720,24
5849348,19
5849976,16
5850604,26
5851236,40
5851856,24
5852488,12
5853112,22
5853736,12
5854368,42
5854988,55
5855616,31
5856244,17
5856868,16
5857496,34
5858120,37
5858752,36
5859384,28
5860000,34
5860628,43
5861252,37
5861884,35
5862516,18
5863136,14
5863764,18
5864392,24
5865016,20
5865644,11
5866264,11
5866892,14
5867520,16
5868144,15
5868776,10
5869400,22
5870032,29
5870660,32
5871280,33
5871912,17
5872536,15
5873160,15
5873792,14
5874408,16
5875040,15
5875664,10
5876288,10
5876920,10
5877540,12
5878172,27
5878804,54
5879424,43
5880056,26
5880680,24
5881312,16
5881940,19
5882560,35
5883192,27
5883816,13
5884440,15
5885072,10
5885692,17
5886320,16
5886948,19
5887572,20
5888208,15
5888824,16
5889452,15
5890084,14
5890704,25
5891336,17
5891960,11
5892588,11
5893220,18
5893840,28
5894468,39
5895096,34
5895720,26
5896348,21
5896968,15
5897596,16
5898224,15
5898848,14
5899480,11
5900104,27
5900732,26
5901364,14
5901984,22
5902616,39
5903240,47
5903868,47
5904500,36
5905120,18
5905748,24
5906372,18
5907000,12
5907628,16
5908248,14
5908876,13
5909500,10
5910128,18
5910760,29
5911384,47
5912012,59
5912644,54
5913264,42
5913896,22
5914520,17
5915144,13
5915776,21
5916392,34
5917024,31
5917648,27
5918272,31
5918904,17
5919520,15
5920152,15
5920780,27
5921400,21
5922028,17
5922652,23
5923284,18
5923912,15
5924532,17
5925160,17
5925784,14
5926408,11
5927036,22
5927656,56
5928288,61
5928912,60
5929536,37
5930168,17
5930784,19
5931416,20
5932044,35
5932664,18
5933296,22
5933920,33
5934552,37
5935184,46
5935800,47
5936432,47
5937056,44
5937680,32
5938312,17
5938928,17
5939560,16
5940184,13
5940808,23
5941436,32
5942056,30
5942684,34
5943316,38
5943936,41
5944568,47
5945188,47
5945820,39
5946452,20
5947072,20
5947700,17
5948328,17
5948952,24
5949580,32
5950200,36
5950832,49
5951456,57
5952080,31
5952708,12
5953328,20
5953956,14
5954588,16
5955208,24
5955836,39
5956464,55
5957092,25
5957724,40
5958344,59
5958976,45
5959600,45
5960224,51
5960852,82
5961472,71
5962104,23
5962728,17
5963352,19
5963984,35
5964600,31
5965232,25
5965860,11
5966480,10
5967108,15
5967736,27
5968364,49
5968996,52
5969616,51
5970248,48
5970872,33
5971496,16
5972124,16
5972744,15
5973376,18
5974000,19
5974624,28
5975256,46
5975880,47
5976512,27
5977140,16
5977760,15
5978388,35
5979016,56
5979648,51
5980280,28
5980896,17
5981524,25
5982152,33
5982776,45
5983404,42
5984024,35
5984652,25
5985276,18
5985904,20
5986536,16
5987160,12
5987792,34
5988424,45
5989040,37
5989672,17
5990296,12
5990920,18
5991552,14
5992172,36
5992800,34
5993424,15
5994052,31
5994680,52
5995304,58
5995936,57
5996568,41
5997184,47
5997816,54
5998440,52
5999072,25
5999700,20
6000320,44
6000952,40
6001576,28
6002200,36
6002832,37
6003448,33
6004076,23
6004700,21
6005328,23
6005956,20
6006576,24
6007204,10
6007836,18
6008456,15
6009088,14
6009712,22
6010344,41
6010972,42
6011592,36
6012224,44
6012848,30
6013472,16
6014104,18
6014720,20
6015352,11
6015976,10
6016604,15
6017236,10
6017860,10
6018488,13
6019120,15
6019740,17
6020372,34
6020996,37
6021628,19
6022256,27
6022876,29
6023508,21
6024132,14
6024756,11
6025388,15
6026008,30
6026640,46
6027264,45
6027888,47
6028520,50
6029144,58
6029772,54
6030404,35
6031024,24
6031656,15
6032280,18
6032904,27
6033536,29
6034152,23
6034784,24
6035412,22
6036036,21
6036668,26
6037288,27
6037920,25
6038548,24
6039168,21
6039800,23
6040424,17
6041056,13
6041688,15
6042304,25
6042932,50
6043560,45
6044184,42
6044812,52
6045432,55
6046064,51
6046688,51
6047312,37
6047944,20
6048564,11
6049192,27
6049824,40
6050440,52
6051072,50
6051696,47
6052328,38
6052960,22
6053576,15
6054208,17
6054832,14
6055456,26
6056088,20
6056704,12
6057336,13
6057960,15
6058584,11
6059216,10
6059832,13
6060464,21
6061096,69
6061720,89
6062352,77
6062980,44
6063608,19
6064240,16
6064860,23
6065488,10
6066116,22
6066740,21
6067372,10
6067992,35
6068624,60
6069252,66
6069872,45
6070504,13
6071128,27
6071760,19
6072392,17
6073008,17
6073640,13
6074264,11
6074888,11
6075516,10
6076140,11
6076768,12
6077396,23
6078020,45
6078652,56
6079272,40
6079904,19
6080540,15
6081160,23
6081788,27
6082416,16
6083044,11
6083676,10
6084296,13
6084924,29
6085548,34
6086176,32
6086804,38
6087424,35
6088056,21
6088676,16
6089304,15
6089932,16
6090552,14
6091184,21
6091816,23
6092436,29
6093068,40
6093692,39
6094320,41
6094952,46
6095568,39
6096200,23
6096824,16
6097448,15
6098080,15
6098696,11
6099328,15
6099952,39
6100576,33
6101208,25
6101832,33
6102464,28
6103096,17
6103712,20
6104344,21
6104968,23
6105596,22
6106228,18
6106848,15
6107480,13
6108104,26
6108728,28
6109360,20
6109976,13
6110608,31
6111240,45
6111864,48
6112496,45
6113124,39
6113756,33
6114384,35
6115008,23
6115640,11
6116264,11
6116888,15
6117520,17
6118140,29
6118772,36
6119396,44
6120020,42
6120652,23
6121272,20
6121904,21
6122536,16
6123156,15
6123788,16
6124412,22
6125044,23
6125672,20
6126296,15
6126928,10
6127552,15
6128176,26
6128808,43
6129428,38
6130060,43
6130684,32
6131312,20
6131944,11
6132572,21
6133204,17
6133836,10
6134456,10
6135088,23
6135712,40
6136336,34
6136968,12
6137592,17
6138224,25
6138848,20
6139476,18
6140108,14
6140728,19
6141364,13
6141996,15
6142620,23
6143252,36
6143880,49
6144512,49
6145140,50
6145760,47
6146388,39
6147012,32
6147636,26
6148268,20
6148888,11
6149516,19
6150140,26
6150768,29
6151396,31
6152020,37
6152652,32
6153280,32
6153904,30
6154536,28
6155160,17
6155784,17
6156412,19
6157032,10
6157660,10
6158284,11
6158908,17
6159540,30
6160160,29
6160788,34
6161420,43
6162040,50
6162668,47
6163292,23
6163924,17
6164552,30
6165176,49
6165804,61
6166428,59
6167052,64
6167684,39
6168304,14
6168932,39
6169560,44
6170184,27
6170812,13
6171432,13
6172064,18
6172692,22
6173312,25
6173944,17
6174568,16
6175196,25
6175828,24
6176448,19
6177076,19
6177700,37
6178324,45
6178956,36
6179576,30
6180208,29
6180832,21
6181456,15
6182084,17
6182704,37
6183336,40
6183964,37
6184584,39
6185216,34
6185840,15
6186468,10
6187100,12
6187720,16
6188352,16
6188976,17
6189600,20
6190228,11
6190848,11
6191480,20
6192104,23
6192728,25
6193356,24
6193976,27
6194608,27
6195240,42
6195856,61
6196484,43
6197108,26
6197740,22
6198372,14
6198992,12
6199624,26
6200248,45
6200872,41
6201504,27
6202120,30
6202752,15
6203376,11
6204000,16
6204632,15
6205256,16
6205888,18
6206516,20
6207136,18
6207768,12
6208392,11
6209020,16
6209652,10
6210272,12
6210904,16
6211528,46
6212152,72
6212784,56
6213400,50
6214032,43
6214664,26
6215284,11
6215916,28
6216540,33
6217172,49
6217804,73
6218424,76
6219056,67
6219680,57
6220304,22
6220936,18
6221556,49
6222184,49
6222812,36
6223436,45
6224068,46
6224688,29
6225320,15
6225948,14
6226568,18
6227196,25
6227824,33
6228456,29
6229084,20
6229704,15
6230336,16
6230960,19
6231584,25
6232216,20
6232832,30
6233464,12
6234088,20
6234712,23
6235344,39
6235964,32
6236592,31
6237224,26
6237844,16
6238476,16
6239100,17
6239732,31
6240364,38
6240984,17
6241612,11
6242236,21
6242860,23
6243492,10
6244112,21
6244744,39
6245368,60
6245992,63
6246624,57
6247248,45
6247876,41
6248504,25
6249128,10
6249756,20
6250380,39
6251012,47
6251644,44
6252264,27
6252892,14
6253516,19
6254144,25
6254772,29
6255392,29
6256024,18
6256652,26
6257272,20
6257904,14
6258528,14
6259160,12
6259788,19
6260408,33
6261040,47
6261664,63
6262288,62
6262920,39
