tempo_arduino_micro_s,valor_ADC
500,15
1004,13
1504,28
2000,37
2508,44
3000,34
3508,23
4000,20
4508,21
5000,18
5500,16
6000,17
6500,18
7004,12
7500,16
8000,19
8500,16
9000,14
9500,23
10000,26
10516,16
11036,10
11564,14
12084,28
12612,49
13132,37
13660,16
14180,28
14708,36
15228,29
15756,16
16276,18
16796,14
17316,10
17836,10
18356,10
18876,18
19396,19
19916,11
20436,18
20956,25
21476,22
21996,20
22516,17
23036,20
23564,19
24084,13
24612,11
25132,11
25660,10
26180,29
26708,37
27228,30
27756,26
28276,17
28804,20
29324,45
29852,67
30372,67
30900,53
31420,39
31948,12
32472,53
32996,73
33516,68
34044,57
34564,41
35092,28
35612,19
36140,14
36660,13
37188,13
37708,16
38236,16
38760,16
39284,17
39804,18
40332,15
40852,12
41372,11
41892,34
42412,35
42932,32
43452,20
43972,10
44492,16
45012,19
45532,11
46052,17
46572,17
47092,19
47612,19
48140,21
48660,16
49188,16
49708,14
50236,23
50756,28
51284,32
51804,39
52332,23
52852,17
53380,11
53900,13
54428,22
54948,51
55476,68
55996,59
56524,30
57044,11
57572,17
58096,17
58620,15
59140,10
59668,11
60188,10
60716,16
61240,13
61764,10
62284,15
62812,26
63332,28
63860,34
64384,44
64908,39
65428,17
65948,12
66468,22
66988,20
67508,14
68028,12
68548,13
69068,12
69588,25
70108,23
70628,20
71148,25
71672,23
72192,20
72716,23
73236,27
73764,31
74284,23
74812,11
75332,13
75860,10
76380,10
76908,17
77428,15
77956,12
78476,11
79004,13
79528,21
80052,17
80572,17
81100,18
81620,21
82148,18
82668,22
83196,16
83716,17
84244,12
84764,14
85292,26
85812,32
86340,33
86864,32
87388,31
87908,29
88436,34
88956,40
89484,20
90004,16
90524,11
91044,17
91564,13
92084,11
92604,19
93124,39
93644,30
94164,11
94684,20
95204,32
95724,28
96248,21
96764,20
97292,17
97812,20
98340,22
98860,26
99388,22
99908,12
100436,10
101000,17
101584,20
102156,11
102736,12
103304,13
103880,24
104456,32
105024,20
105600,17
106168,21
106744,20
107312,11
107896,17
108464,25
109040,11
109624,14
110192,21
110768,16
111336,11
111920,33
112492,33
113072,23
113640,18
114216,17
114792,19
115364,14
115944,12
116512,12
117096,36
117668,44
118240,26
118824,11
119392,19
119976,24
120548,28
121128,31
121696,30
122280,27
122848,33
123428,41
124008,38
124576,26
125160,13
125728,23
126312,37
126884,22
127456,11
128040,11
128608,12
129184,16
129752,17
130328,22
130896,19
131480,17
132048,17
132624,20
133200,20
133768,28
134344,39
134912,42
135496,22
136064,11
136648,11
137224,12
137792,19
138376,18
138944,18
139528,18
140096,14
140680,19
141252,34
141824,51
142408,32
142976,14
143560,43
144128,52
144712,44
145280,24
145864,17
146440,36
147008,32
147592,27
148160,19
148744,13
149312,15
149896,10
150468,11
151040,27
151624,30
152196,29
152776,13
153348,24
153928,59
154504,67
155088,53
155664,38
156236,24
156816,14
157384,32
157968,55
158540,20
159120,25
159692,40
160268,43
160848,39
161416,25
161992,20
162560,17
163144,14
163716,16
164296,17
164872,20
165440,15
166016,13
166584,16
167168,12
167736,15
168312,18
168880,18
169456,23
170032,15
170600,30
171184,32
171756,23
172336,16
172904,18
173488,13
174056,12
174636,14
175216,10
175784,17
176368,32
176936,31
177520,14
178088,17
178664,23
179248,27
179816,30
180392,22
180960,18
181544,20
182112,11
182696,10
183264,11
183840,12
184424,10
184992,9
185516,13
186092,16
186672,23
187240,19
187824,16
188396,19
188972,18
189552,18
190120,17
190704,16
191276,13
191856,24
192428,11
193000,15
193576,37
194148,56
194728,50
195296,20
195880,17
196448,21
197032,23
197604,27
198176,26
198760,17
199328,14
199912,21
200484,25
201064,14
201632,11
202208,18
202792,45
203364,44
203944,27
204516,19
205096,19
205664,18
206240,20
206808,17
207376,9
207900,22
208472,35
209056,15
209624,15
210200,10
210768,11
211352,16
211920,24
212496,18
213080,27
213648,33
214232,29
214804,19
215384,10
215952,13
216532,19
217112,11
217684,11
218264,15
218832,20
219408,13
219976,18
220560,29
221128,18
221704,18
222288,17
222860,18
223440,14
224012,11
224592,14
225160,14
225744,11
226320,12
226888,15
227472,12
228040,11
228624,23
229192,27
229776,15
230344,17
230924,20
231504,23
232076,24
232656,20
233224,32
233808,28
234376,18
234960,49
235536,35
236104,12
236688,21
237260,24
237840,33
238412,56
238992,47
239564,29
240140,17
240720,18
241288,15
241872,14
242444,40
243024,41
243596,29
244176,12
244752,19
245324,26
245904,21
246472,15
247056,23
247624,37
248208,37
248776,28
249352,11
249936,29
250504,31
251088,21
251656,19
252240,13
252808,16
253392,15
253968,15
254540,14
255120,19
255692,21
256272,19
256848,17
257424,15
257992,11
258568,22
259152,27
259720,30
260304,21
260872,13
261456,32
262024,64
262608,45
263184,24
263752,17
264336,24
264904,38
265488,35
266060,25
266640,19
267208,17
267776,11
268352,15
268920,27
269504,25
270072,13
270656,33
271228,43
271808,40
272380,39
272952,27
273536,15
274108,10
274688,9
275208,11
275784,9
276304,19
276880,36
277448,49
278024,54
278608,32
279180,18
279760,18
280332,26
280912,29
281484,19
282064,11
282640,16
283208,12
283792,11
284364,10
284944,16
285512,11
286096,22
286668,46
287244,60
287824,58
288396,45
288976,30
289544,31
290128,28
290696,22
291280,11
291856,19
292424,24
293008,26
293580,27
294160,29
294732,45
295312,47
295884,24
296460,17
297040,32
297608,35
298192,16
298764,18
299344,13
299916,11
300496,17
301072,22
301644,14
302224,11
302796,18
303376,11
303948,14
304528,15
305108,19
305684,24
306264,18
306836,14
307416,14
307992,11
308576,15
309144,24
309720,18
310304,11
310876,10
311456,21
312028,24
312608,24
313180,17
313760,16
314328,20
314908,13
315488,11
316060,13
316640,10
317212,11
317792,16
318372,22
318948,20
319528,12
320100,20
320680,40
321248,32
321824,15
322392,22
322976,16
323544,14
324120,11
324704,15
325276,10
325856,10
326428,24
327008,20
327580,10
328156,11
328736,15
329304,22
329888,30
330456,19
331040,19
331608,18
332192,23
332760,23
333340,11
333920,26
334488,26
335072,12
335640,11
336224,17
336792,23
337368,23
337952,32
338520,42
339104,58
339676,59
340256,42
340824,32
341408,29
341976,17
342556,11
343136,13
343704,10
344288,25
344856,32
345440,49
346012,34
346584,26
347168,19
347740,19
348320,15
348888,11
349472,11
350040,11
350624,10
351196,11
351772,10
352352,11
352924,15
353504,21
354072,24
354656,22
355224,28
355800,30
356384,25
356956,23
357536,22
358108,10
358688,17
359256,40
359840,61
360412,66
360984,26
361568,11
362140,18
362720,18
363288,18
363872,17
364444,26
365020,41
365600,37
366168,11
366752,13
367324,16
367904,15
368476,17
369056,15
369624,16
370200,11
370784,17
371356,24
371936,31
372508,28
373088,21
373660,22
374236,21
374816,10
375388,13
375968,22
376540,36
377120,31
377692,18
378272,13
378844,16
379420,15
380000,16
380568,17
381152,19
381724,11
382304,11
382876,22
383452,25
384032,16
384604,13
385184,27
385752,26
386336,16
386908,11
387488,17
388060,24
388632,27
389216,39
389784,37
390368,30
390940,25
391520,17
392092,21
392664,11
393248,21
393820,27
394400,13
394968,11
395552,15
396124,14
396704,16
397276,20
397852,26
398432,16
399004,10
399584,10
400164,14
400744,15
401312,11
401892,25
402472,13
403044,27
403624,30
404196,27
404776,22
405348,19
405928,19
406500,19
407076,18
407656,13
408228,10
408808,18
409380,34
409960,24
410536,18
411104,14
411688,13
412256,19
412840,17
413408,21
413984,21
414552,18
415136,23
415704,17
416280,14
416864,11
417432,14
418008,10
418576,11
419152,13
419724,21
420304,29
420880,27
421448,16
422024,30
422596,30
423176,12
423744,13
424328,33
424896,42
425472,27
426056,13
426624,43
427208,46
427776,19
428360,20
428932,31
429512,29
430088,22
430656,30
431240,47
431812,17
432392,22
432960,29
433544,38
434116,35
434692,35
435272,26
435840,11
436424,11
436992,15
437576,17
438148,23
438728,24
439304,17
439876,11
440456,14
441024,13
441608,15
442176,17
442760,10
443332,10
443908,11
444488,17
445056,14
445640,17
446208,35
446792,31
447364,18
447944,17
448520,16
449092,11
449672,20
450240,31
450824,26
451392,18
451976,14
452548,13
453120,34
453704,23
454276,18
454856,36
455428,34
456008,28
456576,22
457160,13
457736,10
458308,11
458888,14
459456,23
460040,25
460612,22
461192,12
461768,15
462344,26
462928,27
463496,31
464080,22
464648,27
465232,39
465804,18
466384,16
466960,12
467532,18
468112,19
468684,30
469264,56
469836,48
470416,35
470988,33
471564,33
472144,28
472716,22
473296,19
473868,20
474448,15
475016,11
475600,11
476176,12
476748,13
477328,11
477900,23
478480,42
479060,38
479640,18
480220,17
480792,17
481376,14
481944,23
482528,24
483100,22
483680,12
484252,24
484828,35
485408,15
485980,11
486560,11
487132,17
487712,17
488284,23
488864,19
489436,18
490012,12
490592,22
491164,32
491744,34
492324,27
492904,17
493472,11
494048,11
494632,13
495204,18
495784,27
496356,26
496936,17
497504,17
498088,33
498656,54
499236,40
499816,11
500388,17
500968,19
501540,12
502120,17
502700,33
503276,38
503856,20
504428,14
505008,23
505580,33
506160,25
506740,11
507320,11
507900,10
508476,10
509056,10
509628,14
510208,15
510780,17
511360,22
511940,23
512516,20
513096,25
513664,35
514248,35
514816,15
515400,28
515968,35
516552,20
517128,27
517696,30
518280,45
518852,32
519432,13
520004,18
520584,47
521152,48
521732,33
522312,16
522880,16
523464,10
524036,11
524616,12
525188,14
525768,10
526344,11
526916,11
527496,16
528068,16
528648,21
529216,22
529800,23
530368,21
530948,16
531528,11
532100,10
532680,15
533248,21
533832,19
534400,13
534984,12
535560,32
536132,35
536712,33
537284,39
537864,33
538432,19
539016,18
539588,13
540164,10
540744,19
541316,30
541896,38
542468,37
543048,15
543616,11
544200,19
544776,16
545344,15
545928,15
546496,16
547080,17
547652,21
548232,13
548804,19
549376,20
549960,26
550532,33
551112,22
551684,13
552264,16
552836,19
553416,18
554000,16
554572,19
555152,18
555724,16
556304,19
556876,22
557456,23
558028,13
558604,12
559184,14
559756,20
560336,17
560916,30
561496,33
562068,22
562644,16
563224,38
563792,41
564376,27
564948,12
565528,11
566100,13
566680,13
567252,12
567828,10
568408,12
568980,11
569560,14
570132,22
570712,27
571284,27
571860,24
572440,17
573012,37
573592,74
574164,81
574744,46
575316,27
575896,56
576476,45
577048,43
577632,37
578200,11
578784,27
579356,24
579936,25
580508,24
581084,21
581664,10
582236,10
582816,20
583388,20
583968,15
584540,16
585120,36
585692,65
586268,58
586848,41
587420,15
588000,16
588580,25
589160,35
589740,44
590316,37
590896,16
591468,17
592048,35
592620,16
593200,14
593780,21
594360,24
594940,15
595516,16
596096,14
596668,18
597248,23
597820,23
598400,19
598980,19
599556,17
600136,12
600708,16
601288,23
601860,28
602440,29
603012,18
603592,15
604176,14
604748,16
605328,23
605900,18
606480,16
607060,15
607640,14
608220,13
608796,14
609376,13
609948,13
610528,12
611100,19
611680,19
612260,23
612836,22
613416,22
613992,19
614572,12
615140,20
615720,24
616292,28
616872,21
617444,24
618020,15
618600,12
619172,15
619752,15
620332,22
620912,17
621484,17
622060,18
622640,27
623212,39
623792,37
624364,11
624944,41
625516,36
626096,17
626676,14
627252,12
627832,11
628404,15
628984,17
629556,17
630136,16
630716,24
631292,23
631872,12
632448,12
633024,17
633596,22
634180,17
634756,10
635336,14
635920,16
636492,12
637072,19
637644,19
638224,18
638804,17
639384,20
639964,21
640540,18
641120,10
641688,19
642272,23
642840,33
643424,43
643996,33
644572,11
645152,27
645720,32
646304,32
646876,29
647456,16
648028,14
648608,11
649180,10
649756,10
650336,11
650908,18
651488,19
652060,15
652640,29
653212,42
653788,41
654368,23
654940,18
655520,17
656092,17
656672,10
657240,11
657824,11
658392,19
658972,15
659552,11
660120,23
660704,25
661272,11
661856,15
662424,14
663000,16
663584,23
664156,20
664736,11
665308,11
665888,22
666456,41
667040,31
667608,14
668184,11
668768,17
669340,14
669920,59
670492,86
671072,90
671644,55
672220,35
672800,36
673368,46
673952,38
674524,16
675104,10
675676,12
676256,15
676824,24
677400,30
677984,34
678556,27
679136,16
679708,19
680288,21
680856,19
681432,11
682016,11
682584,11
683168,13
683740,12
684320,9
684840,12
685416,15
685988,17
686564,23
687144,26
687716,22
688296,26
688864,23
689448,19
690020,16
690600,15
691172,10
691748,13
692328,15
692900,14
693480,15
694052,13
694632,10
695204,15
695780,21
696360,18
696932,18
697512,18
698084,14
698664,14
699236,10
699816,12
700388,11
700964,11
701544,30
702116,17
702696,17
703268,32
703848,38
704428,34
705000,32
705584,28
706156,25
706736,28
707308,24
707888,13
708460,11
709040,15
709612,11
710188,10
710768,11
711340,17
711920,22
712500,16
713080,20
713652,22
714228,18
714808,12
715380,21
715960,25
716536,25
717112,19
717692,16
718272,14
718844,11
719420,11
720000,15
720568,18
721152,15
721724,18
722304,20
722876,11
723452,22
724032,27
724604,28
725184,24
725756,12
726336,19
726916,28
727496,26
728080,39
728652,34
729232,25
729804,22
730384,19
730956,18
731536,17
732108,34
732684,27
733264,21
733836,15
734416,11
734996,14
735576,12
736156,18
736732,38
737312,49
737884,46
738464,35
739036,29
739616,13
740188,14
740768,12
741340,13
741916,20
742496,22
743068,15
743648,16
744220,22
744800,20
745372,18
745948,15
746528,17
747100,15
747680,14
748252,10
748832,11
749400,11
749984,12
750556,14
751132,12
751712,11
752288,11
752864,9
753384,15
753960,15
754540,17
755120,18
755700,22
756276,23
756856,13
757428,11
758008,11
758588,12
759168,19
759740,11
760316,11
760896,12
761468,18
762048,23
762620,26
763200,39
763780,31
764360,14
764944,18
765516,19
766096,10
766672,11
767248,19
767828,20
768412,34
768984,49
769560,53
770144,46
770716,47
771296,29
771868,17
772448,21
773020,24
773596,16
774176,11
774748,17
775328,24
775900,13
776480,11
777060,17
777640,18
778212,16
778788,15
779368,20
779940,22
780520,18
781100,12
781680,13
782252,16
782828,15
783408,15
783980,14
784560,11
785132,13
785712,23
786284,23
786864,21
787436,15
788012,20
788592,22
789164,18
789744,11
790316,17
790896,11
791476,11
792052,9
792580,11
793156,15
793736,12
794308,11
794888,15
795468,15
796048,20
796628,18
797204,19
797784,11
798356,11
798940,10
799516,10
800100,14
800672,19
801248,19
801832,15
802404,12
802984,13
803556,18
804136,24
804708,24
805288,17
805860,17
806436,11
807016,11
807588,11
808168,9
808688,10
809264,23
809836,24
810416,25
810988,18
811564,16
812144,29
812716,22
813296,17
813876,20
814456,31
815036,27
815612,25
816192,29
816764,31
817344,28
817916,27
818496,25
819076,23
819660,22
820240,26
820808,36
821384,37
821952,26
822536,24
823104,11
823688,21
824256,18
824832,10
825416,12
825988,11
826568,18
827136,21
827720,15
828288,19
828872,29
829448,34
830016,24
830600,16
831168,14
831752,15
832324,15
832904,16
833472,22
834048,26
834632,19
835200,16
835784,25
836356,24
836936,23
837508,21
838088,17
838664,19
839232,18
839816,10
840384,15
840968,10
841536,16
842120,26
842688,34
843264,27
843848,14
844416,11
845000,18
845568,29
846152,23
846720,18
847304,19
847880,17
848452,13
849032,11
849604,12
850184,17
850752,11
851336,23
851908,27
852484,34
853064,39
853636,26
854216,19
854788,20
855368,22
855940,15
856520,10
857096,14
857668,16
858248,22
858816,17
859400,11
859972,12
860552,13
861132,12
861708,16
862288,22
862860,22
863440,16
864012,17
864592,10
865164,11
865744,11
866320,15
866892,17
867472,12
868044,10
868624,16
869196,24
869776,26
870348,24
870924,24
871504,17
872076,16
872656,11
873228,10
873808,12
874380,21
874960,25
875536,11
876108,17
876688,39
877260,43
877840,43
878412,27
878992,14
879564,19
880140,17
880720,17
881288,15
881872,27
882444,21
883024,16
883596,11
884176,21
884752,17
885324,16
885904,32
886476,58
887056,67
887628,56
888208,32
888788,17
889364,12
889944,13
890516,12
891096,18
891676,10
892256,13
892836,16
893412,11
893992,11
894564,13
895144,20
895720,17
896300,21
896872,17
897456,16
898028,12
898604,11
899184,11
899756,11
900336,11
900916,10
901496,11
902076,15
902652,16
903232,14
903804,15
904384,27
904956,34
905536,32
906116,15
906696,22
907272,27
907844,31
908424,23
908996,12
909576,13
910148,18
910728,13
911300,19
911876,32
912456,37
913028,39
913608,44
914180,14
914760,18
915332,35
915912,25
916488,15
917060,31
917640,49
918212,64
918792,63
919372,53
919952,56
920532,37
921108,19
921688,15
922260,19
922840,13
923412,11
923992,9
924512,9
925036,12
925612,23
926188,28
926768,25
927340,21
927920,18
928492,22
929072,18
929644,22
930224,25
930796,18
931372,12
931952,10
932524,10
933104,11
933676,11
934256,11
934836,14
935412,26
935992,42
936564,44
937144,28
937716,17
938296,17
938868,26
939448,26
940028,11
940604,26
941184,37
941756,37
942340,23
942916,11
943496,12
944068,11
944644,14
945224,19
945796,24
946376,18
946948,16
947528,28
948108,39
948688,22
949272,11
949844,11
950424,11
950996,10
951576,17
952156,27
952736,32
953316,22
953892,15
954472,16
955044,16
955624,18
956204,13
956784,22
957364,13
957940,12
958520,20
959096,23
959676,21
960248,20
960824,11
961392,17
961976,19
962548,16
963124,15
963704,17
964276,11
964856,9
965376,10
965952,9
966472,24
967048,33
967620,27
968196,20
968776,16
969348,14
969928,26
970500,28
971080,22
971660,21
972240,24
972824,21
973396,15
973976,14
974548,18
975128,19
975708,15
976288,10
976868,11
977444,19
978024,26
978596,27
979176,27
979748,19
980328,17
980908,13
981484,12
982064,11
982636,10
983216,16
983788,34
984368,35
984936,22
985520,13
986092,16
986664,23
987248,24
987816,29
988400,42
988976,30
989560,14
990132,13
990708,15
991288,18
991860,14
992440,21
993012,19
993592,14
994164,20
994744,16
995316,16
995892,17
996472,16
997044,18
997624,11
998196,17
998776,18
999356,11
999932,21
1000512,33
1001128,38
1001760,37
1002380,18
1003012,16
1003640,15
1004256,19
1004884,20
1005508,16
1006128,24
1006760,39
1007376,13
1008004,41
1008628,34
1009252,16
1009880,11
1010504,11
1011132,10
1011764,16
1012384,24
1013012,22
1013636,22
1014268,19
1014896,18
1015516,16
1016144,17
1016768,22
1017392,28
1018020,18
1018640,15
1019268,13
1019892,17
1020516,14
1021148,19
1021772,16
1022400,19
1023028,11
1023648,12
1024280,16
1024900,15
1025528,20
1026156,17
1026772,18
1027400,21
1028024,17
1028644,15
1029272,19
1029888,19
1030516,16
1031136,19
1031760,31
1032388,32
1033008,25
1033636,11
1034264,22
1034880,14
1035508,18
1036128,26
1036760,24
1037388,18
1038008,18
1038636,18
1039260,11
1039880,14
1040508,24
1041124,23
1041752,14
1042376,11
1043000,11
1043628,11
1044248,20
1044876,17
1045496,13
1046116,15
1046748,16
1047368,14
1047996,11
1048624,10
1049248,11
1049876,20
1050496,29
1051124,25
1051756,22
1052376,16
1053004,31
1053628,33
1054248,17
1054880,16
1055496,18
1056124,13
1056744,10
1057368,19
1057996,24
1058616,13
1059244,11
1059872,11
1060488,17
1061116,19
1061740,19
1062368,16
1063000,17
1063616,19
1064244,11
1064868,13
1065492,10
1066120,11
1066736,19
1067364,17
1067988,15
1068612,13
1069240,39
1069856,39
1070484,29
1071112,18
1071732,31
1072360,18
1072984,13
1073612,16
1074240,38
1074856,43
1075484,32
1076108,13
1076736,13
1077364,18
1077984,18
1078612,14
1079236,17
1079856,16
1080488,24
1081104,23
1081732,15
1082356,12
1082976,10
1083608,16
1084228,24
1084860,14
1085488,14
1086104,26
1086732,29
1087356,33
1087984,30
1088612,20
1089232,11
1089860,11
1090480,18
1091104,25
1091732,23
1092352,19
1092980,25
1093604,15
1094228,10
1094856,18
1095472,18
1096104,17
1096732,16
1097352,14
1097980,13
1098604,14
1099232,13
1099860,14
1100480,16
1101108,21
1101732,19
1102356,43
1102984,51
1103608,40
1104236,26
1104860,17
1105484,20
1106112,23
1106728,24
1107360,12
1107988,17
1108608,30
1109236,35
1109860,30
1110488,24
1111120,20
1111736,19
1112364,16
1112988,19
1113612,28
1114240,24
1114856,25
1115488,28
1116112,19
1116736,12
1117364,12
1117984,15
1118612,15
1119244,16
1119864,21
1120496,19
1121116,17
1121748,17
1122376,18
1122992,24
1123624,17
1124248,12
1124872,26
1125500,35
1126120,27
1126748,17
1127372,11
1127996,15
1128624,20
1129240,18
1129868,16
1130492,16
1131120,12
1131748,11
1132372,11
1133000,10
1133632,19
1134248,28
1134876,18
1135500,11
1136132,13
1136760,22
1137376,38
1138004,35
1138628,32
1139252,38
1139880,34
1140496,25
1141128,17
1141748,11
1142372,11
1143004,17
1143628,25
1144260,24
1144888,16
1145504,18
1146136,18
1146760,20
1147388,15
1148020,11
1148640,13
1149268,11
1149892,16
1150516,17
1151144,11
1151768,25
1152400,33
1153020,34
1153648,33
1154276,27
1154896,19
1155528,15
1156156,10
1156776,11
1157404,10
1158028,18
1158656,19
1159288,11
1159904,12
1160532,17
1161156,18
1161780,16
1162408,22
1163024,27
1163652,24
1164276,11
1164900,13
1165528,21
1166152,32
1166780,22
1167412,12
1168032,33
1168660,49
1169280,51
1169908,41
1170536,22
1171160,16
1171788,16
1172412,17
1173036,30
1173668,30
1174288,23
1174916,15
1175540,11
1176164,10
1176796,32
1177420,57
1178048,26
1178676,14
1179296,20
1179924,30
1180548,23
1181176,10
1181808,10
1182424,10
1183056,10
1183680,12
1184304,18
1184932,20
1185552,21
1186180,17
1186804,14
1187428,16
1188060,18
1188680,19
1189308,19
1189940,10
1190560,15
1191188,20
1191812,21
1192440,22
1193072,13
1193688,10
1194316,13
1194940,17
1195564,17
1196192,16
1196816,17
1197444,14
1198068,12
1198692,11
1199324,10
1199948,13
1200580,18
1201208,21
1201824,26
1202456,26
1203080,19
1203708,15
1204340,16
1204960,18
1205588,21
1206212,15
1206836,15
1207464,34
1208088,17
1208716,11
1209340,10
1209968,28
1210596,39
1211220,22
1211848,13
1212480,18
1213096,18
1213728,19
1214352,34
1214984,44
1215612,26
1216232,15
1216860,11
1217484,10
1218108,16
1218736,18
1219360,19
1219988,16
1220620,15
1221240,17
1221868,35
1222492,31
1223124,28
1223752,13
1224372,10
1225000,11
1225624,11
1226248,37
1226876,50
1227496,41
1228128,22
1228752,15
1229376,27
1230004,38
1230624,30
1231252,13
1231880,27
1232500,27
1233128,28
1233748,21
1234380,17
1235008,26
1235632,32
1236260,31
1236884,33
1237508,28
1238140,24
1238760,17
1239388,10
1240012,18
1240636,23
1241264,25
1241880,21
1242512,32
1243132,36
1243760,35
1244388,15
1245012,27
1245640,31
1246272,21
1246888,18
1247520,11
1248144,11
1248772,10
1249400,11
1250016,13
1250648,11
1251268,16
1251892,13
1252520,24
1253144,29
1253772,40
1254396,32
1255024,20
1255652,13
1256276,15
1256908,11
1257536,11
1258156,19
1258784,27
1259408,14
1260036,11
1260668,14
1261288,15
1261916,24
1262540,17
1263164,15
1263796,14
1264416,15
1265044,15
1265676,17
1266296,14
1266924,35
1267552,39
1268180,31
1268812,27
1269432,29
1270064,19
1270688,17
1271308,20
1271940,16
1272560,10
1273188,15
1273812,14
1274436,13
1275068,11
1275688,15
1276316,22
1276948,18
1277568,17
1278200,19
1278824,17
1279452,18
1280084,17
1280700,11
1281328,17
1281948,15
1282572,10
1283200,17
1283812,12
1284444,17
1285064,14
1285688,24
1286316,32
1286936,33
1287564,23
1288188,19
1288808,16
1289436,10
1290060,11
1290688,12
1291316,10
1291936,15
1292564,16
1293188,10
1293816,12
1294444,14
1295060,15
1295692,16
1296312,15
1296936,18
1297564,12
1298184,11
1298812,12
1299436,16
1300060,16
1300688,15
1301304,13
1301932,29
1302564,36
1303184,32
1303812,19
1304436,16
1305064,16
1305696,21
1306312,34
1306940,33
1307564,11
1308188,28
1308816,43
1309432,30
1310064,20
1310688,11
1311312,14
1311940,17
1312560,17
1313188,15
1313816,12
1314432,13
1315060,16
1315684,14
1316312,13
1316940,12
1317560,17
1318188,18
1318812,15
1319432,15
1320060,18
1320676,21
1321308,17
1321928,16
1322548,11
1323180,10
1323800,11
1324428,10
1325052,11
1325672,22
1326304,13
1326924,13
1327556,13
1328184,23
1328800,24
1329428,19
1330052,27
1330680,12
1331308,32
1331924,29
1332552,17
1333176,15
1333796,32
1334428,24
1335044,11
1335676,21
1336296,44
1336920,43
1337548,38
1338168,36
1338796,40
1339424,38
1340048,25
1340676,11
1341300,12
1341928,11
1342556,16
1343176,17
1343804,19
1344428,17
1345052,15
1345680,16
1346296,15
1346924,16
1347548,10
1348168,10
1348796,12
1349416,11
1350044,13
1350676,18
1351296,17
1351924,18
1352548,21
1353176,25
1353804,26
1354424,21
1355052,16
1355676,10
1356296,11
1356928,14
1357544,11
1358172,11
1358796,19
1359416,25
1360048,25
1360660,23
1361288,18
1361912,17
1362536,16
1363164,17
1363788,12
1364416,12
1365044,10
1365664,10
1366292,11
1366916,18
1367544,22
1368172,14
1368792,11
1369420,15
1370044,16
1370668,28
1371296,26
1371912,20
1372540,15
1373164,10
1373788,17
1374416,15
1375032,12
1375664,11
1376292,10
1376912,18
1377540,20
1378164,22
1378792,26
1379420,23
1380040,17
1380668,12
1381292,10
1381916,13
1382544,12
1383160,15
1383792,35
1384412,53
1385036,58
1385664,46
1386288,31
1386916,22
1387544,20
1388160,27
1388788,13
1389412,17
1390044,19
1390672,22
1391292,17
1391920,10
1392544,11
1393168,11
1393796,14
1394416,20
1395044,14
1395668,16
1396288,17
1396920,18
1397536,16
1398164,15
1398796,11
1399416,23
1400044,33
1400668,24
1401296,11
1401924,20
1402544,41
1403172,50
1403796,39
1404424,23
1405052,16
1405672,11
1406300,14
1406924,21
1407548,22
1408180,19
1408796,16
1409428,11
1410056,18
1410672,16
1411300,15
1411924,17
1412552,15
1413180,16
1413800,11
1414428,19
1415048,14
1415680,13
1416308,22
1416928,17
1417556,27
1418180,27
1418804,17
1419432,14
1420056,15
1420684,21
1421308,20
1421936,19
1422564,31
1423188,31
1423820,13
1424448,15
1425064,18
1425696,21
1426320,24
1426948,13
1427576,14
1428200,18
1428828,15
1429452,16
1430076,15
1430708,11
1431328,15
1431956,18
1432588,12
1433208,11
1433836,12
1434460,11
1435088,14
1435720,18
1436336,21
1436964,16
1437588,19
1438212,28
1438844,27
1439464,18
1440092,12
1440712,25
1441336,40
1441964,32
1442584,22
1443212,10
1443832,11
1444456,19
1445084,16
1445708,15
1446336,16
1446964,13
1447584,11
1448212,10
1448836,10
1449464,13
1450092,14
1450712,17
1451340,17
1451964,14
1452588,16
1453220,14
1453840,16
1454468,17
1455092,26
1455716,17
1456344,11
1456968,10
1457596,15
1458228,22
1458848,27
1459476,18
1460100,10
1460728,11
1461360,14
1461976,16
1462604,15
1463228,17
1463852,10
1464480,11
1465104,13
1465732,11
1466356,15
1466980,18
1467608,15
1468232,12
1468860,19
1469492,20
1470112,15
1470740,32
1471364,17
1471996,27
1472628,24
1473248,11
1473876,11
1474500,17
1475124,10
1475756,10
1476376,17
1477004,35
1477628,32
1478256,13
1478884,21
1479508,22
1480136,17
1480764,10
1481384,10
1482012,17
1482636,23
1483264,27
1483892,24
1484512,17
1485140,16
1485764,19
1486384,23
1487016,26
1487632,16
1488260,16
1488884,15
1489504,12
1490136,11
1490760,14
1491388,16
1492016,41
1492640,40
1493268,18
1493892,10
1494520,15
1495152,15
1495768,16
1496396,17
1497020,21
1497644,16
1498272,15
1498892,13
1499520,13
1500144,12
1500768,12
1501396,11
1502020,14
1502652,15
1503280,14
1503904,17
1504536,16
1505160,15
1505788,15
1506420,11
1507040,11
1507668,15
1508292,9
1508864,13
1509492,19
1510112,14
1510744,13
1511368,14
1511992,17
1512620,26
1513240,25
1513868,12
1514492,17
1515120,26
1515752,20
1516376,16
1517004,11
1517632,14
1518256,34
1518884,44
1519508,35
1520136,25
1520764,19
1521384,18
1522012,15
1522636,11
1523260,13
1523892,10
1524512,19
1525140,26
1525772,22
1526392,21
1527020,17
1527648,24
1528276,29
1528908,27
1529528,16
1530160,34
1530784,35
1531408,31
1532036,17
1532656,14
1533288,14
1533912,22
1534536,17
1535168,12
1535784,27
1536420,30
1537048,36
1537664,32
1538292,23
1538916,11
1539544,13
1540172,11
1540792,12
1541420,11
1542044,10
1542668,10
1543296,10
1543912,11
1544544,15
1545168,15
1545792,16
1546420,16
1547040,11
1547668,11
1548296,10
1548920,11
1549548,13
1550172,19
1550800,19
1551432,17
1552048,11
1552676,16
1553300,19
1553924,19
1554556,15
1555176,14
1555808,15
1556432,14
1557056,13
1557684,29
1558304,22
1558932,13
1559564,10
1560184,11
1560812,18
1561436,17
1562068,15
1562696,15
1563312,17
1563940,11
1564564,13
1565188,14
1565820,15
1566440,21
1567068,19
1567692,18
1568316,13
1568944,11
1569568,15
1570196,15
1570828,18
1571448,17
1572076,11
1572700,10
1573332,19
1573960,41
1574584,42
1575212,19
1575836,15
1576460,33
1577092,42
1577712,28
1578340,16
1578964,17
1579588,18
1580220,10
1580840,11
1581468,10
1582100,11
1582720,12
1583348,11
1583976,21
1584604,24
1585236,10
1585856,36
1586488,53
1587112,54
1587736,44
1588364,30
1588984,34
1589612,31
1590236,11
1590860,31
1591492,56
1592112,42
1592740,24
1593372,20
1593992,15
1594624,25
1595248,37
1595876,33
1596508,22
1597128,19
1597760,18
1598384,11
1599008,14
1599636,12
1600256,11
1600884,13
1601508,11
1602128,11
1602760,16
1603376,19
1604004,26
1604632,30
1605248,25
1605876,14
1606500,10
1607128,11
1607756,10
1608376,11
1609004,12
1609624,15
1610248,21
1610876,26
1611496,21
1612124,17
1612748,15
1613372,20
1614004,14
1614624,11
1615252,11
1615884,12
1616504,21
1617132,17
1617756,11
1618384,14
1619016,19
1619632,19
1620260,25
1620884,22
1621508,16
1622140,18
1622760,17
1623388,10
1624012,10
1624636,10
1625264,15
1625884,21
1626512,15
1627140,17
1627760,21
1628388,17
1629012,15
1629644,17
1630272,11
1630892,16
1631520,31
1632144,21
1632772,10
1633404,12
1634024,11
1634652,11
1635276,13
1635900,16
1636532,16
1637152,22
1637780,21
1638412,28
1639028,32
1639656,29
1640276,16
1640904,11
1641532,10
1642152,9
1642728,15
1643348,11
1643976,14
1644604,16
1645224,23
1645852,21
1646472,15
1647100,11
1647728,10
1648344,12
1648972,10
1649592,11
1650216,11
1650844,10
1651464,24
1652092,35
1652712,24
1653336,19
1653964,16
1654580,17
1655212,15
1655840,10
1656456,17
1657084,30
1657708,20
1658336,15
1658964,10
1659580,10
1660212,10
1660832,16
1661452,13
1662084,18
1662704,22
1663332,21
1663956,15
1664580,10
1665208,18
1665824,13
1666452,21
1667080,25
1667696,17
1668324,11
1668944,14
1669576,15
1670204,20
1670824,20
1671452,19
1672072,11
1672700,20
1673332,22
1673952,32
1674580,19
1675204,23
1675824,34
1676452,25
1677072,12
1677700,15
1678324,17
1678944,16
1679576,16
1680196,27
1680824,32
1681452,21
1682068,15
1682696,14
1683320,35
1683948,35
1684576,44
1685192,38
1685820,26
1686444,26
1687064,26
1687692,18
1688312,13
1688940,11
1689564,17
1690188,14
1690816,10
1691432,11
1692060,10
1692688,13
1693304,12
1693936,17
1694556,22
1695188,23
1695816,35
1696436,34
1697064,13
1697684,11
1698308,11
1698936,13
1699560,11
1700188,24
1700808,29
1701432,45
1702060,40
1702680,33
1703308,36
1703932,23
1704552,18
1705184,14
1705804,11
1706436,10
1707064,9
1707628,10
1708260,10
1708884,24
1709512,25
1710140,23
1710760,31
1711388,29
1712012,30
1712640,25
1713268,14
1713888,27
1714516,43
1715140,44
1715768,32
1716396,22
1717016,18
1717644,26
1718268,29
1718896,19
1719524,26
1720148,25
1720780,19
1721408,41
1722024,45
1722652,14
1723276,15
1723904,24
1724532,24
1725152,20
1725780,28
1726404,23
1727028,11
1727656,20
1728276,19
1728904,15
1729524,19
1730148,16
1730776,16
1731400,11
1732028,13
1732656,17
1733280,28
1733908,27
1734532,24
1735160,26
1735788,26
1736408,21
1737036,18
1737660,16
1738284,14
1738912,16
1739532,13
1740160,10
1740784,14
1741408,17
1742036,19
1742660,21
1743288,31
1743916,44
1744536,31
1745164,17
1745788,19
1746416,24
1747044,21
1747664,25
1748292,27
1748916,27
1749540,14
1750168,10
1750792,15
1751420,26
1752044,23
1752668,20
1753296,18
1753920,17
1754548,17
1755180,11
1755800,11
1756428,11
1757052,14
1757684,10
1758312,18
1758932,12
1759564,13
1760188,11
1760808,15
1761436,12
1762056,16
1762684,15
1763304,12
1763928,11
1764556,10
1765176,14
1765804,15
1766432,18
1767052,16
1767684,11
1768304,11
1768932,16
1769564,24
1770184,31
1770812,19
1771436,16
1772060,10
1772688,10
1773312,11
1773940,10
1774564,26
1775188,43
1775820,39
1776440,23
1777068,14
1777700,25
1778320,29
1778948,18
1779572,18
1780204,19
1780832,10
1781448,12
1782080,15
1782704,20
1783324,14
1783956,10
1784576,19
1785204,31
1785828,27
1786452,22
1787084,16
1787704,16
1788332,15
1788964,17
1789584,10
1790212,18
1790840,11
1791468,15
1792100,14
1792716,20
1793348,13
1793968,15
1794592,16
1795220,15
1795840,16
1796468,18
1797092,14
1797716,35
1798344,35
1798964,22
1799592,13
1800220,14
1800840,26
1801468,28
1802092,18
1802720,15
1803352,16
1803968,22
1804596,17
1805220,15
1805844,11
1806472,10
1807088,9
1807664,9
1808236,10
1808868,12
1809496,12
1810112,10
1810744,17
1811368,17
1811988,16
1812620,23
1813240,17
1813868,11
1814492,12
1815112,19
1815744,16
1816360,11
1816992,13
1817620,11
1818236,13
1818868,18
1819492,19
1820120,15
1820748,16
1821368,23
1821996,16
1822620,16
1823244,10
1823876,18
1824496,20
1825124,11
1825748,13
1826372,17
1827000,18
1827620,17
1828248,16
1828876,15
1829496,17
1830124,18
1830748,20
1831380,14
1832008,11
1832624,10
1833256,17
1833880,17
1834504,24
1835132,39
1835752,30
1836380,15
1837004,45
1837628,41
1838260,21
1838880,13
1839508,17
1840140,23
1840760,21
1841388,15
1842012,11
1842644,10
1843272,16
1843888,22
1844516,17
1845140,21
1845764,16
1846392,16
1847012,17
1847640,16
1848264,11
1848884,19
1849516,26
1850136,27
1850764,19
1851388,18
1852016,23
1852644,21
1853268,17
1853896,16
1854528,17
1855144,11
1855772,11
1856400,10
1857028,12
1857656,11
1858272,11
1858900,14
1859524,17
1860148,21
1860776,27
1861392,28
1862024,21
1862648,17
1863272,12
1863900,11
1864524,12
1865152,17
1865780,19
1866400,20
1867028,16
1867652,13
1868280,15
1868912,23
1869528,25
1870156,27
1870780,20
1871404,17
1872036,16
1872656,17
1873284,13
1873908,13
1874532,25
1875160,29
1875788,26
1876416,22
1877044,19
1877664,26
1878292,35
1878920,23
1879548,29
1880180,34
1880800,28
1881428,13
1882052,12
1882676,23
1883308,18
1883928,16
1884556,25
1885180,28
1885808,18
1886436,16
1887060,19
1887688,30
1888320,35
1888936,25
1889564,13
1890188,12
1890820,10
1891448,15
1892068,23
1892696,28
1893320,29
1893944,30
1894576,23
1895192,17
1895820,18
1896444,16
1897072,14
1897700,14
1898324,12
1898952,13
1899584,12
1900200,12
1900832,14
1901456,19
1902084,24
1902716,24
1903336,16
1903968,19
1904592,16
1905216,11
1905844,10
1906464,13
1907092,10
1907724,10
1908344,11
1908972,10
1909596,13
1910228,16
1910860,14
1911480,19
1912112,22
1912736,25
1913360,29
1913992,27
1914608,17
1915240,13
1915864,32
1916488,26
1917116,12
1917736,30
1918368,15
1919000,40
1919620,64
1920252,67
1920872,45
1921500,23
1922128,15
1922752,11
1923380,10
1924004,10
1924628,12
1925256,19
1925872,16
1926500,13
1927124,14
1927748,18
1928376,21
1928992,19
1929624,16
1930252,18
1930872,21
1931500,20
1932124,16
1932756,16
1933384,12
1934008,14
1934636,24
1935260,25
1935888,18
1936516,24
1937136,20
1937764,16
1938388,13
1939012,22
1939644,12
1940264,18
1940892,24
1941524,16
1942144,11
1942772,15
1943400,13
1944028,15
1944660,18
1945280,21
1945908,28
1946532,28
1947156,19
1947788,12
1948408,11
1949036,11
1949660,10
1950284,11
1950916,10
1951536,13
1952164,19
1952796,22
1953416,21
1954044,16
1954668,13
1955300,10
1955928,11
1956544,11
1957176,11
1957800,11
1958424,11
1959052,12
1959672,12
1960304,15
1960928,16
1961548,15
1962180,16
1962800,19
1963428,11
1964060,12
1964680,11
1965308,18
1965936,28
1966564,25
1967192,20
1967816,25
1968444,21
1969068,18
1969692,16
1970320,17
1970940,15
1971568,12
1972192,11
1972812,9
1973388,12
1974012,17
1974644,30
1975268,28
1975888,12
1976520,17
1977136,26
1977764,22
1978392,16
1979016,16
1979644,14
1980268,11
1980900,12
1981528,11
1982144,10
1982776,11
1983400,13
1984024,13
1984652,12
1985272,30
1985900,42
1986524,47
1987148,39
1987776,18
1988400,11
1989028,10
1989660,10
1990280,12
1990908,19
1991532,17
1992164,14
1992792,11
1993412,20
1994040,30
1994664,23
1995288,20
1995916,19
1996536,11
1997168,11
1997788,10
1998412,13
1999040,12
1999664,13
2000292,18
2000924,24
2001544,29
2002172,31
2002796,28
2003424,19
2004056,16
2004672,13
2005300,12
2005924,10
2006548,12
2007176,22
2007800,28
2008428,37
2009052,27
2009676,11
2010304,14
2010920,16
2011548,15
2012180,16
2012800,17
2013428,12
2014052,10
2014680,10
2015312,12
2015928,22
2016560,14
2017184,16
2017808,17
2018436,12
2019056,16
2019684,15
2020308,18
2020932,21
2021564,23
2022184,15
2022812,27
2023444,32
2024064,26
2024692,17
2025316,12
2025948,12
2026576,10
2027192,17
2027824,15
2028448,17
2029072,16
2029700,14
2030320,24
2030948,25
2031576,19
2032200,11
2032828,10
2033448,11
2034076,17
2034708,26
2035328,31
2035956,34
2036580,39
2037212,34
2037844,31
2038464,25
2039092,11
2039716,15
2040344,15
2040972,18
2041592,23
2042224,23
2042848,23
2043472,14
2044104,17
2044720,15
2045352,15
2045980,16
2046600,11
2047232,13
2047856,11
2048488,11
2049116,10
2049732,21
2050360,45
2050984,44
2051604,37
2052232,22
2052852,20
2053484,17
2054104,23
2054724,21
2055356,12
2055976,12
2056604,26
2057232,29
2057848,28
2058476,18
2059100,17
2059728,12
2060356,20
2060976,16
2061604,15
2062224,21
2062852,15
2063480,12
2064104,20
2064732,23
2065352,15
2065976,11
2066604,10
2067224,19
2067852,26
2068472,27
2069096,20
2069724,15
2070348,25
2070976,24
2071604,11
2072224,10
2072852,11
2073476,13
2074104,22
2074732,17
2075352,11
2075980,13
2076604,18
2077228,19
2077856,14
2078472,19
2079104,20
2079728,13
2080352,11
2080980,12
2081600,10
2082228,10
2082856,12
2083480,11
2084108,11
2084728,12
2085360,23
2085988,30
2086608,24
2087236,19
2087860,22
2088480,19
2089108,11
2089728,12
2090356,11
2090976,14
2091600,11
2092228,12
2092848,11
2093476,15
2094104,14
2094720,20
2095348,22
2095972,19
2096604,11
2097232,13
2097848,12
2098476,10
2099100,15
2099724,18
2100352,25
2100976,29
2101604,24
2102228,18
2102848,15
2103480,16
2104096,18
2104724,11
2105352,12
2105972,11
2106600,13
2107224,13
2107852,11
2108480,12
2109104,15
2109732,13
2110356,27
2110984,22
2111612,18
2112232,17
2112860,19
2113484,13
2114108,31
2114736,26
2115352,12
2115980,33
2116604,35
2117232,33
2117860,34
2118484,32
2119112,28
2119744,19
2120360,16
2120988,16
2121612,11
2122240,16
2122872,13
2123488,25
2124116,19
2124740,21
2125368,16
2125996,10
2126616,11
2127244,17
2127868,27
2128496,24
2129124,17
2129748,32
2130380,27
2131008,20
2131624,12
2132252,11
2132876,15
2133504,31
2134132,40
2134752,28
2135380,19
2136004,19
2136628,17
2137256,18
2137876,12
2138504,11
2139128,9
2139700,11
2140332,10
2140952,10
2141580,14
2142204,21
2142832,18
2143460,21
2144084,15
2144712,17
2145344,16
2145960,18
2146588,20
2147212,24
2147840,14
2148472,13
2149088,13
2149716,14
2150344,12
2150968,11
2151596,12
2152216,16
2152844,16
2153468,15
2154096,19
2154724,23
2155348,23
2155976,23
2156608,14
2157224,11
2157856,11
2158480,13
2159108,13
2159740,15
2160360,21
2160988,17
2161612,19
2162236,21
2162864,12
2163480,22
2164112,25
2164732,14
2165360,11
2165988,18
2166612,26
2167240,21
2167872,17
2168488,43
2169116,42
2169740,35
2170372,47
2171000,52
2171624,31
2172252,10
2172876,33
2173500,41
2174128,29
2174748,14
2175376,19
2176004,24
2176620,13
2177248,22
2177872,45
2178500,27
2179128,20
2179752,13
2180380,15
2181004,32
2181636,36
2182264,34
2182880,18
2183512,13
2184136,18
2184760,27
2185388,32
2186008,26
2186636,19
2187260,18
2187888,11
2188516,11
2189140,16
2189772,28
2190400,29
2191020,28
2191648,29
2192272,14
2192900,12
2193532,14
2194152,20
2194780,19
2195404,29
2196028,17
2196660,30
2197280,23
2197908,12
2198540,16
2199160,30
2199792,31
2200416,33
2201044,18
2201676,18
2202296,19
2202924,24
2203548,21
2204172,19
2204800,13
2205416,10
2206044,13
2206668,19
2207292,11
2207924,12
2208544,21
2209172,28
2209804,26
2210424,25
2211052,16
2211676,16
2212308,19
2212936,12
2213560,11
2214188,11
2214812,12
2215436,13
2216068,14
2216688,23
2217316,21
2217940,18
2218564,19
2219192,24
2219816,24
2220444,20
2221076,18
2221696,20
2222324,16
2222948,10
2223580,13
2224212,12
2224832,24
2225460,25
2226084,14
2226708,26
2227340,36
2227960,35
2228588,19
2229212,18
2229836,29
2230468,14
2231088,19
2231716,31
2232348,51
2232968,51
2233596,43
2234220,32
2234852,17
2235484,16
2236104,16
2236736,30
2237360,30
2237984,29
2238616,26
2239232,20
2239864,11
2240488,10
2241112,10
2241740,15
2242360,21
2242988,15
2243620,18
2244240,21
2244868,21
2245492,18
2246120,12
2246752,11
2247368,10
2248000,11
2248624,11
2249248,11
2249876,16
2250496,27
2251124,28
2251752,29
2252376,27
2253008,27
2253624,18
2254252,15
2254880,10
2255496,13
2256128,12
2256748,10
2257380,11
2258008,18
2258624,22
2259252,19
2259876,23
2260500,18
2261128,16
2261744,16
2262376,19
2263000,11
2263624,11
2264252,12
2264872,11
2265500,15
2266132,10
2266752,14
2267380,21
2268004,29
2268636,26
2269264,29
2269884,24
2270512,16
2271136,18
2271764,10
2272392,20
2273016,12
2273644,23
2274268,31
2274892,31
2275524,38
2276144,22
2276772,15
2277404,48
2278024,75
2278656,34
2279276,15
2279908,15
2280536,14
2281160,30
2281788,35
2282412,32
2283036,27
2283668,34
2284288,35
2284916,28
2285540,15
2286164,15
2286796,15
2287416,18
2288044,15
2288676,11
2289296,15
2289924,24
2290548,15
2291180,11
2291812,10
2292432,15
2293064,15
2293688,19
2294312,19
2294940,16
2295560,17
2296188,12
2296812,11
2297436,10
2298068,12
2298692,11
2299320,10
2299952,12
2300568,15
2301200,19
2301824,20
2302452,16
2303084,16
2303704,17
2304336,18
2304956,23
2305580,20
2306208,18
2306832,10
2307460,21
2308084,35
2308708,29
2309336,17
2309960,15
2310588,17
2311216,17
2311840,16
2312468,15
2313092,16
2313724,10
2314352,21
2314968,15
2315600,14
2316220,11
2316844,23
2317476,38
2318096,36
2318724,22
2319348,20
2319972,30
2320604,22
2321228,12
2321856,17
2322484,11
2323104,13
2323732,27
2324356,22
2324988,10
2325616,30
2326236,30
2326864,17
2327488,19
2328112,27
2328740,29
2329360,21
2329988,11
2330612,20
2331236,31
2331868,26
2332492,24
2333120,19
2333748,17
2334368,20
2335000,23
2335624,20
2336252,19
2336880,18
2337504,15
2338132,12
2338756,12
2339380,18
2340012,12
2340632,11
2341260,9
2341832,14
2342464,19
2343092,17
2343712,17
2344340,17
2344972,16
2345592,19
2346220,12
2346844,22
2347476,19
2348108,13
2348728,12
2349360,30
2349984,43
2350608,33
2351236,26
2351856,28
2352488,31
2353112,21
2353736,19
2354368,18
2354984,17
2355616,15
2356244,10
2356864,19
2357492,21
2358116,29
2358748,14
2359376,11
2359992,21
2360624,19
2361248,19
2361872,16
2362504,16
2363120,12
2363752,15
2364376,13
2365000,13
2365628,10
2366248,29
2366876,20
2367508,10
2368128,15
2368756,15
2369380,16
2370012,16
2370640,16
2371256,31
2371888,42
2372512,25
2373136,9
2373712,11
2374340,19
2374972,25
2375596,19
2376220,13
2376852,16
2377472,19
2378100,17
2378724,15
2379348,11
2379980,12
2380600,16
2381232,16
2381860,18
2382480,18
2383108,15
2383732,12
2384364,19
2384992,25
2385616,16
2386244,16
2386868,16
2387492,15
2388124,16
2388744,24
2389372,13
2390000,10
2390624,21
2391252,16
2391876,12
2392508,15
2393140,26
2393760,23
2394388,16
2395016,18
2395644,28
2396276,22
2396896,13
2397524,21
2398152,11
2398776,11
2399404,26
2400024,24
2400652,12
2401276,26
2401904,32
2402532,22
2403156,23
2403788,37
2404420,38
2405040,26
2405668,11
2406292,15
2406920,20
2407548,28
2408168,31
2408796,10
2409420,11
2410044,16
2410672,28
2411296,33
2411924,21
2412556,16
2413176,23
2413804,32
2414432,30
2415060,21
2415692,14
2416312,12
2416944,13
2417568,14
2418192,16
2418820,14
2419440,16
2420068,25
2420692,21
2421316,13
2421948,12
2422568,23
2423196,12
2423828,10
2424448,14
2425076,19
2425700,17
2426332,19
2426964,19
2427584,16
2428212,16
2428836,16
2429464,11
2430092,10
2430712,11
2431344,12
2431968,19
2432592,21
2433224,16
2433840,10
2434472,11
2435100,16
2435720,14
2436348,16
2436972,19
2437604,21
2438236,16
2438856,15
2439484,10
2440108,10
2440732,14
2441364,16
2441984,22
2442612,20
2443236,15
2443860,21
2444492,22
2445112,25
2445744,17
2446372,10
2446992,10
2447624,11
2448248,11
2448876,11
2449504,11
2450128,25
2450756,31
2451384,24
2452008,19
2452636,17
2453256,18
2453888,15
2454512,11
2455136,13
2455768,9
2456340,12
2456976,22
2457604,26
2458220,16
2458852,14
2459472,14
2460104,16
2460732,14
2461352,16
2461980,17
2462604,17
2463236,21
2463864,19
2464484,10
2465112,14
2465736,12
2466356,21
2466988,24
2467608,23
2468236,19
2468860,15
2469488,17
2470116,20
2470740,15
2471368,17
2472000,24
2472616,13
2473244,9
2473816,11
2474452,10
2475084,10
2475704,11
2476332,13
2476956,17
2477580,28
2478212,34
2478832,26
2479460,13
2480084,11
2480708,11
2481336,10
2481960,10
2482588,16
2483220,26
2483836,44
2484468,31
2485092,26
2485720,19
2486352,23
2486968,28
2487600,32
2488224,25
2488848,11
2489476,14
2490096,15
2490724,12
2491348,12
2491972,13
2492604,12
2493224,22
2493852,13
2494484,16
2495104,17
2495736,15
2496360,11
2496988,11
2497616,11
2498240,13
2498868,20
2499492,19
2500116,18
2500744,18
2501368,22
2501996,23
2502620,17
2503244,19
2503876,22
2504496,16
2505124,10
2505756,16
2506376,16
2507004,12
2507632,17
2508260,31
2508892,20
2509512,13
2510140,17
2510764,17
2511388,15
2512020,16
2512640,18
2513268,15
2513892,13
2514516,12
2515148,22
2515768,31
2516400,37
2517028,37
2517648,47
2518280,55
2518904,51
2519536,35
2520164,28
2520784,24
2521412,12
2522040,11
2522664,12
2523292,14
2523912,13
2524544,13
2525168,19
2525792,18
2526420,21
2527048,21
2527676,28
2528308,30
2528928,27
2529556,11
2530184,17
2530812,11
2531444,10
2532064,11
2532692,11
2533320,13
2533944,21
2534576,13
2535192,28
2535824,41
2536456,31
2537072,22
2537704,17
2538328,14
2538956,11
2539588,19
2540208,32
2540836,20
2541460,15
2542088,12
2542716,10
2543336,17
2543968,15
2544592,24
2545216,29
2545844,23
2546464,11
2547096,12
2547724,17
2548344,13
2548976,17
2549600,21
2550228,16
2550860,36
2551480,38
2552112,35
2552736,35
2553360,24
2553992,14
2554612,11
2555240,13
2555868,11
2556492,12
2557124,26
2557744,28
2558376,19
2559008,13
2559628,15
2560260,26
2560880,21
2561508,17
2562136,16
2562760,12
2563388,12
2564008,11
2564628,13
2565260,13
2565876,17
2566508,11
2567128,23
2567752,29
2568380,36
2569000,28
2569628,20
2570256,16
2570872,16
2571500,25
2572124,21
2572756,12
2573384,10
2574000,16
2574632,12
2575256,13
2575880,15
2576508,16
2577128,19
2577756,22
2578380,32
2579004,36
2579632,22
2580256,11
2580884,11
2581512,26
2582136,48
2582764,41
2583388,44
2584016,47
2584648,42
2585264,24
2585892,18
2586516,16
2587140,16
2587772,14
2588392,11
2589020,12
2589644,10
2590268,10
2590896,13
2591520,16
2592148,11
2592776,12
2593400,21
2594028,18
2594652,16
2595280,17
2595912,11
2596528,12
2597156,15
2597780,19
2598404,13
2599036,16
2599656,19
2600284,17
2600908,18
2601532,20
2602164,19
2602784,24
2603412,18
2604044,12
2604664,10
2605292,11
2605916,11
2606548,10
2607176,10
2607796,11
2608424,16
2609048,10
2609672,14
2610300,14
2610920,17
2611552,21
2612172,19
2612796,11
2613428,11
2614048,13
2614676,15
2615308,10
2615928,15
2616556,14
2617180,12
2617812,14
2618444,17
2619064,31
2619692,41
2620320,36
2620944,29
2621572,17
2622192,12
2622820,27
2623440,23
2624064,20
2624692,16
2625308,15
2625936,11
2626564,23
2627180,31
2627812,28
2628432,20
2629064,13
2629692,12
2630312,11
2630940,23
2631564,22
2632192,11
2632820,11
2633440,25
2634068,31
2634692,35
2635316,26
2635944,25
2636560,20
2637192,15
2637812,12
2638436,11
2639068,13
2639688,24
2640320,33
2640948,17
2641568,14
2642196,17
2642820,15
2643448,21
2644076,28
2644696,27
2645324,20
2645944,11
2646568,12
2647196,16
2647816,32
2648444,19
2649068,15
2649692,12
2650320,11
2650936,15
2651564,35
2652196,32
2652816,32
2653444,42
2654064,32
2654696,13
2655324,11
2655944,16
2656576,16
2657196,21
2657820,11
2658452,14
2659072,12
2659700,17
2660324,17
2660948,18
2661576,17
2662200,24
2662828,33
2663456,21
2664080,12
2664708,10
2665328,12
2665956,18
2666584,37
2667200,38
2667832,36
2668452,36
2669076,27
2669704,19
2670328,17
2670956,15
2671580,10
2672204,18
2672832,11
2673448,17
2674076,10
2674704,10
2675328,11
2675956,10
2676580,18
2677208,24
2677836,22
2678456,28
2679084,25
2679708,18
2680332,11
2680960,15
2681576,18
2682204,16
2682828,23
2683452,18
2684084,18
2684704,25
2685332,19
2685964,20
2686584,26
2687212,27
2687836,17
2688468,11
2689096,12
2689712,14
2690340,11
2690964,11
2691588,17
2692216,11
2692840,15
2693468,15
2694092,16
2694712,18
2695344,17
2695960,12
2696588,15
2697212,10
2697840,11
2698468,12
2699092,11
2699720,14
2700352,11
2700968,18
2701600,25
2702220,25
2702852,17
2703480,15
2704104,11
2704732,10
2705352,10
2705976,12
2706604,17
2707224,16
2707852,11
2708476,11
2709100,10
2709728,16
2710352,15
2710980,19
2711612,20
2712232,20
2712860,12
2713484,15
2714116,11
2714744,12
2715368,11
2715996,15
2716620,26
2717244,39
2717876,48
2718496,32
2719124,24
2719756,31
2720376,29
2721004,11
2721628,11
2722256,11
2722884,10
2723504,13
2724132,24
2724756,47
2725380,64
2726012,48
2726632,24
2727260,23
2727884,46
2728508,40
2729136,25
2729752,17
2730380,10
2731004,13
2731632,10
2732260,11
2732884,13
2733512,18
2734144,28
2734760,20
2735392,17
2736016,51
2736644,60
2737272,36
2737892,19
2738520,11
2739144,10
2739768,11
2740396,12
2741016,20
2741644,25
2742268,30
2742896,38
2743524,48
2744148,26
2744780,19
2745408,20
2746032,14
2746660,13
2747284,11
2747908,22
2748540,31
2749160,18
2749788,11
2750412,17
2751036,39
2751668,42
2752288,34
2752916,26
2753544,18
2754168,15
2754796,11
2755420,26
2756052,35
2756680,24
2757296,14
2757928,14
2758552,13
2759176,20
2759804,25
2760424,17
2761052,16
2761676,15
2762300,10
2762932,10
2763552,23
2764180,37
2764812,34
2765428,15
2766060,11
2766684,13
2767312,35
2767940,41
2768560,29
2769188,19
2769812,19
2770436,16
2771068,10
2771688,16
2772316,10
2772940,10
2773564,14
2774196,10
2774816,11
2775444,12
2776076,18
2776696,16
2777324,16
2777948,19
2778580,21
2779208,27
2779832,30
2780464,17
2781088,15
2781712,25
2782340,27
2782960,15
2783588,11
2784216,11
2784840,18
2785468,15
2786088,23
2786716,19
2787344,16
2787968,37
2788596,38
2789220,23
2789852,11
2790480,15
2791096,27
2791724,15
2792348,14
2792972,16
2793600,20
2794216,26
2794848,21
2795472,14
2796096,11
2796724,10
2797344,12
2797972,16
2798604,12
2799224,11
2799852,14
2800480,20
2801108,31
2801740,17
2802360,19
2802988,22
2803612,16
2804236,10
2804868,10
2805488,11
2806116,10
2806740,12
2807364,13
2807992,10
2808616,12
2809244,12
2809876,14
2810496,16
2811124,15
2811748,19
2812380,13
2813012,10
2813632,15
2814260,11
2814884,11
2815508,11
2816140,20
2816756,25
2817388,13
2818008,31
2818632,17
2819260,22
2819880,17
2820508,18
2821136,22
2821752,22
2822384,19
2823008,18
2823636,24
2824268,18
2824888,18
2825516,18
2826140,14
2826764,13
2827396,15
2828016,19
2828644,21
2829268,22
2829892,22
2830520,10
2831144,14
2831772,12
2832404,10
2833024,19
2833652,27
2834276,22
2834904,17
2835536,26
2836152,38
2836784,31
2837408,11
2838032,20
2838660,30
2839280,29
2839908,27
2840532,13
2841160,9
2841736,14
2842360,23
2842988,25
2843612,26
2844236,20
2844864,16
2845488,13
2846116,11
2846748,10
2847368,11
2847996,11
2848620,10
2849252,13
2849880,12
2850496,22
2851128,33
2851752,49
2852376,50
2853004,20
2853624,22
2854252,14
2854880,12
2855500,14
2856132,16
2856752,25
2857384,33
2858012,28
2858632,12
2859264,19
2859888,19
2860516,17
2861148,24
2861768,22
2862396,14
2863024,27
2863648,26
2864280,11
2864896,10
2865524,12
2866152,16
2866776,12
2867408,11
2868024,16
2868652,19
2869280,16
2869896,17
2870524,19
2871148,17
2871776,12
2872408,10
2873024,11
2873652,11
2874276,13
2874900,11
2875528,19
2876152,33
2876780,24
2877408,17
2878032,17
2878660,15
2879280,11
2879908,14
2880540,12
2881156,11
2881788,12
2882408,10
2883040,13
2883668,10
2884288,15
2884916,14
2885540,19
2886160,20
2886792,24
2887408,15
2888036,10
2888660,18
2889280,18
2889912,10
2890528,32
2891156,23
2891788,12
2892408,13
2893036,16
2893660,15
2894288,18
2894916,17
2895536,15
2896164,20
2896788,12
2897412,11
2898044,10
2898664,21
2899292,24
2899916,26
2900540,17
2901168,16
2901784,14
2902416,18
2903044,16
2903664,25
2904292,26
2904916,21
2905548,10
2906180,10
2906800,14
2907428,18
2908052,26
2908680,34
2909308,34
2909928,15
2910556,33
2911180,27
2911808,17
2912436,10
2913056,11
2913684,12
2914316,10
2914936,11
2915564,10
2916188,11
2916820,11
2917448,15
2918072,20
2918704,20
2919328,20
2919948,22
2920580,22
2921200,23
2921828,13
2922452,10
2923076,10
2923704,12
2924328,19
2924956,14
2925588,10
2926208,17
2926836,19
2927460,18
2928092,16
2928720,10
2929344,12
2929972,13
2930596,11
2931220,11
2931852,10
2932472,14
2933100,23
2933728,29
2934352,26
2934980,22
2935600,18
2936228,29
2936860,28
2937480,10
2938112,21
2938736,10
2939364,24
2939996,34
2940616,27
2941248,12
2941872,24
2942496,39
2943128,34
2943744,23
2944376,17
2945000,17
2945624,10
2946252,10
2946872,11
2947500,12
2948132,16
2948752,17
2949384,23
2950004,21
2950636,11
2951264,20
2951880,16
2952512,23
2953136,29
2953760,29
2954388,23
2955008,11
2955636,12
2956260,17
2956884,13
2957512,10
2958136,18
2958764,23
2959396,37
2960016,43
2960644,27
2961268,17
2961896,20
2962524,32
2963144,27
2963776,14
2964396,15
2965024,23
2965652,30
2966272,42
2966900,37
2967528,29
2968152,17
2968780,16
2969400,17
2970032,17
2970660,16
2971280,23
2971908,11
2972532,10
2973160,12
2973792,16
2974408,18
2975036,20
2975660,19
2976284,17
2976916,14
2977536,17
2978164,17
2978788,12
2979412,12
2980044,16
2980664,13
2981292,10
2981920,12
2982544,20
2983172,35
2983796,49
2984428,50
2985056,22
2985676,16
2986304,17
2986928,19
2987552,13
2988180,11
2988800,13
2989428,21
2990052,29
2990680,33
2991308,38
2991928,37
2992560,31
2993188,18
2993808,17
2994436,25
2995060,44
2995692,45
2996324,26
2996944,23
2997572,19
2998200,15
2998824,16
2999452,23
3000072,23
3000700,15
3001328,16
3001952,17
3002580,19
3003204,17
3003836,24
3004464,12
3005088,10
3005720,14
3006344,17
3006972,12
3007604,10
3008224,11
3008852,10
3009476,20
3010100,19
3010732,34
3011352,17
3011980,37
3012608,38
3013232,18
3013860,12
3014488,12
3015116,13
3015748,12
3016368,12
3016996,17
3017620,20
3018248,23
3018876,25
3019496,22
3020128,24
3020752,21
3021376,14
3022008,10
3022624,15
3023256,23
3023888,20
3024504,12
3025136,15
3025760,15
3026392,16
3027020,16
3027640,17
3028272,17
3028896,12
3029520,11
3030152,12
3030768,17
3031400,23
3032024,11
3032648,14
3033280,13
3033896,11
3034528,17
3035156,16
3035776,20
3036408,33
3037032,37
3037664,34
3038292,24
3038912,13
3039544,12
3040168,10
3040792,15
3041420,18
3042040,15
3042668,16
3043292,14
3043916,20
3044548,19
3045168,17
3045796,11
3046428,10
3047048,13
3047676,16
3048300,11
3048932,12
3049564,20
3050184,14
3050816,17
3051440,14
3052064,20
3052692,29
3053312,44
3053944,44
3054568,35
3055192,28
3055824,10
3056444,16
3057072,23
3057704,26
3058320,22
3058952,13
3059576,17
3060208,16
3060836,16
3061456,16
3062088,12
3062712,20
3063336,28
3063968,13
3064588,18
3065216,31
3065844,21
3066468,14
3067100,30
3067724,23
3068356,36
3068988,48
3069608,37
3070240,19
3070864,10
3071496,25
3072128,52
3072744,23
3073372,11
3073996,11
3074620,15
3075248,14
3075864,16
3076492,22
3077116,22
3077744,17
3078372,18
3079000,15
3079628,13
3080260,32
3080880,31
3081508,27
3082132,11
3082760,20
3083388,22
3084008,25
3084636,15
3085260,28
3085884,31
3086516,34
3087136,37
3087768,28
3088396,18
3089016,12
3089644,11
3090268,13
3090900,14
3091528,16
3092152,18
3092784,19
3093408,15
3094032,15
3094660,16
3095280,13
3095908,11
3096536,28
3097160,28
3097788,14
3098408,27
3099036,27
3099668,36
3100288,42
3100916,39
3101544,33
3102172,31
3102804,26
3103424,18
3104056,10
3104676,15
3105300,20
3105932,22
3106552,17
3107184,25
3107808,38
3108432,26
3109064,15
3109680,16
3110312,23
3110944,23
3111560,16
3112192,13
3112816,22
3113448,12
3114076,10
3114696,11
3115328,25
3115952,33
3116576,36
3117208,54
3117824,48
3118456,23
3119080,16
3119704,16
3120332,11
3120952,10
3121580,13
3122212,22
3122832,11
3123464,10
3124084,12
3124716,12
3125344,11
3125968,21
3126596,17
3127220,19
3127844,17
3128476,12
3129096,11
3129724,11
3130348,11
3130972,22
3131604,20
3132228,19
3132860,19
3133488,16
3134112,15
3134740,13
3135368,17
3135996,16
3136628,19
3137248,20
3137876,21
3138504,13
3139128,11
3139756,10
3140376,12
3141004,10
3141632,10
3142256,13
3142888,15
3143512,17
3144144,17
3144772,18
3145392,13
3146024,12
3146648,13
3147272,13
3147900,10
3148520,17
3149152,25
3149776,25
3150400,12
3151028,29
3151648,51
3152280,38
3152908,24
3153528,17
3154160,17
3154784,16
3155412,11
3156044,10
3156664,12
3157292,11
3157920,11
3158544,12
3159172,17
3159792,17
3160424,16
3161048,17
3161672,15
3162300,12
3162920,10
3163548,14
3164180,10
3164800,11
3165428,11
3166056,15
3166684,13
3167316,16
3167936,31
3168568,28
3169192,16
3169820,17
3170452,12
3171072,10
3171704,13
3172328,11
3172952,13
3173584,10
3174204,10
3174836,14
3175464,33
3176088,40
3176716,22
3177344,17
3177972,15
3178604,12
3179224,11
3179856,11
3180480,20
3181104,19
3181736,21
3182352,12
3182984,11
3183612,25
3184236,37
3184868,41
3185492,35
3186124,28
3186752,20
3187376,10
3188008,12
3188632,11
3189256,11
3189888,9
3190452,9
3191036,11
3191664,12
3192296,17
3192928,14
3193552,17
3194188,31
3194812,24
3195436,12
3196068,10
3196688,13
3197320,18
3197944,15
3198568,14
3199200,19
3199824,20
3200456,20
3201084,18
3201704,18
3202332,20
3202956,20
3203584,13
3204212,13
3204832,24
3205460,16
3206084,19
3206704,22
3207336,14
3207952,13
3208580,11
3209204,17
3209828,23
3210456,23
3211080,21
3211708,21
3212340,12
3212960,17
3213588,16
3214212,30
3214844,35
3215472,23
3216088,24
3216716,35
3217340,48
3217964,49
3218596,43
3219216,32
3219844,21
3220468,12
3221092,11
3221720,14
3222344,11
3222976,16
3223604,14
3224224,20
3224852,32
3225480,25
3226108,27
3226736,36
3227360,42
3227988,31
3228612,13
3229236,26
3229868,28
3230488,26
3231116,18
3231740,14
3232368,15
3232996,13
3233620,20
3234248,26
3234880,17
3235496,18
3236128,31
3236752,32
3237380,19
3238012,12
3238632,11
3239260,10
3239884,17
3240508,12
3241140,15
3241760,17
3242388,15
3243020,16
3243640,19
3244268,16
3244892,15
3245524,13
3246152,19
3246768,16
3247400,10
3248024,11
3248648,13
3249276,20
3249896,27
3250524,19
3251152,15
3251776,17
3252404,16
3253024,22
3253652,13
3254284,10
3254904,10
3255532,11
3256160,12
3256788,17
3257420,27
3258040,43
3258668,61
3259296,51
3259920,19
3260548,38
3261168,48
3261800,37
3262424,24
3263048,19
3263676,14
3264296,12
3264928,16
3265556,19
3266176,27
3266808,24
3267432,17
3268060,19
3268692,18
3269312,16
3269940,19
3270568,13
3271192,13
3271820,14
3272440,17
3273068,17
3273696,18
3274320,12
3274948,10
3275568,14
3276200,15
3276832,18
3277444,27
3278072,26
3278696,19
3279324,13
3279952,10
3280576,11
3281204,12
3281824,12
3282448,29
3283076,36
3283696,28
3284324,17
3284944,21
3285564,19
3286196,16
3286816,15
3287444,19
3288072,12
3288688,12
3289316,15
3289940,17
3290568,30
3291196,28
3291816,24
3292444,25
3293068,37
3293696,51
3294324,25
3294944,17
3295572,31
3296196,30
3296820,25
3297448,22
3298064,28
3298692,36
3299316,25
3299936,24
3300564,32
3301188,29
3301816,23
3302444,20
3303060,16
3303692,10
3304312,14
3304944,16
3305572,14
3306192,11
3306820,10
3307444,13
3308068,10
3308696,12
3309316,15
3309944,17
3310568,18
3311192,17
3311820,13
3312440,12
3313068,11
3313700,13
3314320,17
3314948,21
3315572,20
3316204,21
3316832,25
3317448,21
3318080,16
3318704,16
3319324,16
3319956,16
3320576,18
3321204,11
3321828,10
3322452,12
3323080,16
3323696,15
3324328,12
3324956,14
3325576,19
3326204,16
3326828,15
3327460,16
3328088,16
3328708,11
3329336,15
3329956,27
3330580,25
3331208,15
3331824,11
3332452,23
3333076,13
3333700,19
3334328,44
3334948,59
3335576,54
3336204,46
3336824,54
3337452,43
3338076,21
3338704,16
3339332,30
3339952,29
3340580,25
3341204,13
3341828,11
3342460,17
3343080,16
3343708,16
3344332,16
3344956,11
3345584,11
3346200,22
3346832,17
3347460,11
3348080,24
3348708,25
3349332,11
3349960,15
3350588,19
3351208,23
3351836,16
3352460,19
3353092,31
3353720,23
3354344,11
3354972,11
3355596,16
3356220,17
3356848,13
3357472,11
3358100,13
3358732,22
3359352,29
3359980,21
3360604,17
3361232,22
3361864,14
3362480,11
3363108,17
3363732,19
3364356,17
3364988,28
3365608,35
3366236,26
3366860,17
3367480,20
3368112,23
3368728,29
3369356,18
3369980,10
3370608,10
3371236,13
3371860,14
3372488,15
3373116,11
3373736,11
3374364,17
3374988,12
3375620,16
3376248,14
3376872,22
3377500,25
3378124,19
3378748,14
3379380,24
3379996,25
3380628,13
3381256,10
3381872,12
3382504,13
3383124,11
3383756,21
3384384,23
3385000,27
3385628,20
3386252,16
3386880,11
3387508,10
3388128,11
3388756,10
3389380,10
3390004,13
3390636,14
3391256,12
3391884,15
3392512,16
3393136,17
3393764,22
3394388,20
3395016,10
3395648,12
3396264,10
3396892,11
3397516,12
3398148,30
3398776,30
3399396,11
3400024,33
3400644,62
3401268,56
3401900,37
3402520,19
3403148,12
3403772,14
3404400,10
3405028,10
3405652,11
3406280,11
3406908,10
3407528,11
3408156,18
3408780,16
3409408,16
3410036,26
3410656,24
3411284,17
3411908,30
3412532,46
3413160,40
3413776,23
3414408,11
3415032,11
3415656,11
3416284,11
3416908,11
3417540,23
3418172,20
3418792,17
3419420,18
3420048,23
3420676,17
3421308,15
3421928,27
3422556,13
3423180,13
3423808,15
3424436,12
3425056,11
3425684,16
3426316,15
3426936,16
3427564,20
3428192,26
3428820,25
3429448,13
3430072,15
3430704,31
3431328,36
3431952,19
3432580,13
3433200,19
3433828,33
3434452,18
3435076,16
3435708,38
3436328,57
3436956,39
3437588,28
3438208,12
3438836,10
3439464,22
3440092,35
3440724,12
3441344,17
3441972,19
3442596,21
3443220,21
3443848,18
3444464,17
3445092,16
3445716,12
3446340,13
3446972,22
3447592,22
3448220,21
3448852,18
3449472,19
3450100,20
3450724,19
3451356,15
3451984,17
3452608,21
3453236,11
3453864,13
3454488,11
3455116,12
3455736,11
3456368,17
3456988,17
3457612,13
3458240,11
3458864,16
3459492,14
3460124,16
3460744,17
3461372,14
3461996,11
3462628,10
3463256,11
3463872,11
3464504,13
3465128,11
3465752,12
3466380,15
3467000,19
3467628,15
3468252,16
3468876,25
3469508,33
3470128,33
3470756,19
3471388,16
3472008,16
3472636,11
3473260,27
3473892,36
3474520,34
3475144,22
3475776,20
3476400,23
3477024,23
3477652,21
3478272,13
3478904,12
3479528,16
3480152,11
3480784,11
3481400,11
3482032,17
3482660,22
3483280,21
3483908,20
3484532,22
3485160,24
3485788,20
3486408,13
3487036,13
3487660,16
3488284,18
3488916,17
3489536,16
3490164,15
3490788,17
3491412,19
3492044,19
3492664,17
3493292,17
3493920,16
3494544,23
3495172,28
3495796,25
3496428,17
3497056,10
3497672,10
3498304,12
3498928,17
3499552,16
3500180,19
3500800,27
3501428,17
3502052,19
3502680,28
3503308,25
3503928,41
3504560,38
3505188,24
3505808,27
3506436,19
3507064,10
3507692,17
3508324,26
3508944,27
3509572,17
3510200,16
3510824,17
3511452,15
3512072,13
3512704,11
3513328,11
3513952,29
3514584,16
3515208,18
3515836,34
3516468,43
3517088,40
3517720,25
3518344,19
3518976,17
3519608,16
3520224,13
3520856,22
3521480,12
3522104,11
3522732,23
3523352,28
3523980,26
3524604,13
3525232,19
3525860,28
3526484,32
3527112,27
3527744,17
3528360,11
3528992,14
3529616,15
3530244,12
3530872,10
3531492,11
3532120,11
3532748,12
3533372,17
3534000,34
3534624,40
3535252,21
3535884,16
3536504,12
3537132,15
3537756,10
3538388,14
3539016,27
3539640,24
3540268,11
3540892,10
3541516,29
3542148,32
3542768,41
3543396,19
3544020,22
3544644,36
3545276,22
3545896,11
3546524,13
3547156,10
3547776,11
3548408,12
3549028,18
3549660,19
3550292,24
3550912,27
3551544,25
3552168,22
3552792,22
3553420,17
3554040,13
3554668,9
3555240,12
3555872,17
3556500,15
3557120,13
3557748,13
3558376,15
3559000,16
3559632,15
3560248,17
3560876,17
3561508,10
3562128,14
3562756,14
3563384,17
3564012,11
3564644,11
3565264,12
3565892,14
3566520,22
3567144,21
3567772,21
3568392,17
3569020,17
3569648,13
3570268,10
3570900,12
3571524,22
3572156,16
3572788,10
3573408,20
3574040,24
3574664,11
3575292,18
3575924,32
3576544,34
3577176,18
3577800,18
3578424,21
3579056,15
3579672,12
3580304,20
3580936,13
3581552,12
3582184,19
3582808,14
3583440,16
3584072,19
3584688,16
3585316,19
3585940,20
3586564,13
3587196,14
3587816,14
3588444,13
3589068,12
3589692,10
3590324,10
3590944,11
3591572,10
3592204,16
3592824,18
3593452,16
3594076,17
3594708,12
3595340,12
3595960,11
3596592,10
3597216,13
3597840,12
3598468,11
3599088,13
3599720,11
3600344,23
3600964,15
3601596,14
3602216,18
3602844,18
3603476,23
3604096,27
3604724,14
3605348,19
3605976,34
3606608,38
3607224,21
3607852,13
3608476,15
3609100,14
3609728,17
3610348,16
3610980,18
3611604,13
3612224,11
3612856,18
3613472,18
3614100,32
3614732,34
3615352,23
3615980,13
3616604,11
3617236,24
3617864,26
3618488,27
3619116,20
3619740,13
3620364,12
3620996,20
3621616,35
3622244,39
3622868,35
3623492,11
3624124,24
3624744,27
3625372,15
3626004,22
3626624,18
3627252,17
3627876,23
3628508,33
3629136,30
3629756,22
3630384,17
3631008,11
3631632,11
3632264,15
3632880,22
3633508,21
3634132,15
3634756,19
3635388,16
3636008,18
3636636,11
3637268,15
3637888,18
3638516,19
3639140,14
3639772,11
3640404,10
3641024,15
3641652,11
3642276,15
3642900,17
3643528,17
3644152,18
3644784,25
3645408,16
3646032,11
3646660,12
3647280,13
3647908,17
3648540,12
3649160,11
3649788,19
3650412,18
3651040,17
3651672,16
3652288,17
3652920,19
3653544,11
3654168,21
3654796,14
3655416,17
3656044,13
3656668,11
3657292,11
3657924,14
3658544,24
3659172,27
3659804,17
3660424,17
3661056,16
3661676,12
3662308,13
3662940,16
3663560,23
3664188,13
3664812,15
3665436,29
3666068,32
3666688,30
3667316,33
3667940,35
3668564,29
3669196,25
3669816,16
3670448,11
3671076,15
3671696,16
3672324,9
3672900,11
3673536,9
3674108,12
3674740,13
3675368,16
3675996,16
3676628,17
3677256,20
3677880,20
3678512,12
3679136,10
3679760,11
3680392,13
3681008,11
3681636,15
3682260,17
3682884,21
3683516,14
3684136,14
3684764,20
3685396,18
3686016,17
3686648,9
3687216,17
3687852,19
3688480,12
3689100,12
3689732,12
3690356,13
3690984,10
3691612,13
3692232,15
3692860,16
3693484,17
3694104,16
3694736,10
3695352,10
3695984,13
3696608,11
3697232,26
3697860,32
3698480,35
3699108,26
3699740,12
3700360,17
3700988,17
3701612,22
3702244,41
3702872,37
3703492,22
3704120,11
3704744,24
3705368,15
3706000,23
3706620,31
3707248,27
3707872,19
3708496,17
3709124,12
3709744,17
3710372,17
3711004,16
3711624,11
3712256,11
3712876,12
3713508,13
3714136,27
3714760,27
3715388,15
3716012,16
3716636,13
3717268,14
3717888,27
3718516,31
3719140,33
3719764,24
3720396,12
3721016,11
3721644,10
3722276,10
3722896,15
3723524,41
3724148,49
3724780,31
3725412,18
3726032,16
3726664,25
3727288,29
3727912,26
3728540,23
3729160,13
3729788,11
3730412,15
3731036,17
3731668,20
3732292,19
3732924,17
3733552,16
3734176,16
3734808,17
3735432,18
3736060,16
3736692,20
3737312,13
3737944,24
3738568,30
3739192,19
3739820,13
3740440,15
3741068,11
3741696,18
3742320,21
3742952,21
3743576,20
3744208,21
3744836,14
3745456,12
3746084,13
3746708,21
3747336,31
3747964,17
3748584,19
3749212,21
3749836,17
3750464,21
3751092,34
3751712,27
3752344,16
3752972,14
3753592,32
3754224,29
3754848,15
3755480,10
3756108,25
3756728,26
3757360,12
3757984,11
3758608,15
3759240,19
3759860,21
3760492,20
3761116,13
3761740,10
3762372,10
3762992,11
3763624,11
3764252,12
3764872,15
3765500,11
3766128,11
3766756,15
3767388,14
3768008,20
3768636,21
3769260,16
3769888,13
3770516,16
3771136,22
3771768,21
3772392,11
3773016,14
3773648,32
3774264,37
3774896,25
3775524,24
3776144,27
3776772,19
3777396,16
3778028,10
3778656,10
3779280,17
3779908,19
3780532,21
3781156,22
3781788,16
3782408,15
3783036,22
3783664,26
3784288,22
3784916,27
3785544,35
3786176,34
3786804,21
3787424,10
3788056,11
3788680,15
3789312,17
3789940,15
3790560,15
3791188,11
3791816,15
3792440,16
3793068,16
3793688,17
3794316,15
3794944,10
3795568,12
3796196,12
3796824,11
3797452,13
3798084,10
3798704,14
3799336,12
3799960,18
3800584,21
3801212,16
3801832,43
3802460,41
3803088,25
3803712,18
3804340,32
3804960,22
3805588,29
3806220,26
3806840,10
3807472,11
3808096,13
3808724,21
3809356,18
3809976,17
3810604,16
3811228,11
3811852,15
3812484,17
3813104,20
3813736,20
3814360,13
3814984,10
3815616,11
3816236,11
3816864,16
3817496,27
3818116,29
3818748,23
3819372,20
3820004,17
3820632,10
3821252,11
3821884,10
3822508,11
3823132,13
3823764,18
3824384,20
3825016,23
3825640,15
3826264,17
3826896,16
3827512,17
3828144,10
3828776,10
3829396,10
3830028,10
3830652,12
3831284,17
3831916,22
3832536,24
3833168,22
3833796,18
3834420,20
3835052,18
3835672,18
3836304,12
3836936,10
3837556,10
3838188,13
3838812,13
3839444,11
3840076,11
3840692,11
3841324,17
3841944,22
3842568,34
3843200,34
3843816,36
3844444,32
3845068,12
3845692,15
3846324,21
3846944,17
3847572,17
3848204,26
3848824,35
3849452,27
3850076,31
3850708,22
3851336,25
3851960,38
3852588,33
3853212,39
3853836,39
3854468,18
3855088,28
3855716,29
3856340,27
3856964,13
3857592,10
3858216,15
3858844,16
3859476,16
3860096,18
3860724,17
3861348,11
3861980,11
3862612,16
3863232,22
3863860,17
3864488,13
3865108,23
3865740,12
3866360,27
3866988,36
3867612,38
3868236,37
3868868,30
3869488,19
3870116,10
3870748,10
3871368,14
3871996,16
3872624,17
3873252,17
3873884,14
3874504,13
3875132,17
3875760,16
3876384,17
3877012,17
3877632,13
3878264,11
3878888,13
3879512,13
3880144,11
3880760,11
3881392,11
3882020,11
3882640,22
3883268,24
3883896,21
3884524,17
3885156,19
3885776,27
3886408,17
3887032,13
3887656,11
3888288,11
3888904,12
3889532,18
3890160,21
3890784,16
3891416,17
3892040,20
3892668,19
3893296,17
3893920,18
3894548,11
3895172,12
3895804,15
3896436,13
3897056,11
3897684,13
3898308,11
3898932,20
3899564,20
3900184,19
3900812,24
3901440,27
3902064,17
3902696,27
3903320,32
3903952,15
3904584,11
3905200,24
3905828,27
3906456,27
3907080,17
3907708,15
3908328,27
3908956,16
3909584,19
3910208,26
3910840,28
3911456,19
3912088,20
3912716,21
3913336,11
3913968,11
3914592,12
3915220,18
3915852,35
3916472,45
3917104,33
3917728,16
3918352,22
3918984,29
3919600,18
3920232,14
3920856,25
3921480,19
3922112,20
3922728,19
3923356,16
3923988,10
3924608,12
3925236,23
3925864,21
3926492,17
3927124,16
3927744,13
3928376,14
3929000,11
3929624,11
3930252,10
3930872,11
3931504,13
3932128,18
3932756,22
3933384,20
3934008,18
3934636,21
3935268,18
3935888,13
3936520,10
3937140,9
3937720,9
3938292,9
3938868,13
3939500,16
3940120,13
3940748,11
3941372,13
3942000,16
3942632,17
3943252,17
3943884,20
3944512,12
3945132,11
3945760,11
3946384,13
3947012,13
3947644,11
3948264,11
3948892,11
3949516,14
3950140,28
3950772,25
3951392,21
3952024,16
3952652,14
3953272,15
3953900,16
3954528,11
3955156,10
3955788,10
3956408,11
3957036,10
3957664,10
3958288,14
3958916,16
3959536,22
3960168,21
3960792,15
3961416,27
3962048,32
3962664,31
3963296,19
3963924,10
3964544,12
3965176,14
3965800,16
3966428,21
3967060,20
3967680,19
3968312,17
3968936,21
3969560,21
3970188,15
3970808,14
3971436,10
3972060,14
3972688,10
3973316,12
3973936,14
3974564,12
3975196,16
3975816,18
3976444,16
3977068,17
3977700,15
3978328,14
3978952,11
3979580,10
3980208,13
3980832,12
3981460,15
3982080,19
3982708,24
3983336,20
3983960,19
3984592,23
3985208,18
3985836,15
3986468,11
3987088,17
3987720,33
3988344,23
3988972,15
3989604,13
3990224,15
3990856,11
3991480,15
3992104,13
3992736,16
3993356,16
3993988,16
3994612,10
3995236,11
3995864,15
3996488,11
3997116,30
3997748,24
3998368,23
3999000,36
3999624,42
4000256,29
4000884,22
4001504,24
4002132,23
4002756,17
4003380,17
4004008,11
4004632,13
4005260,32
4005884,36
4006512,17
4007140,11
4007764,21
4008396,34
4009024,50
4009640,33
4010272,17
4010896,23
4011524,27
4012152,22
4012776,28
4013408,22
4014032,21
4014656,35
4015284,40
4015904,38
4016532,27
4017164,19
4017784,19
4018412,18
4019036,18
4019668,14
4020296,12
4020920,16
4021548,20
4022172,18
4022796,27
4023428,34
4024048,39
4024676,29
4025300,15
4025924,21
4026552,22
4027176,28
4027804,28
4028436,17
4029056,16
4029684,13
4030308,10
4030940,11
4031572,10
4032192,18
4032820,16
4033444,20
4034068,27
4034700,30
4035320,23
4035948,11
4036572,11
4037196,10
4037828,13
4038448,13
4039076,11
4039708,12
4040328,29
4040956,20
4041580,17
4042212,17
4042844,21
4043464,20
4044096,13
4044720,11
4045344,11
4045972,12
4046592,13
4047220,11
4047844,17
4048468,22
4049100,18
4049720,17
4050348,17
4050980,26
4051600,31
4052228,27
4052852,14
4053484,10
4054116,21
4054736,19
4055368,25
4055988,22
4056616,12
4057244,10
4057864,14
4058492,23
4059116,17
4059744,17
4060372,18
4060996,21
4061628,11
4062256,13
4062880,11
4063508,11
4064136,16
4064764,15
4065396,18
4066016,29
4066644,26
4067268,19
4067892,17
4068524,16
4069144,12
4069772,10
4070400,10
4071024,10
4071656,11
4072280,10
4072908,13
4073540,14
4074160,20
4074792,21
4075416,14
4076040,19
4076668,21
4077288,16
4077916,13
4078544,20
4079168,30
4079800,14
4080420,11
4081048,11
4081676,17
4082296,25
4082928,32
4083552,25
4084180,17
4084812,18
4085432,21
4086064,17
4086688,19
4087312,12
4087944,9
4088508,10
4089140,10
4089768,18
4090392,16
4091024,14
4091640,20
4092272,18
4092900,17
4093524,16
4094156,14
4094776,12
4095408,12
4096040,20
4096660,16
4097288,20
4097908,40
4098536,29
4099164,14
4099784,15
4100412,15
4101032,19
4101656,25
4102284,28
4102904,20
4103532,11
4104156,17
4104776,31
4105404,36
4106024,37
4106652,24
4107280,11
4107896,21
4108524,17
4109148,23
4109776,22
4110404,26
4111024,35
4111652,47
4112276,25
4112900,11
4113532,10
4114152,12
4114780,17
4115404,18
4116028,24
4116656,25
4117272,16
4117904,17
4118528,14
4119152,11
4119780,10
4120404,11
4121032,13
4121660,10
4122276,10
4122908,12
4123528,15
4124156,11
4124788,15
4125408,18
4126036,22
4126660,18
4127284,18
4127916,27
4128536,25
4129164,13
4129788,12
4130416,15
4131044,11
4131668,21
4132296,15
4132928,14
4133544,15
4134172,25
4134796,39
4135428,44
4136056,26
4136672,11
4137304,9
4137876,16
4138504,19
4139132,19
4139752,17
4140380,12
4141004,12
4141628,15
4142260,27
4142880,33
4143508,25
4144140,14
4144760,19
4145388,25
4146012,22
4146640,12
4147272,15
4147888,15
4148516,19
4149140,17
4149764,17
4150396,14
4151016,22
4151644,37
4152272,33
4152896,12
4153524,10
4154144,10
4154772,10
4155404,10
4156024,16
4156652,13
4157276,13
4157908,21
4158540,15
4159160,17
4159788,16
4160416,16
4161036,11
4161664,11
4162288,12
4162916,10
4163536,13
4164160,28
4164788,39
4165408,38
4166036,30
4166668,20
4167288,16
4167916,16
4168540,16
4169168,13
4169796,9
4170364,12
4170996,16
4171620,20
4172252,23
4172880,17
4173496,15
4174124,21
4174748,30
4175372,24
4176000,17
4176616,29
4177248,25
4177872,22
4178496,11
4179124,10
4179744,12
4180372,17
4181004,14
4181624,24
4182252,30
4182876,32
4183504,28
4184136,18
4184752,17
4185380,17
4186004,10
4186628,12
4187260,10
4187880,21
4188508,28
4189132,15
4189756,10
4190384,11
4191008,14
4191636,15
4192268,16
4192888,17
4193516,16
4194140,20
4194768,23
4195400,15
4196016,12
4196648,10
4197272,11
4197896,11
4198524,14
4199144,18
4199772,23
4200396,23
4201016,23
4201648,18
4202264,12
4202892,12
4203516,16
4204140,14
4204768,15
4205392,11
4206020,13
4206652,10
4207272,25
4207900,28
4208524,18
4209156,17
4209784,21
4210404,21
4211032,11
4211656,15
4212280,15
4212908,16
4213528,22
4214156,22
4214780,22
4215408,13
4216036,12
4216660,23
4217292,36
4217920,36
4218544,33
4219172,29
4219796,22
4220424,14
4221052,14
4221672,23
4222300,19
4222924,19
4223548,22
4224180,17
4224796,27
4225428,26
4226056,22
4226672,25
4227304,16
4227924,13
4228556,14
4229184,26
4229808,44
4230436,44
4231060,29
4231684,15
4232316,11
4232936,19
4233564,20
4234192,17
4234816,25
4235444,24
4236064,13
4236692,22
4237324,18
4237944,11
4238572,15
4239200,11
4239828,10
4240460,10
4241080,13
4241708,15
4242332,17
4242956,16
4243584,16
4244208,11
4244836,11
4245460,10
4246084,10
4246712,10
4247336,17
4247964,28
4248596,24
4249216,20
4249844,20
4250468,15
4251096,16
4251728,15
4252344,11
4252976,10
4253600,17
4254224,15
4254852,11
4255472,17
4256104,17
4256724,12
4257348,15
4257980,14
4258600,14
4259228,17
4259860,16
4260480,15
4261108,10
4261732,11
4262360,14
4262988,13
4263608,22
4264236,29
4264860,27
4265484,28
4266112,25
4266728,15
4267360,17
4267984,16
4268608,17
4269236,20
4269856,15
4270484,13
4271116,22
4271736,30
4272364,26
4272988,19
4273620,16
4274248,12
4274864,15
4275496,23
4276120,24
4276744,20
4277372,14
4277992,12
4278620,12
4279244,11
4279868,10
4280500,17
4281120,16
4281748,11
4282380,28
4283000,41
4283628,44
4284252,33
4284884,16
4285512,12
4286132,10
4286760,11
4287384,10
4288008,10
4288636,10
4289256,11
4289884,11
4290508,10
4291132,15
4291764,14
4292384,16
4293012,17
4293644,21
4294264,21
4294892,16
4295516,17
4296148,11
4296780,12
4297400,11
4298028,14
4298656,20
4299280,19
4299908,14
4300528,19
4301160,18
4301780,16
4302404,10
4303036,10
4303656,11
4304284,11
4304916,9
4305484,15
4306116,32
4306736,29
4307364,11
4307996,17
4308616,30
4309244,20
4309868,17
4310500,13
4311128,10
4311752,11
4312384,16
4313008,12
4313632,16
4314260,22
4314880,16
4315508,15
4316136,19
4316760,18
4317388,20
4318008,21
4318636,37
4319268,30
4319888,17
4320520,11
4321144,13
4321772,19
4322400,24
4323024,24
4323652,11
4324276,12
4324900,19
4325532,20
4326152,25
4326784,28
4327404,15
4328028,12
4328656,12
4329280,15
4329912,27
4330540,11
4331160,38
4331792,56
4332416,49
4333044,42
4333676,37
4334296,34
4334924,23
4335548,11
4336176,10
4336804,10
4337424,11
4338052,15
4338676,27
4339304,29
4339932,29
4340556,26
4341188,29
4341820,16
4342440,17
4343068,17
4343692,17
4344324,12
4344952,11
4345568,15
4346200,20
4346824,17
4347448,11
4348076,42
4348696,68
4349328,60
4349956,44
4350576,36
4351208,29
4351832,26
4352464,20
4353092,14
4353712,11
4354340,13
4354964,12
4355588,14
4356220,12
4356840,12
4357468,26
4358092,42
4358716,34
4359348,19
4359968,18
4360596,22
4361228,16
4361848,11
4362476,11
4363100,12
4363732,11
4364360,19
4364980,23
4365608,13
4366232,17
4366856,23
4367484,26
4368104,26
4368732,21
4369356,13
4369980,10
4370608,10
4371232,15
4371860,12
4372492,14
4373112,17
4373740,14
4374368,16
4374996,15
4375628,19
4376248,20
4376876,16
4377504,10
4378128,11
4378756,10
4379376,11
4380004,11
4380628,13
4381256,16
4381884,18
4382504,24
4383136,27
4383764,27
4384384,26
4385012,24
4385636,19
4386268,11
4386896,12
4387516,18
4388144,20
4388768,19
4389396,19
4390024,23
4390644,23
4391272,22
4391900,13
4392524,17
4393152,16
4393776,13
4394404,26
4395036,18
4395656,11
4396288,21
4396912,39
4397540,38
4398172,30
4398792,38
4399424,46
4400048,35
4400672,23
4401300,15
4401920,16
4402548,11
4403176,16
4403800,24
4404428,15
4405048,10
4405676,14
4406308,10
4406928,11
4407556,13
4408180,15
4408812,20
4409440,16
4410064,17
4410692,12
4411320,11
4411944,11
4412572,12
4413192,13
4413824,16
4414448,15
4415072,22
4415704,21
4416328,24
4416956,25
4417588,28
4418208,33
4418836,20
4419460,13
4420092,25
4420724,22
4421344,15
4421972,17
4422600,23
4423224,20
4423852,13
4424472,19
4425100,23
4425724,26
4426352,27
4426980,23
4427604,11
4428236,15
4428864,16
4429488,23
4430116,14
4430740,12
4431368,17
4431996,27
4432616,39
4433244,30
4433868,34
4434496,28
4435124,18
4435744,17
4436372,15
4437004,15
4437624,12
4438252,25
4438880,36
4439508,57
4440140,67
4440760,51
4441392,19
4442016,49
4442640,76
4443268,66
4443888,48
4444520,32
4445144,16
4445764,10
4446396,10
4447016,10
4447648,11
4448276,16
4448896,19
4449524,22
4450148,15
4450780,16
4451412,16
4452032,13
4452660,12
4453288,20
4453912,11
4454544,11
4455160,15
4455788,15
4456416,19
4457040,20
4457668,20
4458288,17
4458916,18
4459548,19
4460168,21
4460796,11
4461424,13
4462056,23
4462684,25
4463304,11
4463936,17
4464560,21
4465184,14
4465812,16
4466432,26
4467060,25
4467688,20
4468312,17
4468940,11
4469560,11
4470192,25
4470820,27
4471440,19
4472072,10
4472696,9
4473276,10
4473912,11
4474532,23
4475164,27
4475788,24
4476420,17
4477052,12
4477672,15
4478304,15
4478928,10
4479552,11
4480184,11
4480800,11
4481428,12
4482056,14
4482680,22
4483308,18
4483932,17
4484564,19
4485192,16
4485808,12
4486440,14
4487064,10
4487684,13
4488316,14
4488936,14
4489564,10
4490188,22
4490816,24
4491444,22
4492064,16
4492692,18
4493324,16
4493944,11
4494576,13
4495200,27
4495828,32
4496460,28
4497080,19
4497708,12
4498336,23
4498960,29
4499588,39
4500208,41
4500836,38
4501464,26
4502088,18
4502716,20
4503336,16
4503968,11
4504600,19
4505216,26
4505848,15
4506472,11
4507100,17
4507732,24
4508352,19
4508980,17
4509604,26
4510228,24
4510860,15
4511480,13
4512108,12
4512732,12
4513356,10
4513988,10
4514608,11
4515236,20
4515868,25
4516488,17
4517116,16
4517740,17
4518372,16
4519004,12
4519624,11
4520252,14
4520876,12
4521500,10
4522132,13
4522752,16
4523384,19
4524008,16
4524632,23
4525260,16
4525880,18
4526508,16
4527140,12
4527760,13
4528388,37
4529012,32
4529644,18
4530272,10
4530896,11
4531524,11
4532148,13
4532776,42
4533404,60
4534024,59
4534652,49
4535276,31
4535904,17
4536536,11
4537160,15
4537788,26
4538420,27
4539040,20
4539668,13
4540296,20
4540924,15
4541556,14
4542176,17
4542808,16
4543432,17
4544056,16
4544684,10
4545304,20
4545932,31
4546556,14
4547184,12
4547816,27
4548440,31
4549068,31
4549700,28
4550320,19
4550952,15
4551576,17
4552200,32
4552828,30
4553448,19
4554080,12
4554704,17
4555328,19
4555960,12
4556576,16
4557208,28
4557840,31
4558456,29
4559088,18
4559712,17
4560344,15
4560972,10
4561592,13
4562224,13
4562848,11
4563472,21
4564100,24
4564720,26
4565348,23
4565976,22
4566600,18
4567228,16
4567848,17
4568476,28
4569108,31
4569728,29
4570356,20
4570980,11
4571612,26
4572244,28
4572864,25
4573492,24
4574120,22
4574744,17
4575376,19
4575992,23
4576624,22
4577248,12
4577872,17
4578504,22
4579120,28
4579752,37
4580384,35
4581000,26
4581632,14
4582256,12
4582888,21
4583516,20
4584136,24
4584768,19
4585392,20
4586016,19
4586648,10
4587264,14
4587896,25
4588520,19
4589144,13
4589772,10
4590392,11
4591024,16
4591652,15
4592272,21
4592900,22
4593524,20
4594156,13
4594788,10
4595408,11
4596036,11
4596660,11
4597284,12
4597916,10
4598536,19
4599164,29
4599792,24
4600416,15
4601044,16
4601668,26
4602300,30
4602932,18
4603552,12
4604184,11
4604808,18
4605436,27
4606068,30
4606688,17
4607320,15
4607944,16
4608568,20
4609196,22
4609816,23
4610444,11
4611068,15
4611692,11
4612320,12
4612944,12
4613572,10
4614204,12
4614824,24
4615452,36
4616076,52
4616708,50
4617336,34
4617956,34
4618584,26
4619208,14
4619832,10
4620460,19
4621080,21
4621708,16
4622332,10
4622960,13
4623588,15
4624212,18
4624844,20
4625472,22
4626092,18
4626720,18
4627344,14
4627972,11
4628604,10
4629224,11
4629852,12
4630476,17
4631100,27
4631732,20
4632352,15
4632980,17
4633612,14
4634232,32
4634860,49
4635484,34
4636116,13
4636748,14
4637368,15
4637996,11
4638624,14
4639248,19
4639876,25
4640496,23
4641128,17
4641748,18
4642372,17
4643004,16
4643624,16
4644252,11
4644884,14
4645504,14
4646132,26
4646760,44
4647388,42
4648016,38
4648640,33
4649268,30
4649892,27
4650516,17
4651148,19
4651768,16
4652396,13
4653024,12
4653648,12
4654276,14
4654896,14
4655524,11
4656156,12
4656776,12
4657404,15
4658032,15
4658660,20
4659292,16
4659912,21
4660540,20
4661164,23
4661788,15
4662420,16
4663040,18
4663668,11
4664292,25
4664920,41
4665548,37
4666168,25
4666796,24
4667428,30
4668048,27
4668676,17
4669304,14
4669936,13
4670564,12
4671184,11
4671816,21
4672440,21
4673064,14
4673692,22
4674312,23
4674940,17
4675564,16
4676188,17
4676820,11
4677444,11
4678072,11
4678704,12
4679324,12
4679952,22
4680576,26
4681208,27
4681836,26
4682456,25
4683084,23
4683712,25
4684336,18
4684964,22
4685584,22
4686212,12
4686836,25
4687464,35
4688092,34
4688716,29
4689348,23
4689976,12
4690600,15
4691228,17
4691852,22
4692484,27
4693112,31
4693732,13
4694364,21
4694988,33
4695612,32
4696244,27
4696864,31
4697496,27
4698124,26
4698744,32
4699376,38
4700000,39
4700632,16
4701260,21
4701880,12
4702512,13
4703136,12
4703760,17
4704392,22
4705012,11
4705640,10
4706264,17
4706892,12
4707520,16
4708144,20
4708776,24
4709408,16
4710028,15
4710660,22
4711284,21
4711912,24
4712544,11
4713160,27
4713788,22
4714412,29
4715036,31
4715668,21
4716288,14
4716920,18
4717544,27
4718168,23
4718796,23
4719416,14
4720048,10
4720676,10
4721296,11
4721924,15
4722548,21
4723180,11
4723812,10
4724432,19
4725064,16
4725688,16
4726312,18
4726944,15
4727560,14
4728192,11
4728816,15
4729440,18
4730072,17
4730696,12
4731328,16
4731956,28
4732576,28
4733208,15
4733832,18
4734464,27
4735092,27
4735712,23
4736344,11
4736968,22
4737592,12
4738224,13
4738840,14
4739468,10
4740096,10
4740720,15
4741352,18
4741976,17
4742604,16
4743236,16
4743856,11
4744488,11
4745112,11
4745736,11
4746368,10
4746984,11
4747616,16
4748240,22
4748864,32
4749492,28
4750112,27
4750744,25
4751372,20
4751992,12
4752624,11
4753248,11
4753876,13
4754508,14
4755128,15
4755760,19
4756384,17
4757008,19
4757636,22
4758256,20
4758888,21
4759512,16
4760136,12
4760768,16
4761384,13
4762016,14
4762648,15
4763264,12
4763896,28
4764520,43
4765148,44
4765780,44
4766400,37
4767028,30
4767656,20
4768280,14
4768908,16
4769528,20
4770156,17
4770784,10
4771408,15
4772040,19
4772656,26
4773288,29
4773916,22
4774536,15
4775164,21
4775792,17
4776420,17
4777052,18
4777672,27
4778300,15
4778928,11
4779552,10
4780184,10
4780800,13
4781432,21
4782056,31
4782684,31
4783312,33
4783936,36
4784568,30
4785200,19
4785820,10
4786452,13
4787076,22
4787708,29
4788340,12
4788960,10
4789592,19
4790216,27
4790840,20
4791472,17
4792092,15
4792724,17
4793356,12
4793976,13
4794608,19
4795232,28
4795864,28
4796492,21
4797112,29
4797744,35
4798372,27
4798996,23
4799628,32
4800248,31
4800880,23
4801500,16
4802124,11
4802756,10
4803376,13
4804004,19
4804636,24
4805256,22
4805884,18
4806508,11
4807140,14
4807768,15
4808392,16
4809020,17
4809644,16
4810268,11
4810900,10
4811520,11
4812148,12
4812776,16
4813400,15
4814032,18
4814648,20
4815276,18
4815908,16
4816528,15
4817156,16
4817780,16
4818412,13
4819040,10
4819664,10
4820292,11
4820920,13
4821544,19
4822172,16
4822792,15
4823424,15
4824048,18
4824672,14
4825300,17
4825924,19
4826556,15
4827188,10
4827808,11
4828440,12
4829064,10
4829692,12
4830324,12
4830944,15
4831576,11
4832200,18
4832824,27
4833452,22
4834072,17
4834700,20
4835328,11
4835952,13
4836580,29
4837208,61
4837836,59
4838468,57
4839088,20
4839716,16
4840340,34
4840968,56
4841596,62
4842216,57
4842848,46
4843472,25
4844096,27
4844724,43
4845344,58
4845976,49
4846604,37
4847224,27
4847856,24
4848480,22
4849108,20
4849740,14
4850360,18
4850992,17
4851616,12
4852240,11
4852868,10
4853488,10
4854120,10
4854744,11
4855368,22
4856000,19
4856616,14
4857248,20
4857876,21
4858496,23
4859128,22
4859752,21
4860384,13
4861016,10
4861632,13
4862264,22
4862888,23
4863512,20
4864144,18
4864760,20
4865392,20
4866016,20
4866640,18
4867268,16
4867888,18
4868516,11
4869148,10
4869768,12
4870396,13
4871024,15
4871656,15
4872284,17
4872904,13
4873536,10
4874160,17
4874784,17
4875416,17
4876032,17
4876660,11
4877288,11
4877912,11
4878540,11
4879160,18
4879792,20
4880420,12
4881040,11
4881668,22
4882292,28
4882924,23
4883556,18
4884176,16
4884804,16
4885428,14
4886052,14
4886684,18
4887304,22
4887936,29
4888560,30
4889184,21
4889816,27
4890440,29
4891068,18
4891700,16
4892320,32
4892952,35
4893576,33
4894208,16
4894836,49
4895456,27
4896088,12
4896708,41
4897332,34
4897964,38
4898584,55
4899212,69
4899840,65
4900464,30
4901096,15
4901720,12
4902352,16
4902984,19
4903600,25
4904232,26
4904860,25
4905484,18
4906116,10
4906736,18
4907368,28
4907992,26
4908616,21
4909248,16
4909872,12
4910504,11
4911136,11
4911756,11
4912388,11
4913012,11
4913644,17
4914276,23
4914896,24
4915528,26
4916152,19
4916776,18
4917404,16
4918024,16
4918652,10
4919276,10
4919900,10
4920532,12
4921152,15
4921784,17
4922412,15
4923032,12
4923660,15
4924284,19
4924916,17
4925544,17
4926168,16
4926796,11
4927420,11
4928044,11
4928672,11
4929296,12
4929924,12
4930548,16
4931172,17
4931800,21
4932424,24
4933056,18
4933684,16
4934304,19
4934936,15
4935560,11
4936188,11
4936820,10
4937440,13
4938068,13
4938692,13
4939316,12
4939948,14
4940568,20
4941200,15
4941820,16
4942448,17
4943076,15
4943700,11
4944332,10
4944960,10
4945584,11
4946212,11
4946840,12
4947464,11
4948092,11
4948712,26
4949344,34
4949968,31
4950592,20
4951220,18
4951840,17
4952472,11
4953100,22
4953720,31
4954348,29
4954976,19
4955604,12
4956236,26
4956856,12
4957484,17
4958108,15
4958732,15
4959364,16
4959984,13
4960616,11
4961240,12
4961864,22
4962492,37
4963112,39
4963744,27
4964372,20
4964992,28
4965620,28
4966248,32
4966876,40
4967508,46
4968128,44
4968756,31
4969380,21
4970004,10
4970636,16
4971256,18
4971884,16
4972508,11
4973132,11
4973764,15
4974384,19
4975016,17
4975644,16
4976264,18
4976892,12
4977516,12
4978148,17
4978780,23
4979400,27
4980028,12
4980652,24
4981276,26
4981908,32
4982528,30
4983156,30
4983784,25
4984408,19
4985036,10
4985656,11
4986284,12
4986916,14
4987536,16
4988164,19
4988788,23
4989420,18
4990052,12
4990672,15
4991304,19
4991928,19
4992556,18
4993184,13
4993808,13
4994436,13
4995064,14
4995688,15
4996316,12
4996944,11
4997572,11
4998204,13
4998824,15
4999452,16
5000076,20
5000708,22
5001336,19
5001960,14
5002588,10
5003212,14
5003836,19
5004468,20
5005088,17
5005716,21
5006348,25
5006968,25
5007600,17
5008224,16
5008852,18
5009484,18
5010104,17
5010732,12
5011360,14
5011984,11
5012616,13
5013232,19
5013864,23
5014488,13
5015112,33
5015744,31
5016364,34
5016992,47
5017624,39
5018244,34
5018872,23
5019496,11
5020128,24
5020756,10
5021376,13
5022008,19
5022632,23
5023256,20
5023888,16
5024504,24
5025136,21
5025760,22
5026384,23
5027016,14
5027636,16
5028264,16
5028896,12
5029516,10
5030144,15
5030772,17
5031400,13
5032032,19
5032652,14
5033280,20
5033908,22
5034532,27
5035164,34
5035784,31
5036416,22
5037044,12
5037668,10
5038300,10
5038924,10
5039556,11
5040188,11
5040808,18
5041436,17
5042064,21
5042692,26
5043324,11
5043944,11
5044572,15
5045200,13
5045824,13
5046452,24
5047072,25
5047704,21
5048332,16
5048952,17
5049584,20
5050208,24
5050840,17
5051468,11
5052088,17
5052720,12
5053344,11
5053968,10
5054600,15
5055220,11
5055852,10
5056480,13
5057104,21
5057732,17
5058352,17
5058984,20
5059616,16
5060232,11
5060864,11
5061488,14
5062120,16
5062748,17
5063368,42
5064000,28
5064624,11
5065248,17
5065880,23
5066500,22
5067128,19
5067756,19
5068380,15
5069012,15
5069640,12
5070268,11
5070900,22
5071520,20
5072152,11
5072776,13
5073408,11
5074040,18
5074656,17
5075288,16
5075912,19
5076536,13
5077168,11
5077788,11
5078420,12
5079052,10
5079672,11
5080304,12
5080928,15
5081560,13
5082188,21
5082808,28
5083440,27
5084064,22
5084688,13
5085320,10
5085936,13
5086568,14
5087192,13
5087816,16
5088448,10
5089072,11
5089704,12
5090332,17
5090952,14
5091584,16
5092208,16
5092840,17
5093468,11
5094088,10
5094720,11
5095344,11
5095968,11
5096600,12
5097220,19
5097852,26
5098476,21
5099100,16
5099732,16
5100360,18
5100992,17
5101620,11
5102240,10
5102872,13
5103496,19
5104128,19
5104760,12
5105376,13
5106008,20
5106636,16
5107260,16
5107892,14
5108512,17
5109144,18
5109776,13
5110396,11
5111028,12
5111656,12
5112288,11
5112920,10
5113540,16
5114172,25
5114800,25
5115424,24
5116060,20
5116684,19
5117316,15
5117940,13
5118568,12
5119200,11
5119828,13
5120460,12
5121088,10
5121704,12
5122332,14
5122956,19
5123584,21
5124212,18
5124832,17
5125460,15
5126080,17
5126704,12
5127332,12
5127952,13
5128580,25
5129204,15
5129828,12
5130456,27
5131080,40
5131708,41
5132336,31
5132960,26
5133588,19
5134212,16
5134840,14
5135472,25
5136088,25
5136716,11
5137340,17
5137964,18
5138592,13
5139216,16
5139844,13
5140468,18
5141092,17
5141720,17
5142348,16
5142976,11
5143604,10
5144224,13
5144852,11
5145476,13
5146108,20
5146736,30
5147360,22
5147988,12
5148612,29
5149236,40
5149868,32
5150488,25
5151116,20
5151744,26
5152368,33
5152996,26
5153620,12
5154252,11
5154880,13
5155496,15
5156128,11
5156752,15
5157380,21
5158012,19
5158632,20
5159260,18
5159884,13
5160512,17
5161140,26
5161760,13
5162388,11
5163020,10
5163640,16
5164268,33
5164892,42
5165524,35
5166152,24
5166768,16
5167400,18
5168024,22
5168648,14
5169276,11
5169896,10
5170524,19
5171152,21
5171776,35
5172404,16
5173024,11
5173652,17
5174284,18
5174904,23
5175532,24
5176160,16
5176788,21
5177420,25
5178040,23
5178668,20
5179292,13
5179916,11
5180548,10
5181168,11
5181800,16
5182420,14
5183044,18
5183676,22
5184296,22
5184924,14
5185556,15
5186176,11
5186804,13
5187428,13
5188060,11
5188688,11
5189312,14
5189940,16
5190568,19
5191192,22
5191820,25
5192440,20
5193068,11
5193692,12
5194316,14
5194948,15
5195568,12
5196200,12
5196828,10
5197448,15
5198076,20
5198700,19
5199332,23
5199964,27
5200584,31
5201216,21
5201840,17
5202464,11
5203092,12
5203712,13
5204340,19
5204964,23
5205588,25
5206220,12
5206840,19
5207468,21
5208100,23
5208720,18
5209348,16
5209976,19
5210604,20
5211236,11
5211856,17
5212488,11
5213112,10
5213736,13
5214364,18
5214984,15
5215616,15
5216240,16
5216864,19
5217492,19
5218116,13
5218748,12
5219380,10
5220000,13
5220628,11
5221256,12
5221884,10
5222516,11
5223136,13
5223764,17
5224388,18
5225012,15
5225644,16
5226264,14
5226892,10
5227516,12
5228144,18
5228776,24
5229400,26
5230028,19
5230660,11
5231280,13
5231912,15
5232536,21
5233160,23
5233792,19
5234408,18
5235040,14
5235664,12
5236288,12
5236916,17
5237536,28
5238168,35
5238796,31
5239416,20
5240048,15
5240672,15
5241300,19
5241932,22
5242552,23
5243184,17
5243808,11
5244432,15
5245060,26
5245680,33
5246308,48
5246932,41
5247556,31
5248188,23
5248804,17
5249432,20
5250060,17
5250680,16
5251308,17
5251932,14
5252560,12
5253188,10
5253808,24
5254436,28
5255056,17
5255684,11
5256312,12
5256936,15
5257564,14
5258188,17
5258812,19
5259444,14
5260064,11
5260692,13
5261324,12
5261944,14
5262572,37
5263196,27
5263828,11
5264456,24
5265080,37
5265708,31
5266332,31
5266956,25
5267584,20
5268200,17
5268832,24
5269456,10
5270076,11
5270708,11
5271328,16
5271956,15
5272588,14
5273208,25
5273836,19
5274460,19
5275092,29
5275720,27
5276336,15
5276968,11
5277592,11
5278216,11
5278844,10
5279464,11
5280092,12
5280716,11
5281340,23
5281968,32
5282584,35
5283212,29
5283836,17
5284464,12
5285092,14
5285716,17
5286344,11
5286976,16
5287592,15
5288220,16
5288844,14
5289472,10
5290104,14
5290720,19
5291348,23
5291972,27
5292596,30
5293228,18
5293848,11
5294476,13
5295100,28
5295728,41
5296356,41
5296980,27
5297612,18
5298240,19
5298856,16
5299488,16
5300112,18
5300740,16
5301372,10
5301992,13
5302620,11
5303244,10
5303868,11
5304500,12
5305120,13
5305748,15
5306380,12
5307000,16
5307628,15
5308252,17
5308884,16
5309512,11
5310132,12
5310760,12
5311388,11
5312012,19
5312640,14
5313256,14
5313888,12
5314512,24
5315136,41
5315764,35
5316384,18
5317012,20
5317644,30
5318264,27
5318896,13
5319520,21
5320148,35
5320780,32
5321400,16
5322028,10
5322656,11
5323280,15
5323908,18
5324528,17
5325160,17
5325780,23
5326404,11
5327032,10
5327648,12
5328280,15
5328908,10
5329528,13
5330156,26
5330780,30
5331408,27
5332036,28
5332656,33
5333284,26
5333908,19
5334536,12
5335164,14
5335784,16
5336412,11
5337036,10
5337660,14
5338288,19
5338904,29
5339536,29
5340164,24
5340784,19
5341412,18
5342036,19
5342668,19
5343296,11
5343920,12
5344552,11
5345176,17
5345800,22
5346428,22
5347048,24
5347676,26
5348300,22
5348924,18
5349556,24
5350176,17
5350808,17
5351436,22
5352056,31
5352684,11
5353308,15
5353940,10
5354568,10
5355188,12
5355816,10
5356440,16
5357068,19
5357696,17
5358316,17
5358944,18
5359568,13
5360192,14
5360824,13
5361440,13
5362068,10
5362700,10
5363320,17
5363948,15
5364572,14
5365204,15
5365832,15
5366456,23
5367084,26
5367708,18
5368332,11
5368960,10
5369584,17
5370216,21
5370840,23
5371464,20
5372092,26
5372712,34
5373344,48
5373972,38
5374592,32
5375224,25
5375848,32
5376480,61
5377108,56
5377728,44
5378356,35
5378980,29
5379604,39
5380232,42
5380848,31
5381480,23
5382104,16
5382728,18
5383356,19
5383976,18
5384604,12
5385236,12
5385856,13
5386484,12
5387108,15
5387740,10
5388368,11
5388984,17
5389616,24
5390240,19
5390860,16
5391492,22
5392112,23
5392740,13
5393364,20
5393988,25
5394620,15
5395240,17
5395868,33
5396500,22
5397120,18
5397748,24
5398372,31
5399004,26
5399636,18
5400256,16
5400884,15
5401508,11
5402136,11
5402764,14
5403384,14
5404012,13
5404636,12
5405264,10
5405892,12
5406512,17
5407144,20
5407772,16
5408392,21
5409020,21
5409644,13
5410272,12
5410904,15
5411520,19
5412148,17
5412772,12
5413396,16
5414028,14
5414648,12
5415276,16
5415900,20
5416524,19
5417156,17
5417776,14
5418404,12
5419036,10
5419656,15
5420284,19
5420908,11
5421540,11
5422172,10
5422792,12
5423420,15
5424048,15
5424672,17
5425300,17
5425920,14
5426548,11
5427176,10
5427800,11
5428428,11
5429048,11
5429676,10
5430308,12
5430928,16
5431556,29
5432184,28
5432812,25
5433444,22
5434064,23
5434692,16
5435320,11
5435944,10
5436572,13
5437192,14
5437824,13
5438448,15
5439072,14
5439700,12
5440328,15
5440956,15
5441584,16
5442208,16
5442836,11
5443460,14
5444088,25
5444720,28
5445336,30
5445964,12
5446588,26
5447212,45
5447844,61
5448464,50
5449092,38
5449716,24
5450340,23
5450968,20
5451592,14
5452220,10
5452852,12
5453472,13
5454100,12
5454724,10
5455352,15
5455984,16
5456600,19
5457232,17
5457856,17
5458480,17
5459108,22
5459728,11
5460356,16
5460980,20
5461604,19
5462236,18
5462860,15
5463492,14
5464120,21
5464744,31
5465376,28
5466000,22
5466628,18
5467260,16
5467880,12
5468508,12
5469132,13
5469756,11
5470388,10
5471008,17
5471640,14
5472268,16
5472888,23
5473516,23
5474140,35
5474772,41
5475404,28
5476024,22
5476652,42
5477276,32
5477904,16
5478532,14
5479152,24
5479780,23
5480408,20
5481028,24
5481660,27
5482280,35
5482908,33
5483540,24
5484160,18
5484788,14
5485416,10
5486044,10
5486676,16
5487296,19
5487928,13
5488552,17
5489176,18
5489804,19
5490424,15
5491052,21
5491676,20
5492304,17
5492932,22
5493552,20
5494184,17
5494812,14
5495432,19
5496064,11
5496688,14
5497316,16
5497948,24
5498568,20
5499196,21
5499824,33
5500448,41
5501080,45
5501696,33
5502328,23
5502952,26
5503576,13
5504208,10
5504824,12
5505452,13
5506084,12
5506704,20
5507332,29
5507956,20
5508588,17
5509220,25
5509840,23
5510468,19
5511092,17
5511716,16
5512348,10
5512968,11
5513596,11
5514224,13
5514848,23
5515480,23
5516104,17
5516736,18
5517364,15
5517984,11
5518616,11
5519240,11
5519872,11
5520500,13
5521120,13
5521748,12
5522376,13
5523000,12
5523632,16
5524248,16
5524880,20
5525508,19
5526128,12
5526760,13
5527384,12
5528016,11
5528644,12
5529264,19
5529896,20
5530520,20
5531140,17
5531772,16
5532392,15
5533020,16
5533644,17
5534268,14
5534900,14
5535520,17
5536152,21
5536780,12
5537400,15
5538028,21
5538652,22
5539284,14
5539912,18
5540536,16
5541164,17
5541788,25
5542416,19
5543044,10
5543664,11
5544296,11
5544920,12
5545544,13
5546176,16
5546792,14
5547424,17
5548052,22
5548672,24
5549304,27
5549928,27
5550560,30
5551188,25
5551808,12
5552440,15
5553064,35
5553688,40
5554320,26
5554936,20
5555568,14
5556192,12
5556816,16
5557444,15
5558064,17
5558696,19
5559324,21
5559944,17
5560576,12
5561200,23
5561832,27
5562460,19
5563080,21
5563712,14
5564336,13
5564960,33
5565592,21
5566208,22
5566840,28
5567468,33
5568092,28
5568720,13
5569344,12
5569976,11
5570604,10
5571224,11
5571852,11
5572476,10
5573108,17
5573736,20
5574360,19
5574992,17
5575616,17
5576240,12
5576868,11
5577488,20
5578120,18
5578744,11
5579368,11
5580000,11
5580624,18
5581252,29
5581884,28
5582504,34
5583132,35
5583760,27
5584388,19
5585020,11
5585640,13
5586268,22
5586892,15
5587516,12
5588148,12
5588768,13
5589400,11
5590028,17
5590648,15
5591280,16
5591904,16
5592532,14
5593164,15
5593784,11
5594412,11
5595040,11
5595664,12
5596296,21
5596912,19
5597544,11
5598168,17
5598792,16
5599424,24
5600044,27
5600672,22
5601300,16
5601920,21
5602548,21
5603172,18
5603804,13
5604436,10
5605056,11
5605684,19
5606312,24
5606936,17
5607564,16
5608184,22
5608812,23
5609436,13
5610060,11
5610692,10
5611312,11
5611944,13
5612572,10
5613192,14
5613820,12
5614448,12
5615076,18
5615708,18
5616328,17
5616956,18
5617580,13
5618208,18
5618836,16
5619456,17
5620084,11
5620708,14
5621336,11
5621964,11
5622584,11
5623212,15
5623844,18
5624464,21
5625092,18
5625720,14
5626348,15
5626980,28
5627600,25
5628228,13
5628856,41
5629480,48
5630112,39
5630728,21
5631360,23
5631984,27
5632612,23
5633240,17
5633864,17
5634492,10
5635120,12
5635744,14
5636372,11
5636996,9
5637576,10
5638204,13
5638824,16
5639452,16
5640076,17
5640708,15
5641336,16
5641956,16
5642584,11
5643208,11
5643832,11
5644460,12
5645080,15
5645708,12
5646332,10
5646960,20
5647588,24
5648212,32
5648844,33
5649472,28
5650096,19
5650724,13
5651348,11
5651976,11
5652604,10
5653224,11
5653852,15
5654476,15
5655100,22
5655732,19
5656352,17
5656980,15
5657612,16
5658232,17
5658860,16
5659484,11
5660116,11
5660744,10
5661368,13
5661996,23
5662624,19
5663248,12
5663876,13
5664496,16
5665124,18
5665748,18
5666372,20
5667004,19
5667624,18
5668252,11
5668884,10
5669504,15
5670136,15
5670760,11
5671388,12
5672020,17
5672640,20
5673268,32
5673896,33
5674520,21
5675148,18
5675768,22
5676396,22
5677024,14
5677648,31
5678280,28
5678896,24
5679524,13
5680156,10
5680776,11
5681404,15
5682032,19
5682660,20
5683292,18
5683912,24
5684540,34
5685164,29
5685788,12
5686420,21
5687040,14
5687668,14
5688292,12
5688920,14
5689548,14
5690168,17
5690800,25
5691428,18
5692048,18
5692680,15
5693304,13
5693936,13
5694564,10
5695184,11
5695816,11
5696440,18
5697064,32
5697692,34
5698312,24
5698944,20
5699568,27
5700188,37
5700820,30
5701444,17
5702076,10
5702708,16
5703328,22
5703960,20
5704584,15
5705212,11
5705844,16
5706464,22
5707092,27
5707720,29
5708344,18
5708976,13
5709592,15
5710224,11
5710852,13
5711472,13
5712104,16
5712728,11
5713356,17
5713988,24
5714608,19
5715236,14
5715864,17
5716488,16
5717116,16
5717736,29
5718368,31
5718996,34
5719620,19
5720252,17
5720872,11
5721504,23
5722136,29
5722752,38
5723384,34
5724012,31
5724640,20
5725272,17
5725892,11
5726524,12
5727148,11
5727776,19
5728408,16
5729024,16
5729656,16
5730280,15
5730904,22
5731536,26
5732156,24
5732788,19
5733420,16
5734040,11
5734676,10
5735296,10
5735928,11
5736556,10
5737176,11
5737804,10
5738428,11
5739052,11
5739684,18
5740304,27
5740932,26
5741556,21
5742184,17
5742812,11
5743436,19
5744068,28
5744696,25
5745316,20
5745944,15
5746568,14
5747196,22
5747828,18
5748448,16
5749076,15
5749704,21
5750328,23
5750960,23
5751576,22
5752208,11
5752840,18
5753456,16
5754088,11
5754712,10
5755344,11
5755972,12
5756592,28
5757224,41
5757848,45
5758472,26
5759104,12
5759720,23
5760352,25
5760976,25
5761596,19
5762228,14
5762848,17
5763476,14
5764108,18
5764728,21
5765356,19
5765980,34
5766612,31
5767240,22
5767856,23
5768484,10
5769108,14
5769736,11
5770364,16
5770984,19
5771612,11
5772236,19
5772860,27
5773492,22
5774112,21
5774740,21
5775372,32
5775992,25
5776620,17
5777244,19
5777876,11
5778504,21
5779128,40
5779760,46
5780380,33
5781008,28
5781636,21
5782256,20
5782884,21
5783512,18
5784136,14
5784764,27
5785384,24
5786016,11
5786644,10
5787264,11
5787892,13
5788516,26
5789148,20
5789776,16
5790396,14
5791024,17
5791652,25
5792276,19
5792904,14
5793528,14
5794156,13
5794784,25
5795408,34
5796036,40
5796656,34
5797284,33
5797916,22
5798536,15
5799164,16
5799788,16
5800420,15
5801052,10
5801672,12
5802300,10
5802924,14
5803548,17
5804180,18
5804800,41
5805428,32
5806056,16
5806680,17
5807308,16
5807928,17
5808560,19
5809188,23
5809808,20
5810436,20
5811064,25
5811696,27
5812324,14
5812944,13
5813572,13
5814200,17
5814824,28
5815456,26
5816072,19
5816704,21
5817328,16
5817952,12
5818580,10
5819204,11
5819836,17
5820468,12
5821088,10
5821720,18
5822344,13
5822972,19
5823604,24
5824224,23
5824852,23
5825476,16
5826100,13
5826732,14
5827352,15
5827980,11
5828608,10
5829232,11
5829860,10
5830488,14
5831116,17
5831748,14
5832368,17
5832996,17
5833624,17
5834248,18
5834876,20
5835496,23
5836128,23
5836752,15
5837376,10
5838008,11
5838628,16
5839256,21
5839888,16
5840504,22
5841132,41
5841756,47
5842388,21
5843020,13
5843640,25
5844268,31
5844892,28
5845516,25
5846148,19
5846768,20
5847396,21
5848024,17
5848648,17
5849276,16
5849896,26
5850524,31
5851156,25
5851776,15
5852408,10
5853032,10
5853660,13
5854292,10
5854912,14
5855544,20
5856168,20
5856792,20
5857424,19
5858040,17
5858668,17
5859292,12
5859916,12
5860548,10
5861168,11
5861800,11
5862428,19
5863048,15
5863676,19
5864300,26
5864932,26
5865564,35
5866184,30
5866816,24
5867440,19
5868064,15
5868692,16
5869312,14
5869944,10
5870568,11
5871192,18
5871824,13
5872444,12
5873076,26
5873704,24
5874328,19
5874960,16
5875584,12
5876216,11
5876844,11
5877464,11
5878096,13
5878720,14
5879344,11
5879976,12
5880596,21
5881228,29
5881852,18
5882480,17
5883112,16
5883736,21
5884368,37
5885000,30
5885616,16
5886248,14
5886872,18
5887496,29
5888128,47
5888752,43
5889380,37
5890004,17
5890628,23
5891260,26
5891880,32
5892508,26
5893140,14
5893760,15
5894388,11
5895016,17
5895648,28
5896280,38
5896896,40
5897528,31
5898152,26
5898776,23
5899404,18
5900024,16
5900652,15
5901276,15
5901900,11
5902532,9
5903100,15
5903736,21
5904360,19
5904984,12
5905612,12
5906232,16
5906864,13
5907492,19
5908112,19
5908744,13
5909368,16
5909996,12
5910628,12
5911248,16
5911876,12
5912504,13
5913128,27
5913760,36
5914376,31
5915008,23
5915632,21
5916256,21
5916888,16
5917512,11
5918140,10
5918772,15
5919392,21
5920024,12
5920644,12
5921276,11
5921904,13
5922528,12
5923156,24
5923784,22
5924408,21
5925036,20
5925656,12
5926288,11
5926916,15
5927536,19
5928168,16
5928788,11
5929420,11
5930052,22
5930672,32
5931304,29
5931928,21
5932552,20
5933184,21
5933800,18
5934432,16
5935056,11
5935680,12
5936312,10
5936928,13
5937560,23
5938192,15
5938812,11
5939444,23
5940064,31
5940696,29
5941324,22
5941944,18
5942572,22
5943196,29
5943820,18
5944452,26
5945072,25
5945700,23
5946324,23
5946948,26
5947580,26
5948200,25
5948828,21
5949460,22
5950080,24
5950708,16
5951336,15
5951968,12
5952600,23
5953216,25
5953844,19
5954468,12
5955092,10
5955724,10
5956344,19
5956972,24
5957600,23
5958224,17
5958856,12
5959472,10
5960104,12
5960732,21
5961352,16
5961984,11
5962608,27
5963236,26
5963868,12
5964488,15
5965120,16
5965740,15
5966368,27
5966996,35
5967616,27
5968248,13
5968872,12
5969496,11
5970124,11
5970744,17
5971376,16
5972004,16
5972624,19
5973256,17
5973880,16
5974512,17
5975140,26
5975760,28
5976392,18
5977016,12
5977640,22
5978268,24
5978888,13
5979520,18
5980144,29
5980768,19
5981400,19
5982024,15
5982656,16
5983284,15
5983904,11
5984536,15
5985160,20
5985792,31
5986420,21
5987040,16
5987672,12
5988296,17
5988920,15
5989552,15
5990172,18
5990804,31
5991432,30
5992052,26
5992680,21
5993304,20
5993936,18
5994564,11
5995184,11
5995816,11
5996440,11
5997064,13
5997696,17
5998312,18
5998944,20
5999568,19
6000192,19
6000820,17
6001440,17
6002068,12
6002700,12
6003320,20
6003948,26
6004572,34
6005204,35
6005836,27
6006456,22
6007084,21
6007712,19
6008336,20
6008964,35
6009584,27
6010216,16
6010840,13
6011464,11
6012096,11
6012712,11
6013344,12
6013976,29
6014596,29
6015228,19
6015852,20
6016488,21
6017116,14
6017736,34
6018368,35
6018992,20
6019616,11
6020248,13
6020864,12
6021496,15
6022120,19
6022744,20
6023372,14
6023992,17
6024624,17
6025252,17
6025872,12
6026504,13
6027128,16
6027760,16
6028388,10
6029008,14
6029636,23
6030264,28
6030888,42
6031520,27
6032136,21
6032768,23
6033392,25
6034016,21
6034648,16
6035272,14
6035900,9
6036476,16
6037108,19
6037740,24
6038364,24
6038996,25
6039628,36
6040248,40
6040880,24
6041504,18
6042128,25
6042760,28
6043380,29
6044008,22
6044632,12
6045256,12
6045888,11
6046504,10
6047136,14
6047768,18
6048384,20
6049016,25
6049640,26
6050268,17
6050900,20
6051520,24
6052152,22
6052776,13
6053400,11
6054032,11
6054652,12
6055280,17
6055904,21
6056528,15
6057160,16
6057776,18
6058408,17
6059040,12
6059656,21
6060288,27
6060912,15
6061544,12
6062176,17
6062792,11
6063424,12
6064048,11
6064672,19
6065300,19
6065920,27
6066552,37
6067176,35
6067800,15
6068432,10
6069052,10
6069684,10
6070312,17
6070932,15
6071564,11
6072192,19
6072820,25
6073452,22
6074072,16
6074704,17
6075328,16
6075956,13
6076588,10
6077208,16
6077840,12
6078472,15
6079092,27
6079724,37
6080348,34
6080976,27
6081608,19
6082224,15
6082856,18
6083480,16
6084104,13
6084732,10
6085352,13
6085984,10
6086608,11
6087232,19
6087860,18
6088480,19
6089108,17
6089740,16
6090360,17
6090992,21
6091616,20
6092248,17
6092876,20
6093496,14
6094124,11
6094752,10
6095376,13
6096004,16
6096624,29
6097256,34
6097880,29
6098504,21
6099136,19
6099752,19
6100384,11
6101016,16
6101632,12
6102264,21
6102892,26
6103524,15
6104152,10
6104776,10
6105408,13
6106032,21
6106656,21
6107288,22
6107904,21
6108536,23
6109160,17
6109788,10
6110420,10
6111044,12
6111676,16
6112308,10
6112928,21
6113560,23
6114184,25
6114816,47
6115444,57
6116064,42
6116696,32
6117320,23
6117948,15
6118580,10
6119200,10
6119832,11
6120464,10
6121080,17
6121712,14
6122336,13
6122968,19
6123600,20
6124216,19
6124848,17
6125472,11
6126096,13
6126728,18
6127344,17
6127976,16
6128604,19
6129228,15
6129860,14
6130480,35
6131112,45
6131748,45
6132368,33
6133000,33
6133628,23
6134260,11
6134892,30
6135512,25
6136144,13
6136772,22
6137396,21
6138032,11
6138652,12
6139284,16
6139916,14
6140540,16
6141172,17
6141796,17
6142428,12
6143060,10
6143684,15
6144316,20
6144940,19
6145560,15
6146192,17
6146808,23
6147440,15
6148064,16
6148684,19
6149316,20
6149936,16
6150564,12
6151196,10
6151816,11
6152444,11
6153068,10
6153700,11
6154328,13
6154952,15
6155580,13
6156208,17
6156832,15
6157460,18
6158080,17
6158708,11
6159336,11
6159960,12
6160592,15
6161208,25
6161836,10
6162468,10
6163088,15
6163720,33
6164344,32
6164972,22
6165604,25
6166224,24
6166852,16
6167476,13
6168104,11
6168732,20
6169352,21
6169984,15
6170608,10
6171232,10
6171860,10
6172484,14
6173116,15
6173744,19
6174368,18
6175000,16
6175624,11
6176256,11
6176884,16
6177504,24
6178132,11
6178760,11
6179384,17
6180012,26
6180632,30
6181264,36
6181892,32
6182512,20
6183140,17
6183768,13
6184396,11
6185028,16
6185648,26
6186276,24
6186900,15
6187528,11
6188156,17
6188776,13
6189408,16
6190032,15
6190656,17
6191288,17
6191904,13
6192536,12
6193168,10
6193788,11
6194416,10
6195044,11
6195676,18
6196304,33
6196924,43
6197556,28
6198180,19
6198804,17
6199436,20
6200056,18
6200684,13
6201312,14
6201936,12
6202564,10
6203184,12
6203816,11
6204448,10
6205064,14
6205696,15
6206320,17
6206952,20
6207580,19
6208200,17
6208832,17
6209456,12
6210080,11
6210708,10
6211328,11
6211956,12
6212584,16
6213208,27
6213836,33
6214456,21
6215088,16
6215720,16
6216336,17
6216964,11
6217592,10
6218220,10
6218852,10
6219472,15
6220104,18
6220728,11
6221352,10
6221984,11
6222604,15
6223236,14
6223860,17
6224488,19
6225116,26
6225744,27
6226376,26
6227004,14
6227624,11
6228252,14
6228880,15
6229508,23
6230140,46
6230760,39
6231392,23
6232016,17
6232640,20
6233272,16
6233888,10
6234520,12
6235152,13
6235768,20
6236400,19
6237024,15
6237656,11
6238284,10
6238904,12
6239536,18
6240160,22
6240784,21
6241412,17
6242032,11
6242660,11
6243288,12
6243912,12
6244540,11
6245160,13
6245792,17
6246420,23
6247040,23
6247668,21
6248292,17
6248924,18
6249552,20
6250172,15
6250800,11
6251424,9
6252000,12
6252628,15
6253248,15
6253876,16
6254504,12
6255128,10
6255760,19
6256376,22
6257008,20
6257632,17
6258256,16
6258884,11
6259504,14
6260136,17
6260764,16
6261384,22
6262016,15
6262640,12
