tempo_arduino_micro_s,valor_ADC
500,92
1004,135
1500,161
2012,147
2524,86
3004,43
3500,31
4000,43
4504,154
5004,106
5516,63
6000,85
6500,130
7008,144
7516,90
8000,24
8500,14
9000,21
9500,29
10000,26
10516,17
11036,57
11564,47
12084,18
12612,60
13132,64
13660,59
14180,77
14708,78
15228,55
15756,13
16276,11
16796,29
17316,59
17836,66
18356,37
18876,12
19396,29
19916,55
20436,99
20956,87
21476,26
21996,14
22516,38
23036,30
23564,14
24084,13
24612,21
25132,51
25660,69
26180,71
26708,17
27228,25
27756,37
28276,27
28804,12
29324,30
29852,88
30372,65
30900,23
31420,26
31948,50
32472,75
32996,97
33516,79
34044,63
34564,49
35092,14
35612,19
36140,53
36660,69
37188,14
37708,22
38236,21
38760,49
39284,54
39804,54
40332,57
40852,17
41372,165
41944,183
42520,139
43096,80
43612,63
44140,44
44660,13
45188,56
45708,86
46236,76
46756,45
47284,25
47804,14
48332,23
48852,13
49380,36
49900,58
50428,12
50948,47
51476,56
51996,20
52524,61
53044,98
53572,126
54148,134
54728,54
55244,27
55764,16
56284,49
56804,60
57324,53
57844,41
58364,28
58892,16
59420,10
59940,14
60468,22
60988,36
61516,21
62036,23
62564,43
63084,39
63612,29
64136,15
64660,53
65180,99
65708,93
66228,117
66808,111
67376,78
67908,17
68428,15
68956,11
69476,102
70056,133
70628,67
71148,15
71668,38
72192,36
72716,44
73236,21
73764,15
74284,13
74812,29
75332,29
75860,27
76384,51
76908,26
77428,10
77956,65
78480,71
79004,37
79528,29
80052,25
80572,15
81100,18
81620,20
82148,10
82668,26
83196,62
83720,89
84244,90
84764,86
85292,64
85812,23
86340,94
86860,72
87388,23
87908,22
88436,33
88956,17
89484,13
90004,12
90524,11
91044,10
91564,19
92084,28
92604,14
93124,10
93644,10
94164,10
94684,12
95208,24
95724,16
96248,19
96764,28
97292,32
97812,20
98340,13
98860,48
99388,77
99912,75
100436,73
101004,45
101584,48
102156,45
102736,41
103304,25
103880,13
104456,15
105024,13
105600,14
106168,13
106744,11
107312,51
107896,108
108516,136
109140,124
109764,50
110328,134
110964,184
111584,67
112156,22
112736,46
113304,84
113888,40
114456,46
115040,64
115612,53
116184,27
116768,66
117336,67
117920,14
118488,50
119072,40
119640,39
120224,68
120792,51
121372,16
121952,27
122520,20
123104,16
123672,11
124256,16
124824,14
125400,14
125976,10
126544,10
127128,32
127700,46
128280,21
128848,15
129424,13
129992,35
130560,72
131144,85
131712,82
132296,96
132864,55
133448,61
134016,108
134644,63
135220,18
135788,59
136368,115
136988,97
137564,48
138140,21
138712,83
139296,72
139864,44
140448,90
141020,95
141600,104
142220,22
142796,120
143428,126
144044,91
144620,105
145244,39
145820,31
146392,72
146972,73
147552,64
148120,23
148704,59
149272,48
149856,48
150424,58
151000,15
151584,64
152156,38
152736,43
153308,59
153888,65
154456,16
155040,13
155608,31
156184,43
156768,42
157340,14
157920,28
158492,11
159072,10
159644,32
160220,34
160800,24
161368,10
161944,26
162512,16
163096,28
163668,18
164248,92
164816,79
165384,31
165960,45
166528,14
167112,32
167680,41
168256,34
168824,28
169408,22
169976,24
170552,14
171128,22
171696,39
172280,53
172848,84
173432,114
174056,39
174624,15
175200,37
175768,43
176352,51
176920,51
177504,25
178072,47
178648,82
179232,61
179800,15
180376,60
180944,54
181528,17
182096,113
182732,88
183308,44
183876,12
184456,50
185024,72
185608,87
186176,105
186804,104
187432,57
187996,38
188576,25
189148,14
189728,36
190296,46
190880,27
191448,93
192028,134
192660,94
193224,46
193808,27
194376,27
194960,49
195528,56
196104,56
196688,35
197256,14
197840,20
198408,24
198992,21
199564,35
200144,53
200720,70
201292,55
201872,75
202444,73
203024,28
203596,11
204176,39
204748,66
205324,78
205904,102
206524,121
207152,24
207720,27
208304,67
208872,133
209500,133
210128,124
210744,59
211320,37
211888,43
212464,38
213048,16
213616,29
214200,59
214772,66
215352,87
215920,79
216504,55
217072,15
217648,15
218232,30
218800,43
219384,43
219952,97
220536,60
221104,46
221684,97
222264,43
222836,15
223416,25
223988,50
224568,26
225144,127
225780,71
226356,23
226928,56
227504,102
228128,87
228700,51
229276,26
229852,15
230432,17
231000,25
231576,37
232148,11
232728,16
233296,44
233880,70
234452,51
235024,48
235608,61
236176,34
236760,17
237332,14
237912,45
238484,71
239060,19
239640,15
240212,29
240792,46
241360,19
241944,13
242512,10
243096,14
243668,10
244240,21
244824,16
245392,12
245976,29
246544,43
247128,16
247696,38
248272,94
248856,86
249424,40
250008,23
250576,43
251160,86
251732,102
252364,34
252940,27
253512,59
254088,54
254660,34
255240,19
255812,27
256392,14
256968,11
257536,28
258112,24
258680,26
259264,32
259832,11
260408,13
260976,30
261560,23
262128,14
262704,14
263288,14
263856,31
264440,48
265008,90
265592,64
266164,15
266736,13
267320,11
267888,11
268472,15
269040,54
269624,71
270192,51
270776,43
271344,26
271924,13
272504,17
273072,49
273656,53
274224,50
274808,30
275380,14
275952,22
276536,37
277104,19
277688,43
278256,29
278840,15
279412,33
279992,133
280620,82
281188,15
281768,11
282336,15
282912,17
283480,11
284064,17
284636,27
285212,23
285792,47
286364,53
286944,75
287520,81
288104,69
288672,46
289248,15
289832,31
290400,19
290984,50
291556,29
292136,67
292708,23
293288,25
293856,11
294436,24
295016,34
295588,74
296168,106
296796,92
297376,47
297944,34
298520,40
299104,33
299676,47
300256,57
300828,14
301408,56
301980,50
302556,13
303136,34
303708,32
304288,42
304860,48
305440,39
306012,30
306592,15
307164,18
307740,15
308320,14
308888,11
309472,13
310044,27
310624,22
311196,24
311772,17
312352,52
312924,51
313504,23
314076,13
314656,21
315228,12
315808,24
316380,65
316956,113
317588,127
318208,107
318836,41
319408,11
319980,48
320564,73
321132,36
321712,35
322280,37
322864,16
323432,10
324016,16
324584,13
325160,26
325744,30
326316,27
326896,19
327472,19
328056,32
328624,49
329192,22
329776,14
330344,13
330920,15
331488,12
332072,14
332644,13
333224,31
333792,61
334368,87
334952,107
335572,116
336204,69
336772,28
337352,17
337928,55
338496,19
339072,30
339644,16
340224,10
340792,20
341376,79
341948,125
342572,61
343152,19
343720,22
344304,31
344876,19
345456,13
346028,16
346600,14
347184,18
347756,14
348336,18
348904,17
349488,21
350056,88
350640,150
351268,144
351888,95
352464,48
353032,11
353616,32
354184,61
354768,69
355344,49
355916,45
356496,30
357068,17
357648,10
358220,15
358800,13
359376,19
359952,81
360536,40
361104,26
361688,12
362256,15
362840,27
363408,80
363988,58
364568,27
365136,14
365720,47
366292,79
366872,78
367444,63
368024,14
368592,47
369172,44
369752,15
370324,40
370904,57
371476,66
372056,57
372624,55
373204,28
373784,14
374352,11
374936,35
375508,105
376140,99
376712,63
377288,45
377864,32
378436,20
379016,14
379588,33
380168,79
380740,81
381320,80
381892,100
382520,61
383096,51
383668,54
384252,32
384824,26
385408,46
385976,19
386552,67
387136,69
387708,52
388288,45
388860,26
389440,37
390008,77
390592,52
391164,43
391740,79
392320,68
392888,72
393472,61
394044,26
394624,10
395196,11
395772,30
396352,17
396924,17
397504,14
398076,13
398656,27
399236,32
399816,18
400400,12
400972,15
401552,17
402124,33
402704,39
403276,39
403856,32
404428,22
405004,21
405584,33
406156,39
406736,38
407316,26
407896,12
408468,10
409044,23
409624,24
410192,21
410768,11
411336,24
411920,29
412488,29
413072,22
413640,15
414216,18
414800,30
415368,28
415952,13
416524,29
417104,39
417672,54
418256,54
418832,49
419400,41
419984,44
420552,48
421136,60
421704,48
422288,23
422856,14
423432,19
424016,16
424584,54
425168,72
425736,34
426320,45
426888,83
427472,112
428100,125
428720,109
429348,86
429916,54
430496,35
431072,30
431652,14
432232,47
432800,63
433384,56
433956,51
434536,72
435108,130
435736,154
436364,128
436984,82
437556,37
438132,150
438764,131
439392,47
439956,11
440536,12
441112,19
441696,32
442264,27
442840,24
443424,31
443996,32
444576,25
445148,15
445728,17
446300,40
446880,48
447452,54
448028,65
448608,51
449176,11
449760,10
450328,10
450912,13
451480,11
452056,15
452640,29
453208,38
453792,55
454364,50
454944,27
455524,38
456104,37
456672,43
457252,15
457832,63
458404,62
458984,62
459556,65
460136,52
460708,28
461284,16
461864,19
462436,16
463016,21
463588,16
464168,15
464736,31
465320,32
465892,35
466468,43
467048,33
467620,24
468200,28
468772,31
469352,41
469924,60
470500,72
471080,57
471652,33
472232,16
472804,45
473384,71
473956,22
474536,25
475108,25
475684,34
476264,13
476836,41
477416,88
477988,122
478620,71
479192,50
479772,34
480352,22
480924,14
481504,18
482076,38
482656,46
483224,68
483804,68
484384,13
484956,17
485536,18
486108,33
486688,32
487264,53
487848,44
488420,47
488996,83
489576,84
490148,38
490728,16
491308,46
491888,78
492464,114
493096,44
493668,30
494240,19
494824,127
495444,135
496076,103
496704,57
497268,19
497848,19
498420,64
499000,85
499572,77
500152,81
500724,80
501300,77
501880,57
502452,41
503032,64
503604,66
504184,28
504764,27
505340,59
505920,51
506492,42
507072,27
507644,23
508224,23
508796,13
509376,11
509960,10
510536,10
511112,10
511688,21
512268,14
512840,17
513416,15
513984,15
514560,27
515144,11
515716,20
516296,23
516864,19
517448,34
518016,35
518600,15
519176,26
519748,46
520328,67
520896,81
521480,57
522052,40
522632,16
523200,22
523776,10
524360,16
524928,17
525512,11
526084,35
526664,81
527236,68
527816,39
528392,45
528960,66
529544,50
530116,24
530696,14
531268,26
531848,28
532416,27
532996,27
533576,31
534148,32
534728,19
535300,22
535880,31
536452,41
537032,37
537608,32
538180,22
538760,14
539332,16
539912,13
540484,11
541064,15
541636,25
542212,31
542792,26
543364,23
543944,23
544516,32
545096,44
545668,16
546248,42
546824,81
547396,107
548028,98
548596,97
549176,41
549748,32
550328,91
550908,81
551484,101
552116,56
552684,13
553264,53
553836,80
554416,78
554988,63
555564,51
556144,15
556716,32
557296,31
557876,42
558456,45
559036,44
559612,36
560192,22
560764,11
561344,21
561916,14
562496,15
563076,15
563656,28
564240,35
564808,18
565392,11
565964,19
566544,32
567116,31
567696,17
568276,14
568852,40
569432,52
570004,53
570584,44
571156,39
571736,23
572316,18
572892,12
573472,10
574044,38
574624,70
575196,45
575776,13
576356,10
576936,13
577508,71
578084,48
578664,16
579232,59
579816,79
580388,28
580968,81
581536,86
582116,14
582696,63
583268,100
583900,48
584468,35
585048,17
585620,50
586196,68
586776,97
587348,58
587928,31
588500,35
589080,15
589660,13
590240,33
590812,43
591388,32
591968,15
592540,23
593120,16
593692,26
594272,69
594852,47
595428,30
596008,18
596580,15
597160,15
597732,13
598312,25
598892,30
599472,51
600052,62
600628,67
601208,37
601780,21
602360,11
602932,18
603512,67
604084,88
604660,86
605240,42
605812,17
606392,20
606968,87
607544,125
608168,99
608736,39
609320,21
609892,54
610472,42
611044,32
611624,36
612204,26
612784,26
613364,36
613940,15
614524,13
615092,10
615672,10
616244,13
616824,19
617392,14
617972,69
618552,98
619124,93
619704,68
620276,65
620856,65
621436,56
622016,39
622600,16
623172,28
623752,61
624328,102
624956,86
625528,28
626104,10
626684,11
627260,14
627840,18
628412,26
628992,23
629564,24
630144,38
630724,37
631300,17
631880,17
632452,43
633032,65
633604,95
634184,115
634808,66
635380,15
635960,21
636532,12
637112,32
637688,17
638264,29
638844,59
639424,56
640012,15
640580,51
641160,46
641728,62
642312,59
642884,22
643464,34
644036,23
644608,19
645192,36
645764,58
646344,19
646916,34
647496,35
648068,22
648648,22
649224,28
649796,74
650376,27
650948,28
651528,30
652100,11
652680,16
653252,19
653828,22
654408,19
654980,16
655560,26
656132,14
656712,11
657280,14
657864,23
658440,47
659008,21
659592,11
660160,28
660744,31
661312,26
661896,14
662464,14
663040,18
663624,14
664196,17
664776,23
665348,47
665928,73
666496,79
667080,55
667656,26
668224,42
668808,74
669376,48
669960,23
670528,15
671112,17
671684,22
672256,18
672840,18
673408,20
673992,12
674564,14
675144,23
675716,25
676296,11
676872,64
677440,85
678024,68
678596,68
679176,63
679748,47
680328,92
680896,78
681476,40
682056,25
682624,54
683208,38
683776,32
684360,49
684932,26
685512,17
686088,18
686656,74
687240,63
687812,37
688392,17
688964,15
689544,52
690116,55
690692,33
691272,42
691844,85
692424,86
692996,54
693576,20
694148,10
694728,16
695304,20
695876,20
696456,19
697028,46
697608,49
698176,42
698760,28
699332,11
699908,26
700488,25
701060,40
701640,32
702212,28
702792,27
703372,13
703952,38
704540,44
705108,43
705688,16
706256,21
706840,41
707412,75
707992,53
708564,42
709140,26
709720,11
710292,32
710872,66
711452,79
712032,46
712612,18
713188,27
713768,18
714340,24
714920,22
715492,11
716072,10
716652,24
717232,28
717812,14
718388,19
718968,43
719540,61
720120,71
720688,72
721272,49
721844,14
722420,15
723000,23
723572,20
724152,11
724724,11
725304,21
725876,11
726456,53
727036,53
727612,83
728192,129
728816,107
729444,54
730012,28
730588,93
731168,136
731792,125
732420,58
732992,11
733568,17
734140,41
734716,33
735300,63
735872,57
736452,22
737020,15
737600,17
738176,38
738760,45
739336,36
739908,31
740488,28
741060,18
741640,26
742220,30
742800,31
743376,19
743956,11
744536,11
745108,15
745688,27
746256,27
746840,25
747412,39
747988,37
748568,33
749140,36
749720,51
750292,11
750872,14
751452,10
752032,12
752612,12
753188,30
753768,16
754340,29
754920,34
755500,16
756080,30
756660,32
757236,16
757816,10
758388,12
758968,23
759540,15
760120,11
760700,11
761280,23
761864,32
762436,19
763016,20
763588,26
764168,14
764748,11
765328,15
765908,17
766484,10
767064,16
767636,30
768220,33
768792,45
769376,60
769948,69
770524,45
771104,32
771676,35
772256,39
772828,15
773408,23
773980,24
774560,13
775140,18
775716,15
776296,53
776868,124
777500,153
778124,91
778704,30
779280,16
779852,19
780432,22
781004,43
781584,65
782156,61
782736,71
783316,62
783892,21
784472,46
785044,34
785624,15
786196,24
786776,15
787356,18
787932,31
788512,31
789084,28
789664,30
790236,25
790816,11
791396,15
791976,11
792556,25
793132,26
793712,16
794284,25
794864,25
795436,17
796016,29
796596,32
797172,25
797752,16
798328,11
798908,22
799480,25
800056,19
800632,11
801216,11
801788,18
802364,29
802944,62
803516,72
804096,69
804672,53
805256,64
805828,56
806404,27
806984,46
807556,16
808136,21
808708,47
809288,45
809860,25
810440,44
811016,30
811588,19
812168,16
812740,20
813320,14
813900,13
814480,14
815060,12
815636,12
816216,30
816788,59
817368,39
817948,19
818528,58
819100,85
819676,91
820256,67
820824,38
821408,28
821976,19
822560,19
823128,24
823704,34
824272,49
824848,47
825432,31
826004,15
826584,11
827152,17
827736,37
828308,30
828884,16
829464,25
830032,34
830616,20
831188,37
831768,71
832348,86
832928,95
833496,96
834072,48
834656,60
835224,68
835808,28
836376,59
836960,89
837528,43
838104,17
838688,24
839256,22
839840,10
840408,11
840992,19
841560,14
842144,9
842664,22
843232,37
843816,34
844388,26
844968,21
845536,15
846112,15
846680,25
847264,77
847836,58
848412,23
848992,19
849560,11
850144,15
850712,31
851296,60
851864,72
852444,72
853024,62
853596,39
854176,39
854748,54
855328,33
855900,18
856480,16
857056,12
857636,29
858216,30
858788,64
859368,81
859948,43
860528,20
861104,18
861684,15
862264,24
862836,27
863416,30
863988,40
864568,11
865144,27
865728,11
866296,21
866876,31
867456,30
868028,22
868608,17
869180,18
869760,25
870332,18
870908,15
871488,15
872060,20
872640,46
873208,50
873792,20
874364,11
874944,16
875516,46
876092,50
876672,27
877244,15
877824,29
878396,40
878976,32
879556,47
880132,40
880712,23
881284,22
881864,46
882436,39
883016,29
883588,22
884168,13
884744,13
885316,12
885896,27
886468,37
887048,31
887620,56
888200,67
888780,65
889356,55
889936,39
890508,21
891088,48
891668,72
892248,18
892828,17
893404,18
893984,25
894556,15
895136,52
895712,78
896292,44
896864,16
897448,15
898016,17
898592,11
899176,20
899748,18
900328,19
900908,10
901488,26
902056,37
902636,61
903216,53
903788,14
904368,13
904936,36
905520,55
906092,40
906672,12
907244,52
907820,47
908400,36
908972,28
909552,12
910124,23
910704,35
911276,27
911852,22
912432,40
913004,24
913584,13
914156,14
914736,33
915308,17
915888,12
916460,15
917036,17
917616,31
918188,26
918768,19
919348,18
919928,48
920508,31
921084,17
921664,15
922236,15
922816,11
923388,11
923968,26
924540,37
925120,36
925692,31
926268,13
926848,42
927420,50
928000,57
928568,47
929152,25
929724,26
930300,22
930880,14
931452,21
932032,28
932604,24
933184,12
933756,21
934336,56
934924,76
935492,78
936072,97
936644,90
937224,74
937796,26
938376,26
938956,47
939532,42
940112,24
940684,12
941264,29
941844,47
942424,15
943004,20
943580,27
944160,16
944732,37
945312,35
945884,25
946464,15
947044,22
947624,25
948204,19
948780,10
949360,20
949932,35
950512,49
951092,83
951672,79
952252,37
952828,23
953408,32
953980,18
954560,16
955132,20
955712,22
956292,16
956872,13
957456,16
958028,20
958608,15
959184,10
959764,10
960340,65
960920,74
961492,39
962068,19
962648,15
963216,19
963800,20
964372,18
964952,13
965524,10
966100,19
966680,33
967252,30
967832,35
968404,48
968984,49
969556,50
970136,32
970716,14
971292,15
971872,13
972444,16
973024,22
973604,26
974184,30
974756,31
975332,27
975912,21
976488,9
977012,12
977588,18
978168,22
978748,33
979328,64
979908,42
980484,16
981064,20
981636,11
982216,46
982792,20
983368,22
983944,24
984528,25
985104,40
985676,13
986256,42
986824,50
987408,48
987980,44
988560,31
989140,97
989716,55
990296,19
990868,12
991448,46
992028,75
992608,71
993180,53
993756,18
994336,66
994908,101
995540,70
996108,28
996688,14
997260,40
997840,58
998424,20
998996,10
999576,11
1000148,17
1000772,25
1001396,12
1002020,47
1002648,70
1003264,83
1003892,78
1004516,20
1005140,22
1005768,20
1006392,67
1007020,44
1007652,20
1008272,28
1008900,18
1009524,11
1010152,11
1010780,10
1011400,28
1012028,39
1012652,35
1013276,15
1013904,21
1014524,31
1015152,30
1015776,29
1016400,25
1017028,12
1017648,17
1018276,21
1018904,12
1019528,38
1020156,49
1020780,37
1021412,26
1022044,14
1022664,13
1023292,21
1023920,29
1024544,29
1025172,21
1025788,23
1026416,27
1027036,11
1027660,16
1028288,19
1028904,29
1029532,25
1030160,15
1030776,15
1031404,10
1032028,15
1032656,17
1033284,28
1033900,38
1034532,43
1035152,42
1035780,24
1036408,14
1037032,33
1037660,15
1038280,34
1038904,27
1039532,26
1040152,25
1040780,22
1041400,28
1042024,19
1042652,19
1043272,18
1043904,12
1044532,12
1045148,69
1045776,64
1046400,56
1047028,54
1047656,33
1048272,26
1048900,21
1049524,12
1050148,12
1050776,19
1051392,32
1052020,15
1052644,16
1053264,15
1053896,14
1054512,18
1055140,19
1055772,14
1056392,16
1057020,16
1057640,24
1058272,23
1058900,22
1059520,43
1060148,29
1060772,16
1061392,23
1062024,18
1062640,15
1063268,14
1063892,41
1064516,32
1065144,13
1065760,59
1066388,65
1067016,44
1067632,52
1068260,50
1068884,16
1069512,48
1070140,45
1070760,21
1071388,13
1072012,14
1072640,11
1073268,10
1073888,13
1074516,33
1075140,31
1075764,19
1076392,13
1077016,20
1077644,10
1078268,15
1078888,28
1079516,19
1080140,20
1080772,16
1081400,11
1082016,50
1082648,55
1083268,13
1083896,36
1084528,36
1085144,30
1085772,31
1086396,34
1087020,28
1087648,38
1088268,54
1088896,62
1089516,53
1090140,25
1090768,24
1091392,30
1092020,14
1092648,18
1093264,46
1093892,52
1094516,45
1095144,15
1095772,23
1096392,17
1097020,37
1097644,11
1098264,15
1098892,35
1099512,71
1100140,47
1100764,22
1101388,18
1102020,12
1102640,29
1103268,17
1103900,29
1104520,38
1105148,17
1105772,19
1106404,20
1107032,15
1107648,11
1108276,27
1108900,47
1109524,28
1110152,40
1110776,24
1111404,26
1112028,14
1112652,21
1113280,35
1113904,15
1114532,11
1115164,14
1115784,11
1116412,52
1117036,44
1117668,28
1118296,11
1118916,50
1119544,96
1120168,87
1120792,64
1121420,46
1122040,33
1122668,11
1123292,67
1123916,74
1124544,49
1125160,44
1125792,43
1126420,22
1127036,13
1127668,15
1128288,13
1128920,14
1129548,18
1130168,30
1130796,56
1131420,66
1132044,51
1132672,35
1133296,35
1133924,20
1134548,31
1135172,12
1135800,15
1136424,13
1137052,32
1137684,44
1138304,40
1138932,32
1139556,11
1140184,30
1140816,59
1141432,52
1142064,29
1142684,23
1143308,12
1143940,14
1144560,10
1145188,13
1145812,13
1146436,15
1147068,24
1147688,31
1148316,25
1148944,24
1149564,11
1150192,11
1150816,11
1151444,14
1152076,12
1152692,12
1153320,13
1153944,15
1154564,14
1155196,14
1155816,12
1156444,11
1157068,19
1157692,39
1158320,44
1158944,17
1159572,15
1160204,28
1160824,70
1161452,51
1162076,29
1162704,31
1163332,14
1163952,17
1164580,23
1165204,29
1165828,40
1166460,50
1167080,27
1167708,15
1168332,16
1168956,18
1169584,14
1170200,33
1170832,43
1171460,40
1172080,43
1172708,36
1173332,51
1173960,60
1174592,19
1175208,12
1175840,28
1176464,37
1177092,61
1177724,58
1178344,26
1178972,14
1179596,14
1180220,27
1180848,36
1181464,46
1182092,57
1182716,54
1183344,17
1183972,36
1184600,73
1185228,88
1185860,52
1186480,60
1187108,46
1187732,15
1188360,18
1188988,12
1189608,22
1190236,17
1190860,10
1191484,18
1192112,32
1192736,45
1193364,47
1193996,36
1194616,17
1195244,13
1195868,18
1196500,14
1197128,13
1197752,12
1198384,11
1199008,16
1199632,21
1200260,15
1200880,21
1201508,24
1202132,30
1202756,28
1203384,30
1204008,31
1204636,21
1205264,20
1205888,14
1206516,23
1207140,10
1207772,9
1208348,12
1208972,11
1209600,16
1210224,25
1210852,27
1211484,24
1212104,47
1212732,54
1213360,20
1213984,40
1214612,49
1215232,53
1215864,31
1216488,20
1217108,18
1217740,20
1218360,45
1218988,39
1219620,38
1220240,24
1220868,17
1221492,14
1222124,28
1222752,39
1223372,36
1224000,27
1224624,11
1225248,27
1225876,44
1226496,38
1227124,37
1227752,37
1228376,18
1229008,13
1229624,14
1230252,19
1230880,13
1231496,11
1232124,12
1232748,10
1233376,37
1234004,59
1234624,68
1235252,64
1235872,71
1236496,14
1237124,18
1237744,27
1238372,18
1238996,13
1239620,15
1240252,26
1240872,15
1241500,44
1242132,24
1242752,33
1243380,72
1244004,70
1244632,41
1245260,13
1245880,59
1246508,116
1247184,92
1247800,38
1248432,11
1249048,19
1249680,10
1250300,15
1250928,11
1251556,10
1252180,10
1252808,11
1253440,14
1254056,20
1254684,33
1255308,52
1255940,49
1256568,34
1257192,11
1257820,10
1258444,10
1259068,10
1259696,23
1260320,29
1260948,22
1261580,24
1262200,26
1262828,41
1263452,28
1264084,14
1264712,28
1265328,41
1265960,29
1266584,11
1267208,12
1267836,13
1268456,13
1269084,32
1269712,61
1270336,64
1270964,57
1271584,27
1272212,19
1272844,19
1273464,41
1274092,23
1274716,27
1275348,21
1275980,12
1276600,11
1277228,10
1277856,11
1278480,13
1279108,14
1279728,16
1280360,16
1280980,31
1281600,28
1282228,62
1282848,85
1283476,71
1284104,21
1284720,11
1285348,35
1285972,28
1286600,25
1287228,24
1287844,23
1288476,39
1289096,15
1289728,49
1290356,62
1290976,28
1291604,10
1292224,39
1292848,51
1293476,16
1294096,12
1294724,14
1295344,23
1295968,16
1296600,14
1297220,15
1297852,20
1298480,34
1299096,32
1299724,19
1300348,11
1300976,9
1301556,14
1302180,35
1302808,58
1303432,37
1304060,37
1304692,20
1305312,31
1305940,32
1306564,19
1307188,16
1307816,27
1308436,44
1309064,55
1309688,35
1310312,23
1310940,18
1311564,14
1312192,29
1312820,38
1313436,33
1314064,34
1314688,33
1315316,14
1315944,19
1316560,15
1317188,36
1317812,35
1318432,26
1319060,19
1319680,13
1320308,13
1320928,20
1321552,36
1322180,15
1322800,10
1323428,10
1324056,16
1324672,20
1325300,23
1325924,38
1326552,29
1327180,26
1327800,35
1328428,17
1329052,27
1329672,49
1330304,65
1330920,74
1331548,65
1332172,31
1332792,57
1333420,30
1334040,11
1334668,19
1335288,39
1335912,37
1336540,36
1337164,45
1337792,43
1338420,23
1339040,12
1339668,13
1340292,19
1340920,29
1341548,28
1342168,25
1342796,15
1343420,15
1344040,12
1344668,22
1345284,15
1345912,13
1346536,15
1347160,25
1347788,88
1348408,83
1349036,29
1349664,12
1350280,16
1350912,24
1351536,45
1352164,33
1352792,11
1353408,13
1354040,30
1354660,40
1355284,40
1355912,33
1356532,34
1357160,33
1357784,29
1358404,54
1359032,65
1359656,60
1360284,17
1360912,33
1361536,42
1362164,67
1362788,73
1363416,38
1364044,14
1364660,16
1365292,56
1365912,61
1366536,49
1367164,32
1367784,27
1368412,47
1369036,39
1369660,20
1370288,13
1370904,20
1371532,26
1372156,33
1372780,25
1373408,23
1374032,80
1374660,68
1375292,38
1375912,17
1376540,10
1377164,24
1377792,28
1378424,20
1379040,22
1379668,25
1380292,13
1380916,17
1381544,23
1382168,28
1382796,43
1383420,32
1384048,17
1384676,27
1385296,11
1385928,27
1386556,22
1387176,13
1387804,18
1388428,31
1389060,40
1389688,31
1390304,38
1390932,11
1391556,10
1392180,18
1392812,52
1393432,60
1394060,13
1394684,36
1395304,23
1395936,15
1396556,33
1397188,48
1397816,21
1398432,10
1399064,13
1399684,10
1400316,31
1400944,51
1401568,65
1402196,43
1402820,16
1403444,29
1404076,20
1404696,18
1405324,15
1405948,15
1406576,18
1407204,10
1407828,10
1408460,27
1409088,20
1409704,12
1410332,18
1410956,15
1411584,20
1412216,14
1412832,30
1413460,31
1414084,33
1414708,14
1415336,20
1415952,11
1416584,15
1417208,12
1417828,18
1418460,27
1419080,51
1419712,57
1420340,50
1420960,38
1421588,30
1422212,20
1422840,51
1423472,11
1424088,42
1424716,51
1425340,53
1425964,25
1426592,41
1427208,102
1427892,82
1428516,64
1429136,59
1429764,37
1430388,18
1431020,11
1431648,14
1432272,23
1432904,33
1433528,37
1434152,52
1434780,70
1435400,76
1436028,48
1436652,23
1437276,13
1437904,16
1438520,18
1439152,12
1439780,14
1440400,71
1441028,83
1441648,72
1442280,41
1442908,10
1443528,38
1444156,28
1444780,23
1445400,25
1446032,24
1446648,28
1447276,30
1447900,41
1448520,36
1449152,11
1449768,20
1450396,18
1451024,16
1451648,51
1452276,112
1452952,116
1453624,88
1454252,22
1454872,119
1455552,89
1456176,87
1456792,51
1457420,23
1458044,16
1458672,20
1459304,25
1459920,15
1460548,11
1461172,18
1461796,17
1462424,14
1463040,25
1463668,43
1464292,41
1464916,39
1465548,38
1466168,42
1466796,14
1467428,18
1468048,11
1468676,17
1469300,48
1469932,71
1470560,41
1471184,20
1471816,19
1472440,24
1473064,28
1473692,21
1474312,24
1474940,47
1475564,58
1476188,67
1476816,48
1477432,21
1478060,13
1478692,14
1479312,17
1479940,14
1480564,12
1481192,34
1481824,19
1482440,14
1483068,38
1483692,65
1484316,23
1484944,23
1485564,39
1486196,19
1486820,28
1487440,50
1488072,48
1488688,34
1489316,25
1489944,11
1490560,11
1491188,15
1491812,13
1492444,18
1493072,18
1493688,17
1494320,20
1494944,27
1495568,36
1496196,63
1496816,64
1497444,65
1498068,15
1498692,73
1499320,49
1499944,41
1500572,22
1501204,16
1501824,37
1502452,32
1503076,29
1503708,36
1504340,53
1504960,81
1505588,75
1506212,46
1506836,21
1507468,35
1508088,67
1508716,83
1509340,77
1509968,48
1510596,29
1511216,14
1511844,16
1512476,36
1513096,31
1513724,23
1514348,13
1514980,15
1515612,14
1516232,16
1516860,47
1517484,55
1518108,56
1518740,62
1519360,64
1519988,43
1520616,24
1521240,17
1521868,14
1522488,11
1523116,10
1523748,10
1524368,25
1524996,65
1525620,77
1526252,46
1526880,14
1527504,17
1528132,54
1528760,62
1529384,77
1530012,68
1530632,32
1531264,19
1531888,24
1532512,15
1533140,19
1533768,81
1534396,122
1535080,101
1535748,71
1536376,49
1536996,49
1537620,107
1538300,70
1538920,13
1539548,38
1540176,38
1540792,39
1541424,28
1542048,16
1542672,19
1543300,22
1543920,33
1544548,76
1545172,64
1545796,46
1546424,22
1547048,15
1547676,13
1548304,20
1548928,32
1549556,15
1550180,15
1550808,35
1551440,54
1552056,74
1552688,85
1553308,70
1553932,15
1554564,14
1555184,25
1555816,31
1556440,16
1557064,11
1557692,14
1558312,34
1558944,53
1559572,38
1560192,17
1560820,12
1561444,21
1562076,24
1562704,21
1563320,47
1563952,41
1564576,15
1565200,35
1565828,63
1566448,41
1567076,11
1567700,30
1568324,59
1568952,84
1569576,84
1570204,71
1570836,47
1571456,17
1572084,85
1572708,73
1573340,45
1573968,36
1574592,22
1575220,10
1575844,10
1576468,19
1577100,22
1577720,16
1578348,13
1578972,15
1579596,14
1580228,14
1580848,19
1581476,24
1582108,26
1582728,25
1583356,25
1583984,27
1584612,30
1585244,30
1585864,41
1586496,39
1587120,32
1587744,26
1588372,32
1588992,37
1589620,25
1590244,10
1590868,18
1591500,14
1592120,15
1592748,66
1593380,66
1594000,43
1594628,14
1595252,14
1595884,45
1596516,56
1597136,19
1597768,35
1598392,21
1599016,21
1599644,21
1600264,11
1600892,11
1601512,35
1602136,59
1602764,62
1603384,51
1604012,44
1604640,45
1605256,29
1605884,16
1606508,12
1607136,11
1607764,11
1608384,13
1609012,11
1609636,10
1610256,12
1610884,16
1611504,14
1612132,14
1612756,17
1613380,40
1614012,28
1614632,20
1615260,28
1615892,55
1616512,52
1617140,56
1617764,51
1618392,14
1619024,55
1619640,36
1620272,17
1620892,19
1621516,20
1622148,15
1622768,13
1623396,50
1624020,57
1624644,40
1625272,20
1625892,10
1626520,13
1627148,11
1627768,14
1628396,14
1629020,15
1629652,28
1630280,42
1630900,30
1631528,20
1632152,14
1632776,12
1633404,12
1634024,11
1634652,21
1635276,32
1635900,23
1636532,14
1637152,17
1637780,15
1638412,15
1639028,10
1639656,13
1640276,14
1640904,13
1641532,15
1642148,11
1642776,19
1643400,14
1644028,16
1644656,18
1645272,22
1645900,20
1646524,21
1647144,12
1647772,10
1648392,23
1649020,44
1649640,43
1650260,43
1650888,51
1651508,51
1652140,49
1652768,48
1653384,14
1654012,23
1654636,16
1655264,24
1655892,30
1656512,21
1657140,11
1657764,24
1658384,35
1659012,48
1659632,23
1660260,19
1660880,12
1661504,56
1662132,90
1662752,72
1663380,58
1664008,32
1664624,16
1665252,30
1665872,72
1666504,61
1667132,44
1667752,72
1668380,39
1669000,59
1669632,89
1670260,48
1670880,24
1671508,15
1672128,54
1672752,65
1673380,35
1674000,15
1674628,15
1675248,21
1675872,26
1676500,13
1677124,10
1677752,18
1678380,32
1679000,31
1679628,28
1680252,22
1680880,17
1681508,44
1682128,37
1682756,11
1683376,44
1683996,48
1684628,40
1685244,44
1685876,12
1686496,56
1687116,18
1687748,66
1688368,27
1688996,11
1689624,14
1690240,17
1690868,47
1691488,47
1692116,61
1692744,45
1693368,55
1693996,33
1694620,13
1695240,33
1695872,49
1696488,34
1697116,17
1697740,13
1698360,16
1698988,30
1699608,44
1700236,51
1700860,12
1701480,24
1702112,12
1702732,31
1703360,38
1703992,46
1704608,35
1705236,15
1705860,33
1706488,31
1707116,26
1707736,22
1708364,22
1708988,36
1709612,29
1710240,15
1710856,15
1711488,21
1712112,14
1712732,20
1713364,24
1713988,20
1714616,32
1715244,31
1715864,40
1716492,43
1717112,52
1717744,25
1718372,11
1718992,16
1719620,27
1720248,32
1720868,27
1721500,24
1722120,24
1722748,10
1723372,15
1723996,15
1724624,11
1725244,14
1725872,17
1726500,26
1727120,15
1727748,44
1728372,53
1729000,39
1729632,34
1730248,53
1730876,30
1731500,11
1732124,11
1732752,11
1733368,31
1734000,49
1734620,73
1735244,77
1735876,46
1736496,24
1737124,23
1737752,30
1738376,31
1739004,17
1739628,23
1740260,38
1740888,56
1741504,13
1742132,45
1742756,61
1743376,35
1744008,10
1744620,23
1745252,64
1745876,67
1746500,63
1747128,22
1747744,12
1748376,25
1749004,45
1749624,43
1750252,43
1750876,51
1751508,54
1752136,31
1752756,19
1753384,17
1754008,14
1754632,22
1755260,16
1755880,15
1756508,16
1757132,10
1757756,11
1758388,11
1759008,15
1759636,11
1760268,12
1760888,11
1761516,13
1762140,25
1762768,35
1763396,16
1764016,39
1764644,45
1765268,37
1765892,14
1766524,46
1767140,25
1767772,13
1768396,18
1769016,29
1769644,24
1770260,16
1770892,15
1771512,14
1772140,12
1772768,11
1773392,11
1774020,15
1774652,14
1775272,34
1775900,24
1776524,11
1777156,19
1777784,27
1778404,42
1779032,45
1779656,17
1780280,17
1780908,22
1781528,25
1782156,14
1782780,22
1783408,51
1784036,52
1784660,48
1785288,41
1785920,38
1786536,19
1787164,14
1787788,13
1788420,15
1789052,23
1789672,77
1790304,49
1790928,35
1791552,22
1792184,12
1792800,11
1793428,21
1794056,24
1794672,14
1795304,44
1795924,44
1796556,20
1797184,11
1797800,11
1798432,11
1799052,11
1799684,14
1800312,22
1800932,30
1801560,41
1802184,49
1802808,41
1803436,25
1804056,21
1804684,14
1805308,19
1805928,12
1806560,12
1807180,11
1807812,11
1808440,38
1809056,37
1809688,16
1810308,15
1810940,13
1811568,34
1812184,23
1812816,16
1813436,32
1814060,37
1814692,32
1815312,13
1815940,21
1816564,24
1817188,22
1817820,29
1818440,30
1819072,29
1819700,22
1820320,20
1820948,19
1821572,19
1822200,14
1822832,9
1823396,14
1824028,35
1824652,19
1825280,16
1825908,18
1826528,17
1827156,42
1827780,32
1828404,16
1829032,14
1829656,40
1830284,20
1830908,48
1831536,75
1832164,49
1832788,54
1833420,42
1834048,30
1834668,80
1835296,43
1835920,14
1836548,21
1837180,20
1837800,14
1838428,19
1839052,13
1839676,11
1840308,18
1840928,36
1841556,25
1842188,10
1842808,18
1843436,13
1844060,23
1844688,39
1845316,30
1845936,27
1846564,31
1847184,12
1847812,17
1848444,38
1849064,60
1849692,54
1850316,38
1850936,43
1851568,59
1852184,101
1852864,92
1853488,69
1854104,15
1854732,26
1855356,104
1856040,78
1856660,41
1857280,26
1857908,15
1858532,11
1859152,10
1859784,13
1860400,15
1861032,17
1861660,18
1862280,15
1862908,14
1863532,14
1864164,10
1864792,17
1865408,22
1866040,24
1866664,15
1867284,11
1867916,16
1868536,33
1869164,37
1869788,32
1870412,39
1871040,26
1871664,15
1872292,14
1872924,16
1873544,28
1874172,29
1874796,17
1875428,10
1876056,10
1876680,24
1877308,11
1877932,28
1878556,17
1879188,25
1879808,35
1880436,50
1881060,59
1881684,51
1882316,45
1882936,19
1883564,22
1884196,66
1884816,76
1885444,69
1886068,43
1886696,31
1887324,29
1887944,35
1888576,53
1889196,84
1889820,79
1890452,52
1891072,29
1891700,29
1892324,75
1892952,62
1893580,55
1894200,35
1894832,15
1895460,14
1896080,19
1896708,23
1897332,13
1897960,23
1898592,14
1899208,24
1899836,35
1900460,34
1901088,26
1901716,25
1902336,22
1902964,18
1903592,19
1904216,15
1904844,35
1905464,28
1906092,20
1906724,14
1907344,14
1907972,18
1908596,10
1909228,13
1909856,18
1910480,21
1911108,13
1911732,15
1912360,16
1912988,27
1913608,46
1914236,25
1914864,37
1915488,47
1916116,51
1916744,29
1917372,11
1918004,24
1918624,27
1919256,30
1919880,27
1920512,21
1921140,18
1921760,17
1922388,10
1923012,13
1923636,17
1924264,12
1924888,15
1925516,26
1926140,44
1926768,46
1927396,33
1928020,18
1928648,15
1929276,51
1929896,52
1930524,17
1931148,14
1931780,14
1932408,10
1933024,19
1933656,15
1934280,12
1934904,25
1935532,30
1936152,27
1936780,19
1937404,16
1938032,19
1938660,18
1939284,10
1939916,10
1940544,9
1941112,15
1941740,10
1942368,11
1942996,16
1943628,14
1944248,17
1944876,14
1945504,31
1946128,22
1946756,14
1947376,13
1948004,28
1948628,47
1949252,21
1949880,19
1950504,37
1951132,32
1951764,26
1952384,54
1953012,86
1953636,86
1954264,55
1954896,45
1955512,32
1956144,32
1956768,43
1957392,60
1958020,86
1958640,60
1959268,39
1959892,28
1960516,33
1961148,14
1961768,16
1962396,21
1963028,34
1963648,28
1964276,17
1964900,11
1965532,15
1966164,40
1966784,82
1967412,105
1968088,89
1968700,75
1969332,56
1969952,15
1970580,22
1971212,35
1971828,25
1972460,13
1973084,13
1973712,18
1974340,22
1974960,25
1975588,19
1976212,14
1976836,21
1977468,40
1978088,44
1978716,31
1979340,45
1979964,16
1980596,50
1981216,14
1981844,13
1982476,29
1983096,11
1983724,28
1984352,34
1984980,21
1985608,18
1986224,18
1986852,14
1987476,19
1988100,23
1988732,12
1989352,13
1989980,31
1990604,28
1991228,21
1991860,27
1992480,37
1993108,31
1993740,17
1994360,14
1994988,23
1995612,38
1996244,14
1996876,19
1997496,11
1998124,14
1998748,30
1999372,46
2000000,42
2000616,15
2001244,33
2001868,11
2002492,38
2003120,25
2003740,16
2004368,24
2004996,16
2005616,16
2006244,17
2006868,17
2007500,20
2008128,24
2008744,12
2009372,11
2009996,17
2010624,13
2011256,14
2011872,15
2012500,24
2013124,27
2013748,26
2014376,30
2015000,20
2015628,23
2016252,14
2016880,19
2017508,54
2018132,63
2018764,49
2019392,44
2020008,37
2020640,27
2021264,21
2021892,13
2022524,12
2023144,11
2023772,21
2024396,25
2025020,18
2025652,12
2026272,10
2026900,11
2027532,14
2028152,16
2028780,22
2029404,14
2030036,17
2030664,16
2031288,11
2031916,14
2032544,11
2033168,11
2033796,10
2034416,20
2035044,29
2035672,38
2036296,31
2036924,19
2037544,19
2038176,18
2038804,13
2039424,13
2040052,31
2040676,28
2041308,10
2041940,24
2042560,37
2043188,17
2043816,43
2044440,47
2045068,26
2045688,15
2046316,14
2046944,11
2047568,10
2048200,10
2048816,13
2049440,19
2050068,23
2050684,19
2051312,11
2051936,13
2052564,43
2053192,88
2053808,116
2054488,121
2055152,71
2055776,15
2056404,26
2057024,115
2057704,115
2058376,81
2059000,53
2059628,37
2060248,31
2060872,26
2061500,12
2062120,21
2062748,23
2063376,22
2063992,10
2064620,11
2065244,15
2065872,46
2066500,54
2067120,67
2067748,70
2068372,37
2068996,17
2069628,28
2070248,18
2070876,15
2071500,20
2072120,15
2072752,17
2073368,31
2073996,22
2074620,18
2075248,18
2075876,17
2076500,60
2077128,46
2077756,18
2078376,14
2079004,16
2079628,15
2080260,11
2080888,23
2081504,14
2082132,10
2082756,23
2083376,33
2084004,27
2084620,38
2085252,38
2085872,38
2086496,37
2087124,25
2087748,14
2088376,18
2089004,18
2089620,35
2090248,37
2090872,19
2091500,13
2092132,24
2092752,25
2093380,12
2094004,31
2094628,38
2095256,19
2095872,16
2096504,19
2097128,24
2097748,18
2098380,12
2099000,33
2099628,39
2100256,31
2100880,31
2101508,35
2102128,23
2102760,14
2103388,18
2104008,18
2104636,21
2105260,26
2105884,15
2106512,11
2107128,14
2107760,11
2108384,13
2109008,10
2109636,12
2110256,11
2110884,12
2111512,14
2112136,17
2112764,19
2113388,31
2114016,27
2114644,28
2115264,19
2115892,27
2116516,40
2117136,12
2117768,24
2118384,21
2119012,21
2119636,17
2120264,13
2120892,16
2121512,16
2122140,12
2122772,10
2123392,15
2124020,22
2124644,22
2125276,22
2125904,15
2126524,18
2127152,35
2127776,28
2128400,16
2129028,14
2129648,21
2130276,10
2130900,11
2131524,16
2132152,34
2132768,44
2133396,38
2134028,46
2134648,70
2135276,87
2135900,54
2136528,13
2137160,17
2137776,26
2138404,12
2139028,31
2139656,53
2140284,38
2140904,17
2141532,12
2142156,10
2142780,51
2143408,60
2144032,32
2144660,37
2145288,44
2145912,41
2146540,32
2147164,14
2147796,17
2148424,32
2149044,12
2149672,18
2150296,47
2150920,59
2151548,58
2152168,39
2152796,38
2153420,43
2154044,44
2154672,14
2155292,10
2155920,10
2156548,11
2157168,20
2157796,13
2158420,11
2159052,10
2159680,13
2160296,18
2160928,17
2161548,34
2162180,43
2162808,42
2163424,18
2164056,34
2164676,50
2165300,28
2165932,18
2166552,11
2167180,31
2167804,57
2168432,54
2169060,42
2169684,19
2170312,16
2170944,15
2171560,25
2172192,21
2172816,13
2173444,11
2174072,51
2174692,47
2175320,22
2175944,16
2176568,34
2177196,31
2177816,16
2178444,27
2179068,55
2179696,70
2180324,34
2180948,21
2181576,39
2182208,44
2182824,16
2183452,23
2184076,17
2184704,11
2185336,29
2185952,49
2186580,41
2187204,32
2187828,15
2188456,12
2189080,11
2189708,10
2190332,10
2190960,11
2191588,38
2192212,65
2192844,65
2193472,41
2194092,17
2194720,15
2195344,15
2195972,14
2196604,27
2197224,39
2197852,40
2198476,53
2199100,51
2199732,44
2200352,27
2200980,15
2201612,24
2202232,34
2202860,22
2203484,15
2204112,18
2204744,17
2205364,12
2205992,13
2206616,15
2207240,23
2207868,17
2208488,21
2209116,19
2209740,16
2210364,13
2210996,14
2211616,16
2212244,17
2212876,14
2213496,11
2214124,11
2214748,11
2215380,10
2216008,19
2216624,43
2217252,48
2217876,47
2218500,44
2219132,30
2219752,26
2220380,25
2221008,19
2221628,21
2222260,20
2222880,20
2223508,13
2224140,30
2224760,43
2225388,17
2226012,10
2226644,32
2227276,90
2227896,80
2228524,52
2229148,25
2229772,15
2230404,12
2231024,15
2231656,18
2232280,13
2232904,18
2233532,34
2234152,36
2234784,29
2235412,18
2236032,40
2236664,89
2237288,94
2237916,75
2238548,56
2239168,46
2239800,15
2240424,44
2241048,26
2241676,10
2242296,13
2242924,60
2243548,60
2244172,35
2244800,31
2245424,48
2246052,54
2246684,26
2247304,11
2247932,18
2248556,13
2249188,11
2249816,26
2250440,54
2251068,69
2251692,90
2252316,91
2252948,79
2253568,29
2254196,14
2254820,24
2255440,26
2256072,13
2256688,10
2257316,17
2257944,24
2258568,22
2259196,26
2259820,34
2260448,35
2261080,25
2261696,16
2262324,25
2262948,14
2263572,19
2264204,38
2264824,19
2265452,10
2266076,14
2266700,27
2267332,40
2267952,42
2268580,36
2269212,20
2269832,13
2270460,21
2271084,19
2271716,11
2272348,18
2272968,11
2273596,14
2274220,12
2274844,11
2275476,10
2276096,11
2276724,15
2277348,38
2277976,41
2278604,19
2279224,14
2279852,20
2280484,30
2281104,29
2281732,17
2282356,9
2282936,14
2283564,37
2284184,48
2284812,38
2285436,21
2286068,13
2286696,23
2287320,30
2287952,24
2288576,23
2289200,12
2289828,10
2290448,34
2291076,40
2291704,31
2292328,24
2292956,22
2293584,19
2294212,18
2294844,16
2295464,17
2296092,22
2296716,14
2297348,13
2297976,27
2298596,14
2299224,20
2299848,34
2300472,14
2301100,25
2301720,43
2302348,57
2302980,56
2303600,53
2304232,49
2304852,41
2305480,37
2306112,28
2306728,15
2307356,11
2307980,9
2308556,9
2309136,22
2309760,36
2310392,33
2311016,29
2311644,20
2312276,14
2312896,14
2313524,10
2314148,15
2314772,23
2315404,18
2316024,12
2316652,14
2317276,14
2317900,11
2318532,16
2319152,28
2319784,27
2320412,32
2321032,41
2321660,35
2322284,24
2322912,25
2323544,33
2324160,31
2324788,56
2325412,85
2326036,22
2326668,78
2327288,78
2327916,125
2328600,133
2329268,61
2329896,27
2330516,12
2331144,15
2331772,21
2332392,23
2333020,21
2333644,17
2334268,18
2334900,26
2335520,31
2336148,20
2336776,19
2337400,15
2338028,15
2338652,10
2339280,11
2339912,9
2340476,10
2341108,11
2341736,14
2342364,9
2342944,11
2343568,11
2344196,15
2344824,13
2345452,17
2346084,16
2346704,12
2347332,10
2347956,15
2348584,11
2349212,12
2349832,25
2350464,28
2351088,15
2351712,40
2352344,30
2352968,18
2353596,14
2354228,20
2354848,32
2355480,21
2356100,10
2356732,13
2357360,12
2357984,17
2358612,17
2359236,11
2359860,19
2360492,48
2361112,43
2361740,16
2362364,14
2362992,15
2363620,21
2364244,43
2364876,50
2365504,11
2366128,22
2366756,14
2367380,23
2368008,11
2368636,30
2369256,68
2369884,77
2370508,53
2371132,39
2371764,14
2372384,60
2373016,102
2373696,108
2374364,86
2374992,43
2375616,11
2376240,35
2376868,47
2377488,61
2378116,54
2378740,33
2379368,37
2379996,35
2380624,14
2381252,23
2381884,10
2382504,11
2383132,11
2383760,12
2384388,20
2385020,16
2385640,18
2386268,21
2386892,14
2387516,14
2388148,22
2388768,53
2389396,55
2390028,40
2390648,20
2391280,11
2391904,11
2392536,18
2393164,34
2393784,33
2394412,27
2395036,17
2395664,19
2396296,25
2396912,11
2397540,12
2398168,11
2398792,15
2399420,14
2400040,12
2400668,12
2401296,10
2401920,20
2402548,41
2403172,37
2403804,21
2404432,19
2405056,19
2405684,17
2406308,13
2406936,39
2407564,24
2408184,14
2408812,12
2409436,11
2410060,10
2410688,13
2411312,14
2411944,14
2412572,14
2413192,16
2413820,10
2414444,11
2415076,14
2415708,16
2416328,25
2416956,30
2417580,35
2418204,42
2418836,29
2419456,17
2420084,37
2420708,47
2421332,27
2421964,23
2422584,25
2423212,12
2423844,48
2424464,65
2425092,45
2425716,14
2426348,16
2426980,33
2427600,54
2428228,55
2428852,25
2429476,15
2430108,10
2430728,14
2431360,47
2431984,104
2432660,140
2433336,133
2434004,145
2434676,39
2435300,87
2435924,157
2436608,60
2437232,36
2437848,35
2438476,14
2439100,15
2439724,17
2440356,11
2440976,45
2441604,63
2442228,33
2442852,18
2443484,21
2444108,17
2444736,14
2445368,20
2445988,16
2446616,11
2447244,24
2447872,25
2448504,49
2449120,82
2449748,82
2450376,86
2451000,38
2451632,16
2452248,13
2452880,23
2453504,66
2454128,40
2454760,17
2455384,15
2456012,13
2456644,12
2457264,11
2457896,11
2458516,11
2459140,14
2459772,11
2460392,12
2461020,16
2461644,19
2462268,40
2462896,26
2463512,11
2464144,11
2464764,18
2465392,43
2466020,30
2466644,42
2467272,75
2467900,80
2468520,29
2469148,20
2469772,47
2470400,28
2471028,20
2471648,14
2472276,30
2472900,14
2473524,19
2474156,21
2474776,30
2475408,12
2476032,31
2476656,31
2477284,20
2477908,14
2478540,18
2479168,42
2479792,42
2480420,21
2481044,11
2481668,21
2482300,26
2482920,21
2483548,11
2484172,15
2484796,11
2485424,24
2486048,13
2486676,28
2487308,32
2487928,55
2488560,59
2489180,51
2489812,49
2490440,55
2491060,26
2491688,11
2492312,10
2492936,15
2493564,17
2494184,49
2494812,58
2495440,53
2496064,37
2496692,34
2497312,26
2497940,11
2498572,14
2499192,13
2499820,23
2500444,14
2501076,11
2501704,17
2502328,41
2502960,54
2503584,16
2504208,25
2504836,16
2505456,11
2506084,15
2506708,9
2507284,11
2507916,18
2508536,34
2509168,13
2509788,10
2510412,26
2511044,30
2511664,23
2512292,17
2512924,14
2513544,31
2514176,42
2514796,45
2515428,43
2516060,40
2516680,19
2517308,31
2517936,57
2518560,69
2519188,73
2519808,39
2520440,16
2521060,16
2521684,60
2522316,54
2522936,13
2523564,14
2524196,69
2524816,83
2525444,41
2526068,22
2526700,32
2527332,18
2527952,18
2528584,16
2529208,25
2529832,21
2530460,57
2531080,53
2531712,38
2532336,25
2532960,22
2533592,12
2534216,38
2534848,49
2535476,48
2536096,48
2536724,36
2537352,40
2537980,20
2538612,37
2539232,51
2539864,17
2540488,13
2541112,22
2541740,33
2542360,34
2542992,33
2543620,69
2544240,90
2544868,76
2545492,18
2546124,32
2546756,48
2547376,42
2548004,15
2548628,10
2549256,14
2549884,16
2550504,42
2551132,28
2551760,16
2552384,26
2553016,30
2553632,14
2554264,25
2554896,44
2555512,39
2556144,25
2556768,12
2557400,75
2558032,68
2558652,31
2559284,14
2559908,35
2560536,30
2561164,20
2561780,20
2562412,19
2563032,37
2563656,38
2564284,34
2564904,12
2565532,16
2566160,32
2566776,63
2567404,70
2568028,67
2568656,48
2569284,16
2569904,19
2570532,26
2571156,43
2571780,39
2572412,52
2573032,39
2573660,42
2574284,118
2574960,82
2575580,41
2576204,17
2576832,11
2577464,26
2578080,45
2578708,27
2579332,15
2579960,17
2580592,10
2581208,11
2581836,29
2582460,17
2583080,10
2583712,25
2584328,18
2584956,26
2585580,35
2586204,31
2586832,20
2587456,14
2588084,16
2588712,47
2589336,37
2589964,23
2590588,31
2591220,35
2591848,12
2592468,11
2593096,14
2593720,14
2594344,23
2594972,24
2595592,41
2596220,57
2596844,53
2597468,21
2598096,18
2598720,13
2599348,19
2599980,61
2600600,56
2601228,15
2601852,16
2602480,37
2603112,31
2603728,18
2604360,21
2604984,15
2605604,47
2606236,12
2606856,32
2607484,19
2608108,40
2608732,80
2609360,35
2609984,12
2610616,13
2611244,20
2611864,76
2612492,61
2613116,16
2613744,32
2614376,22
2614996,21
2615624,14
2616248,11
2616872,47
2617500,80
2618120,81
2618748,65
2619372,26
2619996,47
2620628,20
2621252,14
2621884,14
2622512,12
2623128,14
2623760,19
2624384,18
2625012,11
2625640,14
2626256,23
2626884,71
2627504,87
2628128,94
2628756,50
2629376,16
2630004,61
2630628,86
2631248,58
2631880,57
2632496,43
2633124,17
2633752,23
2634368,43
2635000,42
2635624,14
2636252,18
2636880,20
2637496,28
2638124,51
2638748,27
2639368,10
2640000,10
2640616,11
2641244,10
2641868,34
2642488,43
2643116,11
2643736,19
2644364,37
2644988,66
2645616,56
2646244,46
2646868,74
2647496,47
2648124,29
2648744,25
2649372,29
2649996,42
2650624,17
2651252,13
2651872,27
2652500,21
2653124,39
2653748,42
2654376,17
2654996,21
2655624,35
2656248,55
2656868,74
2657500,41
2658124,22
2658752,45
2659380,43
2660000,30
2660628,18
2661252,23
2661880,15
2662512,21
2663128,30
2663756,40
2664380,52
2665000,35
2665628,18
2666244,21
2666872,28
2667496,34
2668120,20
2668748,17
2669368,17
2669996,15
2670624,14
2671248,15
2671876,10
2672500,10
2673128,12
2673760,16
2674376,28
2675004,41
2675628,70
2676252,40
2676880,11
2677496,15
2678124,15
2678748,19
2679372,28
2680000,26
2680616,26
2681248,23
2681876,41
2682496,56
2683124,51
2683748,36
2684376,49
2685004,38
2685624,23
2686252,22
2686876,16
2687500,13
2688128,16
2688748,13
2689376,20
2690000,61
2690624,61
2691252,48
2691872,33
2692500,33
2693128,20
2693744,15
2694372,15
2694996,23
2695628,31
2696256,29
2696872,14
2697500,41
2698124,37
2698756,12
2699384,44
2700004,57
2700632,69
2701256,65
2701880,26
2702508,17
2703128,19
2703756,42
2704380,38
2705008,25
2705636,43
2706260,52
2706888,37
2707516,31
2708136,33
2708764,20
2709388,22
2710016,48
2710648,34
2711264,18
2711892,20
2712516,90
2713140,72
2713772,14
2714392,18
2715020,22
2715644,46
2716272,73
2716900,81
2717524,44
2718152,25
2718784,19
2719400,40
2720032,25
2720652,16
2721280,15
2721912,10
2722528,11
2723156,10
2723780,13
2724404,19
2725032,18
2725656,25
2726284,24
2726908,13
2727536,15
2728164,16
2728788,15
2729416,18
2730044,27
2730664,18
2731292,13
2731916,12
2732548,25
2733176,22
2733792,32
2734424,48
2735048,47
2735668,39
2736300,24
2736920,16
2737548,22
2738172,22
2738800,27
2739428,20
2740052,15
2740680,17
2741312,21
2741928,30
2742560,11
2743180,28
2743812,37
2744444,24
2745064,35
2745692,23
2746316,60
2746940,28
2747568,20
2748184,22
2748816,31
2749436,26
2750064,26
2750692,18
2751320,17
2751948,12
2752580,20
2753200,19
2753828,14
2754452,23
2755080,17
2755708,18
2756328,27
2756956,26
2757580,17
2758204,16
2758836,20
2759456,19
2760084,18
2760716,22
2761336,18
2761964,17
2762588,14
2763220,17
2763848,40
2764472,65
2765104,92
2765724,107
2766400,100
2767076,86
2767696,60
2768324,29
2768952,68
2769576,55
2770204,56
2770828,64
2771460,38
2772088,23
2772712,14
2773340,23
2773964,17
2774588,27
2775220,14
2775840,53
2776468,40
2777100,18
2777720,20
2778348,13
2778972,15
2779604,15
2780232,10
2780852,19
2781480,13
2782104,12
2782728,16
2783356,12
2783976,15
2784608,10
2785232,32
2785856,59
2786484,58
2787104,40
2787732,18
2788364,14
2788984,24
2789612,10
2790236,17
2790868,10
2791496,12
2792120,13
2792748,14
2793372,18
2793996,13
2794628,17
2795248,17
2795876,19
2796500,22
2797124,15
2797756,16
2798376,24
2799004,12
2799636,14
2800256,24
2800884,34
2801508,38
2802136,52
2802768,60
2803384,55
2804016,22
2804640,12
2805260,25
2805892,56
2806512,74
2807140,52
2807764,29
2808388,18
2809016,10
2809640,11
2810268,15
2810900,22
2811520,14
2812148,19
2812772,17
2813404,19
2814036,21
2814656,31
2815288,24
2815912,13
2816536,18
2817168,15
2817784,19
2818412,47
2819036,39
2819660,37
2820288,16
2820904,14
2821536,27
2822164,14
2822784,22
2823412,26
2824036,49
2824664,74
2825296,64
2825912,27
2826540,10
2827164,19
2827788,30
2828420,29
2829040,23
2829668,24
2830292,26
2830916,20
2831544,22
2832164,27
2832792,31
2833420,26
2834040,24
2834668,30
2835292,57
2835924,68
2836552,82
2837168,78
2837800,46
2838424,48
2839048,51
2839676,49
2840296,111
2840976,95
2841604,46
2842220,11
2842852,11
2843476,11
2844108,14
2844736,18
2845356,21
2845984,22
2846608,13
2847240,11
2847868,11
2848488,11
2849116,10
2849740,11
2850364,20
2850992,29
2851616,37
2852244,51
2852876,54
2853496,27
2854124,15
2854752,13
2855380,12
2856012,10
2856632,12
2857260,19
2857884,25
2858512,17
2859140,11
2859760,11
2860388,14
2861016,14
2861640,29
2862268,71
2862888,84
2863516,27
2864148,20
2864768,13
2865396,69
2866024,60
2866652,58
2867284,52
2867900,26
2868532,14
2869152,14
2869776,27
2870404,35
2871024,35
2871652,32
2872276,27
2872900,20
2873532,16
2874152,40
2874780,25
2875412,11
2876032,11
2876660,15
2877284,28
2877916,15
2878544,17
2879168,19
2879796,19
2880424,21
2881044,21
2881672,25
2882296,25
2882924,27
2883544,36
2884168,43
2884796,22
2885416,14
2886044,14
2886676,15
2887296,13
2887924,13
2888548,17
2889176,17
2889804,16
2890424,13
2891052,10
2891676,23
2892300,25
2892928,10
2893544,15
2894172,22
2894796,18
2895420,28
2896048,35
2896664,18
2897292,103
2897972,76
2898592,26
2899220,12
2899840,10
2900472,15
2901100,23
2901720,21
2902348,43
2902976,37
2903600,31
2904228,46
2904848,17
2905476,26
2906100,24
2906724,19
2907356,10
2907980,11
2908612,11
2909240,10
2909864,11
2910492,27
2911116,35
2911748,27
2912380,20
2913000,34
2913628,62
2914252,65
2914876,54
2915508,50
2916128,19
2916756,48
2917388,78
2918008,65
2918640,17
2919260,15
2919892,17
2920520,15
2921136,31
2921768,41
2922392,39
2923016,33
2923644,22
2924264,11
2924892,16
2925516,12
2926140,14
2926772,14
2927392,15
2928020,20
2928652,24
2929272,24
2929900,29
2930524,28
2931156,33
2931788,40
2932408,56
2933036,51
2933664,41
2934288,40
2934916,30
2935536,23
2936168,22
2936792,52
2937416,38
2938048,36
2938664,23
2939296,36
2939924,27
2940544,18
2941176,18
2941800,24
2942428,15
2943060,10
2943680,13
2944312,14
2944936,15
2945560,33
2946188,40
2946808,31
2947436,29
2948060,36
2948684,10
2949316,10
2949936,21
2950564,31
2951192,34
2951816,27
2952444,13
2953068,32
2953700,14
2954328,19
2954944,25
2955572,28
2956196,16
2956820,10
2957448,10
2958072,36
2958700,42
2959324,29
2959952,30
2960580,25
2961200,17
2961828,15
2962460,35
2963080,69
2963708,76
2964332,34
2964964,29
2965592,29
2966212,62
2966840,88
2967464,56
2968088,12
2968720,38
2969336,50
2969968,51
2970592,48
2971212,49
2971844,31
2972464,15
2973092,18
2973724,38
2974344,50
2974972,48
2975596,43
2976228,22
2976856,18
2977480,14
2978108,17
2978732,19
2979356,22
2979984,21
2980608,28
2981236,15
2981860,11
2982484,10
2983112,12
2983736,21
2984364,29
2984996,39
2985616,49
2986244,48
2986868,40
2987496,43
2988128,13
2988748,14
2989376,14
2990004,10
2990628,11
2991256,40
2991876,65
2992504,51
2993128,35
2993752,28
2994384,18
2995000,18
2995632,24
2996260,16
2996880,14
2997508,22
2998132,23
2998764,27
2999392,31
3000016,33
3000644,16
3001268,24
3001892,33
3002524,30
3003144,24
3003776,15
3004400,18
3005024,10
3005652,10
3006280,11
3006908,13
3007540,10
3008160,12
3008788,16
3009412,14
3010044,24
3010672,32
3011296,15
3011924,20
3012548,25
3013172,16
3013804,12
3014424,11
3015052,47
3015676,32
3016304,14
3016936,16
3017560,30
3018192,25
3018824,33
3019440,51
3020072,56
3020696,47
3021320,38
3021952,21
3022568,25
3023200,13
3023824,10
3024448,10
3025076,10
3025696,29
3026328,29
3026956,48
3027576,42
3028208,31
3028832,17
3029460,14
3030092,24
3030712,62
3031344,65
3031968,14
3032592,13
3033224,37
3033840,39
3034472,53
3035096,18
3035720,40
3036352,40
3036968,15
3037596,19
3038228,48
3038848,34
3039480,24
3040104,24
3040732,11
3041364,11
3041984,14
3042612,11
3043236,14
3043860,13
3044492,14
3045112,19
3045744,17
3046368,46
3046992,63
3047620,47
3048240,46
3048868,12
3049500,42
3050120,33
3050752,15
3051376,36
3052008,37
3052636,20
3053256,25
3053888,14
3054512,18
3055136,21
3055768,21
3056384,11
3057016,26
3057640,13
3058264,41
3058896,59
3059512,33
3060144,27
3060776,65
3061392,41
3062024,54
3062648,85
3063276,71
3063908,25
3064528,16
3065160,40
3065784,40
3066408,39
3067040,40
3067656,26
3068288,31
3068912,37
3069536,40
3070168,40
3070792,35
3071424,25
3072056,28
3072672,13
3073300,14
3073924,10
3074552,19
3075180,28
3075800,41
3076428,39
3077052,38
3077676,20
3078308,14
3078928,33
3079556,33
3080180,33
3080804,54
3081432,16
3082060,25
3082688,19
3083316,13
3083936,11
3084564,24
3085188,27
3085820,17
3086448,16
3087068,22
3087696,38
3088320,47
3088944,67
3089572,70
3090192,45
3090820,13
3091448,28
3092072,81
3092700,124
3093376,107
3094052,80
3094676,60
3095296,23
3095924,24
3096552,26
3097176,25
3097804,44
3098424,35
3099052,32
3099684,47
3100304,43
3100932,14
3101560,48
3102188,71
3102820,92
3103440,87
3104068,62
3104692,18
3105316,73
3105948,140
3106620,120
3107296,54
3107928,30
3108544,21
3109176,13
3109800,21
3110424,13
3111052,33
3111672,38
3112304,16
3112928,41
3113552,57
3114184,106
3114852,134
3115532,46
3116156,22
3116776,11
3117408,49
3118032,87
3118656,40
3119284,14
3119904,17
3120536,17
3121164,13
3121784,11
3122412,16
3123036,18
3123668,21
3124300,27
3124920,29
3125548,23
3126172,19
3126796,20
3127428,14
3128048,32
3128676,38
3129300,26
3129924,30
3130556,30
3131176,28
3131808,54
3132436,63
3133056,67
3133688,64
3134312,46
3134940,11
3135572,19
3136192,21
3136820,21
3137444,41
3138068,44
3138696,21
3139320,11
3139948,10
3140572,17
3141200,20
3141828,24
3142448,28
3143076,38
3143708,69
3144328,40
3144956,20
3145584,17
3146212,54
3146844,55
3147464,19
3148096,29
3148720,19
3149344,19
3149972,10
3150592,32
3151224,38
3151848,21
3152472,12
3153104,18
3153720,60
3154352,44
3154984,27
3155600,11
3156228,11
3156856,13
3157484,13
3158116,15
3158736,37
3159368,46
3159992,17
3160616,102
3161300,116
3161972,62
3162600,27
3163228,10
3163848,23
3164480,42
3165104,56
3165728,59
3166360,37
3166976,43
3167608,62
3168232,79
3168856,33
3169488,23
3170104,22
3170736,28
3171364,59
3171984,34
3172616,17
3173240,11
3173872,13
3174504,19
3175120,18
3175748,13
3176376,18
3177000,37
3177628,40
3178248,32
3178876,15
3179504,26
3180128,22
3180760,16
3181384,31
3182016,10
3182644,20
3183264,59
3183896,69
3184520,29
3185152,19
3185780,47
3186400,40
3187032,41
3187656,50
3188280,56
3188912,34
3189528,71
3190160,71
3190792,29
3191412,21
3192044,57
3192668,47
3193300,21
3193932,18
3194552,19
3195184,16
3195812,14
3196436,15
3197068,24
3197688,81
3198320,112
3199004,101
3199676,71
3200304,68
3200924,19
3201548,17
3202176,68
3202800,61
3203428,25
3204052,24
3204672,34
3205304,45
3205920,33
3206548,31
3207176,19
3207800,11
3208428,13
3209052,11
3209680,27
3210308,23
3210928,33
3211556,22
3212180,47
3212804,100
3213484,130
3214156,109
3214832,68
3215460,49
3216080,79
3216708,39
3217332,11
3217952,12
3218584,38
3219200,42
3219828,24
3220452,27
3221076,15
3221708,14
3222328,31
3222960,46
3223588,52
3224208,57
3224836,33
3225460,25
3226092,21
3226720,66
3227340,96
3227968,31
3228592,15
3229216,37
3229844,66
3230464,70
3231092,12
3231716,20
3232344,12
3232972,15
3233592,11
3234220,11
3234852,23
3235472,49
3236100,27
3236724,20
3237356,16
3237984,10
3238608,19
3239236,33
3239860,26
3240484,17
3241112,28
3241736,60
3242364,66
3242988,36
3243612,16
3244244,44
3244868,47
3245496,48
3246124,51
3246744,41
3247372,21
3247996,37
3248628,11
3249260,16
3249880,19
3250508,17
3251136,21
3251760,32
3252388,51
3253008,50
3253636,46
3254264,19
3254888,11
3255516,21
3256140,14
3256772,27
3257404,54
3258024,35
3258652,13
3259276,46
3259908,48
3260540,25
3261160,30
3261792,55
3262416,26
3263040,24
3263668,21
3264288,19
3264920,16
3265548,55
3266168,47
3266796,61
3267424,19
3268052,24
3268684,13
3269304,20
3269932,24
3270560,15
3271184,11
3271812,10
3272432,15
3273060,15
3273688,15
3274312,36
3274944,50
3275560,53
3276192,100
3276876,79
3277492,58
3278120,26
3278744,33
3279364,52
3279992,95
3280616,91
3281244,23
3281864,13
3282488,13
3283116,52
3283736,99
3284364,107
3285044,81
3285660,33
3286292,15
3286912,18
3287544,27
3288172,22
3288788,41
3289420,68
3290044,42
3290664,23
3291292,14
3291912,61
3292540,114
3293220,84
3293840,74
3294468,30
3295092,60
3295720,109
3296400,86
3297012,40
3297644,105
3298324,116
3298996,43
3299620,13
3300244,57
3300868,90
3301500,106
3302172,90
3302796,66
3303420,30
3304048,51
3304676,67
3305296,33
3305928,20
3306556,109
3307228,119
3307904,68
3308528,12
3309152,78
3309780,133
3310456,169
3311128,130
3311808,32
3312432,97
3313060,103
3313744,82
3314360,111
3315040,73
3315664,23
3316288,24
3316916,14
3317536,14
3318164,43
3318796,60
3319416,71
3320044,92
3320668,79
3321296,30
3321928,37
3322544,17
3323172,52
3323796,74
3324424,62
3325052,67
3325672,13
3326300,19
3326924,16
3327548,27
3328180,56
3328796,67
3329424,19
3330052,30
3330672,41
3331300,39
3331924,52
3332552,31
3333180,11
3333800,39
3334428,67
3335048,57
3335680,69
3336308,40
3336928,14
3337556,18
3338180,59
3338804,77
3339432,48
3340056,19
3340684,15
3341308,26
3341936,49
3342564,57
3343188,30
3343816,19
3344448,97
3345064,88
3345692,36
3346316,11
3346948,12
3347576,27
3348192,44
3348824,41
3349444,16
3350068,11
3350700,38
3351320,70
3351948,81
3352572,87
3353200,82
3353828,23
3354452,19
3355084,46
3355712,89
3356332,64
3356960,27
3357584,17
3358212,14
3358844,30
3359464,37
3360092,17
3360712,18
3361336,22
3361964,14
3362584,18
3363212,38
3363832,12
3364456,44
3365084,63
3365708,82
3366336,71
3366968,23
3367584,16
3368212,49
3368836,15
3369464,41
3370096,60
3370712,23
3371340,37
3371964,76
3372588,59
3373220,74
3373840,39
3374468,13
3375092,18
3375716,26
3376344,28
3376968,32
3377596,20
3378228,18
3378848,17
3379476,21
3380100,20
3380728,15
3381356,21
3381976,27
3382604,20
3383228,13
3383852,26
3384480,57
3385096,80
3385728,84
3386348,80
3386972,38
3387600,14
3388224,49
3388852,41
3389480,34
3390104,35
3390732,20
3391356,12
3391984,88
3392616,131
3393292,113
3393968,97
3394592,30
3395208,162
3395888,247
3396556,135
3397228,16
3397852,33
3398476,24
3399108,26
3399736,11
3400352,12
3400984,27
3401604,32
3402232,22
3402864,16
3403480,18
3404112,27
3404736,20
3405360,13
3405988,10
3406608,12
3407236,13
3407860,22
3408484,16
3409112,43
3409736,11
3410364,13
3410996,24
3411616,28
3412244,44
3412868,22
3413496,54
3414128,64
3414744,11
3415376,16
3416000,15
3416624,21
3417252,57
3417872,88
3418500,55
3419124,22
3419748,22
3420380,14
3421004,18
3421632,11
3422264,10
3422880,41
3423512,37
3424136,21
3424764,60
3425396,58
3426016,53
3426644,37
3427268,14
3427892,30
3428524,40
3429144,28
3429772,13
3430396,13
3431024,20
3431656,22
3432280,18
3432908,24
3433540,37
3434160,60
3434788,72
3435416,63
3436040,62
3436668,59
3437288,54
3437916,61
3438544,17
3439168,21
3439800,20
3440416,13
3441044,35
3441676,25
3442296,19
3442924,31
3443548,35
3444176,54
3444808,106
3445476,97
3446100,39
3446724,11
3447348,19
3447976,31
3448600,47
3449228,64
3449852,79
3450480,52
3451108,26
3451732,24
3452364,35
3452992,34
3453616,35
3454244,48
3454868,67
3455496,47
3456124,16
3456744,43
3457372,20
3457996,135
3458668,78
3459292,38
3459916,57
3460548,49
3461176,34
3461792,30
3462424,22
3463044,12
3463676,25
3464304,28
3464924,15
3465552,13
3466176,19
3466800,35
3467428,46
3468048,66
3468676,74
3469304,68
3469924,54
3470556,60
3471180,66
3471812,29
3472440,10
3473064,17
3473692,47
3474316,81
3474948,58
3475580,34
3476200,64
3476828,89
3477452,65
3478080,15
3478708,20
3479328,23
3479960,19
3480588,17
3481208,14
3481840,10
3482460,10
3483088,13
3483720,26
3484336,35
3484964,38
3485588,48
3486216,43
3486844,42
3487464,31
3488092,21
3488716,10
3489340,23
3489968,22
3490584,16
3491216,15
3491836,24
3492464,29
3493092,31
3493716,27
3494348,15
3494980,14
3495600,15
3496228,12
3496852,11
3497480,15
3498108,11
3498728,15
3499356,22
3499984,29
3500608,32
3501240,38
3501856,35
3502488,36
3503116,45
3503736,63
3504368,73
3504992,36
3505620,42
3506252,16
3506872,61
3507504,56
3508128,24
3508752,38
3509380,65
3510000,164
3510680,125
3511364,58
3511984,39
3512616,22
3513240,41
3513864,80
3514492,77
3515112,60
3515744,41
3516368,37
3516992,76
3517624,30
3518240,15
3518872,33
3519500,47
3520120,47
3520752,43
3521376,17
3522004,23
3522636,20
3523256,13
3523884,9
3524456,12
3525084,18
3525716,15
3526336,18
3526964,33
3527588,39
3528216,32
3528844,22
3529464,47
3530092,39
3530716,21
3531340,13
3531972,20
3532592,45
3533224,72
3533852,24
3534472,20
3535100,69
3535724,68
3536356,27
3536984,52
3537604,26
3538232,39
3538856,72
3539480,71
3540108,31
3540728,33
3541356,47
3541980,28
3542608,13
3543236,18
3543856,41
3544484,51
3545116,42
3545736,17
3546364,41
3546988,52
3547620,40
3548248,41
3548868,11
3549496,39
3550120,19
3550744,22
3551372,35
3551992,30
3552624,21
3553248,19
3553872,21
3554500,16
3555120,12
3555752,10
3556380,10
3557000,13
3557632,10
3558256,9
3558836,11
3559468,19
3560088,25
3560716,14
3561340,15
3561972,14
3562604,16
3563224,19
3563852,15
3564476,11
3565104,10
3565732,10
3566352,14
3566984,36
3567608,71
3568232,71
3568860,58
3569484,31
3570116,20
3570744,22
3571368,22
3571996,15
3572624,11
3573252,44
3573884,64
3574504,50
3575132,33
3575760,53
3576384,57
3577016,29
3577632,14
3578264,36
3578896,39
3579512,29
3580144,16
3580768,18
3581400,34
3582032,11
3582652,33
3583280,42
3583908,54
3584532,59
3585164,30
3585784,14
3586412,21
3587036,30
3587660,18
3588288,22
3588912,18
3589540,17
3590172,20
3590792,13
3591420,12
3592044,30
3592676,48
3593304,47
3593928,42
3594556,25
3595180,16
3595808,19
3596436,12
3597056,21
3597684,37
3598308,37
3598936,25
3599564,16
3600184,14
3600812,29
3601440,14
3602064,48
3602692,56
3603316,21
3603948,18
3604576,46
3605200,32
3605828,16
3606452,34
3607072,43
3607700,13
3608320,13
3608948,10
3609572,56
3610196,55
3610824,24
3611448,51
3612076,35
3612708,40
3613328,23
3613956,29
3614580,49
3615212,78
3615840,77
3616464,77
3617092,20
3617716,38
3618340,27
3618968,31
3619592,36
3620220,19
3620844,18
3621468,24
3622096,12
3622720,12
3623348,11
3623980,11
3624600,11
3625228,20
3625852,22
3626484,35
3627112,53
3627732,29
3628360,66
3628984,42
3629608,12
3630236,10
3630856,13
3631484,10
3632108,28
3632732,19
3633364,10
3633988,12
3634620,42
3635248,54
3635872,54
3636500,41
3637124,31
3637752,29
3638384,21
3639004,15
3639632,14
3640260,25
3640880,20
3641512,10
3642132,18
3642760,15
3643384,62
3644008,40
3644636,27
3645264,45
3645892,43
3646524,46
3647144,25
3647776,11
3648400,13
3649028,16
3649656,14
3650280,14
3650908,13
3651532,14
3652156,21
3652788,28
3653408,31
3654036,46
3654668,45
3655288,23
3655916,10
3656544,10
3657172,10
3657804,10
3658424,11
3659052,10
3659676,12
3660304,14
3660932,13
3661552,15
3662180,14
3662804,19
3663432,27
3664060,23
3664680,45
3665308,97
3665940,90
3666560,59
3667188,51
3667816,13
3668444,75
3669076,59
3669696,35
3670328,29
3670952,32
3671576,61
3672208,44
3672824,26
3673456,19
3674080,20
3674704,21
3675336,12
3675952,10
3676584,13
3677212,23
3677832,15
3678464,14
3679088,14
3679720,10
3680352,12
3680968,24
3681596,15
3682220,13
3682848,14
3683476,28
3684096,54
3684724,57
3685352,50
3685976,59
3686608,66
3687224,85
3687852,71
3688480,18
3689096,14
3689724,16
3690348,47
3690976,34
3691604,29
3692224,50
3692852,43
3693476,19
3694100,14
3694728,16
3695344,19
3695976,32
3696600,15
3697224,19
3697852,12
3698472,12
3699100,12
3699732,24
3700352,43
3700980,51
3701604,35
3702236,16
3702864,14
3703488,20
3704116,22
3704744,21
3705368,15
3705996,14
3706616,29
3707248,15
3707868,33
3708496,59
3709124,26
3709744,21
3710372,16
3711004,27
3711624,39
3712256,28
3712880,23
3713508,17
3714136,15
3714760,33
3715388,38
3716012,40
3716636,51
3717268,46
3717888,26
3718516,15
3719140,13
3719764,15
3720396,16
3721016,13
3721644,18
3722276,28
3722896,20
3723524,61
3724148,65
3724780,59
3725412,32
3726032,44
3726664,100
3727340,89
3727960,64
3728592,31
3729208,12
3729836,13
3730468,16
3731088,10
3731720,10
3732344,11
3732972,18
3733604,44
3734224,49
3734856,37
3735480,67
3736104,93
3736736,63
3737352,15
3737984,41
3738608,40
3739232,36
3739860,21
3740484,43
3741116,22
3741748,37
3742368,64
3743000,138
3743676,66
3744296,16
3744928,37
3745544,35
3746176,15
3746800,10
3747424,13
3748052,23
3748676,39
3749308,51
3749940,48
3750560,48
3751188,57
3751816,73
3752444,85
3753076,64
3753696,48
3754324,31
3754952,81
3755576,161
3756256,100
3756932,42
3757560,15
3758188,10
3758808,11
3759440,25
3760064,19
3760688,15
3761316,14
3761936,15
3762564,20
3763192,22
3763816,20
3764448,19
3765072,14
3765700,11
3766332,22
3766952,12
3767584,31
3768208,32
3768840,26
3769468,28
3770088,23
3770716,17
3771344,25
3771968,13
3772596,10
3773216,17
3773848,19
3774476,12
3775096,10
3775728,13
3776352,15
3776980,14
3777612,16
3778232,27
3778864,32
3779488,33
3780112,39
3780740,19
3781360,13
3781988,19
3782616,30
3783240,58
3783868,59
3784488,73
3785116,19
3785748,19
3786368,15
3787000,48
3787624,35
3788256,19
3788884,32
3789504,50
3790132,71
3790756,25
3791380,36
3792012,34
3792632,21
3793260,24
3793888,59
3794512,45
3795144,15
3795760,18
3796392,21
3797024,22
3797640,18
3798272,12
3798896,10
3799528,16
3800156,29
3800776,54
3801408,70
3802032,74
3802656,53
3803288,43
3803904,18
3804536,31
3805160,37
3805784,33
3806416,22
3807032,13
3807664,41
3808296,37
3808912,11
3809544,38
3810168,52
3810796,39
3811428,46
3812048,18
3812676,54
3813304,64
3813928,46
3814560,14
3815176,17
3815808,15
3816432,19
3817056,28
3817684,41
3818308,44
3818940,16
3819572,39
3820192,32
3820824,12
3821444,15
3822076,25
3822708,19
3823328,15
3823960,13
3824584,11
3825212,15
3825840,10
3826464,21
3827096,30
3827728,23
3828344,14
3828976,19
3829600,16
3830232,21
3830864,11
3831480,16
3832112,14
3832736,27
3833360,47
3833992,45
3834612,41
3835244,50
3835868,46
3836492,28
3837124,20
3837744,12
3838376,31
3839012,51
3839636,45
3840268,47
3840892,25
3841520,13
3842148,59
3842768,84
3843396,67
3844020,25
3844644,17
3845272,54
3845892,67
3846520,48
3847144,57
3847768,39
3848396,22
3849016,12
3849644,25
3850276,43
3850896,46
3851524,46
3852148,41
3852776,37
3853408,34
3854028,13
3854656,25
3855280,21
3855904,20
3856532,15
3857152,14
3857780,12
3858404,10
3859028,26
3859660,18
3860280,16
3860908,15
3861540,14
3862160,15
3862788,19
3863412,36
3864044,49
3864676,48
3865296,35
3865928,17
3866548,10
3867172,12
3867804,13
3868424,15
3869052,33
3869676,34
3870304,27
3870932,19
3871556,12
3872188,17
3872820,14
3873440,11
3874068,11
3874692,12
3875324,11
3875956,16
3876576,37
3877204,37
3877832,29
3878456,21
3879084,11
3879704,18
3880332,21
3880956,28
3881584,29
3882216,35
3882840,36
3883472,42
3884100,45
3884720,47
3885352,29
3885976,33
3886600,23
3887228,17
3887848,31
3888480,11
3889104,11
3889728,11
3890360,10
3890976,10
3891608,62
3892240,63
3892856,29
3893484,28
3894108,32
3894740,15
3895368,16
3895988,16
3896616,10
3897240,14
3897864,10
3898496,13
3899112,13
3899744,28
3900368,19
3900996,38
3901628,52
3902248,53
3902880,37
3903508,15
3904128,11
3904760,15
3905384,11
3906012,27
3906644,14
3907264,18
3907892,17
3908516,13
3909140,14
3909772,14
3910392,13
3911024,24
3911648,15
3912272,33
3912904,12
3913520,21
3914152,34
3914784,40
3915400,18
3916032,17
3916656,11
3917288,28
3917916,26
3918536,15
3919168,13
3919792,16
3920416,15
3921044,10
3921664,19
3922296,11
3922920,43
3923544,45
3924172,34
3924792,25
3925424,12
3926052,10
3926672,18
3927304,44
3927928,72
3928560,78
3929188,71
3929808,21
3930440,21
3931064,12
3931688,19
3932320,16
3932936,61
3933564,24
3934188,18
3934812,27
3935444,14
3936068,16
3936696,17
3937324,12
3937944,13
3938572,25
3939196,34
3939828,33
3940460,10
3941080,11
3941708,12
3942336,11
3942960,14
3943588,18
3944208,23
3944836,44
3945460,49
3946084,39
3946716,28
3947340,10
3947968,19
3948596,25
3949216,41
3949844,34
3950468,13
3951100,19
3951732,23
3952352,37
3952984,52
3953604,50
3954228,42
3954860,23
3955480,22
3956108,11
3956732,10
3957360,22
3957988,29
3958616,27
3959244,45
3959876,50
3960496,38
3961124,30
3961748,17
3962376,11
3963004,10
3963624,34
3964256,14
3964880,14
3965504,20
3966132,29
3966752,41
3967384,55
3968016,50
3968632,45
3969260,43
3969884,38
3970516,26
3971144,16
3971768,11
3972396,13
3973024,18
3973648,12
3974276,18
3974896,14
3975524,10
3976148,16
3976772,23
3977404,38
3978024,15
3978652,14
3979284,10
3979904,30
3980536,80
3981160,53
3981788,12
3982420,18
3983040,18
3983672,34
3984296,44
3984920,39
3985548,43
3986168,46
3986796,41
3987424,27
3988048,11
3988676,12
3989296,10
3989924,10
3990556,11
3991176,11
3991808,19
3992432,21
3993064,13
3993692,16
3994312,18
3994940,20
3995564,15
3996192,10
3996820,10
3997440,12
3998068,26
3998696,42
3999320,35
3999952,20
4000572,23
4001200,32
4001828,29
4002448,18
4003076,38
4003700,49
4004332,31
4004960,12
4005576,10
4006208,24
4006832,16
4007456,28
4008084,28
4008704,11
4009332,28
4009956,33
4010580,52
4011212,58
4011832,41
4012464,21
4013092,38
4013712,23
4014344,53
4014968,40
4015596,13
4016224,22
4016848,34
4017476,27
4018100,13
4018724,40
4019352,66
4019976,31
4020604,13
4021228,12
4021852,10
4022480,12
4023104,16
4023732,23
4024364,26
4024984,25
4025612,19
4026236,13
4026864,16
4027496,14
4028112,16
4028744,53
4029368,106
4030044,104
4030720,83
4031344,65
4031976,56
4032608,97
4033224,43
4033852,18
4034476,29
4035104,33
4035732,44
4036352,28
4036980,26
4037604,36
4038228,29
4038860,11
4039480,13
4040108,23
4040740,17
4041360,29
4041988,25
4042612,42
4043244,61
4043876,34
4044496,18
4045124,35
4045748,27
4046372,11
4047004,18
4047624,29
4048252,33
4048876,28
4049500,11
4050132,25
4050756,40
4051388,41
4052016,34
4052636,25
4053264,29
4053888,19
4054520,11
4055148,27
4055768,44
4056396,25
4057020,13
4057644,13
4058276,11
4058896,18
4059524,22
4060148,14
4060772,16
4061404,30
4062028,27
4062660,14
4063292,10
4063912,12
4064544,36
4065168,34
4065800,28
4066428,45
4067048,68
4067680,72
4068304,48
4068928,44
4069556,14
4070176,31
4070808,50
4071436,29
4072056,14
4072684,25
4073312,35
4073940,27
4074572,12
4075192,20
4075824,35
4076448,37
4077072,29
4077704,25
4078320,19
4078952,13
4079576,24
4080200,35
4080828,37
4081448,34
4082076,36
4082708,56
4083328,58
4083956,56
4084584,50
4085212,36
4085844,21
4086464,15
4087092,24
4087720,13
4088344,11
4088972,11
4089592,11
4090224,12
4090848,26
4091472,47
4092104,43
4092724,39
4093356,31
4093988,24
4094608,19
4095240,18
4095864,11
4096500,17
4097124,21
4097740,29
4098368,26
4098992,29
4099612,51
4100244,68
4100860,69
4101488,50
4102112,42
4102736,21
4103364,18
4103984,38
4104612,20
4105240,12
4105856,33
4106488,37
4107108,20
4107736,10
4108368,21
4108984,91
4109612,97
4110236,51
4110856,47
4111488,57
4112104,34
4112732,11
4113356,15
4113976,24
4114608,28
4115224,40
4115852,54
4116476,64
4117104,76
4117732,49
4118356,32
4118988,36
4119616,15
4120236,23
4120864,27
4121488,12
4122116,11
4122744,36
4123368,42
4123996,29
4124620,18
4125244,16
4125872,27
4126488,39
4127120,38
4127740,30
4128368,17
4128996,31
4129620,57
4130248,81
4130876,120
4131548,54
4132172,23
4132796,21
4133420,27
4134052,29
4134672,23
4135300,72
4135924,94
4136548,81
4137180,75
4137804,57
4138432,41
4139060,75
4139680,58
4140308,73
4140932,82
4141560,65
4142192,39
4142808,20
4143436,11
4144060,17
4144684,15
4145312,15
4145928,26
4146560,19
4147184,21
4147808,19
4148436,19
4149060,20
4149688,24
4150320,40
4150936,63
4151564,51
4152192,38
4152820,28
4153448,25
4154072,25
4154700,72
4155324,68
4155948,19
4156580,31
4157200,51
4157828,55
4158452,11
4159076,20
4159708,22
4160332,26
4160960,44
4161588,30
4162208,17
4162836,11
4163460,31
4164088,86
4164716,105
4165388,70
4166012,31
4166636,21
4167260,89
4167888,98
4168504,66
4169136,36
4169764,17
4170384,15
4171012,10
4171636,10
4172264,12
4172896,14
4173512,15
4174140,9
4174712,14
4175340,20
4175972,12
4176592,13
4177220,14
4177844,15
4178468,18
4179096,10
4179720,11
4180348,32
4180972,21
4181592,10
4182224,10
4182840,15
4183472,32
4184100,38
4184720,34
4185348,33
4185972,32
4186600,24
4187232,35
4187848,55
4188476,42
4189100,46
4189724,42
4190352,14
4190976,64
4191604,72
4192232,106
4192904,111
4193580,72
4194200,29
4194824,29
4195452,25
4196072,45
4196700,81
4197324,86
4197948,34
4198580,56
4199200,69
4199828,47
4200456,25
4201072,68
4201700,79
4202324,74
4202952,34
4203580,24
4204200,23
4204828,11
4205452,19
4206080,13
4206708,14
4207328,45
4207956,77
4208584,61
4209204,37
4209836,20
4210456,41
4211084,115
4211768,146
4212436,122
4213112,94
4213736,24
4214360,125
4215040,164
4215716,93
4216336,54
4216964,18
4217584,27
4218216,55
4218840,73
4219464,66
4220092,57
4220712,56
4221344,29
4221972,10
4222592,43
4223220,75
4223848,58
4224476,74
4225108,59
4225728,37
4226356,15
4226980,15
4227604,38
4228232,44
4228848,36
4229480,29
4230104,49
4230728,30
4231356,13
4231976,54
4232608,97
4233236,90
4233856,25
4234484,13
4235108,47
4235740,140
4236420,27
4237040,31
4237668,23
4238292,11
4238916,13
4239548,34
4240168,31
4240796,30
4241428,67
4242048,51
4242676,28
4243300,17
4243932,15
4244560,26
4245176,34
4245808,24
4246432,30
4247056,32
4247684,40
4248304,41
4248936,33
4249560,46
4250184,105
4250864,108
4251532,100
4252208,82
4252836,18
4253456,102
4254136,120
4254812,79
4255432,53
4256064,50
4256684,45
4257308,58
4257940,42
4258560,47
4259188,21
4259812,14
4260440,39
4261068,26
4261688,42
4262316,34
4262948,41
4263568,29
4264196,10
4264820,23
4265448,30
4266076,38
4266696,41
4267324,27
4267948,23
4268572,27
4269204,39
4269824,51
4270452,31
4271076,18
4271700,25
4272332,28
4272952,52
4273580,60
4274212,14
4274832,49
4275464,64
4276084,67
4276716,42
4277344,21
4277964,39
4278592,60
4279216,71
4279840,49
4280472,31
4281088,31
4281720,70
4282340,33
4282964,50
4283596,54
4284216,31
4284844,24
4285476,14
4286096,25
4286724,15
4287348,20
4287980,15
4288612,15
4289232,20
4289860,23
4290484,19
4291108,15
4291740,10
4292360,19
4292988,22
4293612,14
4294236,22
4294868,15
4295492,31
4296124,49
4296752,46
4297372,49
4298000,11
4298624,29
4299256,29
4299888,25
4300504,15
4301136,27
4301756,13
4302380,14
4303012,14
4303632,25
4304260,60
4304884,80
4305508,73
4306140,56
4306760,31
4307392,21
4308020,11
4308640,22
4309268,46
4309892,84
4310524,119
4311204,91
4311824,60
4312452,24
4313076,41
4313700,12
4314332,10
4314956,24
4315584,22
4316216,26
4316832,62
4317464,80
4318088,38
4318716,44
4319348,42
4319968,16
4320600,42
4321224,80
4321848,81
4322476,40
4323096,46
4323724,16
4324348,69
4324976,24
4325604,56
4326228,64
4326860,61
4327488,56
4328108,29
4328736,112
4329412,140
4330084,52
4330708,12
4331336,11
4331964,36
4332596,70
4333216,19
4333844,43
4334468,60
4335100,69
4335732,60
4336352,49
4336980,61
4337608,31
4338228,67
4338860,42
4339480,37
4340108,50
4340736,60
4341360,59
4341992,25
4342616,16
4343244,13
4343876,27
4344496,25
4345124,19
4345748,15
4346376,36
4347004,78
4347624,94
4348252,122
4348936,124
4349604,24
4350228,48
4350856,63
4351484,40
4352116,16
4352736,16
4353364,13
4353988,10
4354608,27
4355240,14
4355856,10
4356484,13
4357108,14
4357732,55
4358364,111
4359040,46
4359660,17
4360292,22
4360912,25
4361540,23
4362164,25
4362788,28
4363420,47
4364040,49
4364668,14
4365292,61
4365916,92
4366548,91
4367172,81
4367800,34
4368432,43
4369048,82
4369680,137
4370356,121
4371028,74
4371656,39
4372272,26
4372904,13
4373532,23
4374152,11
4374784,15
4375408,50
4376036,54
4376668,16
4377288,23
4377916,31
4378544,21
4379168,43
4379796,14
4380416,31
4381048,48
4381672,44
4382296,45
4382928,63
4383544,62
4384176,17
4384804,43
4385424,48
4386052,42
4386676,14
4387308,38
4387936,67
4388560,45
4389188,55
4389812,68
4390440,18
4391068,61
4391688,53
4392316,84
4392944,73
4393568,40
4394200,15
4394824,33
4395456,21
4396084,10
4396704,11
4397336,15
4397960,11
4398592,17
4399220,29
4399840,13
4400472,20
4401096,40
4401720,32
4402352,16
4402968,20
4403600,18
4404224,16
4404848,10
4405476,14
4406100,23
4406728,35
4407360,33
4407976,31
4408608,33
4409232,30
4409860,84
4410492,44
4411112,17
4411744,32
4412368,91
4412992,110
4413672,102
4414348,52
4414976,21
4415604,109
4416276,111
4416952,85
4417580,53
4418200,17
4418828,21
4419452,19
4420084,34
4420712,61
4421336,57
4421968,28
4422592,21
4423216,100
4423896,77
4424520,33
4425148,24
4425780,20
4426400,15
4427028,25
4427652,50
4428284,81
4428912,86
4429536,89
4430164,61
4430788,15
4431412,11
4432044,59
4432664,65
4433292,40
4433916,11
4434544,15
4435172,19
4435800,23
4436428,27
4437060,30
4437680,13
4438312,28
4438936,33
4439560,16
4440192,11
4440808,13
4441436,15
4442064,13
4442688,18
4443316,20
4443936,24
4444568,23
4445196,22
4445816,11
4446444,24
4447068,40
4447700,19
4448332,22
4448952,44
4449580,61
4450208,29
4450832,13
4451460,27
4452080,37
4452708,40
4453336,42
4453960,16
4454592,31
4455208,59
4455836,31
4456468,12
4457088,13
4457716,23
4458344,43
4458972,11
4459604,13
4460224,27
4460856,47
4461480,30
4462104,48
4462732,35
4463352,13
4463984,12
4464608,31
4465236,35
4465864,15
4466488,19
4467116,31
4467748,96
4468368,96
4469000,17
4469624,61
4470252,79
4470884,74
4471504,27
4472136,48
4472760,71
4473384,101
4474068,61
4474688,29
4475320,13
4475948,15
4476568,12
4477200,28
4477824,63
4478456,99
4479088,98
4479708,83
4480340,63
4480960,38
4481584,157
4482264,117
4482932,16
4483556,22
4484188,20
4484808,19
4485436,17
4486060,17
4486684,27
4487312,44
4487936,60
4488564,30
4489188,35
4489812,47
4490444,12
4491064,29
4491692,19
4492324,40
4492944,126
4493624,102
4494300,32
4494920,17
4495552,24
4496168,18
4496796,22
4497428,35
4498048,39
4498676,37
4499300,36
4499932,40
4500564,44
4501184,41
4501816,33
4502440,37
4503064,23
4503692,12
4504312,12
4504944,11
4505568,17
4506192,22
4506824,11
4507440,16
4508068,14
4508700,14
4509320,19
4509948,15
4510572,15
4511204,20
4511832,19
4512452,13
4513080,10
4513704,11
4514328,10
4514956,21
4515576,57
4516204,79
4516828,18
4517452,36
4518084,71
4518704,16
4519332,27
4519964,18
4520584,71
4521212,89
4521836,57
4522468,48
4523096,36
4523720,17
4524348,13
4524976,13
4525596,39
4526228,76
4526848,99
4527476,55
4528100,51
4528724,12
4529356,52
4529976,39
4530604,12
4531236,24
4531856,20
4532484,17
4533108,27
4533740,40
4534368,106
4535044,70
4535672,59
4536296,54
4536920,46
4537548,110
4538220,54
4538848,32
4539476,49
4540096,63
4540728,18
4541352,27
4541976,31
4542608,17
4543224,26
4543856,57
4544480,33
4545104,19
4545736,12
4546352,17
4546984,28
4547612,30
4548232,37
4548860,56
4549484,66
4550116,67
4550748,69
4551368,35
4552000,23
4552620,41
4553248,44
4553876,17
4554496,14
4555124,18
4555752,17
4556376,13
4557008,16
4557624,25
4558252,34
4558884,30
4559504,25
4560136,16
4560760,53
4561388,61
4562020,34
4562640,11
4563268,27
4563892,42
4564516,35
4565148,57
4565768,90
4566396,31
4567024,11
4567648,21
4568276,37
4568904,15
4569532,40
4570164,34
4570784,13
4571416,11
4572040,17
4572668,53
4573300,52
4573920,33
4574552,12
4575176,12
4575800,11
4576432,18
4577052,20
4577680,15
4578312,27
4578932,30
4579560,34
4580188,26
4580816,17
4581448,15
4582068,54
4582700,26
4583324,25
4583948,39
4584580,26
4585200,19
4585832,22
4586456,29
4587080,26
4587712,18
4588328,21
4588956,33
4589588,36
4590208,34
4590836,42
4591460,43
4592092,13
4592720,32
4593344,37
4593972,23
4594596,38
4595224,73
4595852,58
4596472,18
4597104,12
4597728,26
4598352,50
4598984,13
4599600,35
4600232,58
4600864,53
4601480,48
4602112,27
4602736,15
4603364,15
4603996,14
4604616,21
4605248,11
4605872,11
4606496,15
4607128,11
4607748,24
4608380,12
4609000,23
4609624,53
4610252,20
4610872,25
4611500,35
4612132,30
4612752,26
4613380,17
4614004,11
4614636,10
4615264,10
4615880,13
4616512,37
4617136,45
4617760,33
4618388,16
4619008,15
4619636,14
4620260,13
4620884,14
4621512,25
4622136,23
4622764,12
4623396,10
4624016,10
4624644,13
4625268,15
4625900,26
4626528,13
4627152,15
4627784,32
4628408,33
4629032,22
4629660,30
4630280,17
4630908,15
4631536,35
4632160,28
4632788,11
4633412,34
4634044,76
4634676,80
4635296,66
4635924,38
4636552,17
4637180,50
4637812,26
4638432,45
4639060,51
4639688,45
4640312,11
4640940,15
4641560,11
4642188,32
4642812,28
4643440,31
4644068,20
4644692,17
4645324,17
4645952,23
4646572,11
4647200,15
4647824,14
4648452,43
4649084,22
4649704,46
4650332,69
4650956,41
4651580,19
4652212,29
4652832,21
4653460,15
4654092,35
4654712,101
4655396,128
4656068,122
4656740,63
4657368,21
4657988,78
4658620,155
4659304,175
4659972,146
4660648,94
4661276,54
4661896,21
4662524,22
4663148,30
4663780,35
4664412,38
4665032,43
4665660,50
4666288,44
4666912,43
4667540,49
4668160,43
4668788,31
4669416,30
4670040,31
4670668,18
4671288,11
4671920,23
4672548,26
4673168,18
4673796,21
4674420,14
4675052,14
4675680,19
4676304,17
4676932,19
4677556,17
4678184,21
4678812,10
4679432,20
4680064,27
4680684,18
4681308,12
4681940,15
4682564,30
4683192,62
4683824,85
4684444,69
4685076,52
4685696,25
4686328,29
4686956,21
4687576,16
4688208,13
4688828,48
4689452,56
4690084,30
4690704,24
4691332,16
4691956,68
4692584,140
4693264,134
4693932,58
4694552,25
4695184,16
4695800,27
4696432,21
4697056,17
4697680,22
4698308,21
4698928,38
4699560,55
4700188,55
4700808,78
4701436,59
4702064,43
4702696,19
4703324,49
4703944,47
4704576,18
4705204,10
4705828,11
4706460,11
4707080,11
4707712,19
4708336,27
4708960,22
4709592,22
4710216,14
4710848,22
4711476,30
4712096,31
4712724,29
4713348,21
4713980,21
4714612,22
4715232,12
4715864,14
4716488,11
4717112,25
4717740,27
4718360,17
4718992,15
4719620,16
4720240,32
4720868,37
4721492,37
4722124,29
4722756,14
4723376,17
4724004,34
4724628,38
4725256,47
4725884,34
4726504,31
4727136,49
4727760,36
4728384,15
4729012,23
4729632,25
4730260,19
4730892,11
4731512,22
4732144,21
4732768,13
4733400,22
4734032,28
4734648,23
4735280,20
4735908,15
4736532,15
4737164,12
4737784,27
4738412,27
4739036,11
4739664,17
4740292,16
4740912,28
4741544,27
4742172,14
4742792,32
4743424,33
4744048,15
4744676,24
4745308,10
4745928,11
4746560,24
4747184,43
4747808,70
4748440,43
4749056,11
4749688,33
4750312,53
4750936,71
4751568,82
4752192,88
4752820,61
4753452,63
4754072,125
4754752,92
4755376,36
4756000,14
4756628,27
4757248,28
4757880,11
4758504,63
4759128,66
4759760,35
4760376,26
4761008,19
4761640,18
4762256,55
4762884,79
4763508,67
4764140,65
4764772,38
4765392,11
4766024,19
4766648,11
4767272,11
4767904,37
4768524,58
4769152,45
4769776,20
4770400,11
4771032,10
4771656,12
4772288,31
4772916,46
4773536,31
4774168,15
4774792,15
4775424,36
4776052,47
4776672,47
4777304,17
4777928,33
4778552,15
4779184,23
4779804,19
4780432,12
4781064,29
4781688,22
4782320,29
4782944,53
4783576,47
4784208,48
4784824,61
4785456,34
4786080,24
4786704,33
4787336,28
4787952,23
4788584,20
4789212,11
4789836,11
4790468,19
4791088,20
4791720,11
4792352,22
4792968,20
4793600,15
4794224,19
4794856,19
4795488,28
4796104,23
4796736,13
4797364,10
4797988,12
4798620,11
4799240,11
4799872,17
4800500,10
4801124,17
4801752,23
4802376,15
4803008,14
4803636,10
4804256,15
4804884,12
4805508,10
4806140,17
4806772,26
4807392,21
4808020,13
4808644,12
4809268,27
4809900,34
4810520,22
4811148,15
4811780,30
4812400,19
4813032,15
4813652,11
4814284,54
4814912,47
4815536,17
4816164,11
4816788,11
4817412,22
4818044,23
4818664,29
4819292,24
4819916,19
4820540,14
4821172,12
4821792,35
4822424,48
4823052,36
4823672,23
4824304,22
4824928,25
4825556,23
4826188,20
4826808,18
4827436,15
4828064,13
4828688,15
4829316,22
4829936,32
4830568,41
4831192,48
4831816,52
4832448,67
4833064,68
4833696,59
4834324,41
4834944,17
4835572,15
4836200,31
4836828,24
4837460,16
4838080,24
4838708,19
4839332,14
4839960,11
4840588,19
4841208,30
4841836,29
4842460,30
4843088,23
4843716,16
4844336,22
4844964,73
4845596,116
4846268,126
4846944,50
4847568,11
4848192,42
4848820,91
4849440,77
4850072,36
4850700,47
4851320,93
4851948,63
4852576,67
4853204,17
4853836,66
4854456,77
4855084,87
4855712,61
4856336,45
4856964,32
4857584,53
4858216,51
4858840,19
4859464,19
4860096,50
4860712,44
4861344,40
4861976,53
4862596,21
4863228,23
4863852,21
4864488,11
4865116,36
4865736,34
4866364,12
4866988,35
4867616,34
4868244,14
4868864,19
4869492,14
4870116,18
4870744,11
4871372,13
4871992,19
4872624,20
4873252,12
4873872,24
4874504,37
4875128,33
4875756,24
4876388,22
4877008,14
4877636,19
4878260,24
4878888,15
4879516,12
4880136,17
4880764,12
4881388,15
4882012,17
4882644,26
4883268,36
4883900,27
4884528,23
4885148,19
4885776,16
4886400,15
4887028,13
4887660,15
4888280,14
4888912,11
4889536,12
4890160,16
4890788,10
4891408,30
4892040,41
4892664,19
4893288,15
4893920,21
4894544,26
4895176,23
4895808,28
4896424,41
4897056,43
4897680,26
4898308,16
4898940,20
4899560,14
4900192,21
4900816,20
4901440,12
4902068,14
4902688,15
4903320,25
4903952,27
4904572,31
4905200,60
4905824,44
4906456,16
4907088,47
4907708,41
4908340,11
4908964,13
4909588,27
4910220,74
4910840,57
4911472,31
4912096,11
4912724,10
4913352,15
4913976,18
4914608,16
4915240,28
4915860,38
4916492,53
4917112,48
4917744,36
4918372,29
4918992,39
4919620,33
4920248,33
4920872,55
4921500,100
4922172,79
4922796,47
4923428,38
4924048,39
4924676,97
4925304,129
4925984,43
4926608,17
4927224,26
4927856,54
4928480,16
4929100,73
4929732,37
4930352,12
4930980,20
4931612,14
4932232,14
4932860,21
4933484,13
4934116,29
4934744,56
4935368,63
4935996,43
4936620,18
4937244,27
4937876,52
4938496,60
4939124,54
4939752,40
4940376,33
4941004,20
4941624,15
4942252,11
4942884,12
4943504,15
4944132,19
4944756,24
4945388,27
4946020,20
4946640,19
4947268,21
4947892,15
4948516,21
4949148,24
4949768,35
4950396,47
4951024,57
4951648,63
4952280,63
4952904,57
4953536,42
4954168,20
4954784,42
4955416,90
4956040,70
4956672,58
4957300,65
4957920,37
4958552,24
4959176,26
4959800,18
4960432,15
4961048,15
4961676,15
4962300,10
4962928,20
4963556,21
4964180,13
4964812,16
4965440,19
4966064,29
4966696,38
4967316,47
4967940,48
4968572,44
4969192,24
4969820,21
4970444,11
4971068,11
4971700,10
4972320,13
4972948,14
4973580,10
4974200,11
4974828,23
4975452,26
4976084,23
4976716,16
4977336,14
4977964,15
4978588,27
4979212,40
4979844,24
4980464,22
4981092,24
4981720,10
4982344,25
4982976,45
4983592,61
4984224,64
4984856,44
4985472,21
4986104,23
4986728,15
4987360,13
4987988,20
4988608,48
4989240,11
4989864,11
4990488,12
4991120,108
4991788,147
4992468,114
4993144,54
4993768,24
4994396,14
4995024,27
4995648,29
4996280,26
4996896,28
4997528,45
4998156,42
4998776,41
4999404,55
5000028,40
5000660,15
5001288,25
5001908,16
5002536,25
5003160,15
5003788,15
5004416,28
5005040,37
5005668,45
5006292,43
5006920,35
5007548,12
5008168,35
5008796,49
5009428,42
5010048,45
5010676,36
5011304,15
5011932,11
5012564,15
5013184,11
5013816,12
5014440,21
5015064,29
5015696,48
5016312,87
5016944,93
5017572,47
5018196,13
5018828,28
5019448,20
5020076,11
5020708,14
5021328,23
5021960,84
5022584,110
5023268,82
5023896,45
5024516,13
5025144,11
5025768,16
5026392,57
5027024,73
5027644,71
5028272,18
5028900,45
5029520,81
5030152,53
5030776,19
5031408,15
5032036,37
5032656,33
5033288,13
5033912,24
5034536,31
5035168,30
5035788,27
5036420,25
5037044,17
5037668,12
5038300,12
5038924,12
5039556,30
5040188,58
5040808,35
5041436,13
5042064,11
5042692,22
5043324,20
5043944,15
5044572,15
5045200,13
5045824,12
5046452,13
5047072,15
5047704,17
5048332,14
5048952,29
5049584,45
5050208,50
5050840,49
5051468,37
5052088,25
5052720,15
5053344,18
5053972,16
5054604,14
5055224,17
5055856,22
5056480,23
5057104,15
5057736,13
5058356,23
5058988,23
5059620,23
5060240,32
5060872,19
5061496,15
5062128,33
5062756,53
5063376,59
5064008,61
5064632,75
5065256,33
5065888,29
5066508,57
5067136,59
5067764,39
5068388,15
5069020,26
5069644,40
5070276,83
5070908,80
5071528,37
5072160,14
5072784,15
5073416,13
5074048,16
5074664,16
5075296,20
5075920,22
5076544,19
5077176,14
5077796,22
5078428,20
5079056,11
5079680,13
5080308,10
5080936,14
5081568,15
5082196,11
5082816,22
5083448,39
5084072,40
5084696,22
5085328,14
5085944,14
5086576,15
5087200,12
5087824,10
5088456,10
5089076,10
5089704,12
5090336,12
5090956,12
5091588,15
5092212,11
5092844,18
5093476,21
5094096,15
5094728,40
5095352,67
5095980,70
5096612,67
5097232,29
5097864,12
5098488,46
5099112,33
5099744,13
5100368,25
5101000,17
5101628,15
5102248,15
5102880,14
5103504,11
5104136,13
5104768,16
5105388,18
5106020,14
5106644,11
5107268,13
5107900,15
5108520,29
5109152,17
5109784,32
5110404,26
5111032,16
5111660,16
5112292,13
5112924,32
5113548,31
5114180,26
5114804,12
5115432,48
5116064,42
5116684,12
5117316,39
5117944,36
5118572,23
5119204,22
5119828,20
5120464,18
5121092,9
5121660,14
5122292,14
5122916,11
5123544,10
5124172,10
5124792,19
5125420,27
5126044,31
5126668,30
5127296,35
5127912,16
5128540,10
5129164,12
5129788,10
5130416,10
5131032,11
5131664,12
5132292,17
5132912,13
5133540,11
5134164,14
5134792,12
5135424,13
5136040,14
5136668,13
5137292,10
5137920,11
5138548,10
5139168,12
5139800,12
5140424,24
5141048,18
5141676,10
5142296,14
5142924,22
5143548,55
5144176,58
5144804,29
5145428,12
5146060,19
5146688,18
5147312,12
5147940,20
5148564,15
5149192,11
5149820,26
5150440,51
5151068,51
5151696,32
5152320,16
5152948,20
5153568,19
5154196,11
5154828,18
5155448,26
5156076,25
5156700,19
5157332,17
5157964,29
5158584,55
5159212,31
5159836,24
5160460,39
5161092,16
5161712,12
5162340,20
5162964,40
5163588,39
5164216,40
5164840,53
5165468,55
5166100,65
5166720,64
5167348,24
5167972,19
5168604,19
5169236,14
5169856,21
5170484,61
5171112,65
5171736,55
5172364,42
5172984,26
5173612,13
5174236,25
5174860,45
5175492,34
5176112,53
5176740,34
5177372,16
5177992,25
5178620,45
5179244,13
5179876,15
5180508,58
5181128,46
5181760,11
5182380,17
5183008,56
5183636,66
5184256,35
5184884,41
5185508,95
5186132,66
5186760,28
5187384,26
5188012,50
5188644,45
5189264,19
5189892,11
5190520,17
5191148,25
5191780,20
5192400,33
5193028,16
5193652,37
5194276,20
5194908,48
5195528,28
5196156,21
5196784,12
5197408,10
5198040,35
5198664,57
5199296,37
5199924,34
5200544,30
5201172,20
5201796,29
5202428,35
5203056,22
5203680,19
5204308,16
5204932,15
5205556,13
5206188,15
5206808,15
5207436,21
5208060,19
5208688,12
5209316,56
5209944,73
5210572,41
5211200,22
5211824,11
5212456,37
5213080,84
5213704,85
5214332,85
5214952,84
5215584,17
5216208,55
5216832,22
5217460,14
5218080,19
5218708,44
5219340,20
5219960,13
5220592,18
5221216,22
5221848,11
5222476,14
5223096,11
5223724,20
5224348,16
5224972,21
5225600,62
5226224,37
5226856,19
5227480,25
5228104,43
5228732,38
5229352,22
5229984,27
5230612,29
5231232,21
5231864,13
5232488,19
5233116,28
5233748,38
5234368,50
5235000,31
5235624,17
5236248,14
5236876,14
5237496,15
5238128,21
5238752,25
5239376,31
5240008,32
5240624,17
5241256,11
5241884,20
5242504,31
5243136,26
5243760,27
5244388,24
5245016,12
5245636,25
5246264,35
5246888,57
5247512,84
5248140,83
5248756,69
5249388,42
5250008,86
5250628,53
5251260,14
5251880,35
5252508,43
5253136,40
5253752,34
5254384,16
5255008,17
5255636,23
5256264,10
5256888,13
5257516,22
5258140,60
5258764,77
5259392,60
5260016,31
5260644,19
5261268,16
5261892,11
5262520,12
5263144,15
5263772,31
5264404,54
5265024,60
5265652,52
5266276,69
5266904,97
5267532,104
5268204,53
5268828,20
5269452,40
5270076,108
5270756,88
5271376,42
5272004,27
5272636,28
5273256,25
5273888,21
5274508,19
5275140,18
5275768,27
5276388,18
5277016,19
5277640,28
5278264,37
5278892,38
5279512,48
5280140,73
5280764,71
5281392,66
5282020,59
5282644,45
5283272,29
5283900,21
5284520,13
5285148,16
5285772,14
5286400,15
5287028,10
5287648,16
5288276,21
5288900,31
5289524,21
5290152,22
5290768,30
5291400,19
5292024,16
5292648,35
5293276,25
5293900,15
5294532,14
5295160,15
5295780,14
5296408,11
5297032,13
5297660,12
5298292,10
5298912,17
5299540,36
5300164,55
5300788,50
5301420,28
5302040,29
5302668,25
5303292,22
5303920,12
5304552,17
5305172,16
5305804,10
5306432,14
5307056,27
5307684,31
5308308,38
5308936,27
5309564,22
5310184,26
5310812,30
5311440,33
5312064,11
5312692,10
5313312,13
5313940,31
5314572,52
5315192,15
5315820,33
5316448,25
5317076,11
5317708,14
5318328,32
5318960,62
5319584,64
5320208,18
5320836,11
5321456,36
5322088,49
5322712,38
5323336,25
5323964,38
5324584,19
5325216,11
5325844,28
5326464,53
5327092,24
5327716,15
5328344,16
5328972,10
5329592,15
5330220,24
5330844,11
5331468,30
5332096,49
5332712,52
5333340,50
5333964,40
5334588,33
5335220,32
5335840,27
5336468,17
5337096,11
5337720,9
5338296,9
5338868,19
5339500,32
5340128,32
5340752,27
5341380,18
5342000,11
5342628,13
5343260,13
5343880,15
5344512,15
5345132,18
5345764,24
5346392,32
5347016,34
5347644,37
5348268,36
5348892,13
5349524,27
5350144,16
5350776,19
5351396,25
5352024,18
5352652,18
5353272,18
5353900,14
5354532,10
5355152,17
5355784,16
5356408,16
5357036,12
5357668,14
5358288,24
5358916,31
5359544,33
5360168,17
5360796,22
5361416,32
5362044,36
5362668,57
5363292,44
5363924,11
5364548,10
5365176,20
5365808,17
5366424,10
5367052,11
5367676,13
5368308,15
5368936,16
5369560,17
5370192,17
5370816,11
5371440,37
5372068,38
5372688,23
5373316,19
5373944,13
5374568,31
5375200,17
5375824,31
5376456,54
5377084,24
5377704,42
5378332,35
5378956,13
5379584,27
5380212,76
5380832,69
5381460,21
5382084,24
5382708,53
5383336,60
5383960,66
5384588,49
5385212,24
5385840,25
5386468,25
5387092,11
5387724,17
5388352,39
5388972,74
5389600,52
5390224,13
5390852,19
5391484,26
5392104,34
5392732,57
5393356,47
5393980,51
5394612,58
5395232,15
5395860,46
5396492,22
5397112,16
5397744,36
5398368,21
5398996,23
5399628,26
5400248,17
5400876,18
5401504,22
5402128,21
5402756,18
5403376,14
5404004,28
5404628,29
5405252,16
5405884,10
5406504,13
5407136,10
5407764,10
5408384,11
5409012,16
5409636,17
5410264,15
5410892,17
5411512,20
5412140,16
5412764,11
5413388,11
5414020,10
5414640,16
5415268,29
5415892,43
5416516,60
5417148,49
5417768,27
5418396,17
5419028,16
5419648,15
5420276,19
5420904,21
5421532,17
5422164,14
5422784,15
5423412,21
5424040,20
5424660,17
5425292,22
5425912,21
5426544,23
5427168,22
5427792,18
5428424,20
5429040,49
5429668,53
5430300,68
5430920,93
5431548,73
5432176,45
5432804,53
5433436,16
5434056,49
5434684,25
5435308,18
5435936,14
5436564,16
5437184,21
5437816,17
5438440,28
5439064,43
5439692,44
5440312,37
5440940,29
5441568,26
5442192,22
5442820,27
5443444,25
5444072,21
5444704,21
5445320,49
5445948,33
5446572,14
5447196,19
5447828,26
5448448,22
5449076,13
5449700,13
5450324,31
5450952,35
5451572,29
5452200,18
5452828,14
5453448,10
5454076,14
5454700,11
5455328,37
5455960,30
5456580,14
5457208,11
5457832,11
5458456,15
5459084,21
5459704,23
5460332,14
5460956,23
5461580,56
5462212,74
5462832,57
5463460,50
5464092,38
5464712,11
5465340,15
5465968,37
5466596,32
5467228,12
5467848,16
5468476,15
5469100,29
5469724,25
5470356,10
5470976,14
5471608,23
5472232,38
5472856,29
5473484,22
5474104,32
5474732,18
5475364,11
5475984,17
5476616,17
5477240,16
5477868,13
5478500,18
5479120,27
5479748,26
5480372,27
5480996,29
5481624,24
5482248,30
5482876,44
5483500,61
5484128,35
5484756,23
5485380,36
5486012,16
5486644,37
5487264,32
5487896,19
5488520,11
5489152,10
5489780,10
5490400,11
5491028,17
5491652,16
5492276,14
5492908,30
5493528,55
5494160,44
5494784,14
5495408,25
5496036,37
5496660,27
5497292,22
5497924,26
5498544,41
5499176,40
5499800,40
5500424,40
5501056,13
5501672,41
5502304,45
5502928,40
5503552,31
5504184,27
5504800,35
5505428,38
5506060,26
5506680,11
5507308,13
5507932,24
5508564,25
5509196,16
5509816,17
5510444,20
5511068,32
5511692,38
5512324,32
5512944,29
5513576,19
5514200,9
5514772,21
5515408,17
5516024,11
5516656,18
5517280,35
5517904,29
5518536,18
5519152,23
5519784,30
5520416,36
5521036,52
5521664,39
5522288,13
5522916,44
5523548,34
5524168,13
5524796,11
5525424,14
5526048,20
5526680,26
5527296,23
5527928,14
5528552,11
5529176,20
5529808,19
5530424,21
5531052,31
5531684,30
5532304,22
5532932,12
5533556,11
5534188,28
5534816,38
5535440,26
5536068,14
5536692,14
5537316,12
5537948,27
5538568,41
5539196,27
5539824,28
5540448,37
5541076,35
5541704,34
5542332,24
5542964,18
5543584,14
5544216,39
5544840,78
5545468,91
5546100,71
5546720,63
5547352,40
5547976,19
5548600,25
5549232,12
5549848,23
5550480,50
5551108,77
5551728,53
5552360,31
5552984,15
5553612,18
5554244,44
5554864,67
5555496,48
5556120,13
5556744,11
5557376,12
5557992,15
5558624,19
5559248,26
5559872,29
5560504,21
5561120,15
5561752,12
5562384,19
5563000,27
5563632,37
5564256,35
5564888,29
5565516,35
5566136,30
5566768,18
5567392,13
5568016,14
5568648,15
5569264,20
5569896,14
5570520,20
5571144,21
5571772,20
5572392,22
5573020,16
5573652,10
5574272,11
5574904,12
5575528,13
5576156,24
5576788,30
5577408,35
5578040,27
5578664,23
5579288,23
5579916,40
5580536,33
5581168,13
5581792,37
5582416,49
5583044,70
5583664,70
5584296,78
5584924,90
5585544,82
5586176,46
5586800,32
5587428,48
5588060,98
5588680,69
5589312,45
5589936,55
5590560,45
5591192,24
5591808,20
5592440,20
5593064,16
5593688,23
5594316,57
5594936,32
5595568,10
5596196,22
5596816,46
5597444,41
5598072,20
5598700,14
5599332,30
5599952,48
5600584,55
5601208,48
5601832,40
5602464,24
5603080,15
5603712,10
5604336,9
5604908,15
5605540,24
5606160,29
5606792,21
5607412,11
5608036,10
5608668,15
5609292,25
5609920,32
5610548,18
5611168,19
5611800,38
5612424,26
5613052,10
5613684,16
5614304,27
5614936,41
5615560,33
5616184,32
5616812,17
5617432,15
5618060,19
5618688,18
5619312,28
5619940,61
5620568,57
5621196,31
5621828,10
5622448,25
5623076,32
5623700,20
5624328,15
5624956,10
5625576,15
5626208,19
5626832,19
5627456,14
5628088,15
5628704,31
5629336,35
5629968,20
5630584,10
5631216,12
5631844,12
5632476,17
5633104,42
5633720,41
5634352,32
5634976,17
5635600,13
5636228,23
5636848,34
5637476,24
5638100,28
5638724,12
5639352,10
5639976,12
5640604,10
5641236,16
5641856,48
5642484,44
5643108,14
5643740,26
5644368,34
5644992,32
5645620,27
5646244,14
5646868,13
5647500,34
5648120,46
5648748,46
5649372,45
5649996,22
5650628,16
5651248,17
5651876,14
5652508,14
5653128,11
5653756,13
5654380,17
5655012,24
5655644,22
5656264,27
5656892,19
5657516,11
5658144,9
5658720,16
5659344,21
5659972,40
5660596,41
5661224,50
5661852,74
5662472,39
5663104,11
5663728,14
5664352,11
5664980,25
5665604,38
5666232,11
5666864,10
5667484,17
5668112,66
5668736,59
5669364,29
5669996,12
5670616,12
5671244,11
5671872,11
5672496,11
5673124,10
5673744,11
5674372,16
5675000,21
5675624,27
5676252,14
5676880,21
5677508,23
5678140,16
5678760,24
5679388,28
5680016,12
5680644,27
5681276,12
5681896,45
5682528,53
5683152,61
5683776,58
5684404,38
5685024,18
5685652,14
5686284,14
5686904,10
5687532,10
5688160,9
5688736,10
5689364,12
5689984,34
5690616,36
5691240,13
5691868,12
5692500,14
5693120,51
5693752,84
5694376,56
5695000,17
5695632,11
5696248,16
5696880,20
5697504,17
5698128,15
5698756,20
5699376,24
5700004,26
5700636,25
5701256,19
5701884,13
5702512,14
5703140,15
5703772,10
5704392,24
5705024,31
5705648,26
5706272,18
5706900,14
5707520,12
5708152,16
5708776,15
5709400,17
5710032,14
5710652,41
5711284,44
5711912,40
5712536,19
5713168,20
5713792,14
5714424,11
5715052,18
5715672,29
5716304,12
5716928,15
5717552,16
5718184,34
5718804,58
5719436,70
5720060,38
5720688,13
5721320,30
5721944,29
5722576,22
5723204,16
5723824,24
5724456,15
5725080,15
5725704,28
5726336,32
5726956,27
5727588,15
5728212,21
5728836,20
5729468,10
5730088,10
5730720,11
5731348,22
5731968,34
5732600,45
5733228,65
5733860,51
5734492,34
5735112,25
5735740,27
5736364,13
5736988,34
5737616,35
5738232,28
5738864,25
5739488,16
5740112,11
5740740,10
5741360,11
5741988,17
5742620,16
5743240,17
5743868,21
5744496,37
5745124,41
5745756,34
5746376,27
5747008,17
5747632,16
5748256,23
5748884,12
5749504,18
5750136,28
5750760,25
5751384,19
5752012,13
5752632,14
5753264,12
5753892,10
5754512,15
5755144,17
5755768,19
5756400,17
5757028,12
5757648,11
5758276,11
5758904,14
5759528,14
5760160,13
5760776,15
5761404,11
5762028,10
5762648,14
5763280,12
5763896,11
5764524,11
5765156,15
5765776,29
5766404,41
5767028,38
5767656,47
5768288,37
5768904,21
5769532,15
5770156,11
5770780,13
5771412,10
5772032,13
5772660,16
5773288,11
5773908,11
5774540,28
5775160,24
5775792,22
5776420,16
5777040,17
5777668,18
5778292,23
5778920,22
5779552,16
5780168,14
5780800,14
5781424,32
5782048,32
5782676,19
5783296,13
5783924,17
5784552,24
5785176,23
5785804,23
5786424,35
5787052,81
5787684,98
5788304,72
5788932,81
5789556,87
5790188,20
5790816,127
5791492,113
5792172,74
5792796,75
5793416,97
5794044,59
5794668,33
5795300,25
5795928,15
5796552,17
5797180,11
5797804,27
5798428,32
5799060,38
5799680,61
5800308,54
5800932,16
5801556,18
5802188,15
5802808,15
5803436,14
5804068,10
5804688,16
5805320,22
5805944,33
5806572,25
5807204,20
5807824,21
5808456,10
5809080,13
5809704,15
5810332,18
5810952,14
5811584,13
5812208,27
5812832,63
5813460,71
5814088,58
5814716,34
5815348,10
5815968,10
5816600,12
5817224,17
5817852,19
5818484,14
5819104,15
5819736,11
5820360,11
5820984,15
5821612,13
5822232,19
5822864,31
5823492,28
5824112,16
5824740,25
5825364,48
5825996,40
5826624,20
5827248,22
5827876,18
5828500,10
5829128,19
5829756,30
5830376,54
5831008,76
5831632,81
5832256,80
5832884,80
5833504,56
5834136,19
5834768,22
5835384,14
5836016,22
5836640,27
5837272,23
5837900,11
5838520,21
5839148,32
5839776,40
5840400,21
5841028,11
5841648,11
5842276,21
5842900,30
5843524,29
5844156,32
5844776,27
5845404,21
5846036,12
5846656,15
5847284,32
5847912,45
5848540,42
5849172,30
5849792,31
5850420,37
5851044,21
5851668,16
5852300,16
5852920,18
5853548,26
5854176,19
5854800,21
5855428,24
5856048,28
5856680,27
5857308,10
5857928,13
5858556,14
5859184,14
5859812,18
5860444,21
5861064,15
5861696,13
5862320,15
5862944,33
5863576,32
5864192,17
5864820,19
5865444,29
5866072,31
5866700,35
5867320,25
5867952,23
5868580,18
5869200,14
5869828,10
5870456,11
5871084,13
5871716,17
5872336,17
5872968,14
5873592,17
5874216,14
5874848,30
5875468,30
5876100,16
5876724,15
5877348,16
5877980,19
5878604,11
5879236,20
5879868,15
5880488,20
5881116,46
5881744,21
5882376,46
5883004,75
5883624,76
5884256,79
5884880,66
5885504,17
5886136,56
5886756,51
5887384,28
5888016,59
5888640,60
5889268,50
5889892,30
5890524,13
5891152,18
5891776,30
5892408,48
5893032,22
5893656,15
5894288,15
5894904,22
5895536,38
5896160,46
5896784,43
5897416,29
5898036,10
5898664,15
5899296,20
5899912,41
5900540,34
5901168,13
5901796,21
5902428,12
5903048,24
5903676,31
5904304,25
5904928,11
5905556,26
5906176,23
5906804,10
5907432,12
5908056,16
5908684,12
5909304,13
5909932,14
5910564,13
5911184,14
5911816,11
5912440,11
5913068,11
5913700,14
5914320,13
5914948,14
5915576,29
5916200,57
5916828,59
5917448,53
5918080,55
5918704,47
5919328,30
5919960,19
5920584,21
5921212,21
5921844,32
5922464,32
5923092,19
5923720,24
5924348,22
5924980,34
5925600,41
5926228,26
5926856,14
5927480,17
5928108,13
5928728,11
5929356,11
5929984,11
5930608,13
5931240,23
5931864,25
5932492,31
5933124,42
5933744,34
5934376,34
5935000,32
5935624,18
5936256,13
5936872,37
5937504,41
5938128,33
5938752,24
5939384,11
5940000,11
5940628,42
5941260,59
5941880,64
5942508,25
5943132,14
5943764,15
5944392,14
5945016,16
5945644,19
5946268,69
5946892,46
5947524,24
5948144,11
5948776,27
5949400,40
5950024,42
5950656,30
5951272,35
5951904,32
5952536,29
5953152,11
5953780,11
5954408,16
5955036,10
5955668,18
5956288,19
5956916,11
5957544,11
5958168,11
5958800,14
5959416,14
5960048,20
5960672,17
5961292,12
5961924,10
5962544,13
5963172,11
5963804,9
5964372,12
5965008,24
5965624,44
5966252,50
5966884,40
5967504,36
5968136,29
5968760,24
5969388,19
5970020,15
5970640,21
5971268,15
5971892,11
5972520,11
5973148,25
5973768,39
5974400,24
5975024,21
5975648,35
5976280,31
5976904,15
5977536,14
5978168,20
5978784,23
5979416,21
5980044,23
5980672,34
5981304,35
5981924,26
5982552,17
5983180,31
5983804,40
5984436,51
5985056,35
5985688,27
5986316,18
5986936,12
5987568,25
5988192,43
5988824,53
5989452,32
5990072,20
5990704,13
5991328,11
5991952,20
5992584,18
5993200,14
5993832,13
5994456,28
5995080,25
5995712,12
5996328,21
5996960,23
5997588,29
5998208,29
5998840,23
5999464,13
6000096,24
6000724,33
6001344,32
6001972,16
6002596,29
6003224,45
6003852,43
6004472,21
6005104,21
6005728,23
6006352,11
6006984,11
6007600,11
6008232,14
6008864,18
6009480,16
6010112,18
6010736,29
6011368,12
6011996,19
6012616,28
6013248,35
6013876,27
6014500,21
6015132,26
6015752,41
6016388,52
6017012,30
6017636,15
6018264,14
6018888,18
6019520,15
6020148,10
6020768,13
6021400,12
6022024,17
6022652,10
6023284,10
6023904,14
6024536,14
6025160,32
6025784,38
6026412,20
6027032,29
6027664,56
6028296,63
6028912,73
6029544,45
6030168,24
6030800,47
6031428,34
6032048,37
6032676,37
6033300,15
6033928,13
6034556,13
6035176,17
6035808,22
6036436,18
6037060,11
6037692,28
6038312,30
6038944,22
6039576,17
6040196,10
6040828,18
6041452,18
6042084,33
6042716,58
6043336,83
6043968,91
6044592,68
6045216,53
6045848,11
6046464,53
6047096,91
6047720,86
6048344,80
6048972,42
6049592,19
6050224,12
6050852,16
6051472,19
6052104,17
6052728,18
6053360,11
6053988,11
6054608,22
6055240,35
6055864,34
6056488,33
6057120,19
6057736,17
6058368,28
6058992,44
6059616,26
6060248,14
6060872,15
6061504,16
6062136,14
6062752,13
6063384,15
6064008,27
6064636,31
6065268,14
6065888,10
6066520,14
6067144,17
6067768,13
6068400,16
6069020,30
6069648,26
6070280,18
6070900,10
6071532,12
6072156,10
6072788,10
6073420,10
6074040,10
6074672,11
6075296,20
6075920,13
6076552,14
6077172,13
6077804,13
6078428,10
6079052,20
6079684,21
6080304,12
6080936,32
6081564,19
6082184,15
6082816,15
6083440,20
6084068,19
6084700,16
6085320,15
6085948,26
6086576,31
6087200,11
6087828,14
6088448,16
6089076,16
6089704,23
6090328,26
6090956,21
6091576,17
6092208,13
6092836,18
6093456,23
6094084,25
6094708,26
6095340,25
6095972,12
6096592,11
6097224,11
6097848,13
6098472,18
6099104,27
6099720,16
6100352,13
6100976,17
6101600,37
6102232,33
6102856,29
6103488,32
6104120,31
6104736,17
6105368,17
6105992,12
6106624,19
6107252,39
6107872,33
6108504,53
6109128,66
6109752,55
6110384,39
6111004,23
6111636,10
6112268,22
6112888,29
6113520,30
6114144,26
6114776,28
6115404,35
6116024,42
6116656,48
6117280,35
6117904,15
6118536,15
6119156,16
6119784,24
6120412,30
6121036,31
6121668,26
6122288,27
6122920,12
6123552,10
6124168,13
6124800,21
6125424,21
6126056,15
6126688,18
6127304,18
6127940,25
6128564,19
6129192,12
6129824,10
6130440,13
6131072,11
6131700,10
6132324,15
6132956,22
6133580,23
6134212,17
6134848,14
6135464,14
6136096,15
6136724,26
6137352,12
6137984,19
6138604,57
6139236,36
6139860,15
6140488,10
6141120,24
6141740,36
6142372,24
6143004,21
6143628,17
6144260,16
6144884,11
6145512,11
6146140,11
6146760,23
6147388,14
6148012,11
6148636,13
6149264,22
6149888,44
6150516,61
6151140,68
6151764,67
6152396,56
6153016,13
6153644,33
6154276,38
6154896,23
6155524,9
6156096,17
6156732,15
6157364,19
6157984,61
6158616,83
6159240,71
6159868,34
6160500,15
6161120,13
6161748,12
6162372,10
6163000,11
6163628,17
6164248,20
6164876,16
6165500,22
6166128,29
6166756,35
6167380,32
6168012,31
6168640,26
6169264,26
6169896,36
6170520,19
6171144,10
6171772,10
6172392,16
6173024,13
6173648,57
6174272,50
6174904,25
6175520,17
6176152,17
6176780,14
6177400,19
6178028,20
6178656,11
6179284,15
6179916,12
6180536,23
6181164,36
6181792,40
6182416,33
6183044,26
6183664,19
6184296,14
6184920,15
6185544,19
6186176,21
6186792,13
6187424,12
6188052,10
6188672,12
6189304,27
6189928,41
6190560,30
6191188,16
6191808,18
6192440,37
6193064,35
6193688,19
6194320,17
6194936,34
6195568,35
6196192,15
6196816,13
6197448,11
6198068,16
6198696,28
6199328,26
6199948,37
6200580,18
6201204,38
6201836,42
6202464,21
6203084,10
6203712,16
6204340,11
6204964,10
6205596,12
6206216,11
6206848,15
6207472,21
6208096,13
6208724,15
6209348,16
6209980,13
6210612,14
6211232,11
6211860,17
6212488,11
6213116,18
6213748,30
6214368,42
6215000,18
6215624,11
6216248,12
6216880,13
6217500,19
6218132,24
6218760,20
6219384,20
6220016,13
6220640,10
6221272,11
6221904,10
6222520,16
6223152,11
6223776,17
6224404,16
6225032,12
6225656,13
6226288,14
6226912,16
6227536,17
6228164,10
6228784,10
6229416,14
6230044,18
6230664,15
6231296,13
6231920,15
6232552,22
6233180,31
6233800,51
6234432,70
6235056,61
6235680,59
6236312,62
6236928,29
6237560,31
6238184,79
6238808,86
6239440,86
6240056,60
6240688,40
6241316,34
6241936,23
6242564,13
6243188,15
6243820,17
6244452,14
6245072,11
6245704,10
6246328,13
6246952,10
6247584,11
6248200,11
6248832,27
6249456,45
6250080,43
6250708,26
6251332,33
6251964,39
6252596,27
6253216,17
6253844,9
6254420,11
6255052,9
6255632,13
6256256,17
6256888,12
6257508,11
6258140,15
6258772,23
6259392,41
6260020,32
6260648,15
6261272,39
6261900,62
