tempo_arduino_micro_s,valor_ADC
500,14
1004,13
1504,16
2000,15
2508,19
3000,25
3508,23
4000,20
4508,19
5000,18
5500,18
6000,18
6500,30
7000,36
7500,35
8000,32
8500,19
9000,10
9500,12
10000,11
10508,12
11028,12
11556,17
12076,18
12604,20
13124,20
13648,22
14172,19
14700,18
15220,18
15748,18
16268,21
16796,22
17316,25
17836,29
18356,31
18876,18
19396,16
19916,20
20436,29
20956,45
21476,48
21996,42
22516,38
23036,30
23564,20
24084,10
24612,12
25132,21
25660,11
26180,14
26708,20
27228,20
27756,17
28276,21
28804,19
29324,19
29852,19
30372,20
30900,20
31420,11
31948,11
32468,16
32996,22
33516,30
34044,36
34564,40
35092,29
35612,18
36140,16
36660,21
37188,22
37708,27
38236,33
38760,32
39284,30
39804,23
40332,16
40852,13
41372,16
41892,15
42412,17
42932,12
43452,22
43972,35
44492,39
45012,35
45532,20
46052,23
46572,23
47092,21
47612,13
48140,13
48660,11
49188,10
49708,14
50236,23
50760,36
51284,32
51804,28
52332,24
52852,20
53380,19
53900,18
54428,21
54948,19
55476,20
55996,15
56524,12
57044,14
57572,13
58096,12
58620,14
59140,13
59668,14
60188,15
60716,13
61240,12
61764,18
62284,20
62812,22
63332,21
63860,23
64384,21
64908,25
65428,20
65948,11
66468,10
66988,10
67508,14
68028,15
68548,15
69068,16
69588,17
70108,21
70628,18
71148,23
71668,23
72192,23
72716,12
73236,10
73764,10
74284,10
74812,15
75332,18
75860,13
76384,11
76908,12
77428,11
77956,15
78476,21
79004,20
79528,21
80052,18
80572,20
81100,18
81620,16
82148,10
82668,15
83196,17
83720,18
84244,22
84764,16
85292,15
85812,16
86340,17
86860,19
87388,18
87908,20
88436,28
88956,32
89484,18
90004,11
90524,10
91044,10
91564,10
92084,13
92604,14
93124,12
93644,14
94164,13
94684,13
95204,19
95724,20
96248,21
96764,22
97292,21
97812,13
98340,14
98860,18
99388,14
99908,11
100436,17
101004,15
101584,28
102156,38
102736,25
103304,19
103880,20
104456,28
105024,38
105600,25
106168,12
106744,9
107260,11
107840,21
108408,27
108984,28
109552,19
110120,15
110704,13
111276,12
111856,21
112428,20
113008,19
113576,19
114144,16
114728,19
115296,16
115880,14
116448,15
117024,17
117592,14
118176,15
118744,16
119320,15
119904,24
120476,32
121056,28
121624,27
122208,20
122776,14
123356,23
123936,21
124504,20
125088,14
125656,13
126240,11
126808,14
127392,29
127964,42
128540,37
129120,30
129688,23
130264,19
130832,13
131408,13
131976,18
132560,16
133136,13
133704,13
134280,15
134848,15
135432,20
136000,18
136584,18
137152,20
137728,20
138312,29
138880,27
139464,18
140032,18
140616,15
141188,10
141768,12
142344,15
142916,19
143496,18
144064,15
144648,13
145216,21
145792,25
146360,25
146936,22
147520,14
148088,13
148672,19
149240,18
149824,16
150392,11
150976,15
151560,15
152132,17
152712,18
153284,19
153864,19
154432,22
155016,21
155584,23
156164,18
156744,18
157316,15
157896,18
158468,18
159048,10
159620,14
160200,13
160776,16
161344,21
161920,26
162488,27
163064,28
163632,22
164216,13
164784,9
165300,10
165872,17
166440,21
167020,16
167592,16
168168,14
168736,15
169312,18
169880,20
170448,19
171024,34
171592,46
172176,43
172744,32
173328,28
173896,25
174480,13
175048,15
175616,14
176200,19
176768,21
177352,19
177920,14
178504,19
179072,19
179656,19
180232,18
180800,14
181384,11
181952,10
182536,10
183104,11
183688,11
184256,15
184832,16
185416,20
185984,24
186568,31
187136,35
187720,29
188288,25
188872,18
189448,11
190016,11
190600,14
191172,14
191752,16
192324,12
192904,16
193472,15
194048,14
194632,13
195200,19
195784,20
196352,19
196936,21
197504,18
198088,24
198664,27
199232,18
199816,10
200388,16
200968,29
201536,21
202120,22
202692,21
203268,19
203848,26
204416,30
205000,27
205568,20
206144,12
206712,12
207288,10
207856,11
208432,18
209016,18
209584,13
210168,12
210736,12
211312,15
211880,20
212456,19
213040,25
213608,34
214192,28
214764,21
215344,11
215912,19
216496,13
217064,12
217640,16
218224,32
218792,36
219376,28
219944,19
220528,23
221096,27
221672,33
222256,33
222828,21
223408,11
223980,11
224560,14
225136,14
225720,12
226288,14
226864,11
227448,12
228016,18
228600,23
229168,19
229752,20
230324,22
230900,24
231480,24
232048,11
232632,12
233204,10
233784,10
234352,22
234936,39
235508,40
236084,19
236664,22
237236,19
237816,29
238388,58
238968,61
239540,50
240116,36
240696,41
241264,30
241848,14
242416,14
243000,20
243572,13
244152,16
244724,22
245300,20
245880,19
246448,20
247032,25
247604,15
248184,10
248752,15
249328,21
249912,16
250484,15
251064,21
251636,24
252216,21
252788,24
253368,20
253948,20
254524,20
255104,20
255676,15
256256,11
256832,9
257356,12
257928,10
258512,11
259088,12
259656,13
260240,13
260808,13
261384,18
261952,20
262536,21
263104,23
263680,22
264264,12
264832,11
265416,11
265988,13
266568,15
267136,16
267712,19
268280,17
268856,19
269440,16
270008,19
270592,22
271160,24
271744,20
272316,19
272892,16
273472,19
274044,18
274624,17
275192,11
275776,13
276356,11
276936,12
277512,11
278084,18
278664,20
279232,24
279816,22
280388,21
280968,11
281536,13
282116,19
282696,19
283264,30
283848,30
284416,31
285000,45
285568,45
286152,39
286728,30
287296,20
287880,20
288452,21
289032,27
289600,38
290184,50
290756,57
291332,49
291912,30
292484,21
293064,25
293636,41
294216,35
294788,25
295368,35
295944,50
296516,54
297096,51
297668,34
298248,11
298816,22
299400,25
299972,16
300548,14
301128,19
301700,23
302280,16
302852,17
303432,21
304004,29
304584,29
305160,26
305732,19
306312,13
306884,11
307464,9
307980,10
308560,13
309128,22
309712,21
310288,17
310860,12
311440,18
312012,21
312592,20
313164,19
313744,21
314316,12
314892,10
315472,12
316044,15
316624,12
317196,12
317776,15
318356,15
318932,15
319512,15
320088,19
320664,24
321232,28
321808,27
322376,22
322960,17
323528,13
324104,10
324688,11
325256,11
325840,11
326408,11
326992,11
327564,12
328144,17
328720,21
329288,21
329864,23
330432,21
331008,14
331576,19
332160,20
332728,18
333308,11
333888,17
334456,17
335040,18
335608,19
336192,19
336760,19
337344,27
337912,32
338492,24
339072,13
339644,11
340224,13
340792,12
341376,11
341944,11
342520,11
343104,13
343672,15
344256,24
344824,43
345408,45
345980,49
346560,47
347128,31
347708,10
348288,10
348856,11
349440,15
350008,14
350592,13
351164,15
351740,15
352320,15
352888,18
353472,32
354044,50
354624,59
355196,61
355776,58
356360,66
356932,52
357512,26
358084,15
358664,12
359232,28
359816,21
360388,13
360960,13
361544,20
362116,26
362696,20
363268,19
363848,21
364416,11
365000,12
365576,15
366148,14
366728,19
367296,55
367880,73
368452,74
369032,45
369600,22
370176,18
370760,22
371332,22
371912,19
372484,10
373064,10
373636,15
374216,19
374792,13
375364,11
375944,14
376516,14
377096,17
377668,15
378248,19
378820,23
379396,23
379976,22
380548,21
381128,20
381700,27
382280,20
382852,11
383432,11
384008,15
384580,15
385160,16
385728,17
386312,17
386884,19
387464,20
388036,22
388608,24
389192,17
389760,15
390344,11
390916,10
391496,9
392016,12
392592,11
393164,11
393740,12
394320,14
394892,19
395472,21
396044,20
396624,21
397196,18
397776,9
398296,10
398868,10
399448,10
400020,14
400600,15
401168,17
401752,15
402324,17
402900,18
403480,20
404052,22
404632,21
405204,19
405784,13
406352,18
406936,19
407516,14
408092,10
408672,11
409244,14
409824,14
410400,13
410976,16
411544,19
412112,22
412696,26
413264,23
413848,19
414416,11
415000,11
415568,16
416152,12
416720,10
417288,13
417864,15
418432,17
419016,22
419588,22
420168,21
420736,21
421312,21
421880,30
422460,34
423040,30
423608,30
424192,19
424760,11
425344,17
425912,22
426492,19
427072,16
427644,15
428224,21
428792,19
429376,21
429956,21
430536,17
431112,11
431684,11
432264,11
432832,10
433416,14
433988,24
434568,19
435136,16
435716,15
436296,22
436864,24
437448,26
438016,20
438600,25
439168,24
439752,33
440328,38
440900,37
441480,17
442052,12
442632,14
443204,16
443784,12
444356,11
444932,19
445512,19
446084,20
446664,22
447236,15
447816,11
448396,10
448976,13
449552,18
450124,15
450704,16
451272,16
451856,19
452424,19
453008,18
453580,21
454156,27
454736,24
455304,19
455888,11
456460,11
457040,10
457608,13
458192,11
458768,12
459340,12
459920,12
460492,14
461072,21
461640,29
462224,26
462796,21
463372,19
463952,15
464524,13
465104,11
465676,10
466256,10
466824,18
467408,29
467984,26
468556,29
469136,22
469708,21
470288,30
470868,31
471448,27
472028,24
472600,18
473184,10
473756,10
474336,9
474856,12
475432,11
476004,20
476584,21
477156,23
477732,24
478312,25
478884,31
479464,35
480036,27
480616,13
481188,11
481764,11
482344,16
482916,13
483496,13
484068,25
484648,20
485216,18
485800,16
486372,18
486948,19
487528,31
488100,48
488680,47
489248,33
489832,26
490404,17
490976,13
491560,13
492128,11
492712,11
493284,14
493864,12
494436,14
495016,19
495588,22
496164,29
496744,27
497312,18
497896,13
498468,20
499048,16
499620,16
500192,22
500776,25
501348,19
501928,18
502500,15
503080,19
503652,19
504232,20
504804,18
505380,22
505960,17
506532,11
507112,11
507692,17
508272,25
508844,14
509420,13
510000,13
510572,12
511152,16
511728,19
512308,18
512880,24
513464,26
514032,16
514608,11
515192,11
515764,11
516344,13
516912,19
517496,15
518064,17
518644,22
519224,25
519792,22
520376,22
520944,22
521528,24
522100,26
522680,14
523248,10
523824,11
524408,14
524980,15
525560,10
526132,19
526712,23
527284,25
527860,27
528440,22
529008,24
529592,26
530164,22
530744,13
531316,17
531896,10
532468,10
533044,11
533624,16
534196,21
534776,26
535348,18
535928,18
536500,18
537076,22
537656,35
538224,28
538808,24
539380,23
539960,18
540532,17
541112,17
541684,15
542260,10
542840,12
543408,15
543992,15
544564,21
545144,19
545716,27
546288,27
546872,24
547444,14
548024,10
548592,19
549176,38
549748,22
550328,11
550908,19
551484,15
552064,18
552636,26
553216,30
553796,32
554376,28
554948,25
555524,22
556104,27
556676,30
557256,19
557828,10
558408,11
558984,11
559568,12
560152,11
560724,11
561304,18
561876,21
562456,22
563036,24
563616,27
564192,24
564768,34
565352,34
565924,29
566504,14
567076,19
567656,28
568228,24
568804,23
569384,18
569956,18
570536,21
571108,22
571688,23
572268,24
572848,25
573420,27
573996,27
574576,19
575148,10
575728,15
576300,15
576880,19
577448,19
578024,23
578608,24
579176,20
579760,18
580332,20
580912,16
581484,11
582064,10
582636,11
583212,12
583792,19
584364,24
584944,28
585516,30
586096,24
586676,19
587252,19
587832,24
588404,30
588984,32
589552,46
590136,42
590708,27
591288,15
591868,10
592444,16
593024,16
593596,14
594176,12
594756,19
595336,22
595908,25
596484,27
597064,26
597636,21
598216,13
598788,11
599368,11
599948,10
600528,14
601112,15
601684,15
602264,19
602836,20
603416,19
603996,29
604576,28
605156,30
605732,26
606312,14
606888,10
607464,9
607984,13
608564,18
609140,17
609720,14
610300,19
610876,27
611456,30
612032,25
612608,26
613188,27
613768,25
614348,11
614924,15
615504,11
616076,15
616656,22
617224,27
617808,19
618380,21
618960,19
619536,18
620108,25
620688,31
621260,36
621840,28
622412,19
622992,15
623564,11
624140,10
624720,13
625292,16
625872,12
626444,12
627024,12
627596,12
628176,19
628752,22
629324,27
629904,26
630476,14
631056,14
631636,18
632216,21
632796,10
633372,15
633952,13
634524,15
635104,17
635684,16
636264,17
636836,19
637412,20
637996,21
638568,21
639144,15
639720,11
640300,11
640872,15
641456,13
642024,14
642600,18
643184,12
643756,13
644336,13
644908,19
645488,20
646056,21
646636,19
647216,12
647788,11
648368,10
648936,10
649520,9
650040,14
650616,27
651188,22
651764,18
652344,16
652916,25
653496,19
654068,21
654648,19
655220,23
655800,23
656376,17
656952,21
657536,18
658104,20
658688,29
659256,22
659840,12
660408,11
660984,14
661568,19
662140,21
662720,24
663288,21
663872,13
664444,13
665024,11
665596,14
666172,13
666752,11
667320,22
667904,27
668476,25
669056,17
669624,19
670200,18
670784,20
671352,21
671936,20
672508,13
673088,13
673660,14
674240,12
674808,13
675388,11
675968,13
676536,22
677120,32
677688,43
678272,50
678844,27
679416,27
680000,33
680568,19
681152,14
681720,10
682304,12
682872,25
683456,17
684028,19
684600,16
685184,16
685756,17
686336,21
686908,29
687488,28
688060,22
688632,22
689216,18
689788,16
690368,14
690940,14
691520,11
692088,10
692672,14
693244,18
693820,13
694400,20
694968,27
695552,27
696124,20
696704,21
697276,12
697852,12
698432,10
699004,11
699584,13
700156,12
700736,15
701316,17
701896,16
702480,16
703052,22
703632,28
704204,38
704784,28
705356,22
705936,17
706508,13
707084,10
707664,12
708236,11
708816,10
709388,13
709968,12
710540,11
711120,17
711696,19
712268,19
712848,20
713420,22
714000,17
714580,20
715160,17
715732,12
716308,10
716888,17
717460,25
718040,19
718612,20
719192,21
719764,24
720340,30
720920,31
721492,23
722072,15
722644,14
723224,13
723792,14
724376,17
724948,14
725524,11
726104,11
726676,13
727256,13
727828,20
728408,19
728976,21
729556,21
730136,23
730708,18
731288,18
731860,13
732440,17
733012,12
733592,12
734164,15
734740,20
735320,20
735892,25
736476,22
737052,20
737632,42
738208,50
738788,31
739368,18
739940,10
740520,18
741092,17
741672,24
742252,42
742832,50
743412,40
743988,27
744568,21
745140,19
745720,22
746292,24
746872,26
747444,11
748020,16
748600,18
749172,10
749752,12
750324,14
750904,16
751484,16
752064,17
752648,17
753220,20
753800,18
754372,19
754952,19
755532,11
756112,12
756684,11
757260,24
757840,34
758412,34
758992,23
759564,27
760144,20
760724,14
761300,22
761880,24
762452,26
763032,27
763604,27
764184,28
764756,37
765340,34
765916,22
766492,11
767072,16
767648,17
768228,18
768800,18
769384,17
769952,22
770532,34
771112,34
771684,25
772264,17
772836,15
773416,13
773988,11
774568,11
775148,12
775724,15
776304,11
776876,12
777456,13
778036,19
778616,19
779196,19
779772,21
780352,18
780924,15
781504,11
782076,12
782656,13
783236,10
783816,15
784400,15
784972,17
785552,16
786124,19
786704,21
787276,24
787856,30
788428,26
789004,18
789584,20
790156,22
790736,14
791316,11
791896,11
792476,15
793052,11
793632,14
794204,16
794784,20
795356,19
795936,20
796516,26
797096,15
797676,12
798252,15
798832,16
799408,12
799984,11
800564,25
801144,27
801716,22
802288,16
802872,20
803444,24
804024,27
804592,29
805176,29
805748,29
806328,21
806900,11
807476,10
808056,11
808628,14
809208,16
809788,19
810368,19
810940,22
811516,26
812096,26
812668,27
813248,19
813820,18
814400,14
814980,11
815560,10
816144,11
816716,10
817296,17
817868,15
818448,18
819028,16
819612,19
820184,27
820752,30
821328,31
821896,39
822480,41
823048,30
823624,16
824192,11
824776,17
825352,24
825924,18
826504,17
827072,14
827656,18
828224,20
828808,20
829376,21
829956,20
830536,11
831108,10
831688,10
832260,14
832840,13
833408,10
833984,17
834552,22
835132,18
835712,23
836284,26
836864,29
837432,30
838016,27
838588,22
839160,15
839744,13
840312,11
840896,11
841464,10
842048,16
842616,11
843200,12
843768,13
844348,18
844928,20
845496,21
846080,20
846648,22
847232,11
847804,11
848380,12
848960,15
849528,14
850112,11
850680,15
851264,16
851832,20
852416,17
852988,20
853560,19
854144,21
854716,24
855296,21
855876,14
856456,9
856976,11
857552,9
858072,13
858644,18
859224,18
859796,15
860376,14
860956,20
861536,19
862108,19
862684,24
863264,26
863836,14
864416,17
864988,15
865568,12
866140,11
866720,16
867292,26
867868,18
868448,16
869020,16
869600,19
870172,27
870752,33
871332,31
871908,25
872488,24
873056,23
873640,15
874208,11
874792,15
875364,14
875944,12
876516,11
877092,15
877672,21
878244,20
878824,22
879396,22
879976,22
880556,19
881132,13
881712,11
882284,13
882864,19
883436,20
884016,17
884584,19
885168,17
885740,21
886316,30
886896,35
887468,41
888048,45
888620,37
889200,32
889780,22
890356,18
890936,17
891508,11
892088,12
892660,13
893240,13
893820,16
894400,25
894984,23
895556,20
896140,26
896708,22
897288,10
897856,14
898440,13
899012,11
899588,15
900168,16
900740,19
901320,17
901892,16
902472,17
903040,24
903624,22
904200,19
904768,21
905352,12
905924,11
906504,10
907076,10
907656,11
908228,15
908804,27
909384,19
909956,12
910536,15
911108,19
911688,19
912268,22
912848,21
913424,19
913996,15
914576,14
915148,15
915728,23
916308,35
916888,51
917468,39
918044,20
918624,17
919196,18
919776,19
920356,19
920936,25
921516,22
922092,10
922672,10
923244,14
923824,16
924396,15
924976,20
925544,12
926128,11
926700,13
927276,11
927856,19
928428,24
929008,28
929580,25
930160,25
930740,19
931316,14
931896,17
932468,23
933048,24
933620,16
934200,17
934772,17
935352,16
935924,19
936500,19
937080,23
937652,20
938232,28
938804,46
939384,59
939964,58
940540,47
941120,28
941692,14
942272,12
942844,12
943424,17
943996,19
944580,20
945160,19
945732,20
946312,20
946884,16
947464,12
948044,11
948624,17
949196,20
949772,16
950352,14
950924,16
951504,19
952084,22
952664,24
953244,22
953820,18
954400,19
954972,22
955552,20
956128,14
956704,10
957284,13
957864,12
958444,12
959020,13
959604,11
960176,12
960752,12
961324,19
961904,20
962476,20
963052,25
963632,33
964204,27
964784,11
965356,10
965936,13
966508,12
967088,15
967660,19
968236,20
968816,17
969388,19
969968,19
970548,20
971128,20
971708,28
972284,24
972864,24
973436,22
974016,17
974588,10
975168,16
975740,21
976320,14
976904,13
977476,25
978056,23
978628,21
979208,19
979780,21
980360,12
980940,13
981516,14
982100,17
982672,12
983248,14
983824,22
984408,20
984976,24
985556,19
986136,19
986708,19
987288,23
987860,22
988440,19
989012,11
989592,11
990164,11
990740,10
991320,11
991892,14
992472,16
993052,12
993632,13
994204,18
994780,18
995360,20
995932,19
996512,19
997084,12
997664,11
998244,10
998824,10
999404,11
999980,11
1000560,14
1001176,17
1001804,16
1002428,17
1003052,21
1003680,24
1004296,28
1004924,21
1005548,12
1006168,21
1006800,23
1007416,13
1008044,12
1008672,22
1009296,17
1009924,17
1010544,12
1011176,19
1011808,20
1012424,20
1013052,24
1013676,14
1014300,11
1014932,11
1015552,11
1016180,13
1016804,13
1017428,15
1018060,16
1018680,25
1019308,34
1019940,34
1020560,24
1021188,19
1021812,16
1022444,10
1023076,10
1023696,10
1024328,15
1024948,17
1025568,13
1026196,12
1026812,19
1027440,20
1028064,23
1028684,20
1029312,23
1029928,19
1030556,11
1031184,10
1031800,11
1032428,11
1033052,10
1033680,18
1034308,17
1034924,25
1035556,25
1036176,21
1036804,19
1037432,19
1038048,20
1038676,14
1039300,13
1039924,17
1040552,12
1041168,15
1041796,21
1042420,13
1043040,13
1043668,13
1044292,19
1044920,21
1045548,22
1046168,21
1046796,16
1047420,10
1048048,13
1048676,20
1049296,25
1049924,13
1050544,17
1051164,15
1051796,17
1052416,19
1053044,20
1053668,19
1054288,19
1054920,21
1055536,17
1056164,17
1056792,11
1057408,12
1058036,14
1058660,23
1059288,25
1059916,18
1060536,14
1061164,19
1061784,19
1062408,19
1063036,20
1063656,15
1064284,17
1064908,19
1065532,22
1066160,23
1066776,13
1067404,15
1068028,19
1068656,24
1069284,24
1069904,26
1070536,22
1071164,21
1071784,18
1072412,21
1073036,14
1073664,12
1074292,15
1074912,33
1075540,21
1076164,20
1076784,14
1077416,18
1078032,29
1078660,33
1079284,29
1079904,20
1080536,12
1081160,10
1081788,9
1082356,10
1082984,11
1083612,23
1084236,28
1084864,30
1085492,20
1086112,19
1086740,19
1087360,19
1087992,19
1088620,11
1089240,19
1089868,18
1090488,13
1091112,12
1091740,10
1092360,14
1092988,12
1093612,13
1094232,20
1094864,20
1095480,26
1096108,26
1096736,20
1097360,14
1097988,12
1098612,11
1099240,22
1099868,16
1100488,19
1101116,22
1101740,27
1102364,31
1102996,22
1103616,25
1104244,31
1104868,26
1105492,10
1106120,15
1106736,25
1107368,27
1107996,14
1108616,15
1109244,13
1109868,12
1110496,16
1111128,23
1111744,20
1112372,37
1112996,41
1113620,25
1114248,12
1114872,11
1115500,10
1116124,11
1116752,13
1117380,18
1118000,16
1118628,17
1119260,22
1119880,21
1120512,20
1121132,30
1121764,20
1122392,12
1123012,10
1123640,11
1124264,11
1124888,12
1125516,12
1126136,25
1126764,13
1127388,20
1128012,21
1128640,19
1129256,20
1129884,19
1130512,11
1131128,16
1131760,14
1132384,12
1133012,12
1133640,17
1134264,16
1134892,18
1135516,18
1136140,19
1136768,20
1137392,20
1138020,23
1138644,15
1139268,10
1139896,11
1140512,16
1141140,14
1141772,10
1142392,17
1143020,19
1143644,17
1144276,19
1144904,19
1145528,20
1146160,24
1146780,28
1147408,21
1148036,10
1148656,16
1149284,14
1149908,13
1150532,18
1151160,18
1151780,17
1152408,19
1153036,18
1153656,20
1154284,20
1154904,23
1155536,14
1156164,10
1156784,13
1157412,12
1158036,15
1158660,11
1159292,12
1159912,13
1160540,13
1161164,21
1161788,19
1162416,19
1163032,20
1163664,12
1164288,12
1164912,13
1165540,17
1166164,19
1166792,14
1167420,15
1168040,17
1168668,16
1169288,22
1169920,37
1170548,42
1171168,41
1171796,14
1172420,11
1173044,23
1173676,26
1174296,25
1174924,17
1175548,12
1176176,13
1176804,13
1177428,18
1178060,22
1178688,23
1179308,25
1179936,22
1180560,12
1181188,12
1181820,10
1182440,12
1183068,14
1183692,17
1184316,15
1184948,19
1185568,20
1186196,21
1186828,19
1187448,20
1188076,20
1188700,17
1189328,19
1189960,22
1190576,30
1191208,31
1191828,14
1192452,17
1193084,30
1193704,21
1194332,20
1194956,21
1195580,27
1196212,22
1196832,13
1197460,10
1198092,22
1198712,12
1199340,12
1199968,25
1200596,25
1201228,20
1201848,19
1202476,19
1203100,18
1203724,19
1204356,18
1204976,23
1205604,37
1206228,45
1206852,48
1207480,46
1208104,32
1208732,14
1209364,11
1209984,13
1210612,18
1211236,30
1211868,31
1212496,27
1213112,21
1213744,13
1214368,14
1214992,11
1215620,10
1216240,17
1216868,23
1217492,19
1218116,17
1218744,16
1219368,20
1219996,24
1220628,33
1221248,35
1221876,21
1222500,16
1223132,15
1223760,17
1224384,13
1225012,12
1225636,18
1226260,20
1226892,20
1227512,29
1228144,25
1228768,21
1229392,23
1230020,21
1230640,13
1231268,10
1231896,10
1232520,14
1233148,11
1233772,15
1234400,17
1235028,16
1235648,19
1236276,24
1236900,25
1237524,20
1238152,21
1238776,36
1239404,40
1240028,46
1240652,32
1241280,15
1241896,11
1242528,12
1243156,16
1243776,18
1244404,20
1245028,20
1245656,20
1246288,21
1246904,15
1247532,18
1248156,23
1248780,28
1249412,10
1250032,29
1250660,25
1251284,19
1251908,16
1252536,23
1253152,29
1253784,37
1254412,35
1255032,24
1255660,15
1256284,19
1256912,15
1257544,11
1258160,12
1258792,15
1259416,12
1260040,16
1260668,27
1261288,22
1261916,21
1262540,26
1263164,25
1263796,12
1264416,17
1265044,21
1265676,23
1266296,21
1266924,16
1267552,16
1268180,18
1268808,18
1269432,19
1270064,27
1270688,25
1271308,30
1271940,28
1272560,22
1273188,11
1273812,13
1274436,11
1275068,11
1275688,15
1276316,12
1276948,14
1277568,21
1278196,20
1278824,21
1279452,25
1280084,19
1280700,19
1281328,12
1281948,12
1282572,11
1283200,11
1283812,15
1284444,16
1285064,24
1285688,31
1286316,29
1286936,33
1287564,29
1288188,23
1288808,20
1289436,19
1290060,17
1290688,15
1291316,18
1291936,12
1292564,12
1293188,12
1293816,13
1294444,20
1295060,26
1295692,34
1296312,40
1296936,35
1297564,33
1298184,26
1298812,21
1299436,11
1300056,21
1300688,16
1301304,31
1301932,47
1302564,46
1303184,40
1303812,28
1304436,22
1305064,21
1305696,21
1306312,14
1306940,12
1307564,11
1308188,12
1308816,22
1309432,15
1310064,14
1310688,19
1311312,20
1311940,21
1312560,24
1313188,21
1313816,13
1314432,11
1315060,10
1315684,16
1316312,19
1316940,24
1317560,19
1318188,16
1318812,18
1319432,23
1320060,19
1320676,21
1321308,19
1321928,12
1322548,12
1323180,10
1323800,13
1324428,11
1325052,11
1325672,16
1326304,14
1326924,12
1327556,21
1328184,22
1328800,23
1329428,19
1330052,11
1330680,12
1331308,11
1331924,16
1332552,19
1333176,16
1333796,15
1334428,16
1335044,23
1335672,28
1336296,31
1336920,33
1337548,24
1338168,20
1338796,11
1339424,13
1340040,17
1340672,14
1341292,10
1341924,20
1342552,19
1343168,19
1343796,16
1344420,22
1345044,20
1345672,20
1346288,21
1346916,16
1347540,12
1348160,10
1348788,11
1349408,11
1350036,15
1350664,15
1351288,16
1351916,16
1352540,19
1353168,21
1353796,23
1354416,27
1355044,16
1355668,12
1356292,11
1356924,10
1357540,11
1358172,10
1358792,11
1359416,15
1360044,12
1360660,19
1361288,19
1361912,21
1362536,22
1363164,20
1363788,14
1364416,13
1365044,10
1365664,11
1366292,14
1366916,15
1367544,18
1368172,20
1368792,19
1369420,22
1370044,20
1370668,21
1371296,24
1371912,28
1372544,25
1373164,13
1373788,10
1374420,13
1375040,13
1375672,18
1376300,16
1376920,13
1377548,21
1378172,21
1378800,23
1379428,20
1380048,12
1380676,11
1381300,9
1381872,11
1382500,12
1383116,16
1383748,16
1384372,15
1384992,17
1385624,19
1386240,19
1386868,21
1387492,24
1388116,23
1388744,15
1389360,14
1389992,13
1390620,11
1391240,13
1391868,11
1392492,11
1393124,13
1393752,14
1394368,20
1395000,21
1395624,21
1396244,21
1396872,11
1397496,10
1398124,10
1398748,10
1399372,10
1400000,13
1400616,17
1401244,20
1401876,20
1402496,20
1403124,23
1403748,35
1404376,34
1405008,15
1405624,19
1406252,23
1406876,14
1407500,13
1408132,16
1408748,12
1409380,12
1410000,11
1410620,21
1411252,20
1411872,21
1412500,19
1413128,20
1413744,24
1414376,32
1415000,14
1415628,19
1416256,22
1416880,22
1417508,17
1418132,17
1418756,21
1419388,24
1420008,27
1420636,21
1421260,28
1421884,35
1422516,40
1423136,32
1423768,19
1424396,10
1425016,14
1425644,11
1426268,13
1426896,12
1427528,20
1428144,23
1428772,19
1429396,21
1430024,16
1430652,10
1431272,13
1431900,16
1432528,13
1433152,14
1433784,17
1434400,16
1435028,17
1435656,19
1436272,20
1436904,23
1437524,22
1438152,20
1438784,19
1439400,15
1440032,13
1440652,10
1441280,11
1441908,12
1442528,12
1443156,11
1443780,14
1444404,19
1445032,20
1445648,23
1446276,23
1446900,21
1447524,16
1448152,11
1448776,16
1449404,15
1450032,15
1450648,18
1451280,20
1451900,17
1452532,18
1453160,24
1453784,29
1454412,22
1455036,10
1455660,13
1456288,15
1456904,14
1457536,11
1458160,11
1458784,17
1459412,14
1460036,15
1460664,30
1461292,32
1461912,27
1462540,23
1463164,17
1463792,37
1464424,50
1465040,33
1465672,27
1466292,12
1466916,18
1467548,15
1468168,22
1468796,35
1469420,41
1470044,44
1470676,39
1471300,29
1471932,22
1472560,16
1473184,14
1473812,15
1474436,13
1475068,11
1475696,12
1476312,19
1476940,14
1477564,20
1478188,24
1478816,28
1479432,26
1480064,15
1480684,11
1481308,11
1481936,12
1482560,14
1483188,14
1483816,16
1484440,20
1485068,17
1485692,19
1486320,23
1486948,27
1487568,30
1488196,25
1488820,23
1489440,17
1490072,15
1490688,12
1491316,11
1491940,12
1492564,12
1493192,12
1493812,18
1494440,25
1495068,23
1495688,26
1496316,25
1496940,17
1497568,10
1498200,10
1498816,11
1499444,10
1500068,16
1500692,15
1501324,18
1501944,19
1502572,22
1503196,24
1503824,24
1504452,22
1505072,11
1505700,10
1506332,10
1506952,11
1507580,12
1508204,12
1508836,12
1509464,16
1510084,15
1510712,20
1511336,19
1511964,21
1512592,24
1513212,24
1513840,24
1514464,17
1515088,11
1515720,11
1516340,11
1516968,15
1517596,14
1518216,19
1518844,21
1519468,19
1520100,22
1520728,20
1521352,19
1521980,19
1522604,20
1523228,16
1523856,18
1524480,26
1525108,16
1525732,26
1526356,28
1526988,20
1527608,22
1528236,22
1528868,22
1529488,21
1530116,21
1530744,31
1531372,24
1532004,10
1532624,13
1533256,18
1533880,17
1534504,19
1535136,20
1535756,19
1536388,21
1537008,25
1537628,23
1538260,11
1538880,10
1539508,10
1540136,11
1540760,13
1541388,11
1542012,13
1542640,11
1543272,12
1543888,20
1544516,20
1545140,21
1545764,22
1546392,18
1547016,11
1547644,11
1548268,10
1548892,10
1549520,10
1550144,16
1550772,16
1551404,16
1552024,17
1552652,19
1553276,20
1553904,19
1554536,19
1555156,12
1555784,11
1556412,14
1557036,11
1557664,14
1558280,16
1558912,21
1559536,17
1560160,12
1560788,22
1561412,27
1562044,31
1562672,27
1563288,15
1563916,11
1564540,10
1565172,10
1565800,12
1566416,13
1567048,15
1567672,18
1568296,19
1568924,19
1569544,26
1570172,30
1570796,29
1571420,26
1572048,12
1572672,10
1573304,11
1573932,16
1574552,15
1575180,14
1575804,13
1576436,14
1577064,17
1577688,19
1578316,19
1578940,21
1579564,22
1580192,12
1580812,16
1581440,23
1582064,13
1582688,11
1583316,15
1583944,16
1584576,17
1585204,21
1585824,32
1586456,42
1587080,41
1587708,33
1588340,18
1588960,17
1589588,15
1590212,10
1590836,13
1591468,12
1592088,12
1592716,12
1593340,18
1593968,20
1594596,19
1595224,29
1595852,31
1596484,18
1597104,15
1597736,11
1598360,11
1598984,11
1599616,14
1600232,19
1600860,22
1601480,22
1602104,27
1602732,22
1603352,24
1603980,21
1604604,18
1605224,11
1605852,10
1606476,9
1607056,13
1607680,14
1608300,11
1608932,11
1609556,12
1610184,13
1610812,19
1611432,20
1612060,20
1612684,24
1613316,15
1613944,12
1614560,13
1615192,11
1615816,11
1616440,15
1617068,16
1617688,18
1618316,16
1618940,19
1619568,24
1620196,24
1620820,23
1621448,24
1622076,28
1622696,27
1623324,21
1623948,11
1624580,16
1625208,24
1625824,20
1626456,12
1627080,20
1627704,20
1628332,19
1628952,20
1629580,20
1630204,12
1630832,10
1631460,13
1632088,12
1632716,14
1633344,15
1633964,16
1634592,18
1635216,17
1635844,23
1636476,32
1637096,37
1637728,27
1638352,11
1638976,14
1639604,10
1640220,22
1640848,26
1641468,11
1642092,12
1642720,16
1643344,21
1643972,28
1644600,26
1645216,22
1645844,24
1646464,27
1647092,28
1647724,10
1648344,21
1648972,37
1649592,41
1650216,37
1650844,34
1651464,29
1652088,26
1652712,29
1653336,28
1653964,18
1654584,19
1655212,20
1655840,17
1656456,11
1657084,11
1657708,10
1658336,13
1658964,24
1659580,24
1660212,21
1660832,21
1661452,20
1662084,20
1662704,20
1663332,11
1663956,11
1664580,10
1665208,13
1665824,15
1666452,14
1667080,17
1667696,17
1668324,16
1668944,20
1669576,19
1670204,19
1670824,19
1671452,12
1672072,15
1672700,21
1673332,27
1673952,31
1674580,19
1675204,13
1675824,11
1676452,12
1677072,19
1677700,20
1678324,19
1678948,19
1679576,22
1680200,14
1680828,18
1681452,12
1682072,11
1682700,13
1683320,16
1683948,15
1684576,16
1685192,17
1685820,19
1686444,23
1687064,34
1687692,42
1688312,29
1688940,22
1689564,16
1690188,14
1690816,12
1691432,11
1692060,13
1692688,12
1693312,14
1693940,20
1694564,20
1695192,21
1695820,20
1696440,12
1697068,12
1697688,11
1698312,12
1698940,10
1699560,13
1700188,16
1700808,17
1701432,17
1702060,20
1702680,20
1703308,20
1703932,19
1704556,19
1705184,15
1705808,24
1706436,20
1707064,12
1707680,10
1708308,12
1708932,12
1709564,14
1710192,17
1710808,21
1711440,21
1712060,19
1712684,20
1713312,18
1713932,27
1714560,21
1715184,11
1715808,14
1716436,19
1717060,15
1717692,17
1718320,17
1718936,19
1719568,21
1720192,22
1720820,27
1721448,20
1722072,18
1722700,13
1723324,16
1723948,20
1724576,18
1725192,15
1725824,17
1726448,17
1727068,19
1727700,19
1728324,20
1728952,21
1729580,21
1730200,19
1730828,18
1731452,15
1732080,13
1732708,11
1733328,19
1733956,15
1734580,17
1735204,16
1735832,19
1736452,27
1737080,33
1737704,33
1738328,23
1738956,21
1739576,21
1740204,15
1740836,10
1741452,16
1742080,17
1742704,15
1743332,12
1743964,18
1744584,21
1745212,19
1745836,22
1746460,26
1747088,18
1747708,10
1748336,11
1748960,11
1749580,13
1750212,20
1750832,18
1751460,18
1752092,22
1752712,21
1753340,20
1753964,23
1754596,23
1755224,21
1755840,27
1756472,27
1757096,16
1757720,11
1758348,13
1758968,13
1759596,12
1760224,16
1760844,22
1761476,21
1762096,24
1762724,28
1763352,23
1763968,20
1764596,21
1765220,18
1765848,10
1766476,31
1767092,40
1767724,46
1768344,35
1768968,26
1769596,22
1770216,20
1770844,22
1771468,15
1772092,13
1772724,12
1773344,13
1773972,12
1774604,10
1775224,11
1775852,12
1776476,13
1777108,22
1777736,25
1778356,25
1778984,22
1779608,19
1780232,11
1780860,10
1781480,11
1782108,14
1782732,24
1783356,30
1783984,33
1784608,23
1785236,18
1785868,26
1786488,37
1787116,49
1787740,49
1788372,48
1789000,44
1789624,24
1790252,11
1790876,10
1791504,12
1792136,11
1792748,13
1793380,15
1794000,19
1794624,21
1795252,20
1795872,23
1796500,13
1797128,13
1797752,15
1798380,11
1799004,11
1799636,14
1800264,16
1800880,17
1801512,17
1802136,20
1802760,22
1803388,18
1804008,23
1804636,25
1805260,25
1805880,18
1806512,11
1807128,11
1807756,12
1808380,14
1809008,12
1809636,12
1810260,17
1810888,22
1811516,22
1812136,21
1812764,21
1813388,11
1814016,17
1814648,18
1815264,18
1815892,13
1816516,14
1817140,16
1817772,23
1818392,19
1819020,21
1819644,22
1820272,39
1820900,47
1821524,36
1822152,21
1822784,10
1823400,11
1824028,11
1824652,16
1825280,13
1825908,12
1826528,19
1827156,22
1827780,21
1828404,19
1829032,21
1829656,17
1830284,18
1830908,16
1831536,15
1832164,11
1832788,12
1833420,16
1834048,17
1834668,18
1835296,20
1835920,21
1836548,19
1837180,18
1837800,20
1838428,10
1839052,11
1839676,24
1840308,20
1840928,13
1841556,16
1842188,24
1842808,27
1843436,23
1844060,21
1844688,21
1845316,20
1845936,20
1846564,13
1847184,12
1847812,12
1848444,10
1849064,10
1849692,15
1850312,16
1850936,17
1851568,22
1852184,27
1852812,20
1853436,36
1854064,33
1854692,23
1855316,15
1855948,17
1856580,19
1857200,16
1857828,19
1858452,12
1859076,13
1859708,12
1860328,21
1860956,22
1861580,21
1862204,23
1862836,24
1863456,18
1864084,11
1864712,10
1865336,11
1865964,12
1866588,15
1867216,19
1867848,24
1868464,19
1869092,20
1869716,25
1870340,25
1870972,23
1871592,20
1872220,23
1872844,21
1873468,19
1874100,12
1874720,11
1875348,12
1875976,12
1876600,16
1877228,20
1877852,21
1878484,27
1879112,31
1879732,20
1880360,13
1880984,11
1881608,16
1882236,14
1882856,15
1883484,17
1884112,17
1884736,17
1885364,20
1885984,20
1886612,20
1887244,21
1887864,19
1888492,10
1889116,15
1889748,11
1890376,11
1890996,16
1891624,18
1892248,17
1892872,19
1893500,26
1894120,21
1894748,20
1895372,20
1895996,20
1896628,13
1897248,14
1897876,10
1898508,10
1899128,11
1899756,15
1900384,16
1901012,18
1901644,16
1902264,21
1902892,25
1903516,20
1904144,20
1904772,10
1905392,11
1906020,10
1906644,10
1907268,12
1907900,14
1908520,18
1909148,14
1909780,12
1910400,21
1911028,21
1911652,20
1912284,22
1912916,16
1913536,21
1914168,24
1914792,19
1915416,12
1916048,18
1916664,17
1917296,18
1917920,24
1918544,23
1919176,21
1919796,27
1920428,43
1921056,41
1921672,32
1922300,13
1922924,10
1923552,11
1924184,10
1924800,19
1925428,12
1926052,17
1926676,17
1927304,19
1927928,20
1928556,22
1929180,23
1929804,13
1930432,15
1931048,11
1931680,12
1932308,24
1932928,47
1933556,41
1934180,29
1934808,16
1935440,20
1936056,19
1936688,20
1937308,20
1937932,17
1938564,16
1939184,12
1939812,14
1940436,11
1941064,11
1941692,12
1942312,13
1942944,31
1943572,34
1944192,41
1944820,41
1945444,29
1946076,20
1946704,19
1947328,24
1947956,25
1948580,32
1949204,46
1949832,36
1950456,20
1951084,17
1951708,16
1952332,19
1952964,20
1953584,21
1954212,20
1954844,13
1955464,14
1956092,10
1956716,10
1957348,10
1957976,18
1958600,20
1959228,14
1959852,12
1960476,21
1961108,28
1961728,25
1962356,19
1962980,22
1963604,32
1964236,35
1964856,22
1965484,11
1966116,14
1966736,17
1967364,16
1967984,24
1968616,26
1969244,20
1969864,21
1970492,20
1971116,18
1971740,13
1972368,12
1972992,12
1973620,30
1974244,48
1974868,27
1975496,12
1976112,12
1976744,16
1977372,20
1977992,27
1978620,39
1979244,33
1979876,29
1980504,22
1981120,12
1981752,22
1982376,29
1983000,52
1983628,34
1984248,18
1984876,32
1985500,20
1986124,31
1986752,55
1987372,61
1988000,29
1988628,12
1989248,15
1989876,17
1990500,35
1991132,36
1991760,26
1992376,12
1993008,22
1993632,32
1994256,37
1994884,22
1995504,22
1996136,17
1996760,23
1997384,33
1998012,20
1998632,12
1999260,19
1999892,21
2000512,17
2001140,18
2001764,31
2002392,30
2003024,21
2003640,19
2004272,25
2004896,29
2005516,35
2006148,35
2006768,35
2007396,20
2008020,13
2008644,12
2009272,20
2009888,31
2010520,57
2011148,41
2011768,21
2012396,23
2013020,22
2013652,10
2014280,10
2014900,31
2015528,37
2016152,37
2016776,25
2017404,18
2018024,22
2018652,35
2019276,37
2019900,35
2020528,28
2021152,25
2021780,13
2022412,45
2023032,52
2023660,60
2024284,59
2024912,39
2025544,34
2026160,25
2026792,18
2027416,23
2028040,23
2028668,23
2029288,27
2029916,21
2030540,16
2031164,11
2031796,10
2032416,14
2033044,14
2033676,18
2034296,24
2034924,21
2035552,21
2036180,25
2036812,36
2037432,40
2038064,28
2038688,14
2039312,13
2039944,13
2040560,11
2041188,13
2041816,13
2042440,15
2043068,17
2043688,24
2044316,21
2044948,19
2045568,23
2046200,13
2046824,11
2047452,14
2048084,14
2048700,11
2049328,15
2049948,17
2050572,18
2051196,18
2051816,19
2052444,19
2053068,19
2053688,21
2054316,22
2054936,12
2055564,23
2056184,13
2056808,15
2057436,18
2058060,28
2058688,31
2059316,30
2059936,15
2060564,21
2061188,36
2061816,43
2062444,44
2063060,15
2063692,16
2064312,16
2064936,17
2065564,12
2066184,17
2066812,18
2067436,19
2068056,18
2068684,18
2069300,24
2069932,29
2070560,19
2071176,18
2071804,14
2072428,21
2073056,11
2073684,11
2074300,31
2074932,36
2075552,23
2076176,13
2076804,18
2077420,20
2078052,28
2078676,38
2079300,46
2079928,57
2080548,51
2081176,21
2081804,12
2082420,12
2083052,20
2083672,37
2084304,71
2084932,68
2085552,69
2086180,72
2086804,49
2087428,24
2088056,12
2088676,12
2089308,10
2089928,11
2090552,28
2091180,31
2091800,29
2092428,13
2093052,12
2093680,19
2094308,22
2094932,20
2095560,24
2096188,20
2096808,25
2097436,21
2098056,23
2098688,32
2099316,16
2099932,31
2100564,43
2101184,29
2101808,20
2102436,20
2103056,20
2103684,19
2104308,21
2104932,24
2105560,25
2106184,17
2106812,12
2107444,10
2108064,17
2108692,14
2109316,16
2109948,19
2110576,30
2111192,31
2111824,44
2112448,39
2113072,13
2113700,12
2114320,17
2114948,11
2115572,12
2116196,24
2116824,17
2117448,24
2118076,25
2118708,30
2119328,39
2119956,30
2120580,21
2121212,14
2121840,28
2122456,50
2123088,71
2123712,48
2124336,21
2124964,10
2125580,13
2126212,24
2126836,26
2127460,21
2128088,21
2128712,19
2129340,20
2129968,28
2130588,18
2131220,14
2131840,18
2132468,10
2133100,19
2133720,25
2134348,19
2134972,17
2135596,20
2136228,18
2136848,23
2137476,22
2138100,10
2138724,14
2139352,20
2139976,23
2140608,17
2141236,12
2141856,13
2142484,14
2143108,13
2143736,19
2144368,23
2144984,29
2145616,21
2146236,11
2146860,17
2147492,18
2148112,11
2148740,14
2149364,18
2149988,16
2150620,22
2151244,16
2151872,23
2152500,26
2153120,23
2153748,22
2154372,20
2155000,17
2155628,15
2156248,24
2156876,31
2157500,16
2158124,14
2158752,23
2159368,34
2160000,31
2160624,21
2161244,24
2161876,23
2162500,20
2163128,11
2163756,10
2164376,11
2165004,12
2165628,17
2166256,31
2166888,22
2167504,19
2168132,17
2168756,29
2169380,46
2170012,46
2170632,32
2171260,18
2171884,16
2172508,23
2173136,14
2173760,19
2174388,15
2175020,16
2175640,32
2176272,45
2176892,25
2177520,20
2178152,22
2178768,22
2179396,14
2180020,11
2180644,15
2181272,23
2181888,18
2182516,26
2183140,43
2183764,37
2184392,18
2185016,21
2185644,20
2186272,35
2186896,37
2187524,29
2188148,11
2188776,11
2189408,11
2190028,13
2190656,16
2191280,22
2191904,27
2192532,14
2193152,15
2193780,19
2194404,20
2195028,21
2195660,24
2196280,23
2196908,15
2197540,13
2198160,17
2198788,17
2199416,15
2200044,16
2200676,20
2201296,28
2201924,29
2202548,27
2203172,24
2203804,18
2204424,13
2205052,15
2205676,11
2206300,23
2206932,20
2207556,15
2208184,13
2208816,12
2209432,14
2210060,19
2210684,20
2211316,20
2211944,22
2212568,21
2213196,14
2213820,14
2214444,11
2215072,10
2215692,11
2216320,20
2216944,21
2217568,20
2218196,17
2218820,29
2219452,25
2220084,22
2220704,32
2221336,31
2221960,29
2222588,15
2223220,14
2223840,27
2224468,43
2225092,40
2225720,28
2226348,19
2226968,20
2227596,24
2228224,19
2228848,21
2229476,12
2230100,25
2230732,41
2231360,38
2231984,45
2232616,59
2233240,38
2233864,21
2234492,16
2235112,20
2235744,24
2236368,29
2236992,29
2237620,19
2238240,11
2238872,20
2239500,30
2240120,31
2240748,44
2241372,61
2242004,43
2242632,15
2243248,20
2243876,44
2244500,72
2245124,53
2245756,26
2246376,16
2247008,12
2247632,11
2248256,10
2248884,10
2249504,15
2250132,15
2250764,17
2251384,18
2252012,20
2252640,20
2253268,22
2253896,20
2254520,11
2255148,11
2255772,26
2256396,23
2257024,12
2257640,10
2258272,13
2258892,16
2259516,24
2260148,21
2260768,21
2261396,19
2262028,20
2262648,17
2263276,15
2263900,17
2264532,11
2265160,11
2265780,19
2266408,19
2267032,21
2267656,19
2268284,18
2268904,29
2269532,31
2270156,24
2270780,21
2271412,20
2272032,23
2272660,19
2273292,12
2273912,12
2274540,11
2275164,13
2275796,19
2276424,16
2277048,22
2277676,22
2278300,29
2278928,26
2279556,14
2280176,22
2280804,35
2281428,25
2282052,15
2282684,14
2283304,21
2283932,26
2284564,19
2285184,27
2285812,43
2286436,53
2287068,45
2287700,42
2288320,49
2288948,22
2289572,11
2290196,11
2290828,10
2291448,12
2292076,25
2292700,39
2293328,33
2293956,23
2294576,20
2295204,23
2295832,40
2296456,61
2297084,64
2297708,32
2298340,19
2298968,22
2299584,39
2300216,25
2300840,19
2301464,19
2302092,20
2302712,25
2303344,20
2303968,21
2304592,17
2305220,42
2305840,56
2306468,46
2307096,30
2307720,13
2308348,11
2308972,15
2309600,17
2310232,29
2310848,37
2311476,45
2312100,45
2312724,37
2313356,56
2313976,53
2314604,20
2315228,13
2315852,48
2316484,58
2317104,47
2317732,29
2318364,18
2318984,20
2319612,25
2320236,30
2320868,45
2321496,35
2322112,19
2322744,17
2323368,13
2323988,15
2324620,18
2325240,16
2325868,16
2326492,26
2327116,20
2327744,22
2328368,22
2328996,19
2329628,24
2330248,38
2330876,28
2331500,14
2332132,11
2332760,14
2333384,19
2334012,19
2334640,17
2335264,31
2335892,20
2336512,48
2337140,65
2337764,46
2338388,11
2339020,20
2339640,27
2340268,13
2340900,14
2341520,13
2342148,22
2342772,40
2343404,29
2344032,19
2344656,21
2345284,20
2345908,16
2346532,11
2347164,12
2347784,13
2348412,13
2349036,20
2349664,24
2350292,19
2350916,18
2351548,21
2352180,23
2352800,26
2353428,21
2354056,19
2354684,10
2355316,10
2355936,15
2356564,13
2357188,12
2357812,17
2358440,13
2359064,20
2359692,25
2360316,19
2360944,27
2361572,27
2362200,35
2362828,21
2363460,10
2364080,17
2364708,15
2365336,12
2365960,17
2366588,17
2367208,20
2367836,17
2368464,20
2369088,25
2369716,24
2370336,23
2370964,13
2371596,10
2372216,11
2372844,13
2373468,12
2374100,10
2374732,16
2375352,13
2375984,13
2376608,20
2377232,20
2377860,20
2378480,20
2379108,19
2379732,10
2380356,13
2380988,16
2381608,13
2382236,16
2382868,22
2383488,16
2384116,17
2384740,17
2385372,20
2386000,23
2386624,30
2387252,29
2387876,20
2388500,12
2389132,10
2389752,16
2390384,31
2391008,41
2391632,52
2392264,57
2392880,25
2393512,25
2394144,46
2394764,29
2395392,23
2396016,18
2396648,22
2397276,36
2397896,46
2398528,48
2399152,45
2399776,24
2400408,18
2401024,18
2401652,25
2402276,37
2402900,29
2403528,20
2404152,28
2404780,35
2405412,32
2406032,20
2406664,24
2407284,22
2407916,16
2408544,16
2409164,13
2409792,17
2410416,23
2411040,23
2411668,25
2412288,25
2412916,17
2413540,21
2414164,22
2414796,22
2415416,26
2416048,14
2416676,22
2417296,31
2417924,29
2418548,23
2419180,22
2419808,22
2420432,25
2421060,23
2421684,23
2422308,18
2422940,10
2423560,29
2424192,37
2424816,15
2425440,33
2426068,23
2426692,22
2427324,22
2427956,25
2428576,23
2429204,15
2429832,12
2430460,17
2431092,20
2431712,15
2432344,13
2432968,15
2433588,18
2434220,18
2434840,21
2435468,20
2436092,20
2436720,21
2437352,21
2437976,21
2438604,31
2439236,31
2439856,30
2440484,21
2441108,11
2441736,13
2442364,14
2442984,15
2443612,20
2444240,20
2444864,23
2445492,22
2446112,12
2446740,16
2447372,21
2447992,23
2448624,20
2449248,17
2449876,18
2450508,16
2451128,18
2451760,23
2452384,33
2453008,38
2453640,33
2454256,29
2454888,27
2455512,23
2456136,17
2456768,11
2457384,14
2458016,17
2458648,12
2459264,13
2459892,22
2460516,20
2461144,23
2461772,26
2462392,28
2463020,17
2463644,10
2464268,17
2464896,22
2465512,19
2466144,19
2466768,16
2467392,19
2468020,17
2468640,21
2469268,23
2469896,22
2470520,25
2471148,14
2471772,17
2472400,31
2473032,27
2473648,29
2474276,20
2474900,34
2475528,45
2476156,38
2476776,26
2477408,21
2478032,23
2478656,21
2479284,11
2479904,13
2480536,14
2481164,20
2481784,13
2482412,31
2483036,38
2483668,25
2484296,17
2484912,23
2485544,29
2486168,41
2486792,38
2487420,38
2488040,38
2488668,29
2489292,15
2489916,11
2490544,12
2491168,11
2491796,13
2492428,16
2493048,21
2493676,25
2494300,21
2494932,21
2495564,22
2496184,22
2496812,28
2497436,17
2498060,10
2498688,10
2499312,25
2499940,25
2500564,25
2501188,18
2501816,20
2502440,20
2503068,22
2503700,21
2504320,11
2504948,11
2505572,10
2506204,12
2506836,11
2507456,11
2508088,16
2508712,21
2509336,19
2509964,19
2510584,22
2511212,23
2511836,30
2512464,21
2513092,10
2513712,16
2514344,20
2514972,22
2515592,23
2516224,25
2516848,19
2517476,18
2518108,19
2518728,21
2519356,24
2519984,21
2520608,22
2521236,16
2521856,19
2522484,12
2523108,13
2523732,12
2524364,11
2524984,18
2525612,13
2526244,18
2526864,35
2527496,37
2528120,37
2528748,23
2529380,10
2530000,10
2530628,11
2531256,13
2531880,11
2532508,15
2533128,17
2533760,21
2534384,21
2535008,19
2535640,41
2536264,51
2536896,51
2537524,42
2538144,32
2538776,20
2539400,12
2540032,12
2540660,10
2541280,17
2541908,19
2542536,13
2543160,25
2543788,22
2544408,20
2545036,25
2545664,20
2546288,11
2546916,10
2547544,11
2548172,10
2548804,10
2549424,15
2550056,16
2550680,17
2551304,17
2551936,20
2552556,25
2553184,25
2553812,23
2554436,15
2555068,13
2555688,11
2556320,10
2556948,14
2557568,21
2558200,13
2558824,15
2559456,13
2560088,20
2560704,22
2561332,25
2561952,27
2562572,35
2563200,34
2563820,13
2564452,27
2565072,32
2565696,32
2566324,20
2566944,24
2567572,23
2568200,18
2568820,19
2569452,20
2570072,24
2570704,39
2571332,50
2571952,41
2572580,25
2573204,10
2573828,15
2574456,18
2575080,13
2575708,15
2576332,18
2576956,21
2577584,21
2578200,21
2578832,21
2579456,17
2580080,21
2580708,19
2581332,29
2581960,33
2582588,32
2583208,29
2583836,17
2584460,19
2585088,25
2585716,32
2586336,24
2586964,42
2587588,63
2588208,61
2588840,50
2589456,47
2590084,33
2590708,15
2591332,12
2591964,12
2592588,13
2593216,19
2593844,19
2594464,19
2595092,20
2595716,16
2596348,13
2596976,17
2597592,22
2598224,18
2598848,18
2599472,17
2600100,17
2600720,18
2601348,20
2601972,19
2602596,25
2603224,35
2603848,32
2604476,19
2605108,12
2605728,14
2606356,14
2606980,17
2607612,12
2608240,14
2608864,15
2609492,12
2610116,25
2610740,35
2611372,34
2611992,29
2612620,14
2613244,18
2613872,17
2614500,10
2615124,13
2615756,39
2616384,39
2617008,29
2617636,18
2618260,19
2618884,21
2619516,20
2620136,21
2620768,17
2621392,15
2622016,13
2622644,14
2623264,12
2623892,16
2624520,28
2625140,31
2625772,35
2626392,44
2627020,39
2627648,22
2628268,22
2628900,30
2629520,26
2630148,12
2630780,12
2631400,17
2632028,15
2632648,16
2633272,16
2633900,20
2634520,17
2635148,20
2635772,20
2636400,23
2637028,20
2637652,10
2638280,15
2638908,31
2639528,33
2640156,29
2640780,14
2641408,15
2642036,12
2642652,12
2643284,20
2643904,21
2644528,22
2645156,25
2645776,28
2646404,34
2647024,22
2647648,12
2648280,18
2648904,15
2649532,15
2650160,16
2650784,20
2651412,19
2652036,20
2652664,24
2653296,36
2653912,30
2654540,19
2655164,10
2655788,17
2656420,20
2657040,11
2657668,13
2658292,19
2658916,19
2659544,17
2660168,19
2660796,19
2661428,20
2662048,20
2662676,11
2663300,11
2663928,10
2664556,14
2665176,18
2665804,17
2666424,22
2667048,20
2667676,16
2668296,31
2668924,47
2669544,46
2670168,32
2670796,18
2671416,12
2672044,11
2672672,10
2673288,11
2673916,11
2674540,12
2675172,11
2675800,12
2676424,19
2677052,20
2677676,20
2678300,21
2678928,20
2679552,15
2680180,17
2680804,21
2681428,22
2682056,30
2682676,25
2683304,19
2683932,18
2684552,21
2685180,24
2685804,33
2686432,28
2687064,26
2687680,16
2688308,17
2688932,24
2689556,20
2690184,12
2690800,11
2691428,14
2692052,15
2692676,12
2693304,23
2693920,29
2694548,39
2695176,38
2695800,36
2696428,20
2697052,26
2697680,33
2698308,19
2698928,13
2699556,15
2700180,18
2700804,23
2701436,29
2702056,32
2702684,28
2703308,30
2703936,27
2704564,12
2705184,13
2705812,11
2706440,15
2707064,19
2707692,15
2708316,12
2708944,17
2709576,31
2710192,38
2710824,26
2711448,20
2712072,21
2712700,18
2713320,18
2713948,15
2714572,12
2715196,11
2715824,14
2716448,17
2717076,17
2717708,16
2718328,21
2718956,26
2719580,28
2720212,27
2720840,15
2721456,11
2722088,9
2722656,15
2723292,24
2723920,37
2724544,40
2725172,41
2725792,28
2726416,20
2727044,20
2727664,29
2728292,31
2728916,27
2729540,26
2730168,27
2730788,31
2731416,31
2732044,10
2732664,22
2733292,20
2733916,18
2734548,18
2735176,19
2735796,19
2736424,21
2737048,26
2737672,24
2738300,24
2738920,15
2739548,12
2740172,17
2740796,12
2741428,11
2742048,15
2742676,12
2743308,20
2743928,21
2744556,23
2745180,22
2745812,12
2746440,17
2747056,14
2747688,17
2748312,22
2748936,19
2749564,16
2750184,19
2750812,21
2751436,25
2752064,23
2752692,20
2753312,20
2753940,16
2754572,10
2755192,12
2755820,21
2756444,29
2757076,29
2757704,22
2758328,22
2758960,22
2759580,29
2760208,23
2760836,20
2761456,24
2762084,32
2762708,25
2763332,17
2763964,14
2764584,22
2765216,22
2765844,14
2766464,24
2767092,28
2767716,25
2768344,22
2768976,19
2769592,20
2770220,20
2770844,13
2771468,19
2772100,24
2772720,24
2773348,21
2773972,13
2774596,12
2775228,12
2775848,19
2776476,31
2777108,26
2777728,22
2778356,22
2778980,13
2779612,10
2780240,16
2780864,17
2781492,15
2782116,17
2782740,19
2783372,16
2783992,17
2784624,19
2785248,30
2785872,41
2786500,42
2787120,41
2787748,34
2788380,25
2789000,13
2789628,11
2790252,10
2790884,11
2791512,13
2792132,12
2792760,21
2793384,29
2794008,25
2794636,22
2795256,21
2795884,11
2796508,11
2797132,12
2797764,11
2798384,14
2799012,22
2799644,19
2800264,17
2800892,17
2801516,20
2802148,20
2802776,25
2803396,28
2804024,31
2804648,12
2805272,21
2805900,16
2806520,17
2807148,12
2807772,12
2808396,12
2809024,22
2809648,26
2810276,19
2810908,20
2811528,22
2812156,22
2812780,22
2813412,21
2814044,12
2814664,11
2815296,15
2815920,19
2816544,44
2817172,45
2817792,33
2818420,20
2819044,19
2819668,21
2820296,21
2820912,12
2821544,19
2822172,22
2822792,25
2823420,20
2824044,11
2824672,12
2825304,13
2825920,12
2826552,20
2827176,19
2827800,21
2828428,20
2829048,18
2829676,25
2830300,19
2830924,11
2831552,10
2832172,13
2832800,16
2833428,18
2834048,18
2834676,20
2835300,19
2835932,20
2836560,27
2837176,31
2837808,25
2838432,11
2839056,16
2839684,14
2840304,13
2840932,25
2841560,29
2842184,21
2842812,17
2843432,23
2844060,35
2844692,38
2845312,34
2845944,31
2846568,24
2847196,11
2847828,15
2848448,19
2849076,17
2849700,20
2850324,21
2850952,18
2851576,25
2852204,44
2852828,58
2853452,57
2854084,30
2854704,19
2855332,14
2855964,12
2856584,19
2857212,13
2857836,11
2858468,16
2859100,17
2859720,25
2860348,33
2860976,39
2861600,43
2862228,42
2862848,36
2863476,30
2864104,25
2864728,13
2865356,25
2865976,39
2866608,39
2867236,34
2867852,25
2868484,26
2869104,26
2869732,31
2870364,30
2870984,25
2871612,19
2872236,15
2872860,20
2873492,23
2874112,15
2874740,13
2875364,12
2875988,11
2876620,18
2877240,19
2877868,20
2878500,19
2879120,11
2879748,11
2880376,12
2881004,11
2881632,12
2882248,15
2882876,17
2883500,19
2884124,19
2884752,19
2885368,19
2886000,21
2886620,24
2887244,13
2887872,10
2888496,15
2889124,17
2889752,11
2890368,13
2890996,12
2891620,22
2892248,34
2892880,26
2893496,19
2894124,25
2894748,28
2895372,26
2896000,11
2896616,12
2897244,19
2897868,21
2898492,18
2899120,18
2899744,16
2900372,17
2901004,16
2901624,24
2902252,21
2902876,20
2903508,24
2904140,16
2904760,21
2905388,25
2906016,20
2906636,28
2907268,20
2907888,18
2908516,12
2909140,12
2909764,19
2910392,19
2911016,21
2911644,21
2912276,14
2912896,15
2913524,10
2914148,18
2914780,14
2915408,16
2916028,15
2916656,19
2917280,19
2917904,21
2918532,20
2919152,24
2919780,20
2920404,20
2921028,26
2921656,23
2922280,15
2922908,11
2923540,12
2924160,15
2924788,13
2925412,15
2926044,14
2926676,20
2927296,24
2927928,24
2928552,22
2929176,15
2929804,13
2930424,10
2931052,17
2931676,23
2932304,23
2932932,17
2933552,18
2934184,17
2934812,20
2935432,27
2936064,25
2936688,19
2937316,11
2937948,12
2938568,13
2939196,12
2939824,11
2940448,11
2941076,17
2941696,13
2942324,15
2942952,26
2943576,28
2944208,27
2944824,27
2945452,20
2946084,12
2946704,23
2947332,18
2947956,19
2948588,29
2949220,36
2949840,35
2950468,35
2951092,29
2951716,22
2952344,20
2952960,19
2953592,21
2954216,13
2954840,11
2955468,10
2956088,14
2956716,17
2957348,11
2957968,15
2958596,15
2959220,17
2959852,21
2960484,20
2961104,21
2961732,20
2962356,16
2962980,22
2963608,11
2964232,12
2964860,18
2965484,41
2966108,40
2966740,24
2967364,20
2967992,26
2968624,20
2969240,21
2969868,19
2970492,15
2971120,19
2971752,27
2972368,27
2972996,19
2973620,16
2974244,15
2974872,16
2975496,13
2976124,17
2976748,20
2977372,19
2978000,22
2978616,29
2979248,22
2979876,16
2980496,25
2981124,19
2981748,25
2982380,16
2983008,19
2983632,21
2984260,23
2984884,27
2985508,30
2986140,29
2986760,28
2987388,28
2988016,20
2988640,20
2989268,22
2989892,29
2990524,15
2991152,12
2991776,20
2992408,15
2993028,19
2993660,19
2994292,18
2994912,21
2995544,12
2996164,14
2996788,17
2997420,11
2998040,12
2998668,13
2999292,16
2999920,25
3000552,26
3001176,21
3001804,21
3002436,28
3003056,36
3003684,38
3004308,31
3004936,26
3005564,22
3006184,15
3006816,13
3007440,11
3008064,12
3008692,13
3009312,13
3009940,22
3010572,22
3011192,25
3011824,27
3012448,25
3013076,24
3013708,21
3014328,20
3014960,15
3015584,14
3016208,16
3016836,17
3017456,17
3018088,19
3018712,20
3019336,20
3019968,19
3020584,13
3021216,28
3021848,35
3022464,37
3023096,34
3023720,32
3024352,31
3024980,19
3025600,13
3026228,26
3026856,26
3027480,21
3028108,22
3028728,17
3029360,20
3029984,13
3030608,19
3031240,10
3031856,18
3032488,15
3033116,15
3033736,16
3034364,21
3034988,33
3035620,42
3036252,42
3036872,36
3037504,29
3038128,22
3038752,12
3039384,10
3040000,12
3040632,21
3041256,21
3041880,24
3042508,16
3043128,21
3043760,19
3044388,19
3045008,19
3045636,11
3046264,9
3046844,11
3047476,10
3048096,12
3048724,13
3049348,17
3049980,16
3050612,16
3051232,20
3051864,19
3052488,19
3053112,21
3053744,18
3054360,24
3054992,30
3055620,22
3056240,12
3056868,13
3057496,17
3058124,17
3058756,19
3059376,29
3060004,28
3060628,19
3061256,19
3061888,21
3062504,22
3063132,30
3063760,36
3064384,35
3065016,28
3065632,26
3066264,17
3066896,17
3067512,16
3068144,19
3068768,19
3069400,19
3070032,19
3070652,12
3071284,17
3071908,17
3072536,13
3073164,12
3073784,11
3074412,11
3075036,14
3075660,12
3076288,19
3076904,19
3077536,21
3078164,20
3078784,14
3079412,11
3080036,17
3080664,21
3081296,11
3081912,22
3082540,23
3083164,19
3083788,17
3084420,18
3085040,19
3085668,21
3086292,22
3086916,20
3087544,10
3088168,14
3088796,18
3089428,10
3090048,12
3090676,18
3091300,24
3091932,13
3092564,15
3093184,22
3093812,21
3094436,20
3095060,20
3095692,14
3096312,11
3096944,12
3097568,16
3098192,17
3098820,14
3099440,16
3100068,17
3100700,16
3101320,20
3101952,21
3102576,33
3103204,49
3103836,40
3104456,36
3105088,34
3105712,17
3106336,15
3106968,12
3107584,11
3108216,11
3108840,12
3109464,19
3110092,18
3110712,20
3111344,21
3111972,18
3112592,10
3113224,10
3113848,14
3114476,11
3115108,16
3115728,22
3116356,22
3116984,17
3117604,19
3118236,19
3118856,20
3119484,19
3120112,20
3120736,19
3121364,21
3121988,18
3122620,10
3123248,19
3123872,22
3124500,25
3125124,23
3125752,27
3126384,25
3127000,22
3127628,23
3128256,26
3128880,12
3129508,11
3130128,12
3130756,17
3131384,23
3132008,26
3132636,24
3133264,20
3133896,19
3134524,26
3135144,35
3135776,39
3136400,28
3137028,15
3137660,11
3138280,15
3138908,11
3139532,15
3140156,14
3140788,10
3141408,14
3142040,18
3142668,20
3143288,19
3143916,22
3144544,29
3145172,27
3145804,21
3146424,23
3147052,18
3147680,15
3148304,11
3148932,14
3149552,17
3150184,21
3150808,29
3151432,33
3152064,38
3152680,30
3153312,29
3153940,25
3154560,30
3155188,18
3155816,11
3156444,13
3157076,12
3157696,15
3158328,14
3158952,13
3159576,21
3160208,25
3160824,27
3161452,30
3162080,23
3162704,17
3163336,10
3163952,12
3164584,17
3165216,20
3165832,16
3166464,15
3167088,17
3167720,18
3168352,20
3168968,20
3169596,20
3170224,25
3170848,32
3171480,23
3172096,14
3172728,10
3173356,11
3173980,16
3174612,12
3175236,12
3175868,13
3176496,19
3177120,20
3177748,19
3178376,20
3179004,13
3179636,12
3180256,13
3180888,15
3181512,12
3182136,19
3182768,18
3183384,19
3184016,22
3184644,23
3185264,30
3185896,35
3186520,30
3187152,17
3187784,11
3188404,10
3189032,11
3189656,11
3190280,13
3190912,16
3191532,12
3192164,12
3192788,20
3193412,21
3194044,19
3194664,20
3195296,19
3195928,11
3196544,10
3197176,14
3197800,15
3198432,15
3199060,15
3199680,22
3200312,27
3200936,25
3201560,20
3202188,20
3202808,27
3203436,27
3204060,19
3204680,19
3205312,21
3205928,23
3206556,20
3207184,14
3207808,19
3208436,25
3209060,27
3209688,25
3210320,18
3210936,24
3211564,27
3212188,17
3212812,10
3213440,10
3214064,14
3214692,14
3215316,14
3215940,15
3216572,17
3217192,16
3217820,19
3218452,20
3219072,28
3219700,39
3220324,35
3220956,28
3221584,17
3222208,11
3222836,13
3223460,17
3224088,27
3224716,20
3225336,15
3225968,19
3226588,26
3227212,27
3227844,21
3228464,19
3229092,16
3229724,14
3230344,19
3230976,16
3231600,12
3232228,14
3232860,16
3233480,17
3234108,16
3234732,19
3235356,21
3235988,18
3236608,19
3237236,17
3237860,13
3238484,10
3239112,10
3239736,11
3240364,11
3240996,22
3241616,32
3242244,30
3242868,28
3243496,19
3244128,24
3244748,28
3245376,19
3246000,15
3246624,12
3247256,11
3247876,11
3248504,13
3249128,16
3249752,16
3250380,16
3251000,19
3251632,23
3252260,34
3252880,42
3253508,41
3254132,21
3254764,11
3255396,10
3256016,11
3256644,12
3257268,12
3257896,13
3258524,13
3259144,17
3259776,19
3260400,21
3261024,24
3261652,27
3262280,25
3262908,25
3263540,20
3264160,15
3264788,13
3265412,17
3266044,30
3266672,34
3267296,30
3267924,21
3268548,19
3269172,19
3269804,19
3270424,15
3271052,14
3271676,11
3272304,10
3272936,14
3273560,14
3274192,13
3274824,17
3275440,19
3276072,18
3276696,20
3277320,19
3277948,19
3278568,17
3279196,10
3279816,10
3280440,11
3281068,16
3281684,16
3282312,20
3282936,17
3283556,19
3284188,17
3284808,19
3285436,19
3286064,19
3286680,21
3287308,10
3287932,11
3288560,26
3289188,26
3289808,23
3290436,18
3291056,16
3291680,13
3292308,11
3292928,20
3293556,22
3294176,31
3294800,40
3295428,27
3296048,19
3296676,14
3297304,17
3297920,11
3298548,22
3299172,21
3299800,19
3300428,16
3301048,20
3301676,21
3302300,35
3302924,40
3303552,30
3304172,25
3304800,25
3305420,25
3306044,21
3306676,13
3307296,12
3307924,13
3308552,12
3309176,19
3309804,25
3310428,26
3311056,24
3311688,20
3312304,11
3312932,15
3313556,12
3314184,10
3314812,14
3315432,20
3316060,15
3316684,17
3317308,17
3317940,18
3318560,22
3319188,29
3319816,26
3320440,13
3321068,10
3321692,12
3322320,11
3322948,11
3323568,11
3324196,11
3324820,13
3325444,13
3326076,18
3326696,20
3327324,20
3327952,19
3328576,14
3329204,14
3329820,26
3330452,22
3331080,17
3331696,13
3332324,16
3332948,15
3333576,18
3334204,18
3334824,19
3335452,29
3336076,28
3336704,40
3337332,39
3337952,36
3338580,29
3339204,17
3339828,11
3340456,15
3341072,18
3341700,13
3342324,21
3342948,21
3343576,19
3344200,19
3344828,19
3345456,11
3346072,12
3346704,12
3347328,12
3347956,11
3348584,13
3349208,20
3349836,18
3350460,16
3351084,18
3351712,20
3352332,19
3352960,20
3353584,13
3354208,11
3354836,10
3355460,20
3356092,22
3356720,21
3357340,12
3357968,23
3358592,25
3359224,25
3359852,19
3360472,21
3361100,20
3361724,19
3362344,10
3362976,14
3363592,16
3364220,11
3364844,10
3365464,13
3366096,16
3366712,17
3367340,17
3367968,18
3368592,22
3369220,25
3369844,25
3370472,26
3371100,35
3371720,20
3372348,10
3372972,17
3373596,37
3374224,27
3374844,17
3375472,25
3376096,25
3376720,20
3377348,26
3377968,24
3378596,12
3379228,11
3379844,18
3380472,15
3381096,17
3381728,42
3382356,34
3382976,21
3383604,22
3384228,24
3384852,23
3385480,22
3386096,19
3386728,21
3387348,38
3387972,45
3388604,34
3389224,11
3389852,10
3390484,13
3391104,16
3391732,22
3392356,23
3392988,19
3393616,19
3394232,20
3394860,21
3395484,26
3396108,11
3396736,12
3397360,13
3397988,14
3398612,16
3399236,26
3399868,24
3400488,23
3401116,29
3401744,51
3402360,53
3402992,44
3403616,21
3404244,12
3404872,10
3405496,12
3406124,34
3406748,34
3407368,19
3408000,11
3408616,12
3409244,30
3409868,55
3410492,67
3411120,38
3411744,25
3412372,11
3413004,31
3413624,50
3414252,63
3414876,58
3415508,40
3416136,26
3416760,22
3417388,18
3418016,20
3418636,17
3419268,26
3419888,38
3420520,17
3421140,11
3421764,13
3422396,12
3423016,13
3423644,15
3424276,12
3424896,13
3425524,22
3426148,25
3426780,19
3427408,26
3428028,21
3428656,11
3429280,11
3429904,11
3430536,16
3431152,13
3431780,12
3432404,16
3433028,17
3433660,16
3434280,27
3434908,28
3435540,18
3436160,44
3436788,56
3437416,51
3438044,43
3438676,31
3439296,13
3439928,18
3440552,33
3441176,60
3441804,54
3442424,39
3443052,25
3443676,24
3444300,35
3444928,27
3445548,55
3446176,69
3446804,68
3447424,80
3448052,82
3448676,60
3449304,16
3449936,19
3450552,21
3451180,30
3451808,23
3452432,19
3453060,26
3453680,29
3454308,20
3454936,13
3455560,10
3456192,18
3456808,25
3457436,29
3458064,34
3458680,15
3459312,19
3459936,23
3460564,30
3461196,36
3461816,25
3462444,10
3463068,18
3463692,34
3464320,49
3464936,34
3465564,15
3466188,17
3466816,24
3467444,28
3468064,22
3468692,21
3469324,28
3469944,20
3470572,29
3471196,49
3471828,51
3472460,26
3473080,11
3473708,17
3474332,16
3474960,33
3475588,18
3476208,19
3476836,26
3477460,26
3478084,19
3478716,11
3479336,11
3479968,19
3480596,35
3481216,45
3481848,60
3482468,64
3483096,19
3483728,58
3484344,89
3484972,89
3485596,67
3486220,31
3486848,16
3487472,26
3488100,29
3488724,24
3489348,12
3489976,17
3490592,19
3491224,12
3491852,12
3492472,18
3493100,19
3493724,20
3494356,28
3494988,30
3495608,35
3496236,46
3496860,37
3497484,20
3498116,10
3498736,33
3499368,43
3499992,43
3500616,35
3501248,24
3501864,19
3502496,26
3503124,20
3503744,19
3504376,20
3505000,14
3505628,17
3506260,10
3506880,14
3507508,12
3508136,17
3508760,20
3509388,20
3510008,22
3510636,19
3511264,24
3511888,32
3512520,51
3513136,26
3513768,17
3514396,21
3515016,13
3515648,25
3516272,28
3516900,19
3517532,36
3518152,47
3518784,51
3519408,43
3520032,33
3520660,28
3521280,17
3521908,23
3522532,20
3523156,11
3523788,11
3524408,15
3525036,12
3525668,22
3526288,38
3526916,43
3527540,47
3528172,35
3528800,25
3529424,17
3530052,10
3530676,13
3531300,27
3531932,26
3532552,15
3533184,24
3533804,32
3534428,29
3535060,19
3535684,42
3536312,46
3536940,18
3537560,49
3538188,43
3538812,59
3539444,72
3540072,41
3540696,13
3541324,19
3541948,38
3542576,38
3543204,29
3543824,25
3544452,20
3545076,25
3545700,15
3546332,28
3546956,46
3547584,62
3548216,75
3548832,22
3549464,77
3550088,93
3550716,92
3551348,74
3551968,55
3552600,40
3553224,24
3553848,12
3554476,12
3555096,11
3555728,25
3556356,27
3556976,20
3557604,13
3558232,12
3558860,15
3559492,28
3560112,21
3560740,21
3561368,21
3561992,20
3562620,22
3563240,11
3563872,12
3564496,9
3565068,15
3565700,17
3566320,17
3566948,16
3567576,21
3568200,31
3568828,38
3569448,27
3570076,23
3570708,28
3571328,17
3571956,14
3572584,25
3573212,29
3573844,22
3574464,25
3575092,33
3575720,33
3576344,21
3576972,21
3577592,23
3578224,20
3578848,11
3579472,11
3580104,11
3580724,19
3581352,23
3581984,22
3582608,27
3583240,22
3583864,16
3584496,20
3585128,25
3585744,21
3586372,24
3586996,16
3587620,18
3588252,16
3588872,17
3589500,21
3590124,31
3590748,31
3591380,23
3592004,35
3592632,26
3593260,19
3593880,28
3594508,33
3595132,13
3595764,11
3596396,14
3597016,10
3597644,11
3598268,14
3598892,16
3599524,16
3600144,17
3600772,21
3601396,21
3602020,23
3602652,19
3603276,18
3603904,15
3604532,23
3605152,21
3605780,26
3606404,41
3607032,21
3607660,16
3608280,14
3608908,15
3609532,21
3610156,21
3610784,20
3611408,21
3612036,23
3612660,54
3613284,44
3613912,16
3614540,10
3615168,23
3615796,23
3616416,20
3617044,16
3617668,19
3618296,26
3618924,24
3619544,20
3620172,12
3620796,12
3621420,17
3622052,14
3622672,29
3623300,49
3623924,48
3624548,34
3625180,26
3625804,23
3626432,24
3627060,21
3627680,21
3628308,20
3628932,36
3629564,42
3630192,30
3630812,31
3631440,53
3632064,53
3632688,25
3633316,16
3633936,19
3634564,27
3635188,27
3635816,20
3636444,25
3637068,21
3637700,13
3638328,13
3638952,24
3639580,24
3640208,33
3640836,44
3641468,30
3642088,13
3642716,25
3643340,26
3643964,29
3644596,34
3645216,30
3645848,27
3646476,10
3647096,11
3647724,14
3648352,13
3648980,16
3649608,16
3650224,17
3650852,19
3651476,28
3652104,32
3652732,26
3653352,51
3653980,82
3654608,68
3655228,27
3655860,12
3656480,10
3657108,11
3657740,20
3658360,23
3658988,19
3659612,19
3660244,21
3660876,30
3661496,47
3662124,47
3662748,38
3663372,13
3664004,24
3664624,14
3665252,17
3665880,23
3666504,17
3667132,18
3667752,21
3668380,28
3669012,34
3669632,21
3670264,55
3670888,79
3671516,67
3672148,50
3672768,44
3673400,32
3674024,29
3674648,26
3675280,14
3675896,25
3676528,33
3677152,34
3677776,29
3678408,15
3679024,14
3679656,14
3680288,16
3680904,14
3681532,17
3682156,20
3682788,16
3683420,18
3684040,24
3684668,29
3685292,23
3685920,20
3686548,25
3687168,27
3687796,11
3688420,11
3689040,12
3689668,15
3690288,29
3690916,26
3691544,74
3692164,72
3692792,51
3693416,28
3694044,20
3694676,19
3695296,36
3695924,86
3696552,52
3697176,12
3697804,18
3698424,32
3699052,48
3699676,46
3700300,28
3700932,22
3701552,20
3702184,20
3702812,19
3703432,29
3704060,39
3704684,45
3705316,37
3705948,33
3706568,18
3707196,14
3707824,12
3708448,14
3709076,19
3709696,20
3710324,30
3710952,35
3711576,21
3712208,12
3712824,12
3713452,11
3714084,11
3714704,15
3715332,18
3715956,20
3716588,16
3717216,17
3717840,20
3718468,21
3719092,20
3719716,21
3720348,13
3720968,12
3721596,11
3722220,13
3722844,10
3723476,16
3724100,29
3724732,29
3725364,18
3725984,21
3726616,22
3727240,20
3727868,20
3728500,10
3729120,11
3729748,11
3730372,11
3731000,12
3731628,13
3732248,16
3732876,22
3733500,26
3734128,20
3734756,20
3735384,29
3736012,28
3736644,16
3737264,45
3737896,62
3738520,23
3739144,27
3739772,76
3740392,74
3741024,47
3741644,26
3742272,21
3742900,19
3743520,21
3744152,19
3744780,22
3745400,10
3746028,13
3746652,11
3747284,10
3747916,10
3748536,16
3749164,22
3749788,32
3750416,32
3751044,27
3751664,31
3752296,65
3752920,76
3753544,70
3754176,52
3754792,22
3755424,11
3756056,10
3756676,16
3757308,23
3757932,25
3758564,17
3759192,22
3759816,25
3760448,20
3761072,19
3761700,12
3762328,16
3762952,13
3763584,11
3764208,18
3764832,13
3765460,15
3766088,16
3766716,28
3767348,35
3767968,20
3768600,27
3769224,24
3769852,21
3770484,24
3771104,15
3771736,13
3772360,22
3772984,24
3773612,20
3774232,27
3774864,13
3775492,30
3776112,33
3776744,23
3777368,33
3777996,42
3778628,42
3779248,21
3779876,11
3780500,17
3781128,45
3781756,58
3782376,24
3783008,21
3783632,21
3784256,32
3784888,36
3785504,25
3786136,26
3786768,10
3787384,14
3788016,11
3788640,18
3789272,24
3789900,24
3790520,31
3791148,26
3791776,21
3792400,19
3793028,23
3793648,25
3794276,26
3794900,30
3795528,28
3796156,10
3796776,16
3797408,16
3798036,20
3798656,25
3799288,19
3799912,46
3800544,36
3801172,54
3801792,42
3802420,23
3803044,73
3803672,78
3804300,46
3804920,101
3805600,115
3806284,76
3806904,38
3807536,17
3808160,17
3808784,16
3809416,20
3810032,21
3810660,21
3811288,21
3811912,11
3812540,10
3813160,15
3813792,27
3814420,27
3815040,19
3815668,18
3816296,18
3816924,17
3817556,24
3818176,33
3818808,32
3819432,20
3820056,20
3820688,16
3821304,24
3821936,26
3822560,23
3823184,21
3823816,38
3824436,39
3825068,21
3825696,18
3826320,21
3826952,25
3827576,33
3828208,37
3828836,42
3829456,35
3830088,17
3830712,18
3831336,22
3831968,27
3832588,38
3833220,29
3833844,19
3834468,23
3835100,19
3835728,26
3836360,37
3836992,41
3837608,39
3838240,31
3838864,18
3839496,13
3840128,12
3840744,21
3841372,28
3841996,33
3842620,41
3843248,38
3843864,23
3844496,21
3845124,17
3845744,16
3846372,16
3847000,12
3847628,40
3848260,43
3848880,27
3849508,23
3850136,22
3850760,20
3851388,21
3852008,20
3852636,22
3853260,23
3853884,21
3854516,10
3855136,13
3855764,29
3856396,37
3857016,17
3857644,29
3858268,34
3858900,26
3859528,22
3860152,32
3860784,29
3861404,30
3862028,24
3862660,12
3863280,15
3863908,17
3864536,20
3865160,36
3865788,31
3866408,18
3867036,16
3867668,18
3868288,28
3868916,37
3869540,44
3870172,33
3870804,20
3871424,13
3872052,10
3872676,16
3873300,31
3873932,32
3874552,36
3875184,31
3875808,23
3876432,33
3877064,21
3877680,23
3878312,12
3878940,19
3879560,26
3880192,13
3880816,13
3881444,16
3882076,20
3882696,17
3883328,25
3883952,40
3884576,37
3885208,24
3885824,25
3886456,65
3887080,81
3887704,90
3888336,75
3888952,52
3889584,39
3890216,21
3890836,13
3891468,12
3892088,15
3892720,21
3893348,28
3893968,42
3894596,47
3895220,39
3895844,31
3896476,18
3897096,12
3897724,17
3898348,24
3898972,19
3899604,17
3900228,16
3900860,31
3901488,22
3902112,20
3902744,42
3903368,38
3903996,23
3904628,10
3905248,11
3905876,11
3906504,24
3907128,15
3907760,13
3908376,22
3909008,27
3909636,21
3910256,20
3910888,21
3911512,17
3912144,10
3912772,16
3913392,13
3914024,12
3914648,11
3915272,16
3915904,16
3916520,19
3917152,19
3917776,21
3918400,22
3919028,19
3919648,20
3920280,10
3920908,16
3921528,36
3922160,31
3922784,27
3923412,15
3924044,18
3924664,14
3925292,17
3925920,28
3926544,35
3927176,31
3927792,27
3928424,17
3929048,11
3929672,13
3930300,32
3930920,47
3931552,31
3932180,15
3932800,32
3933428,21
3934052,21
3934684,37
3935312,36
3935936,29
3936568,26
3937192,13
3937816,16
3938444,18
3939064,13
3939692,10
3940320,11
3940940,16
3941572,44
3942192,45
3942824,26
3943452,24
3944072,33
3944700,48
3945324,28
3945956,13
3946584,10
3947204,25
3947832,45
3948456,64
3949080,71
3949708,69
3950328,47
3950960,32
3951584,29
3952208,23
3952836,19
3953456,16
3954084,12
3954716,10
3955336,13
3955964,21
3956588,31
3957220,22
3957852,18
3958472,24
3959100,22
3959728,23
3960352,22
3960980,24
3961600,12
3962228,11
3962852,13
3963480,11
3964108,18
3964728,15
3965360,17
3965988,18
3966608,35
3967240,29
3967864,32
3968496,58
3969124,54
3969744,48
3970372,26
3971000,25
3971624,21
3972252,10
3972872,25
3973500,13
3974128,16
3974752,13
3975380,24
3976004,25
3976632,19
3977264,21
3977884,21
3978512,15
3979136,12
3979768,11
3980396,10
3981016,12
3981644,15
3982268,16
3982896,19
3983524,23
3984144,23
3984772,27
3985396,28
3986024,28
3986652,30
3987276,27
3987908,10
3988536,21
3989160,18
3989792,17
3990416,13
3991044,12
3991676,12
3992296,18
3992928,19
3993552,19
3994176,25
3994808,22
3995428,17
3996056,11
3996688,15
3997304,19
3997936,14
3998560,15
3999192,21
3999820,16
4000440,19
4001072,29
4001692,43
4002316,51
4002948,44
4003568,31
4004196,26
4004820,19
4005444,10
4006072,11
4006692,11
4007320,19
4007948,14
4008568,14
4009196,22
4009820,22
4010452,22
4011080,25
4011700,19
4012328,20
4012952,17
4013576,12
4014208,11
4014824,17
4015452,17
4016076,19
4016700,19
4017328,18
4017952,22
4018580,30
4019212,36
4019832,28
4020460,22
4021084,17
4021712,10
4022344,10
4022964,10
4023592,14
4024216,14
4024840,12
4025468,20
4026088,22
4026716,19
4027340,17
4027964,18
4028596,14
4029216,20
4029844,17
4030476,12
4031096,11
4031728,21
4032352,23
4032980,19
4033612,18
4034232,21
4034860,44
4035484,52
4036108,47
4036740,42
4037360,33
4037988,13
4038612,13
4039236,16
4039868,18
4040488,16
4041116,17
4041748,34
4042368,53
4042996,50
4043624,35
4044252,22
4044884,54
4045504,52
4046132,34
4046756,16
4047380,19
4048008,12
4048632,24
4049260,26
4049884,18
4050508,19
4051140,21
4051760,19
4052388,26
4053020,37
4053640,29
4054272,13
4054896,31
4055524,17
4056156,35
4056776,68
4057408,52
4058032,30
4058656,28
4059284,18
4059904,18
4060536,19
4061160,21
4061784,22
4062412,22
4063032,17
4063664,13
4064296,9
4064860,15
4065492,15
4066116,16
4066748,16
4067380,17
4068000,19
4068628,20
4069252,21
4069884,14
4070516,17
4071136,23
4071768,24
4072392,22
4073016,16
4073644,11
4074264,11
4074892,17
4075520,23
4076144,20
4076776,26
4077400,26
4078032,14
4078660,18
4079280,28
4079912,25
4080536,13
4081160,26
4081788,38
4082408,35
4083040,36
4083664,29
4084288,32
4084920,24
4085536,18
4086168,19
4086796,14
4087416,15
4088048,11
4088672,12
4089300,17
4089932,15
4090552,17
4091184,18
4091808,13
4092432,19
4093064,19
4093684,19
4094312,20
4094940,13
4095564,16
4096200,20
4096812,18
4097440,16
4098068,13
4098684,16
4099312,15
4099936,16
4100564,18
4101192,19
4101808,23
4102436,22
4103056,15
4103684,10
4104312,11
4104928,10
4105560,11
4106184,12
4106804,12
4107436,12
4108056,16
4108684,19
4109308,23
4109928,19
4110560,18
4111180,18
4111812,10
4112440,11
4113056,12
4113688,11
4114308,11
4114940,16
4115568,16
4116184,17
4116812,22
4117436,18
4118060,24
4118688,29
4119304,29
4119932,27
4120556,25
4121180,21
4121808,10
4122428,11
4123060,17
4123688,15
4124304,13
4124932,12
4125556,19
4126184,18
4126816,18
4127432,21
4128060,13
4128684,11
4129304,11
4129936,11
4130552,12
4131180,12
4131804,15
4132428,15
4133060,16
4133680,21
4134308,27
4134940,26
4135560,27
4136188,21
4136812,11
4137444,11
4138072,19
4138688,19
4139316,15
4139940,15
4140564,11
4141196,18
4141816,31
4142444,43
4143068,28
4143692,18
4144324,18
4144944,23
4145572,35
4146204,43
4146824,45
4147452,32
4148076,23
4148704,16
4149336,16
4149952,15
4150580,17
4151204,24
4151828,29
4152456,22
4153080,14
4153708,10
4154332,10
4154956,10
4155588,16
4156208,39
4156836,32
4157468,18
4158088,17
4158716,18
4159340,19
4159972,19
4160604,18
4161220,19
4161852,11
4162476,13
4163096,10
4163724,18
4164344,21
4164972,15
4165596,14
4166220,15
4166848,19
4167464,25
4168096,19
4168724,16
4169344,21
4169972,20
4170596,11
4171224,11
4171852,16
4172472,35
4173100,23
4173724,15
4174348,11
4174980,12
4175600,24
4176228,18
4176852,18
4177476,23
4178104,40
4178728,41
4179356,31
4179984,12
4180600,13
4181232,13
4181852,14
4182484,15
4183112,24
4183728,33
4184360,31
4184984,27
4185604,25
4186232,22
4186856,21
4187484,12
4188108,10
4188732,11
4189364,11
4189984,13
4190612,15
4191244,18
4191864,26
4192496,19
4193116,21
4193748,23
4194376,25
4194996,23
4195624,19
4196248,13
4196872,11
4197500,15
4198120,19
4198748,17
4199372,17
4199996,19
4200624,16
4201248,29
4201876,43
4202504,48
4203128,47
4203756,39
4204380,25
4205012,11
4205640,20
4206256,28
4206884,25
4207508,16
4208136,14
4208764,16
4209384,18
4210012,17
4210636,19
4211260,14
4211888,11
4212504,10
4213136,9
4213708,13
4214336,11
4214964,18
4215584,21
4216212,16
4216844,30
4217464,35
4218096,37
4218716,35
4219348,31
4219980,14
4220600,11
4221228,10
4221852,10
4222476,10
4223108,10
4223728,12
4224360,17
4224980,20
4225604,21
4226232,17
4226848,17
4227480,18
4228108,10
4228728,13
4229356,17
4229980,19
4230612,11
4231240,21
4231856,15
4232488,15
4233112,17
4233736,26
4234364,22
4234984,33
4235612,27
4236236,15
4236860,33
4237492,24
4238112,15
4238740,10
4239372,10
4239992,13
4240624,27
4241248,17
4241876,19
4242504,38
4243128,47
4243756,29
4244384,18
4245008,11
4245636,14
4246256,19
4246884,10
4247508,10
4248132,14
4248764,16
4249384,16
4250016,16
4250644,18
4251264,31
4251892,31
4252516,27
4253148,27
4253776,11
4254396,25
4255024,45
4255648,28
4256276,13
4256904,13
4257520,14
4258148,12
4258772,19
4259400,20
4260028,22
4260644,22
4261276,14
4261904,17
4262520,12
4263152,11
4263776,11
4264404,20
4265032,29
4265648,28
4266280,22
4266900,17
4267524,17
4268156,16
4268776,18
4269404,17
4270032,12
4270656,14
4271284,14
4271904,15
4272536,12
4273164,12
4273784,13
4274412,12
4275036,22
4275668,24
4276300,16
4276920,17
4277548,18
4278172,12
4278796,11
4279428,16
4280048,22
4280676,22
4281300,15
4281924,14
4282552,18
4283176,20
4283804,18
4284436,29
4285056,44
4285684,25
4286308,11
4286940,11
4287572,12
4288192,12
4288820,12
4289444,21
4290068,19
4290696,13
4291316,14
4291944,17
4292568,19
4293192,18
4293820,30
4294440,36
4295068,27
4295700,20
4296320,19
4296948,10
4297572,14
4298204,15
4298836,20
4299456,20
4300088,17
4300712,17
4301336,19
4301964,19
4302584,18
4303212,13
4303836,15
4304460,11
4305092,17
4305712,12
4306340,17
4306972,14
4307592,25
4308220,30
4308844,35
4309476,32
4310104,38
4310728,42
4311356,22
4311980,19
4312608,24
4313236,16
4313856,17
4314484,14
4315108,15
4315732,51
4316364,70
4316984,53
4317612,50
4318244,46
4318864,51
4319496,54
4320120,37
4320748,18
4321380,11
4322000,13
4322628,15
4323252,19
4323876,21
4324504,16
4325124,15
4325752,25
4326376,31
4327000,33
4327628,29
4328248,29
4328876,12
4329508,10
4330128,13
4330756,22
4331384,16
4332012,16
4332644,16
4333264,16
4333892,17
4334516,17
4335144,21
4335772,28
4336392,24
4337020,36
4337648,33
4338272,29
4338900,34
4339524,20
4340156,11
4340788,12
4341408,13
4342040,18
4342664,19
4343292,33
4343924,33
4344544,29
4345172,23
4345796,12
4346420,10
4347052,10
4347672,12
4348300,16
4348928,14
4349552,16
4350184,19
4350808,18
4351436,35
4352068,51
4352688,43
4353316,25
4353936,14
4354564,9
4355144,11
4355768,13
4356396,11
4357020,12
4357644,13
4358276,12
4358896,33
4359524,42
4360148,35
4360772,29
4361404,11
4362024,15
4362652,17
4363284,10
4363904,12
4364532,15
4365156,14
4365788,21
4366416,19
4367032,22
4367664,27
4368288,19
4368912,17
4369540,11
4370160,11
4370788,11
4371416,13
4372036,11
4372668,10
4373288,13
4373916,12
4374548,12
4375168,17
4375800,18
4376424,33
4377052,39
4377684,35
4378304,26
4378932,16
4379556,31
4380180,13
4380812,16
4381432,33
4382064,37
4382688,27
4383312,18
4383944,21
4384560,21
4385192,33
4385820,24
4386440,17
4387068,9
4387644,11
4388276,18
4388908,22
4389528,19
4390156,11
4390784,21
4391412,33
4392044,24
4392664,19
4393292,21
4393920,21
4394544,12
4395172,11
4395792,12
4396424,11
4397048,10
4397672,14
4398304,15
4398928,15
4399560,16
4400188,23
4400808,19
4401436,21
4402060,22
4402692,19
4403324,10
4403944,11
4404572,10
4405196,14
4405820,10
4406448,11
4407068,13
4407696,13
4408324,14
4408944,27
4409572,28
4410196,21
4410828,21
4411460,26
4412080,27
4412708,15
4413336,12
4413960,17
4414592,14
4415208,17
4415836,17
4416464,16
4417088,21
4417716,20
4418336,18
4418964,24
4419596,12
4420216,11
4420844,17
4421468,15
4422100,13
4422732,11
4423352,21
4423984,33
4424608,40
4425232,34
4425860,22
4426480,21
4427108,25
4427732,27
4428356,33
4428988,21
4429608,16
4430236,16
4430868,12
4431488,23
4432116,23
4432740,16
4433372,24
4434000,21
4434624,39
4435252,50
4435876,29
4436500,27
4437132,26
4437752,27
4438384,23
4439008,16
4439632,12
4440264,12
4440880,34
4441508,28
4442140,20
4442760,20
4443388,35
4444016,32
4444644,11
4445276,27
4445896,43
4446528,35
4447152,23
4447776,18
4448408,14
4449024,16
4449652,16
4450276,19
4450900,17
4451532,24
4452152,23
4452784,28
4453412,23
4454032,30
4454664,24
4455288,15
4455916,11
4456548,28
4457168,21
4457796,11
4458420,17
4459048,20
4459676,18
4460296,20
4460928,29
4461552,17
4462176,13
4462808,10
4463432,11
4464060,14
4464692,14
4465312,15
4465940,24
4466568,24
4467196,19
4467828,26
4468448,32
4469080,36
4469704,39
4470328,25
4470960,16
4471576,12
4472208,15
4472840,22
4473456,14
4474088,13
4474712,12
4475344,19
4475976,25
4476596,22
4477224,21
4477852,21
4478476,15
4479108,12
4479728,23
4480360,14
4480984,13
4481608,15
4482236,18
4482856,16
4483484,17
4484116,20
4484736,21
4485364,29
4485988,27
4486620,22
4487248,16
4487864,12
4488496,14
4489120,10
4489744,15
4490372,13
4490992,13
4491620,17
4492244,19
4492872,19
4493500,18
4494120,27
4494748,37
4495380,10
4496000,20
4496628,27
4497252,21
4497884,14
4498516,23
4499136,37
4499768,31
4500392,18
4501016,19
4501648,23
4502264,30
4502896,21
4503520,12
4504144,24
4504776,30
4505396,28
4506024,14
4506656,11
4507272,13
4507900,17
4508524,33
4509156,31
4509784,42
4510400,42
4511032,17
4511656,19
4512280,26
4512908,45
4513528,50
4514156,50
4514780,41
4515404,19
4516036,16
4516656,19
4517284,17
4517916,20
4518536,19
4519164,26
4519788,22
4520420,16
4521048,12
4521668,11
4522296,11
4522920,20
4523544,17
4524172,14
4524792,13
4525424,20
4526048,22
4526672,20
4527300,19
4527920,30
4528552,31
4529180,11
4529800,18
4530428,28
4531052,32
4531684,23
4532316,16
4532936,16
4533564,25
4534192,23
4534816,27
4535444,31
4536064,24
4536692,14
4537320,13
4537944,21
4538572,24
4539192,29
4539824,27
4540452,13
4541072,28
4541704,24
4542328,19
4542960,22
4543588,26
4544208,18
4544840,27
4545464,32
4546088,22
4546716,10
4547336,13
4547964,16
4548588,15
4549212,15
4549844,17
4550468,19
4551096,21
4551728,19
4552348,19
4552976,24
4553600,25
4554232,22
4554864,15
4555480,13
4556112,12
4556736,14
4557360,12
4557992,14
4558608,26
4559240,25
4559864,26
4560488,19
4561116,19
4561740,21
4562372,17
4563004,14
4563624,12
4564252,15
4564876,14
4565508,17
4566140,16
4566760,20
4567392,25
4568016,19
4568636,20
4569268,20
4569888,26
4570516,23
4571148,18
4571768,10
4572400,11
4573024,12
4573652,18
4574284,22
4574904,15
4575536,19
4576160,20
4576784,20
4577416,20
4578032,18
4578660,15
4579288,11
4579912,12
4580540,11
4581160,15
4581792,17
4582420,18
4583040,18
4583668,19
4584296,19
4584928,20
4585556,24
4586176,12
4586808,12
4587432,26
4588056,33
4588688,23
4589304,14
4589936,16
4590560,21
4591184,29
4591816,18
4592432,21
4593064,24
4593692,22
4594312,17
4594944,23
4595568,24
4596196,17
4596828,12
4597448,11
4598076,17
4598704,23
4599328,24
4599960,25
4600576,30
4601208,31
4601832,39
4602456,47
4603084,46
4603704,23
4604336,13
4604964,10
4605584,16
4606216,23
4606840,17
4607472,15
4608104,18
4608716,29
4609348,21
4609968,23
4610592,19
4611220,10
4611840,12
4612468,13
4613092,10
4613716,20
4614344,28
4614968,22
4615596,25
4616228,39
4616848,47
4617476,39
4618100,27
4618732,28
4619360,30
4619980,41
4620608,13
4621232,11
4621856,11
4622488,20
4623104,29
4623736,31
4624360,33
4624980,24
4625612,30
4626232,39
4626864,21
4627492,19
4628112,17
4628740,16
4629364,15
4629996,16
4630628,11
4631248,15
4631876,23
4632504,23
4633128,18
4633756,20
4634376,22
4635004,32
4635632,36
4636256,19
4636884,19
4637508,17
4638140,12
4638768,15
4639392,11
4640020,12
4640644,13
4641272,12
4641904,18
4642520,20
4643152,19
4643776,20
4644400,12
4645028,15
4645648,17
4646276,35
4646904,36
4647528,21
4648156,24
4648780,20
4649412,16
4650040,22
4650660,33
4651288,52
4651912,49
4652540,36
4653172,22
4653792,16
4654420,17
4655044,21
4655668,15
4656300,10
4656920,12
4657548,12
4658176,14
4658800,18
4659432,19
4660052,19
4660684,19
4661312,16
4661936,20
4662564,17
4663188,11
4663816,11
4664444,14
4665064,18
4665692,17
4666316,16
4666940,19
4667572,26
4668192,32
4668824,27
4669452,11
4670072,15
4670700,13
4671328,15
4671960,21
4672588,17
4673208,14
4673836,15
4674460,12
4675084,31
4675716,28
4676336,19
4676964,24
4677588,17
4678212,18
4678844,20
4679464,21
4680096,14
4680724,10
4681344,16
4681972,20
4682596,16
4683228,22
4683860,25
4684480,25
4685108,25
4685736,21
4686360,13
4686988,17
4687608,23
4688236,13
4688864,17
4689488,19
4690116,24
4690736,17
4691364,12
4691996,18
4692616,19
4693244,22
4693872,19
4694500,18
4695132,30
4695752,33
4696384,33
4697008,25
4697632,15
4698260,25
4698880,25
4699508,19
4700136,21
4700760,22
4701392,22
4702012,19
4702640,35
4703272,62
4703892,59
4704524,45
4705148,23
4705780,14
4706412,10
4707032,13
4707664,12
4708288,19
4708912,21
4709544,19
4710164,20
4710796,23
4711420,20
4712044,19
4712672,11
4713296,11
4713924,9
4714504,13
4715128,15
4715760,18
4716384,19
4717012,22
4717644,22
4718264,19
4718896,18
4719520,14
4720144,19
4720772,19
4721392,13
4722024,10
4722648,15
4723272,17
4723900,14
4724520,21
4725148,36
4725780,38
4726400,40
4727028,24
4727656,13
4728284,10
4728916,10
4729536,11
4730168,11
4730792,26
4731416,26
4732048,22
4732668,18
4733296,19
4733924,20
4734548,21
4735180,24
4735800,53
4736436,31
4737064,29
4737680,30
4738312,37
4738936,18
4739564,16
4740196,19
4740816,15
4741444,13
4742068,25
4742696,27
4743324,20
4743944,19
4744576,11
4745200,11
4745824,12
4746456,11
4747080,11
4747708,23
4748340,22
4748960,24
4749588,33
4750216,29
4750848,20
4751476,18
4752096,19
4752724,13
4753348,19
4753972,23
4754604,14
4755224,19
4755852,18
4756476,10
4757104,13
4757736,23
4758360,19
4758992,19
4759624,18
4760240,19
4760872,15
4761496,11
4762120,10
4762748,10
4763368,12
4763996,11
4764624,15
4765248,15
4765876,16
4766496,19
4767128,19
4767756,26
4768376,35
4769008,30
4769632,15
4770260,28
4770892,38
4771512,19
4772144,15
4772768,21
4773392,24
4774024,19
4774640,16
4775272,24
4775896,19
4776520,19
4777152,19
4777768,15
4778396,20
4779028,10
4779648,20
4780280,35
4780904,30
4781536,30
4782164,17
4782784,22
4783416,25
4784040,31
4784664,32
4785296,31
4785912,28
4786544,26
4787168,20
4787796,11
4788428,22
4789048,15
4789680,11
4790312,17
4790932,14
4791564,20
4792188,21
4792820,19
4793452,18
4794072,20
4794704,14
4795328,20
4795952,18
4796584,12
4797204,22
4797836,23
4798460,16
4799088,15
4799720,18
4800344,18
4800976,24
4801604,26
4802224,23
4802852,23
4803476,12
4804104,14
4804732,10
4805352,15
4805980,12
4806608,16
4807228,14
4807860,12
4808480,21
4809108,34
4809740,33
4810360,27
4810988,11
4811616,11
4812244,10
4812876,10
4813496,11
4814124,31
4814748,22
4815372,18
4816000,16
4816624,31
4817252,24
4817876,18
4818500,33
4819132,44
4819752,39
4820384,23
4821012,10
4821632,17
4822264,24
4822888,16
4823516,11
4824148,16
4824768,28
4825396,20
4826024,24
4826648,33
4827276,23
4827896,15
4828528,15
4829152,11
4829776,13
4830404,14
4831024,15
4831656,18
4832288,28
4832904,27
4833536,19
4834160,20
4834788,19
4835420,19
4836040,23
4836668,25
4837292,31
4837920,32
4838548,18
4839168,15
4839796,12
4840424,13
4841048,12
4841676,18
4842296,22
4842924,33
4843556,31
4844176,15
4844804,11
4845428,21
4846060,30
4846692,34
4847312,28
4847944,16
4848568,22
4849192,41
4849824,40
4850440,34
4851072,47
4851696,37
4852320,29
4852952,17
4853576,11
4854208,12
4854836,11
4855456,17
4856088,11
4856712,12
4857340,13
4857972,11
4858592,19
4859224,20
4859848,20
4860472,26
4861104,27
4861724,33
4862352,12
4862984,36
4863608,29
4864240,16
4864864,16
4865492,24
4866124,23
4866744,19
4867372,19
4867996,18
4868620,25
4869252,38
4869872,43
4870504,25
4871128,11
4871752,19
4872380,20
4873000,13
4873632,17
4874260,11
4874880,18
4875508,19
4876136,18
4876764,20
4877396,20
4878016,21
4878648,21
4879272,23
4879896,15
4880528,12
4881144,15
4881772,27
4882400,17
4883024,21
4883652,18
4884272,24
4884904,24
4885532,20
4886152,30
4886784,40
4887408,42
4888036,30
4888668,16
4889288,12
4889920,12
4890540,11
4891168,12
4891796,19
4892416,18
4893048,18
4893672,19
4894296,20
4894928,24
4895544,15
4896176,11
4896804,11
4897424,17
4898052,15
4898680,17
4899308,15
4899940,18
4900560,22
4901192,20
4901816,17
4902440,15
4903068,17
4903688,39
4904320,29
4904944,12
4905568,11
4906200,15
4906824,16
4907456,18
4908088,18
4908704,21
4909336,24
4909964,18
4910596,18
4911228,11
4911848,14
4912480,11
4913108,18
4913732,15
4914364,16
4914984,14
4915620,17
4916248,21
4916864,23
4917492,25
4918116,26
4918744,21
4919376,11
4919992,11
4920624,11
4921248,18
4921868,55
4922500,70
4923120,33
4923748,17
4924372,34
4924996,30
4925628,22
4926248,19
4926876,21
4927508,12
4928128,14
4928756,11
4929380,30
4930008,28
4930640,26
4931256,15
4931884,17
4932508,22
4933132,19
4933760,18
4934384,20
4935016,19
4935640,20
4936264,29
4936892,34
4937512,19
4938144,11
4938772,20
4939392,21
4940024,13
4940648,13
4941276,15
4941908,22
4942528,19
4943156,34
4943784,30
4944408,11
4945036,14
4945656,11
4946284,11
4946908,13
4947532,19
4948164,22
4948784,22
4949412,19
4950044,18
4950664,38
4951296,56
4951920,56
4952548,58
4953180,54
4953800,31
4954432,15
4955056,12
4955680,11
4956312,11
4956928,12
4957556,13
4958180,19
4958808,21
4959436,26
4960056,28
4960684,24
4961312,21
4961936,15
4962564,12
4963188,14
4963820,19
4964452,14
4965072,18
4965704,17
4966328,28
4966952,38
4967580,22
4968200,19
4968828,24
4969452,11
4970076,29
4970708,41
4971332,31
4971964,12
4972592,14
4973212,22
4973840,16
4974464,12
4975096,21
4975728,19
4976344,21
4976972,23
4977596,19
4978224,13
4978852,12
4979472,17
4980100,13
4980724,15
4981352,16
4981980,16
4982604,17
4983236,17
4983868,20
4984488,25
4985116,24
4985744,20
4986372,19
4987004,17
4987624,13
4988252,11
4988880,16
4989504,23
4990132,11
4990752,21
4991384,25
4992016,19
4992632,19
4993260,19
4993888,19
4994516,14
4995148,24
4995768,28
4996400,19
4997024,11
4997648,28
4998276,21
4998896,23
4999524,21
5000148,24
5000772,31
5001404,19
5002024,19
5002652,20
5003284,30
5003904,29
5004536,13
5005160,11
5005788,19
5006420,22
5007040,22
5007672,19
5008296,29
5008920,32
5009548,23
5010168,25
5010796,19
5011424,11
5012048,14
5012676,15
5013296,12
5013928,20
5014556,34
5015176,23
5015808,16
5016432,20
5017064,25
5017696,25
5018312,19
5018940,18
5019568,16
5020192,11
5020820,22
5021440,23
5022068,11
5022696,17
5023320,27
5023952,36
5024572,44
5025200,34
5025832,19
5026452,20
5027080,21
5027704,23
5028336,24
5028964,25
5029584,12
5030216,11
5030840,23
5031464,24
5032096,17
5032712,17
5033344,20
5033968,27
5034592,27
5035224,24
5035848,15
5036480,15
5037108,25
5037728,25
5038360,11
5038988,13
5039616,14
5040248,14
5040868,11
5041496,20
5042120,25
5042744,24
5043376,23
5043992,17
5044624,11
5045252,17
5045872,21
5046504,12
5047128,19
5047756,36
5048388,25
5049008,20
5049636,18
5050264,19
5050888,24
5051516,30
5052136,25
5052768,15
5053392,14
5054020,10
5054652,11
5055272,11
5055904,10
5056540,12
5057160,16
5057792,13
5058416,22
5059048,19
5059676,18
5060296,21
5060928,18
5061552,16
5062176,11
5062808,10
5063424,10
5064056,14
5064684,16
5065308,17
5065940,16
5066564,18
5067196,20
5067828,22
5068448,20
5069080,12
5069708,15
5070336,19
5070968,30
5071588,23
5072216,13
5072844,11
5073468,14
5074100,18
5074720,23
5075352,20
5075984,21
5076604,22
5077232,20
5077860,11
5078492,15
5079124,16
5079744,11
5080376,10
5081000,17
5081624,16
5082252,18
5082872,20
5083504,20
5084128,21
5084752,19
5085384,21
5086004,20
5086632,19
5087264,16
5087888,10
5088520,18
5089144,20
5089776,13
5090408,19
5091024,15
5091656,22
5092284,21
5092908,22
5093540,22
5094160,11
5094792,14
5095416,14
5096044,14
5096672,16
5097300,13
5097928,17
5098560,16
5099180,17
5099812,22
5100436,41
5101064,45
5101696,27
5102312,15
5102948,10
5103572,10
5104200,19
5104828,23
5105448,13
5106080,11
5106712,12
5107332,14
5107964,17
5108588,19
5109220,19
5109852,22
5110472,20
5111104,10
5111728,12
5112356,18
5112988,34
5113608,30
5114240,29
5114868,15
5115492,19
5116128,19
5116752,19
5117384,20
5118016,19
5118636,21
5119268,11
5119896,20
5120524,19
5121152,14
5121776,15
5122404,11
5123024,23
5123648,29
5124276,21
5124896,19
5125524,21
5126152,24
5126772,23
5127400,12
5128024,12
5128652,14
5129280,11
5129896,11
5130524,14
5131148,14
5131780,16
5132408,16
5133024,19
5133656,18
5134280,21
5134904,23
5135532,20
5136152,11
5136780,12
5137404,12
5138032,18
5138660,19
5139284,12
5139916,14
5140544,12
5141160,14
5141792,19
5142416,21
5143044,19
5143672,20
5144296,12
5144924,20
5145548,17
5146176,16
5146804,24
5147424,26
5148052,19
5148684,22
5149304,24
5149932,20
5150556,21
5151188,20
5151820,18
5152440,11
5153068,13
5153692,10
5154316,14
5154948,18
5155568,13
5156196,13
5156820,12
5157444,12
5158076,17
5158696,19
5159324,18
5159956,18
5160576,17
5161204,15
5161828,16
5162460,21
5163088,19
5163704,12
5164336,16
5164960,17
5165584,17
5166212,19
5166832,21
5167460,18
5168084,20
5168708,19
5169340,10
5169960,11
5170588,11
5171220,16
5171840,17
5172468,15
5173092,19
5173720,13
5174352,13
5174972,19
5175600,20
5176224,25
5176848,24
5177476,12
5178096,11
5178724,12
5179348,11
5179976,18
5180604,34
5181224,27
5181856,25
5182484,30
5183104,24
5183736,24
5184360,24
5184988,23
5185620,18
5186240,13
5186868,14
5187492,11
5188116,10
5188748,10
5189368,14
5189996,17
5190624,27
5191248,20
5191876,20
5192496,28
5193124,37
5193756,22
5194376,11
5195008,11
5195632,10
5196264,13
5196892,10
5197512,15
5198140,20
5198768,31
5199392,33
5200020,22
5200640,36
5201268,50
5201892,46
5202516,42
5203148,42
5203768,33
5204396,18
5205028,10
5205648,11
5206276,12
5206904,14
5207532,15
5208164,18
5208784,22
5209416,24
5210040,23
5210664,14
5211292,18
5211912,12
5212544,12
5213168,15
5213792,13
5214424,16
5215048,16
5215676,16
5216308,18
5216928,20
5217556,19
5218184,20
5218812,25
5219444,22
5220064,18
5220692,17
5221320,21
5221944,13
5222576,13
5223192,12
5223820,13
5224444,15
5225072,19
5225700,20
5226324,19
5226956,23
5227584,14
5228208,11
5228836,11
5229460,10
5230088,11
5230716,14
5231336,15
5231968,17
5232592,17
5233216,19
5233848,20
5234464,21
5235096,21
5235724,18
5236344,16
5236976,14
5237600,13
5238228,16
5238860,13
5239480,11
5240112,12
5240736,13
5241360,22
5241992,25
5242608,29
5243240,32
5243864,24
5244484,13
5245116,10
5245736,17
5246364,30
5246996,26
5247616,27
5248244,21
5248868,18
5249496,19
5250124,18
5250744,19
5251372,21
5251996,19
5252616,13
5253248,14
5253864,11
5254492,13
5255116,15
5255740,12
5256368,12
5256984,13
5257612,13
5258236,18
5258864,20
5259492,18
5260116,19
5260748,11
5261376,14
5261996,13
5262624,10
5263248,11
5263876,29
5264508,34
5265128,26
5265756,17
5266380,18
5267004,18
5267632,19
5268256,21
5268884,17
5269512,11
5270136,9
5270712,11
5271344,17
5271972,18
5272604,16
5273224,14
5273856,13
5274476,17
5275108,21
5275736,23
5276356,19
5276984,19
5277608,11
5278228,11
5278860,27
5279480,36
5280108,22
5280732,24
5281356,19
5281984,19
5282600,20
5283232,20
5283860,24
5284476,25
5285108,23
5285732,17
5286360,28
5286988,19
5287608,10
5288236,14
5288860,20
5289480,12
5290112,12
5290728,19
5291356,29
5291980,20
5292604,19
5293236,20
5293856,26
5294484,29
5295116,21
5295736,12
5296364,13
5296988,14
5297620,15
5298248,15
5298864,18
5299496,20
5300120,29
5300744,33
5301372,30
5301992,32
5302620,23
5303244,15
5303868,10
5304500,11
5305120,14
5305748,11
5306380,12
5307000,13
5307628,16
5308252,31
5308884,38
5309512,32
5310132,20
5310760,12
5311384,12
5312012,23
5312640,19
5313256,18
5313884,29
5314512,26
5315136,23
5315764,16
5316384,21
5317012,26
5317644,33
5318264,41
5318896,33
5319520,17
5320148,10
5320780,10
5321400,13
5322032,12
5322656,19
5323280,12
5323908,14
5324528,19
5325160,21
5325780,19
5326404,25
5327032,28
5327648,12
5328280,13
5328908,10
5329528,11
5330156,17
5330780,15
5331408,15
5332036,16
5332656,16
5333284,19
5333908,21
5334536,24
5335164,22
5335784,13
5336412,13
5337036,15
5337660,17
5338288,11
5338904,15
5339536,19
5340164,16
5340784,12
5341412,19
5342036,21
5342668,20
5343296,20
5343920,15
5344552,10
5345176,11
5345800,11
5346428,10
5347048,15
5347676,17
5348300,20
5348924,21
5349556,20
5350176,19
5350808,19
5351436,20
5352056,22
5352684,21
5353308,22
5353940,11
5354568,14
5355188,13
5355816,12
5356440,12
5357068,12
5357696,14
5358316,18
5358944,19
5359568,22
5360192,25
5360820,13
5361440,10
5362068,13
5362700,12
5363320,11
5363948,18
5364572,17
5365204,16
5365832,23
5366452,20
5367080,19
5367704,19
5368328,25
5368956,15
5369576,10
5370208,10
5370832,25
5371456,46
5372084,41
5372704,34
5373336,28
5373964,18
5374584,18
5375216,29
5375840,30
5376472,32
5377100,23
5377720,24
5378348,19
5378972,13
5379596,27
5380224,27
5380840,26
5381472,20
5382096,23
5382716,18
5383348,18
5383968,22
5384596,35
5385228,32
5385848,17
5386476,15
5387100,10
5387732,16
5388360,12
5388980,13
5389608,12
5390232,15
5390856,20
5391484,20
5392104,20
5392732,21
5393356,23
5393980,11
5394612,11
5395232,15
5395860,13
5396492,12
5397112,16
5397740,17
5398368,19
5398996,22
5399628,20
5400248,19
5400876,19
5401504,20
5402128,15
5402756,10
5403376,13
5404004,11
5404628,15
5405252,14
5405884,11
5406504,15
5407136,15
5407764,18
5408384,25
5409012,23
5409636,19
5410264,20
5410892,13
5411512,17
5412140,12
5412764,11
5413388,11
5414020,16
5414640,15
5415268,21
5415892,19
5416516,19
5417148,20
5417768,20
5418396,35
5419028,42
5419648,37
5420276,21
5420904,11
5421532,11
5422164,12
5422784,16
5423412,16
5424040,17
5424660,20
5425292,20
5425912,19
5426544,19
5427168,14
5427792,13
5428420,18
5429040,19
5429668,10
5430300,16
5430920,23
5431548,17
5432176,16
5432804,21
5433432,28
5434056,21
5434684,20
5435308,25
5435936,33
5436564,42
5437184,24
5437816,16
5438440,18
5439064,12
5439692,11
5440312,12
5440940,12
5441568,24
5442192,27
5442820,24
5443444,18
5444072,12
5444704,11
5445320,32
5445948,32
5446572,25
5447196,23
5447828,18
5448448,19
5449076,19
5449700,21
5450324,23
5450952,22
5451568,19
5452200,12
5452828,12
5453444,12
5454076,11
5454700,13
5455328,17
5455960,14
5456580,12
5457208,21
5457832,19
5458456,24
5459084,19
5459704,21
5460332,19
5460956,12
5461580,16
5462212,11
5462832,25
5463460,21
5464092,32
5464712,21
5465340,16
5465968,21
5466596,23
5467228,22
5467848,26
5468476,23
5469104,13
5469728,10
5470356,10
5470976,11
5471604,11
5472232,11
5472856,19
5473484,14
5474104,16
5474732,19
5475364,18
5475984,20
5476616,19
5477240,13
5477868,21
5478500,11
5479120,23
5479748,16
5480372,14
5480996,23
5481628,24
5482248,23
5482876,21
5483500,20
5484128,27
5484756,30
5485384,15
5486012,15
5486644,20
5487264,43
5487896,53
5488520,32
5489148,11
5489780,18
5490400,17
5491028,18
5491652,21
5492276,28
5492908,38
5493528,23
5494156,14
5494784,30
5495408,24
5496036,17
5496660,13
5497292,14
5497924,18
5498544,19
5499176,24
5499800,25
5500424,30
5501056,27
5501672,20
5502304,16
5502928,26
5503552,23
5504184,11
5504800,13
5505428,16
5506060,14
5506680,13
5507308,16
5507932,19
5508564,19
5509196,18
5509816,21
5510444,22
5511068,20
5511692,29
5512324,23
5512944,14
5513576,18
5514200,20
5514824,15
5515456,20
5516072,20
5516704,20
5517336,25
5517956,35
5518584,37
5519212,30
5519840,25
5520472,14
5521096,11
5521728,11
5522352,13
5522976,15
5523608,16
5524224,17
5524856,19
5525480,20
5526104,23
5526736,20
5527352,17
5527984,22
5528616,24
5529236,20
5529868,19
5530488,15
5531120,20
5531748,24
5532368,19
5532996,21
5533620,39
5534244,41
5534876,32
5535496,31
5536128,33
5536748,20
5537372,11
5538004,13
5538628,11
5539256,25
5539888,21
5540504,18
5541136,30
5541760,21
5542388,21
5543020,20
5543640,30
5544272,21
5544896,16
5545520,22
5546148,25
5546768,17
5547400,15
5548024,16
5548648,23
5549280,18
5549904,20
5550536,22
5551164,20
5551784,20
5552416,11
5553040,12
5553668,17
5554300,10
5554920,13
5555552,12
5556176,21
5556800,16
5557428,12
5558048,23
5558680,24
5559308,20
5559928,20
5560560,17
5561184,13
5561816,11
5562444,10
5563064,11
5563696,14
5564320,17
5564944,20
5565576,19
5566196,19
5566824,27
5567452,36
5568076,25
5568708,18
5569328,33
5569960,41
5570588,24
5571208,11
5571836,11
5572460,12
5573092,12
5573724,14
5574344,19
5574976,21
5575600,21
5576224,26
5576852,28
5577472,21
5578104,14
5578728,11
5579352,12
5579984,10
5580604,14
5581232,16
5581864,17
5582480,19
5583112,27
5583736,48
5584368,51
5584996,34
5585616,17
5586244,12
5586868,10
5587496,12
5588124,16
5588744,15
5589376,13
5590000,17
5590624,16
5591256,27
5591880,34
5592508,23
5593140,20
5593760,15
5594388,12
5595016,13
5595644,17
5596276,14
5596896,19
5597524,21
5598152,18
5598776,18
5599408,21
5600028,19
5600656,23
5601284,21
5601904,18
5602532,12
5603156,11
5603788,16
5604420,10
5605040,13
5605668,13
5606296,23
5606920,24
5607548,16
5608168,26
5608796,30
5609420,32
5610048,35
5610676,24
5611296,12
5611928,16
5612556,32
5613176,19
5613804,19
5614432,27
5615060,30
5615692,18
5616312,20
5616944,21
5617568,25
5618192,29
5618820,27
5619440,26
5620068,17
5620692,10
5621320,11
5621948,12
5622568,13
5623196,19
5623828,20
5624448,23
5625076,19
5625704,21
5626332,21
5626964,16
5627584,25
5628216,20
5628840,12
5629464,17
5630096,39
5630712,38
5631344,24
5631972,18
5632600,19
5633228,20
5633848,27
5634476,26
5635104,20
5635728,16
5636356,14
5636980,24
5637612,28
5638240,19
5638860,11
5639488,11
5640112,13
5640736,12
5641364,21
5641984,21
5642612,25
5643236,25
5643860,15
5644492,13
5645112,14
5645740,10
5646372,15
5646992,25
5647624,20
5648248,25
5648876,19
5649504,18
5650128,19
5650756,20
5651384,22
5652008,18
5652636,20
5653256,26
5653884,26
5654508,12
5655132,13
5655764,20
5656388,13
5657016,13
5657644,25
5658264,28
5658892,30
5659516,23
5660144,21
5660776,12
5661396,15
5662024,15
5662652,14
5663276,10
5663904,18
5664528,19
5665156,26
5665780,39
5666404,36
5667036,35
5667660,29
5668292,28
5668920,26
5669544,25
5670176,17
5670800,9
5671376,11
5672012,11
5672632,13
5673264,17
5673888,17
5674512,26
5675140,23
5675760,20
5676388,20
5677016,14
5677640,11
5678268,10
5678888,12
5679516,16
5680148,15
5680768,16
5681396,17
5682024,19
5682652,18
5683284,19
5683904,22
5684532,20
5685156,19
5685780,10
5686412,10
5687032,10
5687664,12
5688288,24
5688912,30
5689544,27
5690160,15
5690792,14
5691420,19
5692040,23
5692672,21
5693296,21
5693928,19
5694556,18
5695176,12
5695808,10
5696432,17
5697056,36
5697684,22
5698304,19
5698936,18
5699560,21
5700184,24
5700812,27
5701432,24
5702064,21
5702692,18
5703312,13
5703944,9
5704516,13
5705148,16
5705780,20
5706400,15
5707028,13
5707656,19
5708284,21
5708916,20
5709536,21
5710168,23
5710792,24
5711416,21
5712048,11
5712664,13
5713292,15
5713920,21
5714544,19
5715176,20
5715800,22
5716432,21
5717060,22
5717680,24
5718312,22
5718936,14
5719564,23
5720196,17
5720816,11
5721448,11
5722072,11
5722696,15
5723328,15
5723944,15
5724580,18
5725208,24
5725832,41
5726464,48
5727088,27
5727720,11
5728352,18
5728968,14
5729600,12
5730224,20
5730848,23
5731480,16
5732100,16
5732728,18
5733356,26
5733980,41
5734616,41
5735236,41
5735868,37
5736496,28
5737120,17
5737748,11
5738372,11
5739004,15
5739632,12
5740252,12
5740880,17
5741504,20
5742128,22
5742756,24
5743376,20
5744004,11
5744628,10
5745256,12
5745884,11
5746508,10
5747140,15
5747772,14
5748392,17
5749024,18
5749648,20
5750276,22
5750908,29
5751528,32
5752160,28
5752784,18
5753408,16
5754040,12
5754656,11
5755288,13
5755916,14
5756536,18
5757168,13
5757792,20
5758424,20
5759052,20
5759672,20
5760304,12
5760928,10
5761548,10
5762180,10
5762800,11
5763428,13
5764052,22
5764676,22
5765304,19
5765920,24
5766552,25
5767180,22
5767800,25
5768428,27
5769052,25
5769684,18
5770312,11
5770928,11
5771560,15
5772184,13
5772808,16
5773436,19
5774056,17
5774684,19
5775312,21
5775936,24
5776564,28
5777184,29
5777812,25
5778444,11
5779064,17
5779692,15
5780316,21
5780948,21
5781580,25
5782200,23
5782828,22
5783452,19
5784076,22
5784708,24
5785328,13
5785960,12
5786580,17
5787204,16
5787836,15
5788456,20
5789084,12
5789716,12
5790336,15
5790968,20
5791592,19
5792220,20
5792852,20
5793472,16
5794100,10
5794724,14
5795348,14
5795980,10
5796600,12
5797228,15
5797852,15
5798476,17
5799108,16
5799728,20
5800356,19
5800988,20
5801608,19
5802236,12
5802860,16
5803492,12
5804124,18
5804744,27
5805376,15
5806000,12
5806624,13
5807252,12
5807872,21
5808504,27
5809128,32
5809752,21
5810384,12
5811000,10
5811632,14
5812264,17
5812884,13
5813512,17
5814136,16
5814768,16
5815396,21
5816016,28
5816644,36
5817268,43
5817892,37
5818524,19
5819144,15
5819776,10
5820400,16
5821024,14
5821652,16
5822280,16
5822908,14
5823540,12
5824160,19
5824788,20
5825412,19
5826044,22
5826672,22
5827296,25
5827924,23
5828548,17
5829172,11
5829804,10
5830424,18
5831052,17
5831680,20
5832304,23
5832936,21
5833560,24
5834192,25
5834824,25
5835440,17
5836072,14
5836696,10
5837320,10
5837952,12
5838568,11
5839200,17
5839824,21
5840448,17
5841076,22
5841696,25
5842324,24
5842956,19
5843576,16
5844204,17
5844828,16
5845460,11
5846088,12
5846712,15
5847344,17
5847968,20
5848592,21
5849220,19
5849840,21
5850468,24
5851092,22
5851720,17
5852348,10
5852968,11
5853596,10
5854228,15
5854848,11
5855480,14
5856104,13
5856732,14
5857364,18
5857984,19
5858612,21
5859236,24
5859860,21
5860492,10
5861112,12
5861744,11
5862368,14
5862992,12
5863624,19
5864240,24
5864872,34
5865504,35
5866120,23
5866752,21
5867376,20
5868008,20
5868636,12
5869256,12
5869888,11
5870512,16
5871136,19
5871768,12
5872388,13
5873016,18
5873644,23
5874268,23
5874900,19
5875524,21
5876156,23
5876788,17
5877408,16
5878040,17
5878664,11
5879296,12
5879924,11
5880544,16
5881176,16
5881800,16
5882424,18
5883056,18
5883672,23
5884304,29
5884936,29
5885556,15
5886188,10
5886812,11
5887444,17
5888076,22
5888696,25
5889324,13
5889948,21
5890572,27
5891200,19
5891824,19
5892456,21
5893080,23
5893704,29
5894336,26
5894952,18
5895584,12
5896216,10
5896832,14
5897464,15
5898088,16
5898720,17
5899348,18
5899968,19
5900596,19
5901224,20
5901844,12
5902476,12
5903096,17
5903728,19
5904352,14
5904976,13
5905604,14
5906224,20
5906852,29
5907484,30
5908104,31
5908736,31
5909360,24
5909988,18
5910620,18
5911240,30
5911872,29
5912496,16
5913120,11
5913752,15
5914368,15
5915000,16
5915624,17
5916248,19
5916876,20
5917496,22
5918128,20
5918756,10
5919376,15
5920008,23
5920628,32
5921260,32
5921888,29
5922512,27
5923140,17
5923768,17
5924392,22
5925020,19
5925640,22
5926268,27
5926896,19
5927520,21
5928148,22
5928772,24
5929404,23
5930036,20
5930656,21
5931288,25
5931912,33
5932544,31
5933172,29
5933792,24
5934424,20
5935048,15
5935672,17
5936304,28
5936924,24
5937552,19
5938184,14
5938804,11
5939436,12
5940060,23
5940688,41
5941316,38
5941936,28
5942564,19
5943188,21
5943816,16
5944444,14
5945064,18
5945692,20
5946316,13
5946940,14
5947572,16
5948192,18
5948820,16
5949452,19
5950072,23
5950704,27
5951328,29
5951960,19
5952592,14
5953208,12
5953836,14
5954464,17
5955088,15
5955716,12
5956336,14
5956964,13
5957592,23
5958216,25
5958848,20
5959464,20
5960096,14
5960724,14
5961344,16
5961972,17
5962600,13
5963228,13
5963860,14
5964480,16
5965108,18
5965736,19
5966360,19
5966988,18
5967608,23
5968236,29
5968864,37
5969488,33
5970116,17
5970736,11
5971368,10
5971996,12
5972616,12
5973248,12
5973872,15
5974504,22
5975132,19
5975752,20
5976384,20
5977008,13
5977632,12
5978260,10
5978880,10
5979508,14
5980136,18
5980760,15
5981392,17
5982012,22
5982644,24
5983272,24
5983896,21
5984528,21
5985152,14
5985784,14
5986412,12
5987032,17
5987664,15
5988288,10
5988912,17
5989544,15
5990164,14
5990792,19
5991420,21
5992044,19
5992672,32
5993296,32
5993928,15
5994556,10
5995176,11
5995808,20
5996432,23
5997064,29
5997692,20
5998312,16
5998944,17
5999568,19
6000192,20
6000820,24
6001440,32
6002068,22
6002700,14
6003320,11
6003948,11
6004576,14
6005204,12
6005836,11
6006456,15
6007084,16
6007712,19
6008336,21
6008964,19
6009584,22
6010216,19
6010840,20
6011464,11
6012096,10
6012712,12
6013344,25
6013976,19
6014596,18
6015228,18
6015852,20
6016484,21
6017116,18
6017736,19
6018364,13
6018992,13
6019616,15
6020248,11
6020864,12
6021496,15
6022120,16
6022744,15
6023372,12
6023992,17
6024624,20
6025252,18
6025872,21
6026504,24
6027128,19
6027760,18
6028388,17
6029008,12
6029636,12
6030264,15
6030888,17
6031520,16
6032136,16
6032768,28
6033392,39
6034016,40
6034648,29
6035272,18
6035900,19
6036532,22
6037152,19
6037784,13
6038408,15
6039040,16
6039668,13
6040288,17
6040920,29
6041544,20
6042172,19
6042800,20
6043424,15
6044056,13
6044684,10
6045304,15
6045936,15
6046560,21
6047192,24
6047820,18
6048440,16
6049072,19
6049696,20
6050320,19
6050952,18
6051568,18
6052200,12
6052824,23
6053448,30
6054080,31
6054700,24
6055332,11
6055964,13
6056584,13
6057216,13
6057840,21
6058472,21
6059100,23
6059720,21
6060352,15
6060980,15
6061604,11
6062236,13
6062856,11
6063488,20
6064112,18
6064736,21
6065364,20
6065992,18
6066620,19
6067252,21
6067872,20
6068500,13
6069128,21
6069756,18
6070388,16
6071008,18
6071640,17
6072264,15
6072892,15
6073520,14
6074144,21
6074776,40
6075408,35
6076028,27
6076660,21
6077284,13
6077916,12
6078548,10
6079168,13
6079800,11
6080428,18
6081052,24
6081684,20
6082304,21
6082936,27
6083560,30
6084184,25
6084812,20
6085432,17
6086064,21
6086692,15
6087312,11
6087944,15
6088568,22
6089196,22
6089828,22
6090448,21
6091076,26
6091704,21
6092328,19
6092960,18
6093576,13
6094208,13
6094832,11
6095456,11
6096088,11
6096708,15
6097340,17
6097972,18
6098592,21
6099224,33
6099848,43
6100476,29
6101108,19
6101728,11
6102360,18
6102984,23
6103612,13
6104244,14
6104864,19
6105496,23
6106128,18
6106744,19
6107376,22
6108000,28
6108632,24
6109264,21
6109880,17
6110512,13
6111136,13
6111764,15
6112396,18
6113016,13
6113648,16
6114272,16
6114896,16
6115528,23
6116144,26
6116776,28
6117408,28
6118032,29
6118664,29
6119292,34
6119924,27
6120552,23
6121176,16
6121808,16
6122432,18
6123056,14
6123688,13
6124304,24
6124936,24
6125564,22
6126188,19
6126820,12
6127444,10
6128076,10
6128708,11
6129328,14
6129960,18
6130584,16
6131208,16
6131840,16
6132456,18
6133088,20
6133716,19
6134344,21
6134976,14
6135596,34
6136228,27
6136860,24
6137480,21
6138116,10
6138740,20
6139372,15
6140004,19
6140624,27
6141256,31
6141884,38
6142512,34
6143144,20
6143764,25
6144396,33
6145020,26
6145648,24
6146276,18
6146900,17
6147528,15
6148156,16
6148776,17
6149404,18
6150028,39
6150660,37
6151288,22
6151912,11
6152544,10
6153168,11
6153792,15
6154420,10
6155040,12
6155668,21
6156300,17
6156920,17
6157548,19
6158172,18
6158804,20
6159436,20
6160056,13
6160684,15
6161308,14
6161932,11
6162560,11
6163184,15
6163816,16
6164440,16
6165064,17
6165692,18
6166312,19
6166944,22
6167572,22
6168192,17
6168820,12
6169444,11
6170076,11
6170708,18
6171328,19
6171956,15
6172584,12
6173208,13
6173836,16
6174456,22
6175088,19
6175712,19
6176336,19
6176964,11
6177584,10
6178212,10
6178844,14
6179464,21
6180096,34
6180720,23
6181348,21
6181980,16
6182600,18
6183228,20
6183856,24
6184480,22
6185108,11
6185728,11
6186356,19
6186980,21
6187604,11
6188236,34
6188856,35
6189484,35
6190116,28
6190736,21
6191368,21
6191992,25
6192624,32
6193256,17
6193872,10
6194504,16
6195128,24
6195752,31
6196384,12
6197004,14
6197632,27
6198260,41
6198884,24
6199516,19
6200140,29
6200772,25
6201400,20
6202024,16
6202656,11
6203280,12
6203908,10
6204540,12
6205160,11
6205792,17
6206416,17
6207040,18
6207672,21
6208288,28
6208920,39
6209548,31
6210168,17
6210800,12
6211424,10
6212052,12
6212684,18
6213304,28
6213936,24
6214560,19
6215184,15
6215816,20
6216436,18
6217064,19
6217688,19
6218312,19
6218944,20
6219560,13
6220192,18
6220824,16
6221444,16
6222072,11
6222700,12
6223332,21
6223964,24
6224584,23
6225216,19
6225844,21
6226468,25
6227100,21
6227720,13
6228348,9
6228924,11
6229552,11
6230184,15
6230800,16
6231432,17
6232056,17
6232680,22
6233312,19
6233936,21
6234568,19
6235196,17
6235816,21
6236448,23
6237072,19
6237704,20
6238336,12
6238952,13
6239584,12
6240212,12
6240836,19
6241464,18
6242088,24
6242716,23
6243348,18
6243968,26
6244600,22
6245224,15
6245852,11
6246484,12
6247104,17
6247732,18
6248356,17
6248980,18
6249608,20
6250232,25
6250860,22
6251488,20
6252112,11
6252740,11
6253360,11
6253992,13
6254624,13
6255240,12
6255872,12
6256496,14
6257124,17
6257756,19
6258376,19
6259008,20
6259632,26
6260256,31
6260888,26
6261504,14
6262136,13
6262760,12
