tempo_arduino_micro_s,valor_ADC
500,16
1004,18
1504,16
2000,22
2508,28
3000,34
3508,32
4000,26
4508,25
5000,26
5500,21
6000,18
6500,18
7004,19
7500,17
8000,12
8500,10
9000,11
9500,13
10000,18
10516,21
11036,22
11564,23
12084,19
12612,17
13132,15
13660,14
14180,14
14708,14
15228,15
15756,15
16276,10
16796,11
17316,10
17836,10
18356,10
18876,10
19396,10
19916,14
20436,24
20956,32
21476,32
21996,16
22516,16
23036,20
23564,30
24084,28
24612,11
25132,11
25660,10
26180,11
26708,11
27228,11
27756,13
28276,13
28804,21
29324,25
29852,23
30372,16
30900,14
31420,13
31948,13
32472,22
32996,28
33516,22
34044,13
34564,11
35092,17
35612,28
36140,29
36660,37
37188,40
37708,38
38236,36
38760,28
39284,18
39804,15
40332,14
40852,13
41372,10
41892,11
42412,16
42932,21
43452,22
43972,23
44492,23
45012,21
45532,21
46052,17
46572,15
47092,13
47612,14
48140,13
48660,14
49188,14
49708,10
50236,11
50756,11
51284,10
51804,13
52332,22
52852,30
53380,28
53900,31
54428,36
54948,34
55476,29
55996,25
56524,18
57044,18
57572,21
58096,16
58620,10
59140,10
59668,16
60188,20
60716,20
61240,16
61764,13
62284,12
62812,15
63332,20
63860,17
64384,16
64908,14
65428,14
65948,12
66468,10
66988,11
67508,13
68028,12
68548,12
69068,13
69588,14
70108,17
70628,28
71148,33
71672,30
72192,23
72716,24
73236,20
73764,14
74284,11
74812,13
75332,15
75860,18
76384,18
76908,11
77428,14
77956,28
78476,30
79004,30
79528,27
80052,24
80572,19
81100,20
81620,17
82148,15
82668,11
83196,11
83720,19
84244,26
84764,29
85292,22
85812,29
86340,43
86860,51
87388,50
87908,49
88436,37
88956,27
89484,20
90004,20
90524,21
91044,16
91564,11
92084,10
92604,16
93124,23
93644,23
94164,23
94684,27
95204,23
95724,22
96248,17
96764,16
97292,13
97812,14
98340,14
98860,14
99388,12
99908,11
100436,11
101000,18
101584,28
102156,36
102736,27
103304,17
103880,27
104456,38
105024,49
105600,39
106168,29
106744,16
107312,14
107896,12
108464,16
109040,18
109624,23
110192,21
110768,16
111336,13
111920,11
112492,11
113072,20
113640,22
114216,19
114792,18
115364,18
115944,12
116512,12
117096,20
117664,29
118244,27
118824,25
119392,21
119976,22
120548,32
121128,42
121696,49
122280,45
122848,34
123428,18
124008,15
124576,11
125160,12
125728,19
126312,20
126884,19
127456,19
128040,17
128608,17
129184,18
129752,22
130328,20
130896,19
131480,15
132048,15
132624,11
133200,14
133768,15
134344,16
134912,14
135496,13
136064,17
136648,21
137224,29
137792,33
138376,30
138944,25
139528,21
140096,18
140680,16
141252,11
141824,10
142408,14
142976,22
143560,27
144128,27
144712,25
145280,31
145864,30
146440,18
147008,12
147592,14
148160,16
148744,19
149312,20
149896,16
150464,11
151040,23
151624,17
152196,10
152776,11
153348,18
153928,37
154504,42
155088,33
155664,27
156236,18
156816,14
157384,15
157968,14
158540,32
159120,36
159692,24
160268,11
160848,23
161416,34
161992,32
162560,32
163144,31
163716,21
164296,13
164872,22
165440,36
166016,51
166584,49
167160,39
167728,32
168312,22
168880,14
169456,9
169972,21
170544,35
171120,35
171688,29
172272,21
172840,14
173424,14
173992,14
174572,11
175152,10
175720,16
176304,31
176872,44
177456,34
178024,24
178608,14
179176,11
179756,15
180336,17
180904,15
181488,15
182056,18
182640,17
183208,11
183784,12
184368,19
184936,20
185512,14
186084,11
186664,27
187232,42
187816,47
188384,51
188960,49
189544,47
190112,34
190696,20
191268,10
191848,11
192420,14
192992,17
193568,24
194136,30
194720,28
195288,27
195872,31
196440,24
197024,16
197596,15
198172,22
198752,22
199324,24
199904,21
200476,19
201056,13
201624,11
202200,12
202784,14
203356,19
203936,26
204508,24
205088,25
205656,29
206232,25
206800,18
207376,16
207952,10
208524,13
209104,18
209672,24
210256,25
210824,26
211408,25
211984,22
212552,23
213136,22
213704,13
214288,14
214856,17
215440,14
216008,19
216584,17
217160,15
217728,17
218312,18
218880,21
219464,25
220036,30
220616,30
221192,27
221764,26
222344,24
222916,19
223496,17
224068,14
224648,10
225216,11
225796,10
226376,13
226948,24
227528,27
228096,27
228680,12
229248,14
229832,21
230408,20
230976,21
231552,19
232124,17
232704,11
233276,16
233856,13
234424,11
235000,15
235584,23
236152,34
236736,39
237308,35
237888,27
238460,22
239040,15
239612,14
240188,14
240768,14
241336,16
241920,9
242436,14
243016,14
243588,10
244168,17
244744,25
245316,18
245896,11
246464,13
247048,13
247616,15
248200,16
248768,14
249344,14
249928,22
250496,15
251080,11
251648,11
252232,13
252804,15
253384,18
253960,23
254532,33
255112,27
255684,25
256264,29
256832,31
257408,20
257976,13
258544,10
259128,10
259696,20
260280,32
260848,34
261432,28
262000,21
262584,17
263152,18
263728,18
264312,16
264884,15
265464,16
266032,27
266616,34
267184,25
267764,24
268344,26
268912,22
269496,23
270064,19
270648,24
271216,31
271800,25
272372,19
272944,19
273528,15
274100,11
274680,11
275248,11
275832,13
276404,19
276980,25
277560,24
278132,18
278712,18
279284,21
279864,16
280436,14
281016,15
281588,14
282164,15
282744,14
283312,19
283896,19
284468,15
285048,13
285616,19
286196,24
286776,24
287344,26
287928,30
288500,30
289080,24
289648,20
290232,18
290804,13
291376,11
291960,18
292528,23
293112,25
293684,25
294264,26
294836,24
295408,15
295992,12
296564,19
297144,17
297716,15
298296,13
298864,16
299448,16
300020,18
300596,18
301176,18
301748,21
302328,27
302908,33
303488,34
304060,35
304636,33
305216,23
305788,20
306368,17
306940,15
307520,11
308096,11
308680,16
309256,24
309828,24
310408,21
310976,19
311560,15
312132,11
312712,12
313284,15
313860,15
314440,15
315012,14
315592,14
316164,12
316744,12
317316,12
317896,12
318480,12
319052,17
319632,21
320204,29
320784,32
321352,31
321936,25
322504,19
323084,16
323664,16
324236,11
324816,11
325384,15
325968,15
326540,15
327120,13
327696,11
328264,12
328840,15
329408,19
329984,18
330552,16
331136,16
331704,14
332280,15
332864,14
333432,11
334008,11
334576,11
335160,10
335732,11
336312,19
336880,34
337456,35
338040,32
338608,22
339192,14
339764,14
340344,19
340912,11
341488,11
342072,14
342644,17
343224,24
343792,20
344376,13
344944,10
345528,9
346048,12
346616,15
347200,14
347768,17
348352,19
348920,19
349504,16
350072,24
350656,29
351228,22
351804,17
352384,18
352952,16
353536,23
354104,38
354688,36
355260,23
355832,15
356416,16
356988,15
357568,14
358140,12
358720,11
359296,19
359880,21
360456,21
361024,17
361608,12
362176,11
362760,14
363332,20
363912,17
364484,15
365056,15
365640,14
366208,26
366792,34
367364,22
367944,13
368516,10
369096,11
369672,16
370240,22
370824,32
371396,35
371976,33
372548,17
373128,16
373696,20
374276,18
374856,16
375428,14
376008,17
376576,19
377160,13
377732,10
378312,9
378832,10
379404,10
379984,17
380556,17
381136,15
381708,13
382288,17
382860,23
383440,15
384024,15
384596,15
385176,13
385748,11
386328,18
386900,22
387480,29
388052,35
388628,34
389208,32
389776,24
390360,14
390932,14
391512,20
392084,18
392656,17
393240,15
393812,15
394392,15
394964,15
395544,16
396116,19
396696,24
397276,25
397852,17
398432,13
399004,13
399584,21
400164,30
400744,31
401312,27
401892,27
402472,30
403044,31
403624,23
404196,20
404776,19
405348,15
405928,13
406500,15
407076,17
407656,12
408228,10
408808,9
409328,10
409904,10
410480,9
411004,9
411524,11
412104,14
412680,22
413248,27
413832,22
414400,16
414984,17
415552,15
416136,16
416704,23
417272,27
417856,27
418424,23
419008,18
419580,19
420160,35
420728,44
421304,40
421872,31
422452,19
423032,14
423604,16
424184,12
424752,14
425336,13
425904,19
426480,32
427064,30
427636,19
428216,14
428788,11
429368,11
429948,14
430528,13
431096,17
431676,17
432256,15
432824,12
433408,10
433980,10
434560,13
435132,15
435708,10
436288,26
436856,56
437440,64
438012,46
438592,23
439160,14
439744,15
440316,14
440892,12
441472,11
442044,10
442624,15
443192,19
443776,17
444348,17
444924,16
445504,17
446076,18
446656,15
447228,15
447808,13
448380,15
448960,13
449528,11
450108,11
450688,15
451256,16
451840,16
452408,16
452992,14
453564,15
454140,21
454720,30
455288,40
455872,43
456444,37
457024,30
457596,16
458176,10
458760,10
459332,19
459912,25
460484,25
461064,24
461632,19
462216,20
462788,24
463364,22
463944,20
464516,23
465096,23
465668,12
466248,13
466816,11
467400,9
467920,11
468492,12
469072,27
469644,49
470224,55
470796,52
471376,44
471956,35
472532,26
473112,19
473684,14
474264,10
474832,10
475416,9
475936,11
476512,14
477092,18
477668,24
478248,26
478820,20
479400,15
479972,14
480556,14
481132,14
481712,14
482280,14
482856,12
483440,11
484008,13
484592,11
485164,17
485744,28
486316,38
486892,49
487472,51
488044,34
488624,17
489196,15
489776,13
490348,15
490928,12
491500,11
492076,10
492656,13
493228,13
493808,10
494376,10
494960,10
495532,18
496108,27
496688,28
497256,27
497840,18
498412,15
498992,23
499564,35
500144,27
500716,27
501292,26
501872,18
502444,15
503024,20
503596,29
504176,34
504756,28
505332,26
505912,20
506484,15
507064,14
507636,10
508216,17
508788,22
509368,22
509948,26
510524,29
511104,21
511680,12
512256,10
512832,13
513408,14
513976,14
514552,15
515136,17
515708,11
516288,13
516856,23
517440,23
518008,26
518592,31
519160,31
519740,27
520320,23
520888,20
521472,20
522044,15
522624,13
523192,15
523772,14
524352,10
524924,15
525504,20
526072,18
526656,15
527228,11
527808,13
528380,10
528952,14
529536,19
530108,20
530688,25
531260,23
531840,19
532412,11
532988,25
533568,37
534140,42
534720,40
535288,35
535872,24
536444,23
537024,33
537596,37
538172,28
538752,19
539324,15
539904,13
540476,14
541056,13
541628,23
542204,22
542784,19
543356,18
543936,16
544508,10
545088,11
545660,11
546240,12
546808,13
547388,19
547968,15
548540,20
549120,28
549692,16
550272,9
550792,11
551368,9
551888,11
552460,11
553040,18
553612,26
554192,32
554764,30
555344,36
555924,35
556500,23
557080,14
557652,10
558232,10
558804,11
559384,18
559956,23
560536,16
561116,13
561692,10
562272,14
562844,24
563424,27
564000,22
564584,18
565152,18
565732,11
566312,11
566884,17
567464,16
568036,15
568616,18
569188,24
569768,27
570336,28
570916,23
571496,16
572068,13
572648,14
573228,19
573808,27
574388,30
574964,18
575544,10
576116,13
576696,13
577264,17
577848,12
578420,10
579000,10
579572,12
580148,14
580728,17
581300,18
581880,14
582452,12
583032,13
583604,11
584180,16
584760,14
585332,11
585912,11
586484,12
587064,20
587636,30
588216,32
588788,32
589364,22
589944,15
590516,17
591096,14
591668,10
592248,13
592828,19
593404,15
593984,13
594556,12
595136,13
595708,17
596288,17
596860,15
597440,16
598012,22
598588,24
599168,15
599740,10
600320,14
600900,15
601480,26
602060,35
602636,35
603216,40
603788,30
604368,19
604948,19
605528,21
606100,15
606676,19
607256,19
607832,13
608412,10
608980,15
609560,25
610132,25
610712,15
611292,10
611868,10
612448,16
613020,21
613600,15
614180,14
614764,15
615336,18
615916,15
616496,11
617064,11
617648,11
618216,14
618800,20
619372,23
619952,27
620524,31
621100,34
621680,34
622252,21
622832,14
623404,17
623984,12
624564,13
625140,19
625720,19
626292,15
626872,15
627444,12
628024,10
628596,10
629176,14
629756,19
630336,19
630912,14
631488,14
632064,15
632644,15
633224,21
633796,22
634372,23
634952,27
635528,21
636104,20
636676,27
637256,30
637836,29
638416,24
639000,17
639576,14
640156,14
640724,10
641304,16
641872,24
642456,30
643024,22
643604,17
644184,24
644752,27
645336,19
645904,12
646488,14
647056,18
647636,21
648216,14
648784,15
649368,10
649940,16
650520,20
651092,26
651672,29
652252,25
652828,26
653408,29
653980,35
654560,34
655140,35
655720,24
656296,15
656872,14
657456,13
658024,11
658608,14
659176,18
659760,19
660328,25
660912,28
661480,17
662056,11
662640,12
663208,14
663792,13
664364,14
664944,14
665516,13
666092,10
666672,11
667240,14
667824,14
668396,13
668976,18
669544,30
670128,37
670700,35
671276,30
671856,19
672428,15
673008,14
673576,15
674160,15
674728,17
675304,25
675888,31
676456,32
677040,30
677612,28
678192,21
678764,16
679344,13
679916,13
680492,14
681072,18
681640,26
682224,27
682796,26
683376,29
683948,30
684524,20
685104,14
685676,14
686256,22
686824,32
687408,38
687980,39
688560,30
689140,18
689716,14
690296,14
690868,11
691448,11
692024,11
692608,15
693180,19
693756,24
694336,18
694908,18
695488,18
696060,21
696640,19
697208,17
697792,15
698360,15
698940,18
699520,22
700092,22
700672,16
701244,15
701824,20
702396,26
702972,31
703552,32
704124,34
704704,32
705276,27
705856,24
706436,22
707016,17
707592,10
708164,16
708744,29
709316,34
709896,26
710476,23
711056,21
711628,14
712204,13
712784,19
713356,24
713936,16
714516,14
715096,15
715676,11
716252,20
716832,24
717404,19
717984,15
718556,14
719136,13
719708,21
720288,26
720856,23
721432,18
722016,14
722584,14
723168,13
723740,17
724320,18
724892,12
725464,10
726048,12
726620,17
727200,16
727768,13
728352,10
728924,15
729504,24
730076,25
730652,19
731232,16
731804,14
732384,13
732964,13
733544,13
734116,21
734692,27
735272,33
735848,37
736424,51
736996,54
737576,45
738156,39
738736,28
739308,17
739884,17
740464,22
741036,24
741616,26
742196,28
742776,16
743352,12
743932,14
744512,13
745084,13
745664,11
746236,13
746816,13
747396,15
747976,14
748560,14
749132,10
749712,10
750284,17
750864,25
751436,24
752016,16
752596,12
753172,17
753752,29
754324,30
754904,34
755484,32
756064,25
756636,17
757212,11
757792,11
758364,11
758944,16
759516,21
760096,22
760676,23
761256,20
761836,17
762412,14
762992,18
763564,18
764144,17
764724,14
765304,15
765884,11
766460,12
767040,11
767616,9
768144,10
768712,15
769296,17
769864,22
770448,23
771020,15
771596,22
772176,37
772748,27
773328,28
773908,25
774488,10
775064,30
775644,52
776224,55
776796,41
777376,27
777948,16
778528,12
779100,12
779680,15
780260,15
780836,18
781416,18
781988,15
782568,11
783148,14
783728,17
784308,18
784884,19
785464,24
786036,35
786616,29
787188,21
787772,21
788348,17
788928,16
789512,15
790084,14
790664,12
791236,18
791816,14
792396,13
792976,11
793556,10
794132,11
794712,13
795288,14
795864,12
796436,14
797016,14
797596,15
798172,17
798752,17
799324,15
799904,12
800480,11
801056,10
801628,10
802208,11
802780,16
803356,29
803936,41
804508,39
805088,25
805660,18
806240,16
806812,14
807388,13
807968,12
808540,18
809120,16
809692,13
810272,9
810792,10
811368,11
811948,10
812524,12
813104,16
813676,15
814256,14
814828,13
815408,13
815980,11
816564,22
817140,28
817716,26
818296,22
818872,21
819452,19
820024,20
820600,24
821168,24
821736,22
822320,22
822888,18
823472,15
824040,10
824624,14
825192,21
825776,30
826344,35
826924,30
827504,23
828076,12
828656,13
829228,19
829808,21
830376,25
830956,21
831536,14
832108,16
832688,21
833256,23
833832,16
834404,10
834984,10
835552,11
836132,14
836712,22
837284,32
837864,28
838436,36
839016,31
839588,25
840164,22
840744,25
841312,16
841896,13
842468,31
843048,44
843616,26
844200,10
844768,9
845296,10
845872,11
846440,14
847024,15
847596,14
848176,15
848744,17
849328,17
849896,17
850476,16
851056,18
851628,21
852208,16
852776,21
853360,29
853932,41
854508,35
855088,33
855660,24
856240,15
856812,14
857392,10
857964,15
858544,25
859116,26
859692,22
860272,21
860844,17
861424,12
861996,10
862576,13
863156,13
863732,14
864312,17
864884,14
865464,11
866032,11
866616,9
867136,13
867712,20
868292,20
868868,18
869448,16
870020,26
870600,42
871172,46
871752,31
872324,27
872904,22
873480,15
874052,11
874632,10
875204,10
875784,18
876356,24
876936,20
877508,20
878084,21
878664,24
879236,24
879816,19
880388,14
880968,13
881536,14
882120,11
882696,14
883268,17
883848,18
884416,18
885000,21
885572,18
886152,19
886732,25
887308,32
887888,29
888460,24
889040,20
889612,15
890192,15
890764,11
891344,11
891928,10
892500,13
893080,19
893652,22
894232,20
894804,19
895384,19
895956,20
896532,15
897112,18
897684,14
898264,14
898836,14
899416,11
899988,14
900564,15
901144,23
901712,33
902296,41
902868,46
903448,42
904020,35
904600,25
905172,16
905748,15
906328,16
906900,14
907480,13
908052,11
908632,9
909152,15
909728,21
910300,18
910876,16
911456,15
912028,11
912608,12
913180,13
913760,13
914332,14
914908,14
915488,12
916060,15
916640,15
917212,11
917792,10
918364,11
918944,11
919524,18
920100,24
920680,23
921252,18
921832,21
922408,23
922992,19
923564,16
924140,15
924720,11
925292,16
925872,23
926444,19
927024,19
927596,24
928176,22
928752,16
929332,14
929912,14
930484,18
931064,21
931636,16
932216,11
932796,10
933372,12
933952,14
934524,16
935104,20
935676,30
936256,35
936836,41
937416,37
937992,28
938564,18
939144,16
939716,18
940296,15
940876,10
941456,11
942028,17
942604,16
943184,14
943756,10
944336,10
944916,10
945496,9
946016,14
946592,14
947164,16
947740,17
948320,15
948892,15
949472,18
950044,18
950624,17
951204,18
951780,21
952360,22
952932,28
953512,30
954088,24
954664,21
955236,18
955816,15
956396,16
956972,13
957552,10
958128,11
958704,14
959284,19
959864,25
960444,27
961016,27
961600,18
962168,14
962752,15
963324,13
963904,14
964476,19
965056,19
965628,13
966204,31
966784,40
967356,36
967936,23
968516,15
969096,16
969668,27
970244,34
970824,35
971396,29
971976,20
972552,15
973132,15
973708,11
974288,9
974808,10
975380,13
975960,16
976532,17
977112,19
977684,20
978264,23
978836,31
979412,24
979992,18
980564,14
981144,15
981716,14
982300,16
982876,18
983456,19
984036,16
984608,11
985192,13
985764,22
986344,38
986916,42
987496,38
988068,23
988644,15
989224,15
989796,14
990376,14
990948,18
991528,16
992108,12
992688,10
993260,11
993836,11
994416,12
994988,11
995568,13
996148,23
996728,25
997300,23
997876,15
998456,18
999028,32
999608,39
1000180,34
1000804,30
1001428,23
1002052,17
1002680,14
1003296,22
1003924,33
1004556,34
1005176,22
1005804,19
1006428,19
1007056,14
1007684,10
1008304,12
1008932,15
1009556,18
1010180,21
1010812,20
1011432,17
1012060,20
1012684,26
1013308,28
1013936,20
1014560,17
1015188,15
1015816,10
1016440,13
1017068,25
1017692,27
1018320,28
1018952,30
1019568,31
1020200,21
1020824,20
1021448,18
1022076,18
1022696,18
1023328,14
1023952,14
1024576,23
1025204,26
1025820,19
1026448,12
1027068,10
1027692,11
1028320,13
1028944,32
1029572,36
1030200,28
1030816,15
1031444,36
1032068,48
1032696,45
1033324,34
1033944,25
1034572,23
1035192,32
1035816,35
1036444,32
1037064,24
1037692,22
1038312,20
1038936,22
1039564,18
1040184,14
1040812,14
1041436,22
1042056,30
1042684,35
1043304,22
1043932,11
1044564,10
1045180,13
1045808,15
1046432,14
1047052,14
1047680,14
1048300,18
1048932,18
1049552,15
1050176,11
1050808,10
1051424,13
1052052,15
1052680,19
1053296,16
1053928,13
1054548,16
1055180,22
1055808,31
1056424,30
1057052,21
1057676,12
1058304,10
1058932,12
1059552,21
1060180,19
1060804,12
1061424,13
1062052,20
1062672,23
1063300,17
1063924,14
1064548,16
1065176,15
1065796,18
1066424,11
1067056,10
1067672,12
1068300,13
1068924,14
1069552,21
1070180,31
1070800,32
1071428,28
1072052,25
1072672,24
1073300,22
1073920,17
1074548,11
1075172,11
1075796,21
1076424,27
1077040,30
1077668,23
1078296,16
1078920,25
1079548,24
1080172,22
1080800,20
1081428,14
1082048,11
1082676,17
1083300,21
1083924,22
1084552,16
1085168,11
1085796,11
1086420,17
1087044,33
1087672,48
1088288,48
1088916,38
1089544,21
1090168,20
1090796,10
1091420,10
1092048,11
1092676,12
1093296,21
1093924,27
1094548,20
1095172,16
1095804,18
1096424,19
1097052,17
1097676,14
1098296,13
1098928,10
1099544,11
1100172,19
1100796,25
1101424,35
1102052,40
1102676,43
1103308,37
1103936,33
1104560,27
1105188,18
1105812,14
1106436,14
1107068,12
1107688,15
1108316,19
1108940,20
1109564,21
1110192,17
1110816,15
1111444,11
1112076,12
1112696,17
1113324,15
1113948,15
1114580,14
1115208,13
1115824,10
1116456,11
1117080,11
1117704,11
1118332,14
1118952,19
1119580,28
1120208,32
1120828,31
1121460,24
1122080,20
1122708,18
1123336,17
1123960,12
1124588,9
1125160,10
1125788,15
1126420,18
1127036,23
1127668,23
1128288,19
1128920,19
1129548,20
1130168,15
1130796,15
1131420,14
1132044,11
1132672,13
1133296,19
1133924,24
1134548,25
1135172,25
1135800,26
1136424,31
1137052,35
1137684,29
1138304,24
1138932,19
1139556,17
1140184,13
1140816,12
1141432,15
1142060,15
1142684,19
1143308,17
1143940,16
1144560,18
1145188,23
1145812,21
1146436,13
1147068,14
1147688,14
1148316,19
1148944,18
1149564,20
1150192,14
1150816,12
1151444,17
1152076,34
1152692,56
1153320,60
1153944,61
1154568,42
1155192,23
1155816,15
1156444,13
1157068,11
1157692,26
1158320,39
1158944,51
1159572,33
1160204,12
1160824,12
1161452,17
1162076,20
1162704,20
1163332,16
1163952,20
1164580,33
1165204,26
1165828,11
1166460,24
1167080,31
1167708,32
1168332,31
1168956,31
1169584,42
1170200,46
1170832,41
1171460,28
1172080,24
1172708,17
1173332,14
1173960,15
1174592,20
1175208,33
1175840,35
1176464,22
1177092,10
1177724,10
1178344,11
1178972,17
1179596,20
1180220,16
1180848,14
1181464,14
1182092,10
1182716,10
1183344,15
1183972,26
1184600,20
1185228,18
1185860,30
1186480,35
1187108,41
1187732,35
1188360,25
1188988,13
1189608,14
1190236,11
1190860,19
1191484,27
1192112,26
1192736,21
1193364,18
1193996,14
1194616,15
1195244,19
1195868,20
1196500,17
1197128,14
1197752,20
1198380,20
1199008,14
1199632,11
1200260,10
1200880,10
1201508,17
1202132,29
1202756,39
1203384,50
1204008,60
1204636,45
1205264,37
1205884,26
1206512,17
1207136,10
1207764,25
1208396,32
1209016,29
1209644,23
1210268,25
1210892,32
1211520,29
1212136,24
1212764,17
1213392,14
1214016,13
1214644,13
1215264,11
1215892,20
1216524,33
1217144,29
1217772,31
1218396,41
1219028,39
1219656,43
1220280,41
1220908,21
1221532,14
1222156,15
1222788,12
1223408,16
1224036,17
1224660,23
1225284,30
1225916,25
1226536,26
1227164,19
1227796,14
1228416,17
1229048,19
1229668,15
1230296,15
1230924,14
1231544,18
1232172,25
1232796,27
1233416,25
1234048,22
1234664,21
1235292,19
1235916,31
1236540,47
1237168,47
1237784,29
1238416,17
1239036,14
1239664,16
1240292,10
1240916,19
1241548,26
1242176,29
1242792,27
1243424,25
1244048,26
1244676,30
1245308,30
1245928,22
1246556,14
1247180,14
1247804,17
1248436,20
1249056,18
1249684,16
1250312,13
1250932,16
1251560,17
1252184,21
1252812,30
1253444,50
1254064,62
1254692,50
1255316,29
1255940,15
1256572,14
1257192,13
1257820,20
1258444,30
1259068,22
1259700,14
1260320,15
1260948,16
1261580,18
1262200,21
1262828,23
1263452,21
1264084,15
1264712,14
1265328,10
1265960,18
1266584,19
1267208,18
1267836,16
1268456,12
1269084,26
1269712,47
1270336,61
1270964,48
1271584,38
1272216,24
1272844,14
1273464,12
1274092,12
1274716,16
1275348,25
1275980,38
1276600,40
1277228,31
1277856,23
1278480,26
1279108,31
1279728,22
1280360,15
1280980,18
1281600,20
1282228,17
1282848,14
1283476,14
1284104,17
1284720,31
1285348,29
1285972,29
1286600,34
1287228,38
1287848,31
1288476,25
1289096,19
1289728,15
1290356,10
1290976,10
1291604,16
1292224,16
1292848,19
1293476,24
1294096,21
1294724,16
1295344,14
1295968,15
1296596,13
1297220,14
1297848,19
1298476,20
1299096,18
1299724,13
1300348,11
1300980,13
1301608,18
1302224,23
1302852,24
1303476,26
1304100,25
1304732,20
1305352,24
1305980,27
1306604,20
1307228,10
1307856,16
1308480,19
1309108,20
1309740,20
1310360,19
1310992,17
1311612,20
1312240,27
1312868,31
1313484,27
1314112,23
1314736,15
1315356,11
1315988,10
1316608,15
1317236,27
1317856,32
1318480,35
1319108,35
1319728,32
1320356,34
1320984,32
1321600,32
1322228,27
1322848,16
1323480,12
1324108,14
1324728,17
1325356,17
1325980,11
1326604,10
1327232,10
1327848,10
1328476,11
1329100,17
1329724,18
1330352,15
1330968,16
1331600,16
1332220,10
1332844,13
1333472,17
1334096,20
1334724,21
1335352,19
1335968,22
1336600,21
1337220,28
1337852,36
1338480,33
1339096,31
1339724,20
1340348,10
1340968,12
1341600,14
1342216,15
1342844,26
1343468,28
1344088,28
1344716,33
1345336,29
1345964,19
1346592,14
1347208,14
1347836,17
1348460,11
1349088,20
1349716,32
1350336,35
1350964,27
1351588,26
1352212,32
1352840,39
1353456,41
1354084,35
1354708,19
1355332,14
1355960,14
1356576,14
1357208,13
1357836,18
1358456,24
1359084,18
1359708,17
1360336,24
1360964,30
1361580,38
1362212,34
1362832,22
1363460,13
1364088,14
1364708,15
1365340,23
1365960,31
1366584,33
1367212,30
1367832,32
1368460,30
1369084,40
1369704,53
1370336,58
1370956,39
1371588,25
1372216,20
1372832,16
1373460,12
1374084,29
1374712,38
1375344,35
1375960,26
1376592,21
1377216,17
1377836,19
1378468,24
1379088,26
1379716,19
1380340,14
1380964,14
1381592,15
1382216,20
1382844,21
1383476,22
1384096,12
1384724,19
1385348,27
1385976,41
1386604,50
1387224,40
1387852,19
1388476,15
1389100,13
1389728,15
1390344,12
1390976,17
1391600,18
1392224,15
1392852,11
1393476,14
1394104,11
1394732,12
1395352,16
1395980,23
1396604,22
1397232,18
1397860,15
1398480,17
1399108,14
1399732,11
1400356,11
1400984,11
1401600,19
1402228,22
1402852,24
1403476,35
1404104,44
1404728,40
1405356,37
1405988,30
1406608,15
1407236,11
1407860,17
1408492,19
1409120,17
1409736,18
1410364,21
1410988,26
1411612,22
1412240,25
1412864,23
1413492,19
1414116,18
1414736,16
1415368,12
1415984,17
1416612,16
1417244,18
1417864,14
1418492,15
1419116,41
1419744,57
1420376,58
1420992,49
1421624,29
1422244,16
1422868,14
1423500,17
1424120,23
1424748,34
1425372,33
1425996,22
1426624,15
1427240,12
1427872,14
1428500,12
1429120,15
1429748,13
1430372,14
1431004,15
1431636,14
1432256,20
1432884,20
1433508,19
1434136,16
1434764,18
1435384,23
1436012,31
1436636,48
1437260,49
1437888,25
1438504,14
1439136,14
1439764,14
1440384,11
1441012,18
1441636,22
1442264,26
1442892,18
1443512,15
1444140,11
1444764,11
1445384,12
1446016,29
1446632,33
1447260,16
1447884,17
1448508,33
1449136,27
1449752,17
1450380,11
1451004,11
1451632,17
1452260,35
1452884,51
1453512,56
1454140,46
1454760,25
1455388,14
1456012,14
1456640,14
1457268,12
1457888,19
1458516,26
1459140,22
1459764,20
1460392,18
1461016,20
1461644,21
1462268,26
1462896,25
1463524,15
1464148,14
1464780,16
1465408,16
1466024,16
1466656,18
1467280,16
1467908,20
1468540,29
1469160,45
1469788,56
1470412,54
1471036,33
1471668,22
1472288,19
1472916,15
1473548,14
1474168,23
1474796,29
1475420,34
1476048,31
1476676,31
1477296,29
1477924,28
1478548,20
1479172,21
1479804,16
1480424,15
1481052,16
1481676,12
1482296,19
1482928,27
1483544,20
1484172,13
1484796,10
1485424,23
1486052,34
1486676,35
1487304,33
1487936,36
1488552,34
1489184,27
1489804,19
1490436,10
1491064,30
1491684,33
1492312,23
1492936,25
1493560,28
1494188,18
1494808,16
1495436,10
1496060,12
1496688,15
1497316,18
1497940,14
1498568,15
1499196,22
1499816,29
1500444,29
1501068,29
1501700,34
1502328,46
1502952,51
1503584,57
1504208,46
1504832,26
1505460,15
1506080,13
1506708,11
1507340,17
1507960,32
1508588,39
1509216,34
1509844,31
1510476,28
1511096,25
1511724,23
1512348,23
1512972,15
1513604,14
1514224,14
1514856,14
1515480,17
1516104,18
1516732,17
1517352,21
1517980,22
1518612,28
1519232,39
1519864,50
1520488,47
1521116,34
1521744,27
1522368,25
1522996,18
1523624,11
1524244,21
1524876,30
1525496,38
1526124,44
1526748,38
1527372,30
1528004,29
1528624,24
1529252,23
1529884,18
1530504,14
1531132,17
1531760,19
1532388,22
1533020,31
1533640,37
1534268,20
1534896,11
1535520,11
1536152,22
1536768,32
1537396,30
1538020,24
1538640,18
1539268,24
1539888,33
1540516,25
1541144,10
1541760,18
1542388,18
1543012,15
1543644,18
1544272,23
1544896,27
1545524,15
1546148,19
1546772,19
1547400,14
1548024,15
1548652,11
1549276,17
1549900,18
1550532,16
1551152,18
1551784,25
1552412,40
1553032,57
1553660,57
1554284,30
1554916,17
1555544,14
1556164,14
1556792,11
1557416,17
1558040,21
1558668,20
1559288,24
1559916,21
1560540,19
1561164,27
1561796,27
1562416,25
1563044,19
1563672,15
1564292,13
1564920,16
1565544,17
1566172,16
1566804,16
1567424,16
1568052,20
1568676,33
1569300,47
1569928,59
1570544,52
1571172,35
1571800,21
1572424,17
1573052,14
1573672,11
1574300,21
1574932,31
1575552,33
1576184,33
1576808,31
1577436,30
1578068,26
1578688,25
1579316,21
1579940,16
1580568,15
1581196,14
1581816,14
1582444,13
1583068,13
1583692,10
1584324,10
1584944,13
1585572,35
1586204,48
1586824,53
1587456,48
1588080,45
1588708,42
1589336,38
1589960,25
1590588,10
1591212,21
1591836,33
1592468,28
1593088,23
1593716,20
1594344,25
1594968,32
1595596,26
1596216,14
1596848,15
1597476,18
1598096,17
1598724,11
1599348,11
1599980,10
1600612,14
1601232,21
1601860,44
1602480,72
1603104,84
1603732,80
1604352,55
1604980,33
1605604,17
1606224,13
1606852,10
1607472,19
1608100,32
1608728,35
1609352,34
1609980,30
1610604,25
1611232,29
1611860,22
1612480,23
1613108,17
1613732,17
1614356,14
1614984,13
1615604,14
1616232,18
1616856,19
1617476,20
1618108,24
1618728,38
1619356,51
1619984,66
1620604,63
1621232,39
1621856,23
1622484,15
1623112,14
1623736,20
1624364,29
1624988,41
1625612,49
1626240,36
1626856,19
1627488,15
1628112,17
1628736,23
1629364,24
1629984,18
1630612,15
1631244,14
1631864,16
1632496,17
1633116,20
1633748,18
1634376,14
1635000,22
1635628,51
1636256,64
1636880,64
1637508,54
1638128,34
1638760,16
1639380,17
1640000,30
1640628,44
1641244,45
1641872,39
1642500,32
1643116,36
1643748,33
1644368,25
1644996,13
1645624,13
1646240,13
1646868,15
1647488,17
1648116,15
1648744,29
1649360,30
1649988,20
1650608,18
1651232,29
1651860,54
1652476,77
1653108,77
1653732,75
1654352,63
1654980,38
1655600,28
1656228,21
1656856,15
1657472,31
1658100,42
1658724,55
1659352,57
1659980,37
1660600,25
1661228,21
1661852,14
1662472,27
1663100,26
1663720,14
1664348,13
1664972,17
1665592,21
1666220,30
1666840,32
1667468,28
1668088,28
1668708,39
1669340,45
1669960,52
1670588,49
1671216,35
1671832,23
1672460,14
1673084,14
1673712,19
1674340,32
1674960,38
1675588,35
1676212,28
1676832,24
1677460,24
1678080,24
1678708,22
1679332,16
1679952,14
1680584,14
1681200,14
1681828,15
1682456,18
1683072,17
1683700,13
1684324,14
1684952,18
1685580,34
1686200,43
1686828,47
1687452,39
1688072,32
1688700,29
1689320,20
1689948,14
1690568,26
1691192,37
1691820,23
1692440,20
1693068,33
1693692,44
1694312,48
1694940,39
1695564,25
1696192,14
1696820,14
1697436,15
1698068,24
1698688,41
1699316,37
1699944,20
1700564,18
1701196,22
1701816,31
1702440,40
1703068,58
1703688,68
1704316,46
1704936,31
1705560,21
1706192,19
1706808,12
1707436,18
1708068,35
1708688,41
1709316,35
1709940,37
1710568,35
1711200,30
1711816,23
1712444,21
1713068,15
1713692,15
1714320,14
1714944,13
1715572,18
1716196,21
1716820,27
1717448,29
1718064,31
1718696,46
1719324,54
1719944,57
1720576,49
1721196,29
1721828,16
1722456,13
1723072,19
1723700,16
1724324,18
1724948,24
1725576,23
1726192,29
1726824,37
1727448,40
1728068,41
1728696,44
1729320,28
1729948,19
1730576,13
1731192,16
1731820,26
1732444,40
1733072,36
1733704,35
1734320,31
1734952,39
1735576,57
1736200,64
1736828,58
1737448,43
1738076,24
1738700,14
1739324,13
1739952,11
1740576,18
1741204,23
1741832,35
1742456,33
1743084,33
1743708,33
1744336,31
1744964,32
1745584,29
1746212,16
1746836,14
1747460,14
1748092,14
1748712,11
1749340,10
1749964,10
1750588,10
1751216,18
1751832,34
1752464,49
1753092,56
1753712,54
1754340,41
1754964,29
1755596,26
1756224,19
1756840,11
1757472,21
1758092,27
1758724,18
1759352,12
1759976,13
1760608,25
1761228,38
1761852,42
1762484,34
1763104,19
1763732,16
1764360,20
1764984,28
1765612,29
1766236,28
1766864,25
1767492,16
1768112,33
1768740,62
1769364,61
1769988,48
1770620,34
1771240,23
1771868,14
1772492,14
1773116,15
1773744,31
1774364,46
1774992,56
1775620,50
1776240,34
1776868,14
1777492,11
1778120,10
1778752,13
1779368,12
1780000,15
1780620,13
1781252,14
1781884,10
1782504,13
1783132,13
1783756,19
1784380,21
1785008,34
1785632,67
1786260,79
1786892,74
1787512,59
1788140,37
1788764,18
1789396,16
1790028,18
1790648,25
1791276,25
1791904,31
1792528,43
1793156,52
1793776,47
1794404,41
1795028,31
1795652,25
1796280,15
1796896,14
1797524,15
1798156,16
1798776,25
1799404,40
1800028,48
1800656,40
1801288,33
1801904,36
1802532,37
1803156,45
1803780,42
1804412,24
1805032,16
1805660,14
1806284,13
1806904,15
1807532,26
1808152,29
1808780,33
1809404,43
1810024,46
1810652,32
1811276,19
1811904,11
1812532,15
1813152,18
1813780,14
1814404,17
1815032,14
1815660,11
1816280,24
1816908,16
1817532,17
1818156,34
1818788,50
1819408,67
1820036,65
1820660,53
1821284,41
1821912,26
1822536,15
1823168,15
1823796,21
1824416,28
1825044,34
1825668,33
1826296,33
1826924,30
1827544,37
1828172,34
1828796,28
1829420,21
1830052,22
1830672,17
1831300,16
1831924,28
1832548,26
1833180,27
1833804,41
1834432,42
1835060,41
1835680,47
1836308,55
1836932,54
1837564,37
1838192,34
1838816,21
1839444,13
1840068,17
1840692,31
1841324,46
1841944,47
1842572,50
1843196,38
1843824,27
1844452,14
1845076,12
1845704,14
1846336,13
1846952,15
1847580,14
1848204,18
1848832,35
1849464,31
1850080,19
1850708,11
1851332,13
1851956,29
1852584,40
1853208,41
1853836,36
1854460,32
1855088,30
1855716,22
1856340,15
1856968,14
1857600,31
1858216,38
1858844,34
1859468,25
1860096,13
1860724,10
1861344,15
1861972,19
1862596,32
1863220,26
1863848,21
1864472,19
1865100,21
1865724,10
1866352,29
1866980,40
1867604,43
1868232,44
1868864,57
1869480,65
1870108,62
1870732,56
1871360,38
1871992,18
1872608,17
1873240,20
1873864,28
1874488,36
1875116,32
1875736,21
1876364,17
1876988,18
1877616,27
1878244,30
1878868,28
1879500,22
1880132,20
1880752,15
1881380,13
1882008,15
1882628,20
1883260,24
1883880,32
1884508,35
1885132,42
1885756,58
1886388,62
1887008,57
1887636,36
1888268,21
1888888,14
1889516,14
1890140,11
1890768,17
1891396,24
1892016,27
1892644,29
1893268,30
1893896,43
1894524,52
1895144,40
1895772,23
1896396,15
1897020,14
1897648,15
1898264,13
1898892,10
1899516,18
1900144,32
1900776,45
1901400,49
1902028,51
1902660,40
1903280,37
1903912,35
1904536,24
1905160,21
1905788,27
1906408,19
1907036,10
1907664,18
1908288,27
1908916,27
1909536,31
1910168,29
1910796,24
1911416,31
1912048,33
1912672,25
1913300,17
1913932,16
1914552,17
1915184,11
1915808,18
1916432,28
1917064,26
1917680,31
1918312,43
1918936,55
1919564,65
1920196,56
1920816,35
1921444,29
1922072,21
1922688,20
1923316,11
1923940,15
1924568,29
1925200,35
1925816,39
1926444,36
1927068,36
1927688,38
1928320,36
1928936,27
1929564,15
1930188,15
1930812,14
1931440,14
1932064,11
1932692,12
1933324,34
1933944,45
1934572,49
1935196,61
1935828,69
1936460,68
1937080,65
1937708,43
1938332,23
1938956,13
1939588,14
1940208,21
1940836,33
1941460,40
1942084,39
1942716,42
1943336,50
1943968,36
1944596,24
1945216,20
1945848,17
1946468,15
1947096,17
1947728,14
1948344,15
1948972,18
1949596,13
1950220,15
1950852,28
1951472,36
1952104,55
1952724,67
1953348,58
1953980,39
1954600,19
1955228,16
1955860,17
1956480,11
1957108,12
1957732,24
1958364,23
1958996,16
1959616,19
1960244,21
1960868,25
1961492,27
1962124,24
1962744,15
1963372,14
1964000,15
1964624,19
1965252,28
1965872,32
1966504,31
1967132,22
1967752,31
1968380,43
1969004,49
1969632,57
1970264,55
1970880,35
1971508,19
1972132,15
1972756,18
1973384,16
1974004,20
1974632,33
1975256,35
1975880,29
1976508,26
1977128,25
1977756,26
1978384,32
1979008,30
1979636,25
1980260,33
1980892,28
1981520,11
1982136,10
1982768,14
1983392,23
1984016,36
1984644,54
1985264,77
1985892,79
1986516,71
1987140,48
1987772,23
1988392,17
1989020,19
1989652,14
1990272,10
1990900,18
1991524,33
1992156,34
1992784,38
1993408,35
1994036,29
1994660,25
1995284,21
1995916,22
1996536,15
1997168,14
1997788,16
1998412,19
1999040,15
1999664,17
2000292,19
2000924,26
2001544,34
2002172,43
2002796,42
2003424,49
2004056,34
2004672,24
2005300,19
2005924,15
2006548,10
2007176,33
2007800,44
2008428,36
2009052,25
2009676,19
2010304,13
2010920,16
2011548,20
2012180,26
2012800,17
2013428,14
2014052,20
2014680,25
2015312,29
2015932,27
2016560,25
2017184,19
2017808,19
2018436,35
2019056,54
2019684,61
2020308,47
2020932,28
2021564,14
2022184,15
2022816,14
2023444,10
2024064,11
2024692,21
2025316,25
2025948,27
2026576,36
2027196,41
2027824,39
2028448,31
2029072,26
2029700,18
2030320,18
2030948,15
2031576,12
2032200,21
2032828,25
2033448,27
2034076,23
2034708,27
2035328,42
2035956,50
2036580,60
2037212,62
2037844,52
2038464,19
2039092,15
2039716,14
2040344,16
2040972,25
2041592,29
2042224,25
2042848,26
2043472,26
2044104,30
2044720,35
2045352,27
2045980,14
2046600,14
2047232,15
2047856,18
2048488,21
2049116,22
2049732,26
2050360,20
2050984,28
2051604,35
2052232,40
2052852,43
2053480,44
2054104,32
2054728,23
2055356,16
2055976,15
2056604,11
2057232,24
2057848,41
2058476,44
2059100,23
2059728,13
2060356,16
2060976,27
2061604,33
2062224,35
2062852,20
2063480,14
2064096,15
2064724,19
2065348,25
2065972,29
2066600,21
2067216,20
2067844,19
2068468,19
2069088,42
2069720,67
2070340,57
2070972,44
2071600,26
2072224,20
2072852,14
2073476,12
2074104,20
2074732,31
2075352,44
2075980,44
2076604,36
2077228,27
2077856,21
2078472,23
2079104,19
2079728,14
2080352,16
2080980,17
2081600,21
2082228,17
2082856,18
2083480,21
2084108,22
2084728,23
2085360,41
2085988,49
2086608,47
2087236,33
2087860,31
2088480,23
2089108,15
2089728,13
2090356,26
2090976,34
2091600,35
2092228,27
2092848,25
2093476,27
2094104,26
2094720,20
2095348,14
2095972,15
2096604,15
2097232,13
2097848,16
2098476,22
2099100,24
2099724,29
2100352,26
2100976,25
2101604,33
2102228,49
2102848,56
2103480,53
2104096,40
2104724,29
2105352,18
2105976,13
2106604,18
2107228,25
2107856,26
2108488,31
2109104,33
2109732,27
2110356,25
2110984,31
2111612,34
2112232,32
2112860,25
2113484,30
2114104,19
2114736,15
2115352,15
2115980,10
2116604,18
2117232,43
2117860,54
2118484,68
2119112,73
2119744,71
2120360,48
2120988,30
2121612,22
2122240,14
2122872,15
2123488,15
2124116,29
2124740,33
2125368,32
2125996,28
2126616,30
2127244,27
2127868,30
2128496,26
2129124,15
2129748,14
2130380,14
2131008,16
2131624,15
2132252,14
2132876,19
2133504,21
2134132,18
2134752,29
2135380,47
2136004,57
2136628,57
2137256,45
2137872,35
2138504,22
2139128,16
2139752,12
2140380,22
2141004,31
2141632,35
2142260,35
2142880,32
2143508,27
2144132,28
2144764,23
2145392,21
2146008,21
2146640,16
2147260,14
2147884,15
2148516,14
2149136,22
2149764,28
2150388,30
2151016,27
2151644,38
2152268,58
2152896,58
2153524,51
2154144,28
2154772,17
2155396,13
2156028,14
2156656,15
2157272,23
2157904,37
2158528,41
2159152,35
2159780,22
2160400,15
2161028,24
2161652,24
2162276,19
2162904,15
2163528,23
2164156,35
2164784,37
2165408,30
2166036,10
2166660,21
2167288,10
2167920,21
2168536,39
2169168,47
2169792,53
2170416,37
2171044,24
2171664,15
2172292,15
2172916,17
2173540,26
2174168,16
2174792,14
2175424,24
2176056,36
2176668,39
2177296,41
2177920,37
2178548,17
2179176,14
2179800,23
2180428,33
2181052,27
2181676,24
2182304,17
2182928,15
2183556,19
2184180,25
2184804,35
2185432,40
2186056,49
2186684,47
2187316,28
2187936,27
2188564,18
2189188,16
2189820,20
2190448,36
2191068,63
2191696,54
2192320,22
2192944,11
2193572,12
2194192,10
2194820,11
2195444,14
2196068,16
2196700,14
2197324,14
2197952,13
2198580,17
2199200,17
2199828,21
2200452,22
2201084,27
2201716,47
2202336,57
2202964,59
2203588,56
2204212,43
2204840,31
2205456,18
2206088,13
2206712,18
2207336,29
2207964,36
2208592,38
2209220,38
2209852,41
2210472,40
2211100,37
2211728,37
2212356,26
2212988,14
2213608,16
2214236,19
2214860,29
2215484,29
2216116,30
2216736,30
2217364,31
2217996,38
2218616,47
2219244,53
2219868,50
2220500,25
2221128,14
2221752,15
2222384,13
2223008,11
2223632,16
2224260,27
2224880,31
2225508,27
2226132,22
2226756,18
2227388,26
2228008,34
2228636,27
2229268,20
2229888,14
2230516,15
2231140,19
2231772,27
2232404,24
2233024,19
2233652,13
2234276,15
2234900,19
2235532,40
2236152,57
2236784,61
2237408,42
2238032,23
2238664,14
2239280,15
2239912,12
2240544,33
2241160,50
2241788,49
2242412,27
2243040,12
2243672,14
2244288,12
2244916,10
2245540,13
2246164,13
2246796,14
2247416,17
2248044,21
2248668,19
2249292,11
2249920,10
2250544,22
2251172,23
2251804,34
2252424,46
2253056,59
2253676,49
2254304,26
2254936,13
2255552,17
2256180,19
2256804,16
2257428,23
2258056,27
2258672,18
2259304,24
2259924,30
2260548,27
2261180,16
2261800,19
2262428,18
2263060,16
2263680,14
2264308,13
2264932,15
2265560,14
2266192,16
2266808,24
2267440,24
2268064,29
2268688,35
2269316,32
2269936,25
2270564,27
2271188,17
2271816,19
2272444,26
2273064,18
2273692,16
2274324,38
2274944,40
2275572,24
2276196,15
2276828,10
2277456,10
2278080,19
2278708,30
2279332,20
2279956,16
2280588,23
2281208,31
2281836,21
2282460,11
2283084,13
2283716,20
2284336,35
2284964,53
2285596,70
2286216,75
2286844,60
2287468,39
2288100,26
2288728,17
2289352,15
2289980,21
2290604,39
2291232,51
2291860,43
2292480,45
2293108,42
2293736,43
2294360,36
2294988,22
2295608,20
2296236,18
2296868,14
2297488,15
2298116,26
2298740,39
2299372,40
2300000,28
2300620,23
2301248,25
2301872,37
2302496,44
2303124,46
2303744,29
2304376,18
2304996,16
2305620,16
2306248,11
2306864,11
2307496,13
2308124,22
2308744,29
2309372,34
2309996,31
2310624,28
2311256,23
2311872,24
2312500,22
2313124,17
2313748,15
2314380,14
2315000,20
2315628,17
2316252,18
2316876,23
2317508,26
2318128,42
2318756,60
2319388,64
2320008,64
2320636,47
2321260,30
2321888,17
2322520,12
2323136,20
2323768,40
2324392,43
2325016,28
2325644,18
2326264,17
2326892,20
2327516,29
2328140,37
2328772,40
2329392,32
2330024,19
2330652,14
2331272,17
2331900,33
2332528,41
2333156,40
2333788,36
2334408,42
2335036,53
2335660,56
2336288,59
2336916,46
2337536,30
2338164,15
2338788,13
2339412,14
2340044,11
2340664,25
2341292,35
2341924,27
2342544,28
2343172,31
2343796,37
2344428,40
2345060,34
2345680,22
2346308,14
2346932,15
2347556,13
2348188,10
2348808,11
2349436,10
2350060,11
2350688,24
2351316,48
2351944,68
2352576,78
2353204,68
2353824,38
2354456,21
2355080,27
2355712,24
2356340,11
2356960,12
2357588,32
2358212,35
2358836,27
2359468,30
2360088,31
2360716,32
2361340,24
2361968,29
2362596,31
2363220,28
2363852,16
2364484,13
2365104,21
2365736,35
2366360,39
2366984,30
2367612,25
2368232,37
2368860,61
2369484,72
2370108,57
2370740,32
2371360,21
2371988,15
2372620,14
2373240,27
2373868,38
2374496,39
2375124,37
2375756,34
2376376,26
2377004,23
2377628,23
2378252,19
2378880,21
2379500,15
2380128,13
2380752,15
2381376,11
2382004,19
2382624,22
2383252,23
2383884,24
2384504,35
2385132,47
2385756,54
2386388,53
2387020,29
2387640,15
2388268,16
2388892,15
2389516,14
2390148,14
2390768,11
2391400,27
2392024,32
2392648,26
2393276,14
2393896,11
2394528,16
2395160,23
2395776,28
2396408,28
2397032,15
2397664,22
2398292,32
2398912,29
2399544,27
2400168,19
2400792,17
2401420,34
2402040,56
2402668,69
2403292,58
2403916,31
2404548,20
2405168,15
2405796,19
2406428,31
2407048,44
2407676,44
2408300,36
2408928,32
2409556,19
2410176,11
2410804,13
2411428,21
2412052,31
2412684,18
2413304,16
2413932,23
2414560,26
2415180,32
2415812,30
2416432,22
2417060,16
2417692,16
2418312,40
2418940,53
2419568,57
2420196,42
2420824,33
2421448,19
2422076,14
2422700,21
2423324,33
2423956,42
2424576,39
2425204,20
2425828,18
2426452,15
2427084,20
2427704,33
2428332,27
2428964,14
2429584,17
2430216,13
2430840,17
2431468,23
2432100,22
2432720,16
2433348,24
2433972,30
2434596,27
2435224,28
2435848,38
2436476,50
2437100,42
2437728,26
2438356,15
2438980,15
2439612,12
2440244,10
2440864,29
2441492,37
2442116,34
2442748,37
2443380,32
2444000,27
2444628,20
2445256,18
2445880,17
2446508,18
2447128,15
2447760,13
2448388,13
2449008,11
2449636,13
2450260,17
2450892,31
2451524,57
2452144,67
2452776,61
2453400,54
2454024,41
2454656,35
2455272,26
2455904,20
2456528,12
2457152,13
2457784,30
2458404,38
2459036,34
2459664,26
2460280,24
2460908,25
2461532,29
2462160,30
2462788,20
2463408,15
2464036,14
2464660,10
2465284,13
2465912,14
2466536,20
2467164,24
2467788,36
2468412,43
2469044,46
2469664,63
2470292,50
2470924,22
2471544,14
2472172,15
2472796,18
2473428,23
2474056,20
2474676,15
2475304,18
2475928,24
2476552,29
2477180,31
2477800,39
2478428,38
2479052,17
2479676,21
2480308,16
2480928,16
2481556,20
2482188,14
2482808,11
2483436,15
2484060,32
2484688,45
2485320,56
2485936,69
2486564,70
2487188,44
2487816,26
2488444,15
2489064,15
2489692,10
2490316,19
2490940,34
2491568,38
2492192,45
2492820,35
2493452,25
2494072,25
2494704,27
2495328,23
2495956,22
2496588,14
2497208,18
2497836,18
2498460,19
2499084,17
2499716,16
2500336,16
2500964,15
2501588,39
2502212,56
2502844,59
2503464,49
2504092,29
2504724,18
2505344,16
2505972,13
2506600,21
2507228,27
2507860,23
2508480,23
2509108,18
2509732,15
2510356,26
2510988,34
2511608,32
2512236,24
2512860,17
2513484,15
2514116,14
2514736,27
2515364,25
2515996,33
2516616,32
2517244,31
2517872,29
2518500,41
2519132,43
2519752,50
2520384,41
2521008,30
2521632,22
2522260,14
2522880,12
2523508,15
2524132,22
2524760,30
2525388,35
2526008,35
2526640,29
2527268,34
2527888,34
2528520,32
2529144,28
2529772,18
2530404,14
2531024,16
2531656,20
2532280,23
2532904,21
2533536,22
2534152,30
2534784,44
2535408,59
2536036,64
2536664,59
2537288,46
2537916,37
2538548,26
2539168,15
2539800,24
2540424,46
2541052,47
2541684,39
2542304,37
2542936,38
2543560,42
2544184,43
2544812,31
2545432,23
2546064,15
2546692,18
2547312,28
2547940,31
2548568,37
2549196,34
2549828,19
2550448,12
2551076,17
2551704,32
2552328,40
2552956,51
2553576,46
2554208,24
2554836,25
2555460,27
2556092,18
2556712,11
2557344,27
2557976,29
2558596,31
2559228,30
2559852,27
2560484,29
2561112,31
2561728,28
2562356,27
2562980,17
2563600,13
2564228,18
2564848,28
2565476,23
2566096,16
2566720,11
2567348,10
2567968,22
2568596,47
2569224,76
2569848,78
2570476,47
2571100,30
2571728,18
2572356,13
2572976,12
2573604,13
2574228,17
2574852,23
2575484,28
2576104,42
2576732,44
2577356,44
2577980,37
2578608,31
2579224,19
2579856,14
2580476,16
2581104,29
2581732,35
2582356,29
2582988,25
2583616,28
2584232,35
2584864,51
2585488,50
2586116,53
2586744,40
2587368,27
2587996,15
2588620,14
2589244,21
2589872,31
2590488,33
2591120,24
2591748,15
2592368,15
2592996,13
2593620,16
2594248,27
2594876,30
2595496,36
2596124,27
2596748,17
2597380,16
2598008,19
2598628,19
2599256,35
2599880,33
2600504,22
2601132,24
2601752,46
2602380,60
2603004,63
2603632,44
2604260,29
2604884,21
2605512,17
2606144,13
2606760,15
2607388,29
2608012,34
2608644,30
2609272,27
2609888,25
2610516,39
2611144,50
2611768,50
2612396,38
2613016,24
2613644,16
2614268,14
2614896,21
2615524,15
2616148,23
2616780,45
2617408,70
2618032,66
2618660,52
2619284,51
2619912,39
2620540,18
2621160,15
2621792,13
2622412,18
2623036,20
2623664,30
2624284,31
2624908,16
2625532,11
2626160,11
2626788,10
2627408,13
2628036,15
2628664,16
2629288,20
2629916,30
2630536,19
2631168,12
2631796,26
2632416,35
2633044,28
2633664,17
2634288,15
2634916,22
2635536,28
2636164,34
2636788,55
2637412,58
2638040,44
2638664,18
2639292,12
2639924,12
2640544,21
2641172,31
2641796,32
2642424,35
2643052,36
2643672,37
2644300,31
2644924,27
2645544,19
2646172,14
2646792,15
2647420,15
2648044,14
2648664,17
2649296,21
2649912,24
2650540,29
2651172,43
2651792,49
2652420,54
2653044,59
2653676,40
2654304,24
2654920,14
2655552,15
2656176,12
2656796,16
2657428,22
2658048,26
2658676,27
2659300,27
2659924,29
2660552,32
2661168,41
2661800,31
2662428,16
2663044,14
2663672,13
2664296,15
2664924,15
2665552,19
2666168,17
2666800,18
2667420,25
2668044,45
2668672,58
2669296,67
2669924,54
2670548,30
2671168,16
2671800,14
2672416,15
2673044,18
2673672,24
2674296,37
2674924,41
2675548,41
2676176,37
2676804,40
2677420,40
2678052,24
2678676,14
2679300,13
2679932,16
2680552,19
2681180,20
2681804,29
2682428,40
2683056,39
2683672,36
2684304,31
2684928,37
2685552,42
2686180,47
2686804,46
2687432,33
2688064,23
2688676,15
2689304,15
2689928,16
2690556,15
2691184,17
2691808,23
2692436,27
2693060,22
2693684,21
2694312,16
2694928,20
2695560,27
2696184,27
2696804,23
2697432,14
2698056,14
2698688,23
2699316,26
2699936,23
2700564,17
2701188,26
2701820,43
2702448,69
2703068,66
2703696,36
2704320,22
2704940,20
2705572,16
2706192,13
2706820,27
2707444,42
2708068,42
2708696,27
2709320,19
2709948,20
2710576,28
2711200,35
2711828,35
2712452,30
2713084,16
2713712,16
2714328,30
2714960,37
2715580,33
2716204,30
2716832,26
2717456,21
2718084,33
2718708,37
2719332,45
2719960,46
2720588,35
2721216,24
2721844,14
2722464,14
2723092,15
2723716,28
2724344,44
2724972,68
2725592,73
2726220,44
2726844,22
2727468,20
2728096,13
2728712,15
2729340,20
2729964,19
2730588,16
2731216,11
2731832,21
2732464,33
2733092,32
2733712,29
2734340,37
2734964,49
2735596,45
2736224,43
2736848,33
2737476,26
2738100,26
2738724,18
2739352,12
2739976,15
2740604,27
2741228,34
2741852,31
2742480,29
2743104,31
2743732,40
2744364,42
2744984,31
2745612,23
2746232,17
2746864,14
2747492,20
2748112,25
2748740,21
2749364,25
2749988,37
2750620,32
2751240,40
2751868,52
2752496,58
2753120,50
2753748,36
2754372,25
2755000,19
2755632,18
2756248,11
2756880,27
2757504,40
2758132,38
2758764,32
2759384,32
2760012,28
2760636,22
2761260,16
2761892,20
2762512,20
2763140,17
2763768,15
2764392,16
2765020,19
2765644,23
2766272,25
2766904,27
2767520,32
2768148,46
2768772,51
2769400,50
2770032,42
2770648,32
2771276,22
2771900,14
2772524,15
2773152,19
2773776,37
2774404,48
2775028,47
2775652,43
2776284,36
2776908,31
2777540,22
2778168,17
2778788,14
2779416,13
2780040,16
2780672,17
2781300,17
2781920,15
2782548,15
2783176,28
2783800,37
2784432,39
2785048,52
2785676,78
2786300,78
2786928,53
2787556,26
2788180,14
2788808,16
2789440,16
2790056,26
2790684,35
2791308,37
2791940,24
2792568,21
2793188,22
2793816,32
2794440,38
2795064,36
2795692,26
2796312,16
2796940,15
2797564,24
2798192,31
2798820,31
2799444,31
2800076,25
2800704,28
2801324,44
2801952,59
2802576,61
2803204,51
2803832,26
2804456,15
2805084,17
2805708,21
2806332,28
2806964,30
2807584,35
2808212,33
2808844,24
2809464,17
2810092,14
2810716,17
2811348,14
2811976,16
2812600,18
2813228,16
2813856,16
2814480,24
2815108,19
2815728,15
2816360,18
2816980,23
2817604,35
2818232,48
2818848,53
2819476,60
2820108,52
2820728,36
2821356,18
2821980,13
2822608,11
2823240,18
2823856,31
2824484,39
2825108,39
2825736,45
2826364,39
2826984,47
2827612,49
2828236,44
2828860,31
2829488,15
2830104,21
2830732,40
2831356,42
2831984,39
2832616,40
2833236,39
2833868,37
2834500,32
2835120,33
2835752,45
2836376,53
2837000,47
2837628,43
2838248,35
2838876,19
2839500,15
2840128,29
2840756,31
2841376,32
2842008,31
2842636,32
2843256,39
2843884,62
2844508,60
2845140,41
2845768,14
2846388,24
2847016,17
2847640,19
2848268,29
2848896,31
2849512,29
2850140,28
2850764,33
2851388,43
2852020,48
2852640,54
2853268,48
2853900,35
2854520,25
2855148,16
2855772,16
2856404,25
2857032,38
2857656,45
2858284,39
2858908,37
2859532,43
2860164,50
2860784,49
2861416,34
2862040,23
2862664,15
2863296,20
2863912,29
2864544,32
2865176,30
2865792,26
2866424,26
2867048,32
2867680,43
2868308,53
2868928,58
2869556,53
2870180,39
2870804,25
2871432,19
2872048,15
2872680,12
2873304,19
2873924,24
2874556,28
2875176,25
2875804,26
2876436,28
2877056,34
2877684,28
2878308,17
2878940,12
2879568,14
2880192,15
2880820,14
2881440,13
2882064,17
2882692,22
2883312,31
2883940,25
2884564,23
2885184,24
2885816,29
2886432,37
2887060,39
2887688,34
2888312,23
2888940,30
2889564,28
2890192,11
2890820,35
2891440,46
2892068,41
2892692,36
2893320,24
2893948,22
2894568,23
2895196,21
2895820,16
2896444,14
2897072,15
2897696,13
2898324,15
2898956,15
2899576,11
2900204,12
2900828,18
2901456,51
2902084,62
2902704,65
2903332,68
2903956,59
2904584,42
2905212,24
2905832,15
2906460,15
2907084,28
2907708,43
2908340,42
2908960,36
2909588,31
2910216,38
2910840,49
2911468,43
2912092,29
2912724,17
2913352,14
2913968,14
2914600,22
2915224,29
2915848,31
2916476,34
2917096,30
2917728,37
2918352,58
2918976,67
2919604,64
2920224,43
2920852,28
2921484,14
2922104,14
2922732,21
2923356,32
2923988,51
2924620,53
2925240,33
2925868,15
2926492,10
2927116,13
2927748,18
2928368,21
2928996,20
2929620,17
2930244,15
2930872,12
2931496,18
2932124,21
2932756,24
2933376,26
2934004,29
2934628,38
2935260,47
2935892,44
2936512,37
2937140,31
2937768,25
2938392,14
2939020,13
2939640,11
2940268,17
2940896,29
2941520,40
2942148,50
2942768,46
2943400,25
2944028,21
2944648,33
2945276,23
2945900,15
2946528,15
2947160,14
2947780,11
2948408,12
2949036,27
2949660,35
2950288,40
2950908,40
2951536,55
2952160,67
2952784,59
2953412,29
2954032,21
2954660,17
2955292,17
2955912,13
2956540,11
2957168,18
2957796,34
2958424,34
2959048,32
2959676,27
2960300,28
2960924,24
2961556,21
2962176,21
2962804,17
2963428,13
2964052,15
2964684,12
2965304,13
2965932,14
2966564,16
2967184,21
2967812,36
2968440,59
2969068,70
2969700,66
2970320,45
2970948,32
2971572,23
2972196,14
2972824,22
2973440,44
2974068,55
2974692,40
2975316,17
2975948,14
2976568,17
2977196,19
2977828,24
2978448,29
2979076,20
2979700,14
2980332,15
2980960,17
2981580,21
2982208,19
2982832,23
2983456,25
2984084,26
2984704,44
2985332,50
2985956,47
2986580,33
2987212,28
2987832,29
2988464,22
2989092,16
2989712,11
2990344,21
2990968,35
2991596,31
2992228,25
2992848,26
2993476,31
2994100,33
2994724,31
2995356,32
2995976,38
2996604,41
2997228,48
2997852,26
2998484,13
2999108,29
2999736,50
3000368,66
3000988,75
3001616,71
3002240,65
3002868,63
3003500,50
3004120,29
3004752,24
3005376,21
3006000,11
3006632,15
3007248,25
3007880,37
3008504,36
3009128,34
3009760,35
3010384,33
3011012,27
3011644,22
3012264,20
3012892,15
3013516,15
3014148,25
3014780,33
3015400,27
3016032,21
3016656,23
3017280,19
3017908,27
3018528,43
3019160,49
3019788,48
3020408,37
3021040,24
3021664,17
3022292,13
3022924,15
3023544,26
3024176,45
3024800,45
3025420,40
3026052,30
3026672,25
3027304,29
3027928,32
3028552,26
3029184,15
3029800,15
3030432,25
3031060,29
3031680,26
3032308,27
3032936,26
3033564,22
3034196,21
3034816,33
3035448,50
3036072,57
3036696,45
3037328,30
3037944,23
3038576,17
3039200,12
3039824,19
3040456,28
3041072,29
3041704,31
3042332,30
3042952,25
3043580,24
3044208,24
3044836,25
3045468,16
3046088,15
3046716,15
3047344,15
3047968,11
3048596,12
3049216,15
3049844,25
3050472,30
3051096,41
3051728,52
3052344,55
3052976,49
3053604,38
3054224,25
3054856,14
3055480,23
3056108,23
3056740,16
3057360,25
3057988,30
3058616,31
3059240,25
3059868,19
3060488,30
3061116,27
3061744,20
3062368,15
3063000,14
3063624,15
3064256,14
3064888,25
3065504,32
3066136,37
3066760,35
3067392,27
3068024,38
3068640,45
3069272,47
3069896,38
3070524,40
3071156,32
3071780,20
3072412,13
3073040,22
3073656,37
3074284,47
3074908,53
3075536,55
3076164,46
3076784,34
3077412,21
3078036,20
3078664,16
3079292,14
3079912,15
3080540,21
3081164,30
3081788,29
3082420,26
3083040,35
3083668,45
3084296,50
3084920,53
3085548,55
3086172,53
3086804,31
3087432,20
3088048,15
3088680,14
3089300,14
3089924,28
3090556,36
3091176,36
3091808,33
3092432,36
3093056,37
3093684,38
3094304,50
3094936,42
3095564,17
3096184,19
3096812,27
3097436,26
3098068,25
3098700,16
3099320,10
3099948,11
3100576,14
3101200,39
3101828,64
3102448,71
3103080,63
3103704,37
3104328,33
3104956,31
3105576,21
3106208,11
3106836,12
3107456,23
3108088,27
3108708,23
3109340,27
3109972,32
3110592,35
3111224,31
3111848,27
3112472,18
3113104,15
3113720,14
3114348,13
3114972,21
3115600,21
3116228,19
3116848,24
3117476,34
3118108,45
3118728,55
3119356,61
3119984,48
3120616,31
3121244,16
3121864,15
3122496,13
3123120,21
3123744,32
3124372,37
3124992,36
3125620,32
3126244,27
3126868,28
3127500,30
3128120,29
3128748,22
3129380,15
3130000,14
3130628,15
3131252,17
3131884,21
3132516,22
3133136,29
3133768,33
3134392,44
3135016,51
3135648,55
3136264,50
3136896,34
3137520,20
3138144,15
3138772,15
3139396,12
3140028,22
3140656,30
3141280,31
3141908,30
3142536,31
3143164,30
3143796,28
3144416,27
3145044,23
3145668,16
3146292,14
3146924,14
3147544,16
3148176,19
3148800,18
3149424,22
3150052,28
3150680,33
3151308,51
3151940,54
3152560,57
3153192,47
3153816,32
3154440,23
3155068,18
3155688,14
3156316,17
3156944,31
3157568,39
3158200,36
3158816,34
3159448,30
3160080,29
3160696,29
3161328,25
3161952,21
3162580,15
3163212,14
3163832,15
3164464,20
3165088,21
3165712,21
3166344,24
3166960,29
3167592,40
3168216,49
3168840,56
3169472,57
3170092,43
3170720,27
3171352,17
3171972,14
3172604,14
3173228,27
3173860,39
3174492,40
3175112,39
3175744,34
3176368,29
3176992,31
3177620,32
3178240,31
3178868,21
3179496,14
3180120,15
3180752,23
3181368,29
3182000,28
3182632,29
3183248,29
3183880,28
3184508,38
3185140,46
3185768,56
3186388,55
3187020,33
3187644,16
3188268,14
3188900,16
3189520,17
3190152,30
3190776,39
3191400,31
3192032,25
3192656,24
3193288,32
3193920,30
3194536,20
3195168,13
3195796,13
3196424,15
3197056,17
3197672,23
3198304,19
3198928,17
3199556,21
3200188,38
3200804,40
3201432,43
3202064,47
3202680,51
3203308,48
3203932,41
3204560,36
3205188,19
3205808,11
3206436,28
3207056,41
3207684,51
3208316,44
3208936,35
3209564,29
3210188,20
3210812,19
3211440,20
3212064,17
3212692,15
3213324,18
3213944,21
3214572,19
3215196,16
3215828,17
3216456,19
3217080,26
3217708,45
3218332,55
3218956,63
3219584,60
3220208,43
3220836,29
3221460,18
3222084,15
3222712,24
3223336,42
3223964,47
3224596,44
3225216,38
3225848,37
3226468,31
3227100,23
3227728,13
3228344,15
3228976,14
3229600,15
3230224,17
3230852,19
3231472,21
3232100,22
3232724,25
3233348,26
3233980,29
3234600,42
3235228,51
3235860,54
3236480,43
3237108,28
3237732,18
3238360,13
3238992,13
3239612,16
3240240,25
3240864,32
3241488,39
3242116,43
3242736,40
3243364,32
3243988,29
3244616,21
3245244,14
3245864,15
3246492,14
3247124,14
3247744,21
3248372,27
3249000,27
3249628,29
3250256,34
3250880,47
3251508,54
3252136,57
3252760,57
3253388,35
3254008,24
3254636,15
3255264,13
3255888,12
3256516,20
3257136,31
3257764,40
3258396,40
3259016,37
3259648,32
3260272,34
3260900,25
3261532,16
3262152,13
3262784,13
3263408,14
3264032,15
3264660,16
3265280,17
3265908,17
3266532,22
3267160,30
3267788,45
3268408,55
3269036,59
3269668,53
3270288,38
3270920,26
3271544,17
3272176,14
3272804,18
3273424,28
3274056,34
3274680,31
3275304,27
3275936,25
3276556,24
3277188,23
3277808,23
3278428,23
3279056,19
3279680,19
3280308,16
3280936,10
3281552,12
3282180,20
3282800,37
3283428,37
3284056,35
3284676,45
3285308,50
3285928,50
3286548,38
3287180,28
3287800,20
3288428,13
3289048,12
3289668,12
3290296,20
3290920,29
3291548,25
3292176,24
3292792,32
3293420,29
3294044,19
3294672,17
3295304,14
3295920,14
3296548,15
3297172,24
3297796,27
3298428,23
3299044,23
3299676,23
3300300,24
3300920,32
3301552,46
3302168,59
3302796,54
3303420,32
3304048,22
3304676,14
3305296,14
3305928,22
3306556,28
3307176,31
3307804,33
3308428,29
3309056,30
3309688,25
3310304,32
3310932,31
3311556,25
3312180,17
3312812,14
3313432,15
3314060,20
3314684,24
3315312,21
3315940,19
3316564,18
3317192,25
3317824,41
3318440,52
3319068,54
3319692,46
3320324,36
3320952,22
3321568,15
3322196,13
3322820,11
3323444,20
3324076,32
3324696,33
3325324,30
3325948,25
3326576,23
3327204,24
3327828,27
3328460,20
3329088,13
3329704,14
3330332,15
3330956,10
3331584,14
3332212,22
3332832,29
3333460,39
3334080,45
3334704,54
3335332,55
3335952,57
3336580,45
3337204,23
3337828,13
3338456,15
3339080,16
3339708,24
3340336,30
3340956,31
3341584,35
3342208,39
3342836,33
3343464,30
3344080,25
3344708,23
3345332,22
3345956,17
3346584,14
3347204,16
3347832,28
3348456,28
3349080,33
3349708,34
3350328,40
3350956,48
3351588,56
3352208,61
3352836,55
3353460,36
3354092,18
3354720,15
3355340,14
3355968,11
3356592,22
3357216,39
3357844,46
3358464,43
3359092,36
3359716,27
3360340,23
3360968,21
3361588,21
3362220,19
3362848,16
3363464,14
3364092,16
3364716,14
3365344,16
3365972,22
3366592,25
3367220,28
3367844,39
3368464,46
3369096,51
3369712,54
3370340,47
3370964,28
3371584,20
3372216,13
3372832,16
3373460,25
3374088,30
3374712,31
3375340,34
3375964,33
3376596,34
3377224,31
3377848,25
3378476,23
3379100,17
3379728,14
3380356,18
3380976,33
3381604,29
3382228,23
3382848,21
3383480,26
3384096,33
3384724,43
3385352,54
3385976,57
3386604,44
3387228,34
3387856,20
3388488,15
3389104,11
3389732,25
3390356,37
3390984,40
3391612,34
3392232,31
3392860,37
3393484,41
3394104,28
3394736,16
3395352,14
3395980,14
3396604,14
3397232,15
3397860,11
3398484,16
3399112,31
3399744,41
3400360,46
3400988,53
3401612,56
3402240,57
3402872,53
3403488,37
3404116,24
3404740,15
3405364,16
3405996,27
3406616,41
3407244,51
3407868,42
3408496,32
3409124,21
3409748,22
3410380,18
3411008,13
3411624,14
3412256,17
3412880,16
3413508,15
3414140,18
3414760,23
3415388,27
3416012,22
3416636,17
3417268,18
3417888,31
3418516,40
3419148,48
3419768,48
3420396,36
3421024,24
3421652,17
3422280,10
3422904,19
3423532,28
3424156,30
3424780,30
3425412,28
3426032,27
3426660,28
3427284,27
3427908,27
3428540,23
3429160,19
3429788,14
3430420,13
3431040,16
3431668,23
3432292,29
3432924,23
3433552,24
3434172,44
3434800,60
3435424,68
3436048,63
3436676,38
3437296,26
3437924,17
3438548,15
3439176,22
3439804,33
3440424,38
3441052,38
3441684,43
3442304,43
3442932,34
3443556,35
3444184,42
3444812,36
3445432,17
3446060,14
3446684,20
3447308,22
3447936,20
3448560,19
3449188,19
3449812,27
3450436,32
3451068,40
3451688,49
3452316,55
3452948,52
3453568,41
3454196,25
3454824,15
3455452,14
3456084,22
3456700,35
3457332,40
3457952,28
3458576,23
3459208,23
3459824,23
3460452,24
3461076,24
3461700,25
3462332,22
3462952,16
3463580,19
3464212,30
3464832,37
3465460,33
3466084,33
3466712,39
3467344,38
3467964,45
3468592,56
3469216,55
3469840,29
3470468,18
3471088,15
3471716,15
3472344,11
3472968,19
3473596,30
3474216,37
3474848,32
3475476,25
3476096,23
3476724,33
3477348,37
3477980,31
3478612,22
3479232,16
3479864,13
3480488,14
3481112,18
3481740,19
3482360,21
3482988,21
3483612,26
3484232,28
3484864,29
3485480,43
3486108,54
3486740,52
3487360,49
3487988,32
3488612,17
3489244,16
3489872,34
3490492,44
3491120,47
3491744,41
3492368,32
3492996,32
3493616,36
3494244,35
3494868,30
3495492,19
3496124,14
3496744,19
3497372,25
3498004,18
3498624,20
3499252,34
3499876,45
3500508,45
3501140,58
3501760,63
3502388,65
3503016,58
3503640,49
3504268,30
3504888,19
3505516,12
3506144,24
3506768,42
3507396,49
3508016,46
3508644,40
3509276,32
3509896,27
3510524,16
3511148,19
3511780,26
3512412,28
3513032,17
3513664,21
3514284,39
3514912,43
3515540,34
3516160,27
3516788,27
3517416,38
3518040,50
3518672,60
3519292,65
3519924,43
3520556,22
3521176,14
3521804,15
3522428,16
3523060,25
3523688,34
3524312,38
3524940,34
3525564,34
3526188,37
3526816,38
3527440,33
3528068,34
3528692,30
3529316,19
3529944,14
3530568,20
3531196,19
3531828,11
3532448,12
3533076,23
3533700,44
3534332,68
3534960,84
3535580,83
3536208,56
3536832,29
3537452,21
3538084,21
3538704,15
3539332,15
3539956,33
3540580,45
3541212,40
3541836,31
3542464,27
3543096,27
3543712,30
3544344,33
3544968,32
3545596,35
3546228,32
3546848,17
3547476,18
3548100,18
3548728,19
3549356,18
3549976,24
3550608,41
3551236,64
3551856,76
3552488,75
3553112,61
3553740,44
3554372,28
3554992,14
3555624,29
3556248,42
3556872,40
3557500,37
3558120,34
3558752,27
3559376,21
3560000,28
3560628,19
3561248,15
3561876,15
3562508,18
3563128,21
3563760,14
3564384,21
3565012,31
3565644,34
3566264,43
3566892,56
3567516,62
3568144,58
3568772,54
3569392,49
3570024,23
3570648,15
3571272,14
3571900,15
3572520,29
3573148,56
3573780,68
3574400,56
3575028,32
3575656,12
3576288,19
3576916,11
3577536,14
3578168,19
3578792,16
3579416,14
3580048,17
3580664,21
3581296,22
3581920,19
3582544,21
3583176,16
3583796,17
3584428,36
3585056,56
3585672,61
3586304,47
3586928,30
3587556,19
3588188,14
3588808,13
3589436,17
3590060,29
3590684,36
3591316,37
3591936,40
3592568,33
3593192,33
3593816,29
3594444,25
3595064,20
3595692,17
3596324,14
3596944,14
3597572,25
3598196,31
3598828,29
3599460,35
3600080,41
3600708,46
3601332,43
3601956,38
3602584,26
3603208,16
3603836,19
3604460,19
3605084,19
3605716,11
3606340,26
3606968,45
3607596,32
3608216,11
3608844,12
3609468,17
3610100,28
3610728,19
3611344,15
3611972,15
3612596,14
3613220,13
3613852,19
3614472,21
3615100,15
3615724,14
3616348,16
3616976,19
3617600,33
3618228,52
3618856,58
3619480,44
3620108,28
3620732,21
3621364,15
3621992,14
3622612,11
3623240,22
3623864,40
3624488,48
3625116,38
3625736,40
3626364,48
3626988,54
3627612,54
3628244,31
3628868,15
3629496,28
3630124,31
3630744,18
3631372,11
3631996,16
3632628,44
3633260,50
3633880,44
3634508,51
3635136,63
3635760,69
3636388,50
3637008,28
3637636,21
3638260,18
3638884,13
3639516,13
3640140,28
3640768,39
3641400,38
3642016,38
3642648,36
3643272,30
3643900,31
3644532,32
3645152,24
3645784,25
3646404,23
3647028,15
3647660,28
3648280,33
3648908,36
3649532,16
3650160,12
3650788,33
3651412,75
3652044,89
3652672,69
3653292,42
3653920,20
3654544,15
3655172,22
3655804,34
3656424,49
3657052,49
3657676,41
3658300,34
3658932,21
3659552,21
3660180,30
3660812,30
3661432,23
3662060,14
3662684,35
3663316,35
3663948,29
3664568,29
3665196,31
3665824,24
3666448,15
3667076,20
3667696,46
3668324,61
3668948,65
3669576,45
3670204,18
3670824,15
3671456,14
3672084,14
3672704,30
3673336,57
3673960,81
3674588,67
3675220,16
3675840,27
3676472,20
3677096,9
3677668,13
3678304,16
3678920,13
3679552,19
3680176,21
3680800,23
3681428,22
3682048,15
3682676,10
3683300,11
3683928,21
3684556,61
3685176,73
3685808,64
3686436,53
3687052,41
3687684,23
3688304,13
3688936,18
3689564,28
3690184,42
3690812,45
3691436,36
3692060,23
3692688,26
3693312,33
3693940,27
3694564,23
3695188,16
3695820,15
3696440,14
3697068,16
3697700,17
3698320,16
3698948,13
3699572,16
3700204,25
3700832,39
3701452,39
3702080,53
3702704,65
3703328,49
3703956,35
3704576,17
3705208,17
3705832,25
3706456,27
3707084,24
3707704,22
3708332,29
3708964,32
3709584,32
3710216,27
3710840,21
3711468,19
3712100,14
3712720,17
3713348,13
3713972,27
3714596,33
3715224,34
3715848,33
3716476,29
3717100,28
3717724,38
3718356,50
3718980,57
3719612,43
3720244,22
3720864,13
3721492,15
3722116,11
3722748,13
3723380,34
3724000,53
3724628,54
3725256,59
3725880,39
3726508,24
3727128,12
3727760,13
3728384,13
3729008,15
3729636,14
3730260,21
3730892,29
3731520,25
3732140,18
3732768,19
3733392,17
3734024,25
3734652,42
3735272,53
3735904,61
3736528,51
3737152,41
3737784,19
3738400,14
3739028,14
3739660,37
3740280,62
3740908,62
3741532,42
3742164,19
3742796,13
3743416,26
3744048,27
3744668,15
3745292,15
3745924,16
3746544,18
3747176,19
3747800,26
3748424,35
3749052,38
3749672,35
3750304,29
3750936,32
3751552,37
3752184,45
3752808,38
3753436,18
3754068,18
3754688,32
3755320,29
3755944,37
3756568,46
3757200,32
3757816,25
3758448,23
3759072,13
3759696,10
3760328,10
3760944,17
3761572,23
3762204,18
3762824,14
3763456,21
3764080,25
3764708,21
3765340,12
3765960,10
3766592,10
3767216,41
3767840,84
3768472,70
3769088,55
3769716,35
3770340,36
3770964,28
3771596,13
3772216,17
3772844,41
3773476,54
3774096,44
3774724,31
3775352,26
3775980,29
3776612,31
3777232,20
3777860,17
3778488,21
3779112,19
3779740,17
3780360,14
3780988,16
3781612,19
3782240,23
3782868,32
3783492,27
3784124,39
3784756,58
3785376,69
3786008,59
3786632,30
3787260,17
3787892,16
3788512,23
3789144,30
3789768,43
3790388,49
3791020,42
3791640,25
3792268,11
3792892,11
3793520,22
3794152,35
3794776,33
3795404,19
3796036,14
3796656,19
3797284,27
3797912,39
3798536,51
3799168,51
3799784,51
3800416,50
3801040,47
3801664,37
3802292,40
3802912,45
3803540,17
3804172,14
3804792,17
3805424,24
3806048,11
3806680,30
3807312,42
3807928,44
3808560,36
3809184,29
3809812,28
3810440,32
3811064,33
3811696,26
3812320,17
3812944,13
3813576,20
3814192,32
3814824,29
3815456,23
3816076,23
3816704,27
3817328,41
3817960,53
3818588,50
3819208,47
3819840,24
3820464,16
3821088,14
3821720,14
3822336,15
3822968,20
3823592,27
3824216,30
3824848,26
3825468,33
3826096,34
3826728,33
3827348,33
3827980,18
3828604,18
3829236,15
3829868,14
3830488,19
3831116,14
3831744,11
3832368,23
3833000,33
3833620,43
3834248,57
3834876,69
3835500,79
3836132,62
3836760,36
3837392,16
3838024,14
3838644,13
3839276,13
3839904,21
3840528,31
3841160,48
3841776,49
3842404,41
3843028,51
3843652,48
3844280,26
3844904,21
3845532,15
3846164,14
3846784,16
3847412,33
3848036,42
3848668,33
3849296,37
3849916,51
3850544,63
3851168,66
3851792,53
3852424,31
3853040,21
3853672,19
3854296,14
3854920,13
3855548,10
3856168,20
3856796,29
3857428,22
3858048,22
3858676,23
3859300,27
3859932,29
3860560,32
3861184,31
3861812,27
3862436,24
3863060,23
3863692,15
3864312,11
3864944,13
3865568,11
3866192,18
3866820,33
3867440,45
3868068,59
3868700,78
3869320,75
3869952,56
3870576,31
3871208,16
3871836,16
3872456,19
3873084,25
3873708,37
3874332,29
3874964,10
3875584,11
3876216,17
3876840,26
3877464,28
3878092,22
3878712,18
3879344,13
3879972,20
3880592,27
3881224,30
3881848,26
3882476,21
3883108,14
3883728,25
3884356,43
3884984,45
3885608,42
3886236,28
3886856,21
3887488,19
3888112,15
3888736,12
3889368,10
3889992,16
3890620,21
3891252,20
3891872,19
3892500,22
3893124,30
3893752,39
3894384,46
3895004,37
3895632,22
3896260,15
3896884,14
3897512,11
3898132,12
3898760,21
3899388,30
3900012,49
3900640,78
3901264,87
3901896,75
3902524,60
3903144,35
3903776,15
3904400,13
3905028,13
3905660,24
3906280,61
3906908,77
3907536,50
3908160,17
3908788,10
3909408,11
3910040,19
3910668,23
3911288,26
3911920,25
3912544,15
3913172,16
3913804,26
3914424,32
3915052,34
3915680,33
3916304,29
3916936,23
3917552,34
3918184,52
3918808,56
3919432,42
3920064,27
3920680,19
3921308,17
3921940,15
3922560,13
3923188,29
3923816,38
3924444,49
3925076,49
3925696,43
3926328,33
3926952,29
3927576,21
3928208,13
3928824,13
3929456,14
3930080,14
3930704,18
3931336,31
3931956,32
3932588,29
3933216,28
3933836,37
3934464,42
3935088,43
3935716,38
3936348,18
3936968,14
3937596,13
3938220,14
3938844,16
3939476,12
3940096,16
3940724,39
3941352,43
3941976,25
3942604,17
3943224,25
3943852,28
3944480,24
3945104,19
3945732,18
3946356,14
3946988,24
3947616,36
3948236,36
3948864,35
3949488,29
3950112,29
3950740,39
3951360,45
3951988,49
3952616,47
3953240,31
3953868,20
3954488,18
3955116,14
3955748,10
3956368,19
3956996,34
3957624,45
3958252,47
3958884,44
3959504,48
3960136,47
3960760,35
3961384,27
3962016,17
3962632,14
3963264,31
3963888,41
3964512,33
3965140,33
3965768,31
3966396,30
3967028,39
3967648,54
3968280,61
3968904,63
3969532,49
3970164,28
3970784,13
3971412,15
3972040,23
3972664,35
3973292,39
3973912,40
3974540,39
3975164,31
3975792,22
3976420,35
3977044,40
3977676,28
3978304,20
3978928,19
3979556,15
3980184,13
3980808,9
3981384,17
3982008,26
3982636,35
3983264,47
3983888,59
3984520,66
3985136,66
3985768,53
3986392,32
3987016,29
3987648,24
3988264,18
3988896,11
3989524,10
3990144,19
3990776,19
3991400,29
3992032,39
3992660,35
3993280,45
3993912,52
3994536,32
3995160,20
3995788,25
3996408,16
3997036,13
3997664,11
3998288,13
3998916,20
3999536,40
4000168,48
4000796,66
4001416,82
4002044,82
4002668,50
4003296,14
4003928,21
4004544,22
4005172,14
4005796,10
4006420,11
4007048,27
4007672,43
4008300,33
4008924,26
4009548,33
4010180,26
4010800,27
4011428,29
4012060,24
4012680,18
4013308,14
4013936,18
4014564,24
4015196,11
4015816,11
4016444,11
4017068,31
4017692,46
4018324,58
4018944,71
4019576,72
4020196,67
4020820,56
4021448,36
4022072,19
4022700,17
4023332,46
4023952,59
4024584,49
4025204,39
4025836,31
4026464,32
4027088,27
4027716,16
4028340,18
4028964,20
4029596,18
4030216,13
4030848,12
4031472,24
4032096,31
4032724,31
4033348,34
4033980,41
4034608,53
4035224,65
4035856,61
4036480,40
4037108,23
4037740,14
4038360,17
4038992,27
4039616,29
4040240,33
4040868,35
4041488,25
4042116,23
4042744,25
4043368,35
4043996,35
4044624,33
4045252,32
4045884,22
4046504,16
4047132,34
4047756,37
4048388,31
4049020,24
4049640,23
4050268,36
4050892,52
4051516,53
4052148,57
4052768,45
4053396,23
4054028,14
4054648,14
4055280,15
4055900,13
4056532,17
4057164,30
4057784,41
4058412,45
4059036,41
4059660,32
4060292,18
4060912,13
4061540,13
4062164,17
4062792,25
4063420,29
4064040,27
4064668,15
4065300,10
4065920,11
4066548,15
4067176,24
4067804,39
4068436,55
4069056,66
4069688,43
4070312,14
4070936,28
4071568,18
4072188,10
4072816,12
4073440,24
4074064,34
4074696,40
4075312,32
4075944,13
4076576,10
4077192,10
4077824,19
4078448,22
4079076,20
4079708,13
4080328,17
4080956,21
4081584,25
4082208,32
4082840,34
4083456,37
4084088,47
4084712,54
4085336,59
4085968,46
4086584,27
4087212,22
4087844,18
4088464,15
4089096,13
4089720,21
4090348,25
4090980,28
4091600,31
4092232,27
4092856,21
4093480,41
4094112,66
4094728,47
4095360,18
4095988,14
4096612,20
4097240,33
4097864,42
4098492,38
4099120,31
4099736,33
4100364,37
4100988,30
4101616,30
4102244,27
4102864,21
4103492,15
4104112,16
4104736,40
4105364,38
4105984,18
4106612,23
4107236,21
4107856,13
4108484,14
4109104,17
4109732,16
4110360,22
4110976,33
4111604,25
4112228,15
4112856,27
4113488,36
4114104,50
4114732,38
4115356,29
4115980,27
4116608,28
4117224,36
4117852,46
4118476,46
4119096,34
4119728,34
4120344,31
4120972,21
4121596,16
4122224,12
4122852,27
4123476,38
4124104,42
4124736,44
4125352,31
4125980,21
4126604,31
4127236,26
4127864,18
4128480,14
4129108,17
4129732,18
4130356,21
4130984,19
4131608,19
4132236,16
4132860,14
4133488,22
4134116,46
4134740,57
4135372,58
4136000,47
4136616,31
4137244,25
4137868,17
4138500,13
4139128,16
4139744,38
4140372,57
4140996,74
4141620,81
4142248,43
4142872,11
4143500,20
4144124,16
4144752,15
4145380,13
4146004,14
4146632,17
4147264,21
4147880,22
4148508,24
4149132,14
4149760,11
4150388,14
4151008,41
4151636,59
4152264,75
4152888,64
4153516,30
4154136,14
4154764,13
4155388,12
4156016,20
4156644,32
4157268,51
4157900,71
4158532,80
4159152,61
4159784,28
4160408,11
4161028,12
4161660,14
4162280,25
4162908,25
4163528,32
4164152,35
4164780,18
4165400,16
4166028,23
4166652,33
4167280,52
4167908,60
4168532,55
4169160,45
4169788,36
4170408,30
4171036,29
4171660,27
4172288,10
4172920,26
4173536,41
4174164,40
4174788,41
4175412,39
4176040,34
4176664,35
4177292,31
4177916,27
4178540,21
4179168,15
4179792,16
4180420,20
4181052,22
4181672,18
4182300,19
4182924,28
4183556,31
4184184,43
4184800,49
4185432,53
4186056,40
4186680,25
4187308,18
4187928,29
4188556,23
4189180,12
4189808,36
4190436,55
4191060,57
4191692,50
4192320,43
4192944,37
4193572,25
4194196,22
4194824,30
4195452,32
4196072,17
4196700,24
4197324,27
4197948,38
4198580,32
4199200,23
4199828,29
4200456,41
4201072,60
4201700,80
4202324,82
4202952,62
4203580,43
4204200,25
4204828,14
4205452,13
4206080,19
4206708,30
4207328,36
4207956,32
4208584,29
4209208,39
4209836,48
4210456,39
4211084,21
4211708,14
4212336,14
4212964,14
4213588,11
4214220,9
4214796,9
4215372,17
4216004,19
4216624,27
4217252,49
4217884,61
4218504,69
4219132,63
4219756,42
4220388,22
4221016,12
4221640,13
4222268,23
4222892,49
4223516,47
4224148,20
4224768,22
4225396,31
4226020,36
4226640,33
4227272,15
4227888,16
4228516,16
4229148,26
4229768,17
4230396,27
4231020,40
4231652,42
4232280,42
4232904,33
4233532,29
4234156,48
4234784,57
4235412,53
4236032,40
4236660,23
4237284,15
4237908,16
4238540,19
4239160,23
4239792,30
4240420,34
4241040,30
4241668,28
4242292,26
4242920,31
4243552,26
4244168,15
4244800,12
4245420,15
4246044,14
4246676,13
4247296,14
4247924,21
4248548,23
4249172,21
4249804,19
4250424,29
4251052,36
4251680,44
4252304,43
4252932,28
4253556,21
4254188,24
4254820,20
4255440,11
4256068,22
4256692,25
4257316,16
4257944,16
4258568,22
4259196,25
4259824,42
4260448,53
4261076,42
4261700,24
4262328,14
4262960,14
4263576,11
4264204,15
4264828,33
4265460,28
4266088,21
4266704,32
4267332,42
4267956,46
4268580,41
4269212,43
4269832,54
4270460,43
4271084,33
4271708,25
4272340,10
4272960,19
4273592,32
4274224,35
4274840,34
4275472,31
4276092,32
4276724,41
4277352,35
4277972,20
4278600,16
4279224,14
4279848,18
4280480,43
4281096,57
4281724,51
4282348,30
4282972,19
4283604,31
4284224,35
4284856,35
4285484,34
4286104,23
4286732,19
4287356,15
4287988,14
4288620,14
4289240,19
4289868,16
4290492,24
4291116,31
4291748,36
4292368,32
4292996,29
4293620,23
4294244,14
4294876,13
4295500,14
4296132,25
4296760,30
4297384,16
4298012,12
4298640,11
4299268,26
4299900,49
4300520,57
4301152,69
4301772,83
4302396,83
4303028,50
4303648,19
4304276,14
4304908,12
4305528,16
4306156,30
4306780,41
4307412,36
4308040,34
4308656,31
4309288,37
4309912,29
4310536,21
4311164,18
4311784,14
4312412,19
4313036,20
4313664,21
4314292,29
4314912,33
4315540,29
4316172,19
4316792,18
4317424,39
4318048,46
4318680,42
4319308,42
4319928,45
4320560,23
4321184,16
4321808,14
4322436,12
4323056,25
4323684,35
4324308,32
4324932,31
4325564,27
4326184,30
4326816,31
4327444,26
4328064,19
4328692,16
4329316,15
4329948,14
4330576,15
4331196,22
4331824,23
4332448,18
4333072,16
4333704,24
4334320,49
4334952,73
4335576,72
4336200,40
4336828,15
4337448,14
4338076,14
4338708,10
4339328,22
4339956,21
4340580,19
4341212,18
4341844,22
4342464,26
4343092,26
4343716,31
4344340,29
4344972,18
4345592,17
4346224,27
4346848,13
4347472,38
4348100,39
4348720,27
4349352,25
4349980,27
4350600,38
4351232,51
4351856,59
4352488,41
4353116,16
4353736,13
4354364,13
4354988,13
4355612,10
4356240,11
4356864,19
4357492,36
4358116,37
4358740,47
4359372,48
4359992,33
4360624,18
4361252,14
4361872,13
4362500,14
4363124,15
4363756,13
4364384,32
4365008,50
4365636,55
4366260,53
4366884,51
4367512,56
4368136,59
4368764,57
4369388,42
4370012,29
4370640,16
4371268,13
4371896,20
4372524,32
4373144,40
4373772,40
4374396,43
4375028,38
4375660,38
4376280,55
4376912,62
4377536,47
4378160,31
4378788,27
4379408,18
4380036,22
4380664,46
4381288,54
4381916,58
4382544,66
4383176,57
4383804,34
4384424,29
4385052,47
4385676,49
4386308,37
4386936,30
4387560,21
4388188,23
4388812,11
4389436,16
4390068,26
4390688,32
4391316,34
4391948,30
4392568,29
4393200,36
4393824,36
4394452,32
4395084,18
4395704,14
4396336,15
4396960,11
4397584,11
4398216,26
4398832,36
4399464,32
4400088,18
4400712,27
4401340,35
4401960,50
4402592,57
4403220,60
4403840,40
4404468,14
4405092,22
4405720,23
4406352,20
4406968,34
4407600,51
4408224,42
4408848,35
4409476,36
4410096,38
4410724,15
4411348,16
4411976,15
4412604,16
4413224,19
4413856,25
4414484,26
4415104,30
4415736,19
4416360,12
4416988,21
4417620,24
4418240,13
4418868,36
4419492,97
4420116,100
4420800,51
4421416,17
4422044,15
4422676,20
4423296,27
4423928,31
4424548,30
4425180,22
4425808,22
4426432,25
4427060,24
4427684,21
4428308,16
4428940,14
4429560,13
4430188,12
4430812,13
4431436,10
4432068,11
4432688,27
4433316,24
4433948,43
4434568,58
4435196,63
4435824,45
4436452,21
4437084,12
4437704,23
4438336,17
4438960,21
4439584,39
4440216,44
4440832,36
4441464,28
4442088,25
4442712,28
4443340,27
4443960,29
4444592,26
4445220,19
4445840,16
4446468,14
4447096,15
4447724,29
4448356,44
4448976,41
4449604,34
4450228,36
4450852,45
4451484,43
4452104,44
4452732,27
4453360,15
4453984,17
4454616,16
4455240,13
4455868,24
4456500,42
4457120,44
4457748,32
4458376,17
4459004,21
4459636,14
4460256,17
4460888,13
4461508,19
4462136,23
4462764,16
4463384,15
4464016,21
4464640,20
4465264,21
4465892,26
4466520,24
4467148,29
4467780,44
4468400,54
4469032,62
4469656,48
4470280,28
4470912,13
4471528,18
4472160,11
4472784,11
4473408,18
4474040,18
4474656,13
4475288,17
4475920,21
4476540,50
4477172,49
4477796,30
4478428,18
4479060,14
4479680,16
4480312,10
4480936,11
4481560,13
4482188,12
4482808,19
4483436,30
4484060,45
4484684,68
4485316,72
4485936,46
4486564,29
4487196,17
4487816,14
4488444,23
4489068,42
4489700,53
4490328,49
4490944,32
4491576,18
4492200,15
4492824,20
4493452,28
4494072,21
4494704,17
4495328,19
4495952,19
4496584,14
4497200,34
4497828,44
4498460,44
4499080,41
4499712,30
4500336,25
4500964,36
4501596,55
4502216,59
4502848,43
4503472,24
4504096,18
4504728,16
4505344,10
4505976,22
4506600,40
4507220,49
4507852,48
4508472,47
4509100,37
4509732,40
4510352,39
4510984,26
4511604,16
4512236,15
4512864,14
4513488,12
4514116,18
4514740,37
4515364,42
4515992,48
4516616,45
4517244,52
4517868,49
4518492,43
4519124,45
4519748,46
4520376,45
4521004,38
4521624,19
4522252,14
4522876,31
4523508,42
4524140,46
4524760,45
4525392,41
4526016,29
4526640,29
4527268,37
4527888,34
4528520,15
4529140,27
4529764,29
4530396,22
4531020,16
4531652,12
4532284,10
4532904,10
4533532,18
4534160,24
4534788,17
4535420,44
4536040,47
4536668,39
4537292,26
4537916,17
4538548,12
4539168,15
4539800,10
4540428,10
4541048,19
4541680,14
4542304,11
4542932,17
4543564,25
4544184,44
4544816,50
4545440,17
4546064,16
4546692,21
4547312,17
4547940,11
4548564,13
4549188,18
4549820,26
4550440,37
4551068,47
4551700,64
4552320,69
4552948,48
4553576,30
4554204,18
4554836,14
4555456,14
4556088,25
4556712,37
4557336,29
4557968,21
4558588,18
4559216,27
4559840,37
4560464,43
4561092,32
4561712,19
4562344,15
4562972,14
4563592,13
4564220,18
4564848,25
4565476,19
4566108,16
4566728,27
4567356,46
4567984,61
4568608,72
4569240,51
4569856,24
4570484,13
4571108,17
4571736,22
4572364,29
4572984,27
4573612,40
4574244,52
4574864,46
4575496,39
4576120,26
4576748,15
4577380,27
4578000,21
4578628,18
4579256,13
4579880,15
4580508,10
4581128,19
4581760,18
4582384,24
4583008,31
4583640,35
4584264,44
4584896,58
4585524,61
4586144,46
4586776,34
4587400,17
4588032,16
4588660,27
4589280,33
4589908,35
4590532,34
4591156,25
4591788,14
4592408,14
4593036,21
4593660,24
4594288,25
4594916,16
4595544,15
4596172,14
4596804,21
4597424,29
4598056,13
4598680,11
4599304,31
4599936,43
4600552,47
4601184,52
4601808,51
4602432,36
4603064,24
4603680,15
4604308,24
4604940,14
4605560,21
4606192,49
4606816,53
4607448,38
4608080,31
4608696,43
4609324,33
4609944,14
4610568,12
4611196,14
4611816,13
4612444,23
4613068,35
4613692,44
4614324,47
4614944,41
4615572,34
4616204,35
4616824,44
4617452,56
4618076,56
4618708,49
4619336,33
4619960,25
4620588,17
4621212,13
4621836,10
4622468,17
4623088,28
4623716,33
4624344,31
4624968,43
4625596,48
4626216,44
4626844,37
4627476,30
4628096,26
4628724,17
4629348,16
4629980,19
4630608,29
4631228,27
4631856,31
4632480,31
4633104,24
4633732,32
4634352,46
4634980,62
4635604,71
4636228,52
4636860,30
4637480,20
4638108,15
4638740,24
4639360,35
4639988,41
4640616,46
4641244,44
4641876,35
4642496,27
4643124,33
4643752,30
4644376,17
4645004,14
4645624,15
4646252,17
4646876,16
4647500,13
4648132,16
4648752,31
4649384,47
4650012,55
4650632,67
4651264,63
4651888,61
4652516,47
4653148,26
4653768,14
4654396,14
4655024,13
4655648,26
4656280,40
4656896,57
4657524,63
4658152,42
4658776,23
4659408,13
4660024,17
4660652,26
4661284,30
4661904,15
4662532,13
4663160,13
4663788,13
4664420,16
4665040,33
4665668,48
4666292,49
4666916,48
4667548,58
4668168,68
4668796,68
4669424,49
4670048,27
4670676,13
4671304,19
4671932,38
4672564,30
4673184,26
4673812,26
4674436,28
4675068,28
4675696,15
4676316,17
4676944,26
4677568,28
4678196,22
4678824,13
4679444,14
4680072,16
4680696,16
4681320,15
4681948,19
4682572,17
4683204,18
4683832,36
4684456,57
4685088,61
4685712,45
4686340,23
4686972,14
4687592,19
4688224,17
4688848,12
4689468,23
4690100,30
4690720,24
4691348,21
4691980,16
4692600,16
4693228,21
4693852,31
4694484,31
4695116,22
4695736,20
4696368,17
4696992,15
4697616,21
4698244,11
4698864,22
4699496,46
4700120,55
4700744,53
4701376,53
4701992,61
4702624,47
4703256,35
4703876,19
4704508,13
4705132,14
4705764,28
4706396,54
4707016,63
4707648,35
4708272,11
4708896,23
4709528,19
4710144,10
4710776,15
4711400,16
4712024,15
4712656,13
4713272,13
4713904,11
4714536,24
4715152,32
4715784,13
4716408,27
4717036,57
4717668,67
4718288,75
4718920,61
4719544,43
4720168,26
4720796,14
4721416,16
4722048,26
4722672,39
4723296,53
4723924,47
4724548,39
4725180,35
4725808,35
4726432,35
4727060,34
4727688,35
4728316,22
4728948,14
4729568,19
4730200,21
4730824,21
4731448,22
4732080,22
4732696,34
4733328,42
4733960,58
4734576,65
4735208,66
4735836,47
4736468,30
4737096,16
4737720,15
4738348,12
4738976,16
4739600,21
4740228,24
4740848,44
4741476,44
4742104,31
4742728,25
4743356,32
4743976,35
4744608,17
4745240,13
4745856,13
4746488,16
4747112,18
4747740,20
4748372,22
4748992,24
4749624,32
4750248,48
4750872,52
4751504,57
4752120,60
4752752,39
4753376,25
4754000,14
4754628,15
4755248,15
4755876,17
4756508,30
4757128,28
4757756,38
4758384,30
4759016,16
4759648,13
4760264,12
4760896,22
4761520,23
4762144,16
4762776,14
4763392,12
4764024,15
4764648,19
4765272,27
4765904,29
4766520,32
4767152,34
4767784,46
4768400,66
4769032,57
4769656,33
4770284,13
4770916,14
4771536,15
4772168,20
4772792,29
4773416,33
4774048,45
4774664,46
4775296,35
4775920,19
4776544,16
4777176,28
4777800,30
4778428,20
4779060,14
4779680,13
4780312,23
4780936,29
4781568,36
4782200,34
4782816,50
4783448,60
4784072,66
4784696,64
4785328,61
4785944,40
4786576,18
4787208,14
4787824,17
4788456,16
4789080,21
4789712,29
4790344,39
4790964,31
4791596,36
4792220,42
4792848,27
4793476,11
4794096,17
4794728,15
4795352,28
4795976,27
4796608,14
4797228,11
4797860,16
4798492,23
4799112,31
4799744,45
4800372,55
4801000,51
4801628,48
4802248,53
4802876,61
4803500,46
4804124,24
4804756,14
4805376,16
4806004,37
4806632,41
4807256,39
4807884,39
4808504,40
4809132,41
4809764,44
4810384,35
4811016,25
4811640,15
4812268,15
4812900,13
4813520,13
4814148,13
4814772,19
4815396,30
4816024,33
4816648,30
4817276,38
4817900,55
4818524,72
4819156,65
4819780,52
4820412,37
4821040,17
4821664,13
4822296,18
4822920,30
4823548,28
4824180,32
4824800,47
4825428,29
4826056,27
4826680,34
4827308,30
4827928,19
4828560,17
4829184,14
4829808,15
4830436,16
4831064,13
4831696,15
4832324,20
4832944,21
4833576,35
4834200,53
4834824,73
4835452,64
4836072,40
4836700,29
4837328,19
4837952,14
4838580,13
4839200,37
4839828,57
4840460,46
4841080,36
4841708,41
4842332,36
4842964,30
4843596,22
4844216,26
4844844,17
4845468,18
4846092,27
4846724,30
4847344,27
4847976,19
4848600,27
4849224,26
4849852,27
4850472,54
4851104,69
4851736,58
4852352,26
4852984,21
4853608,34
4854240,21
4854868,13
4855488,13
4856120,21
4856744,27
4857368,28
4858000,28
4858616,36
4859248,42
4859872,37
4860496,30
4861128,20
4861744,16
4862376,15
4863008,13
4863628,11
4864260,16
4864884,20
4865512,23
4866140,26
4866760,28
4867388,36
4868012,48
4868636,41
4869268,16
4869888,14
4870516,26
4871144,46
4871768,21
4872396,18
4873016,28
4873648,14
4874276,14
4874896,33
4875524,21
4876148,24
4876780,30
4877412,42
4878032,21
4878664,19
4879288,13
4879912,12
4880544,20
4881160,35
4881792,28
4882416,24
4883040,19
4883672,35
4884296,57
4884924,65
4885556,60
4886176,49
4886808,25
4887432,17
4888060,47
4888692,48
4889312,31
4889944,18
4890568,21
4891192,35
4891824,35
4892440,34
4893072,41
4893704,35
4894320,13
4894952,29
4895576,36
4896208,27
4896836,26
4897456,31
4898084,32
4898712,32
4899336,33
4899968,34
4900584,42
4901216,59
4901840,55
4902464,41
4903092,23
4903712,14
4904344,13
4904972,16
4905592,28
4906224,39
4906848,46
4907480,38
4908112,28
4908732,28
4909364,27
4909988,24
4910612,33
4911244,28
4911864,13
4912496,16
4913124,18
4913748,24
4914380,24
4915004,15
4915636,25
4916264,39
4916880,60
4917512,74
4918136,73
4918764,63
4919392,44
4920016,21
4920644,14
4921268,22
4921892,38
4922520,41
4923140,37
4923768,37
4924392,41
4925016,39
4925644,34
4926264,43
4926892,39
4927524,14
4928144,23
4928772,31
4929396,41
4930024,27
4930656,18
4931272,15
4931900,20
4932524,23
4933148,23
4933780,36
4934400,43
4935028,51
4935652,45
4936280,25
4936908,14
4937528,14
4938156,13
4938788,14
4939408,24
4940036,35
4940664,36
4941292,35
4941924,27
4942544,17
4943172,10
4943800,13
4944424,17
4945052,19
4945672,20
4946300,15
4946928,10
4947552,15
4948180,25
4948804,33
4949432,25
4950064,31
4950684,49
4951312,55
4951940,53
4952572,29
4953200,21
4953820,21
4954448,17
4955076,11
4955700,25
4956332,35
4956952,45
4957580,54
4958208,44
4958832,32
4959464,29
4960088,17
4960716,15
4961344,13
4961968,18
4962596,33
4963220,33
4963844,22
4964476,12
4965096,14
4965728,19
4966352,33
4966976,51
4967604,53
4968224,64
4968852,56
4969484,30
4970104,14
4970732,13
4971356,14
4971988,19
4972620,27
4973240,37
4973868,37
4974496,32
4975120,33
4975748,39
4976368,39
4976996,29
4977620,24
4978244,13
4978876,20
4979496,18
4980124,13
4980756,20
4981376,25
4982008,25
4982632,26
4983260,31
4983892,56
4984512,69
4985144,59
4985768,47
4986392,28
4987024,15
4987640,14
4988272,12
4988896,28
4989520,40
4990152,26
4990768,11
4991400,12
4992032,23
4992648,33
4993276,27
4993900,19
4994532,21
4995164,20
4995784,24
4996416,15
4997040,11
4997664,11
4998292,26
4998912,60
4999540,55
5000164,53
5000788,51
5001420,60
5002040,61
5002668,29
5003300,15
5003920,17
5004552,29
5005176,31
5005804,29
5006436,44
5007056,57
5007688,48
5008312,16
5008936,11
5009564,10
5010184,11
5010816,13
5011440,13
5012064,14
5012696,14
5013320,30
5013952,30
5014580,32
5015200,34
5015832,33
5016456,33
5017088,42
5017716,48
5018336,38
5018964,14
5019588,14
5020212,17
5020844,19
5021464,14
5022092,14
5022720,32
5023344,28
5023976,15
5024600,11
5025228,12
5025860,25
5026480,19
5027112,13
5027736,16
5028360,19
5028992,17
5029608,23
5030236,22
5030864,17
5031488,19
5032120,34
5032736,46
5033368,45
5034000,43
5034616,51
5035248,40
5035872,24
5036504,17
5037136,16
5037752,13
5038388,14
5039012,22
5039636,32
5040268,38
5040888,34
5041516,35
5042144,31
5042768,38
5043400,31
5044016,21
5044644,20
5045276,36
5045896,20
5046528,31
5047152,52
5047784,32
5048412,16
5049032,20
5049664,28
5050288,44
5050912,38
5051544,46
5052160,63
5052792,46
5053416,29
5054044,21
5054676,13
5055300,13
5055932,29
5056568,36
5057184,27
5057816,20
5058440,23
5059072,31
5059700,26
5060320,25
5060952,25
5061576,15
5062200,16
5062832,17
5063448,17
5064080,11
5064708,10
5065328,15
5065960,28
5066584,42
5067216,61
5067844,66
5068464,56
5069096,31
5069724,19
5070348,14
5070976,13
5071600,10
5072232,21
5072856,37
5073480,35
5074112,35
5074732,37
5075360,31
5075992,30
5076612,24
5077244,20
5077868,23
5078500,25
5079132,19
5079752,17
5080384,25
5081008,30
5081632,30
5082260,36
5082880,51
5083508,49
5084136,60
5084760,72
5085392,74
5086012,40
5086640,20
5087272,13
5087896,16
5088528,20
5089156,34
5089784,47
5090416,46
5091036,39
5091668,36
5092292,35
5092920,31
5093548,23
5094168,16
5094800,13
5095432,13
5096052,13
5096680,13
5097308,25
5097936,30
5098568,34
5099192,26
5099824,19
5100448,24
5101072,34
5101704,43
5102324,35
5102956,13
5103580,14
5104208,19
5104836,12
5105456,10
5106088,12
5106720,17
5107340,18
5107972,21
5108596,17
5109228,21
5109860,34
5110480,31
5111112,15
5111736,17
5112364,18
5112996,26
5113616,22
5114248,15
5114872,15
5115500,33
5116132,37
5116760,42
5117392,47
5118024,40
5118644,22
5119276,14
5119904,16
5120532,29
5121160,21
5121784,12
5122412,33
5123032,23
5123656,19
5124284,34
5124904,45
5125532,13
5126160,12
5126776,19
5127408,17
5128028,14
5128660,15
5129288,15
5129904,17
5130532,11
5131156,12
5131784,20
5132412,20
5133032,15
5133660,38
5134284,62
5134908,62
5135536,46
5136160,24
5136788,14
5137416,14
5138040,22
5138668,16
5139292,19
5139924,18
5140552,19
5141168,23
5141800,20
5142420,19
5143044,27
5143676,33
5144296,33
5144924,25
5145548,26
5146176,32
5146804,10
5147424,22
5148052,31
5148684,26
5149304,26
5149932,24
5150556,25
5151188,37
5151820,58
5152440,62
5153068,59
5153692,50
5154316,28
5154948,10
5155568,15
5156196,16
5156824,27
5157444,29
5158076,34
5158696,36
5159324,24
5159956,19
5160576,16
5161204,18
5161828,17
5162460,16
5163088,14
5163704,22
5164336,34
5164960,44
5165584,33
5166212,34
5166832,44
5167460,33
5168084,28
5168708,31
5169340,28
5169960,19
5170588,22
5171220,18
5171840,15
5172468,35
5173092,53
5173720,58
5174352,51
5174972,41
5175600,18
5176224,17
5176848,19
5177476,13
5178096,14
5178724,16
5179348,15
5179972,14
5180604,12
5181224,11
5181856,11
5182484,10
5183104,11
5183736,35
5184360,53
5184988,69
5185620,69
5186240,47
5186868,14
5187492,14
5188116,12
5188748,20
5189368,30
5189996,20
5190624,11
5191248,10
5191876,10
5192496,24
5193124,31
5193756,38
5194376,40
5195008,31
5195632,19
5196264,13
5196892,12
5197512,17
5198144,17
5198768,38
5199392,58
5200020,40
5200640,40
5201268,59
5201892,67
5202516,50
5203148,20
5203768,15
5204396,13
5205028,12
5205648,14
5206276,14
5206900,19
5207532,28
5208164,27
5208784,24
5209416,26
5210040,22
5210664,19
5211292,19
5211912,17
5212544,16
5213168,14
5213792,11
5214420,15
5215048,21
5215676,30
5216308,27
5216928,28
5217556,37
5218184,42
5218812,40
5219444,34
5220064,23
5220692,14
5221320,15
5221944,25
5222576,43
5223192,41
5223820,27
5224444,20
5225072,17
5225700,16
5226324,12
5226956,13
5227584,14
5228208,14
5228836,13
5229460,13
5230088,17
5230716,27
5231336,28
5231968,19
5232592,23
5233216,27
5233848,32
5234464,36
5235096,31
5235728,15
5236344,14
5236976,26
5237600,17
5238228,44
5238860,25
5239480,16
5240112,28
5240736,39
5241360,40
5241992,54
5242608,51
5243240,38
5243864,19
5244484,13
5245116,16
5245736,27
5246364,36
5246996,42
5247616,41
5248244,44
5248868,40
5249496,32
5250124,27
5250744,35
5251372,38
5251996,20
5252616,24
5253248,23
5253864,19
5254492,18
5255116,11
5255740,37
5256368,31
5256984,10
5257616,14
5258236,18
5258864,29
5259492,29
5260116,28
5260748,30
5261376,16
5262000,15
5262628,13
5263252,11
5263880,12
5264508,14
5265128,22
5265756,20
5266380,21
5267004,21
5267632,24
5268256,33
5268884,40
5269512,34
5270136,33
5270764,33
5271388,24
5272020,10
5272648,30
5273272,42
5273904,32
5274524,24
5275148,21
5275780,17
5276400,24
5277028,22
5277652,19
5278276,21
5278908,14
5279528,19
5280156,27
5280788,32
5281408,21
5282036,10
5282660,11
5283288,35
5283916,52
5284536,45
5285164,45
5285788,38
5286408,36
5287036,36
5287656,26
5288284,11
5288908,11
5289532,14
5290160,29
5290776,25
5291408,29
5292036,30
5292656,36
5293284,46
5293908,55
5294540,55
5295168,34
5295788,14
5296416,25
5297040,42
5297668,24
5298300,22
5298920,37
5299548,40
5300172,46
5300796,58
5301428,64
5302048,57
5302676,39
5303308,22
5303928,14
5304560,27
5305180,32
5305812,31
5306440,34
5307064,45
5307692,35
5308316,30
5308940,29
5309572,30
5310192,24
5310824,17
5311448,14
5312072,17
5312700,18
5313320,19
5313948,12
5314580,34
5315200,53
5315828,40
5316452,24
5317084,25
5317712,22
5318336,31
5318968,37
5319592,39
5320216,40
5320844,27
5321464,12
5322092,14
5322720,17
5323344,17
5323972,25
5324592,36
5325224,41
5325852,26
5326472,15
5327100,24
5327724,31
5328352,26
5328980,20
5329600,15
5330228,10
5330852,13
5331472,20
5332104,14
5332720,11
5333348,12
5333972,23
5334596,49
5335228,65
5335848,62
5336476,46
5337104,26
5337728,19
5338356,12
5338980,18
5339608,25
5340240,13
5340856,10
5341484,12
5342108,15
5342732,17
5343360,23
5343984,28
5344616,32
5345240,14
5345864,15
5346492,10
5347112,13
5347740,23
5348372,28
5348992,12
5349620,19
5350244,65
5350876,82
5351504,64
5352128,48
5352756,27
5353380,16
5354004,14
5354636,14
5355256,12
5355884,17
5356508,28
5357132,36
5357764,40
5358384,31
5359016,20
5359644,17
5360264,21
5360892,17
5361516,13
5362148,20
5362776,21
5363396,13
5364024,10
5364648,11
5365272,11
5365900,15
5366520,22
5367148,13
5367772,32
5368396,41
5369028,46
5369648,45
5370276,43
5370908,32
5371528,16
5372156,11
5372784,19
5373412,29
5374044,27
5374664,35
5375296,34
5375920,16
5376544,13
5377172,16
5377792,17
5378420,26
5379044,23
5379668,12
5380296,10
5380912,14
5381544,17
5382172,32
5382792,53
5383420,65
5384044,67
5384676,66
5385304,71
5385920,55
5386552,33
5387176,23
5387800,13
5388428,20
5389048,27
5389676,37
5390300,33
5390924,30
5391556,29
5392176,37
5392804,24
5393436,21
5394056,22
5394684,17
5395308,14
5395940,15
5396572,19
5397192,17
5397820,13
5398444,15
5399068,18
5399700,20
5400320,30
5400948,41
5401572,35
5402200,24
5402828,12
5403448,14
5404076,13
5404708,14
5405328,17
5405960,17
5406584,21
5407212,38
5407844,32
5408464,30
5409092,23
5409716,17
5410340,13
5410968,20
5411592,30
5412220,31
5412844,27
5413468,33
5414100,39
5414724,41
5415352,23
5415984,10
5416600,13
5417228,27
5417852,46
5418484,45
5419112,28
5419736,15
5420364,14
5420988,14
5421612,10
5422244,15
5422864,26
5423492,32
5424120,33
5424744,39
5425372,31
5425996,24
5426628,21
5427260,18
5427880,17
5428508,16
5429132,14
5429760,25
5430388,28
5431008,23
5431636,21
5432264,14
5432888,15
5433516,34
5434136,54
5434768,57
5435396,32
5436016,13
5436644,17
5437272,13
5437900,40
5438532,46
5439152,19
5439784,21
5440408,33
5441032,30
5441660,30
5442280,29
5442908,41
5443532,42
5444156,32
5444784,17
5445404,13
5446032,15
5446660,22
5447280,30
5447908,27
5448532,31
5449164,26
5449792,21
5450408,28
5451036,32
5451660,40
5452292,27
5452920,26
5453544,27
5454172,17
5454796,11
5455420,20
5456048,32
5456672,36
5457300,40
5457928,45
5458552,27
5459180,11
5459804,11
5460436,13
5461064,14
5461688,14
5462316,14
5462944,22
5463568,31
5464196,28
5464816,27
5465444,29
5466068,27
5466692,32
5467324,48
5467944,45
5468576,30
5469204,12
5469824,22
5470452,21
5471076,17
5471708,26
5472340,32
5472960,40
5473588,39
5474212,22
5474836,10
5475468,13
5476088,12
5476716,10
5477344,13
5477968,15
5478600,22
5479216,17
5479844,19
5480476,33
5481096,32
5481724,31
5482348,32
5482980,28
5483608,63
5484232,64
5484860,57
5485484,52
5486108,42
5486740,23
5487360,14
5487988,17
5488616,28
5489240,26
5489868,35
5490488,48
5491116,50
5491748,20
5492368,11
5492996,17
5493620,21
5494252,29
5494884,27
5495504,19
5496136,15
5496760,12
5497384,13
5498012,10
5498632,13
5499264,29
5499888,40
5500512,53
5501140,64
5501768,65
5502396,47
5503028,42
5503648,31
5504280,20
5504904,10
5505536,20
5506164,44
5506784,40
5507412,35
5508040,37
5508664,39
5509292,38
5509912,37
5510544,31
5511168,28
5511792,32
5512424,29
5513048,12
5513676,19
5514308,27
5514928,36
5515560,41
5516184,40
5516808,55
5517436,79
5518056,86
5518688,59
5519312,27
5519936,17
5520568,14
5521192,17
5521824,24
5522452,23
5523072,24
5523704,20
5524328,21
5524960,30
5525588,27
5526208,29
5526840,24
5527464,17
5528088,14
5528720,15
5529336,14
5529968,19
5530592,18
5531212,12
5531844,15
5532464,26
5533092,40
5533724,58
5534344,68
5534976,65
5535600,46
5536228,29
5536860,14
5537480,21
5538108,12
5538732,10
5539356,11
5539988,12
5540608,21
5541236,21
5541864,28
5542488,46
5543116,44
5543736,36
5544368,29
5544996,18
5545616,14
5546244,13
5546868,21
5547500,21
5548132,12
5548752,11
5549384,14
5550008,47
5550632,61
5551264,74
5551880,65
5552512,37
5553136,17
5553760,15
5554392,14
5555016,11
5555648,13
5556276,19
5556896,32
5557524,41
5558152,48
5558780,45
5559412,36
5560032,29
5560664,28
5561288,20
5561912,13
5562544,18
5563160,23
5563792,31
5564424,32
5565040,30
5565672,37
5566296,41
5566928,38
5567560,42
5568180,48
5568808,34
5569432,21
5570056,22
5570688,13
5571304,12
5571932,12
5572556,18
5573184,41
5573812,55
5574432,49
5575060,22
5575692,14
5576312,23
5576944,29
5577568,22
5578200,14
5578828,16
5579448,25
5580080,40
5580704,37
5581328,19
5581956,15
5582576,17
5583204,20
5583828,38
5584456,54
5585084,54
5585704,27
5586332,15
5586964,21
5587584,32
5588216,40
5588840,22
5589468,13
5590100,32
5590720,32
5591352,29
5591976,37
5592600,27
5593232,22
5593848,18
5594480,16
5595104,21
5595728,22
5596360,11
5596976,17
5597608,13
5598236,12
5598856,18
5599488,22
5600112,30
5600740,36
5601372,35
5601992,48
5602620,44
5603244,40
5603868,22
5604500,13
5605120,10
5605748,23
5606376,45
5607000,49
5607628,35
5608248,22
5608876,23
5609508,34
5610128,28
5610760,12
5611384,13
5612012,14
5612644,16
5613264,18
5613892,19
5614520,21
5615144,17
5615772,16
5616392,17
5617020,27
5617644,41
5618268,51
5618900,46
5619524,42
5620156,41
5620784,31
5621408,15
5622040,11
5622664,14
5623292,16
5623924,14
5624544,19
5625172,21
5625800,29
5626424,28
5627052,22
5627672,21
5628304,21
5628932,20
5629552,24
5630184,17
5630808,13
5631440,15
5632072,25
5632688,33
5633316,36
5633940,35
5634564,36
5635196,27
5635816,28
5636444,35
5637068,31
5637692,25
5638324,10
5638944,20
5639572,38
5640204,42
5640824,28
5641452,17
5642076,23
5642708,33
5643336,20
5643960,15
5644588,18
5645216,17
5645836,16
5646468,13
5647088,15
5647716,12
5648344,13
5648964,16
5649596,19
5650216,31
5650848,48
5651476,55
5652096,43
5652724,25
5653348,15
5653980,14
5654608,10
5655232,15
5655860,17
5656484,29
5657108,31
5657740,29
5658360,22
5658988,21
5659612,28
5660236,21
5660868,22
5661488,21
5662116,15
5662748,14
5663368,12
5663996,11
5664624,39
5665252,56
5665884,53
5666504,53
5667132,52
5667760,49
5668384,44
5669012,23
5669632,20
5670260,13
5670888,13
5671512,10
5672140,10
5672760,23
5673392,32
5674020,30
5674640,27
5675268,18
5675896,15
5676524,21
5677156,30
5677776,22
5678408,13
5679032,16
5679656,24
5680288,25
5680904,14
5681532,9
5682108,12
5682736,24
5683368,27
5683984,37
5684612,44
5685240,33
5685860,21
5686492,23
5687116,25
5687748,22
5688376,12
5689000,11
5689628,20
5690252,33
5690884,19
5691512,14
5692136,31
5692768,25
5693392,11
5694016,15
5694648,18
5695268,13
5695896,15
5696528,10
5697144,14
5697772,15
5698396,17
5699028,21
5699660,17
5700280,27
5700908,44
5701536,59
5702160,55
5702792,33
5703408,19
5704040,16
5704660,13
5705288,20
5705916,30
5706536,42
5707168,41
5707800,41
5708420,38
5709048,34
5709672,29
5710304,19
5710936,16
5711556,27
5712184,27
5712812,20
5713436,20
5714068,14
5714688,12
5715320,19
5715944,20
5716568,18
5717200,22
5717816,59
5718448,72
5719076,28
5719696,16
5720328,13
5720952,22
5721584,19
5722216,18
5722832,28
5723464,23
5724092,25
5724716,24
5725348,12
5725968,12
5726600,16
5727224,25
5727848,19
5728480,14
5729104,16
5729736,15
5730368,12
5730988,12
5731616,17
5732244,18
5732872,18
5733504,25
5734124,41
5734756,55
5735380,52
5736004,37
5736632,25
5737248,15
5737880,11
5738508,18
5739128,29
5739756,36
5740384,34
5741012,29
5741644,26
5742264,18
5742892,17
5743516,15
5744144,31
5744772,25
5745392,17
5746020,33
5746644,37
5747268,35
5747900,30
5748520,21
5749148,17
5749780,26
5750400,39
5751028,49
5751656,56
5752288,43
5752916,24
5753536,15
5754168,21
5754792,18
5755416,22
5756048,31
5756664,43
5757296,50
5757920,39
5758544,25
5759176,18
5759796,21
5760428,26
5761056,24
5761672,23
5762300,14
5762924,23
5763552,16
5764184,13
5764800,27
5765428,37
5766052,42
5766676,44
5767304,50
5767928,57
5768556,49
5769180,33
5769804,23
5770436,22
5771056,15
5771684,17
5772316,26
5772936,33
5773564,36
5774188,27
5774820,12
5775448,10
5776068,14
5776696,20
5777320,28
5777940,23
5778572,16
5779192,15
5779824,19
5780448,18
5781072,16
5781700,10
5782320,11
5782948,27
5783580,78
5784200,76
5784832,44
5785452,18
5786084,13
5786716,19
5787336,22
5787964,16
5788588,15
5789212,21
5789844,22
5790464,21
5791092,13
5791720,11
5792344,15
5792972,16
5793592,15
5794220,13
5794852,15
5795472,13
5796104,14
5796724,11
5797356,10
5797988,24
5798608,41
5799236,33
5799860,21
5800484,24
5801116,34
5801736,37
5802364,28
5802988,19
5803616,14
5804244,14
5804868,13
5805500,15
5806128,11
5806752,20
5807380,30
5808008,33
5808636,37
5809268,42
5809888,41
5810520,40
5811144,40
5811768,31
5812400,14
5813016,20
5813648,23
5814280,20
5814896,16
5815528,20
5816152,38
5816784,67
5817412,81
5818032,94
5818660,73
5819288,37
5819912,45
5820540,48
5821160,26
5821792,14
5822416,33
5823040,40
5823668,38
5824288,45
5824920,44
5825548,26
5826168,24
5826796,16
5827420,17
5828052,16
5828684,13
5829304,14
5829932,11
5830560,10
5831184,11
5831812,15
5832432,19
5833064,32
5833688,47
5834312,40
5834944,31
5835560,15
5836192,17
5836824,22
5837440,14
5838068,12
5838692,12
5839324,10
5839956,11
5840576,12
5841204,15
5841828,14
5842452,13
5843084,16
5843704,30
5844332,21
5844956,25
5845584,21
5846212,21
5846832,31
5847464,13
5848092,11
5848712,13
5849344,11
5849968,41
5850596,63
5851228,66
5851848,58
5852480,44
5853104,36
5853728,43
5854360,29
5854976,11
5855608,24
5856232,25
5856856,16
5857484,15
5858104,26
5858732,23
5859364,22
5859984,25
5860616,29
5861240,23
5861868,14
5862500,16
5863120,15
5863748,12
5864376,11
5865000,11
5865628,12
5866248,11
5866876,19
5867504,33
5868128,40
5868760,39
5869384,45
5870016,35
5870644,19
5871264,11
5871896,15
5872520,22
5873152,29
5873780,28
5874400,32
5875032,35
5875656,23
5876284,15
5876912,14
5877536,13
5878168,15
5878800,14
5879416,17
5880048,11
5880672,17
5881304,27
5881932,40
5882552,52
5883184,57
5883808,65
5884432,62
5885064,50
5885684,23
5886316,13
5886940,15
5887568,21
5888200,31
5888816,44
5889444,46
5890076,45
5890696,32
5891324,21
5891952,11
5892580,10
5893212,10
5893832,17
5894464,15
5895088,15
5895712,17
5896340,47
5896960,42
5897588,28
5898216,28
5898840,36
5899472,38
5900088,37
5900720,29
5901352,29
5901968,22
5902596,14
5903224,13
5903852,13
5904484,12
5905104,10
5905732,17
5906360,25
5906984,26
5907612,40
5908232,61
5908864,49
5909484,32
5910112,37
5910740,41
5911364,27
5911996,27
5912628,16
5913248,21
5913880,46
5914504,73
5915136,43
5915764,26
5916384,31
5917016,35
5917640,47
5918264,57
5918896,59
5919512,60
5920144,47
5920772,34
5921392,15
5922020,19
5922644,53
5923276,70
5923904,47
5924528,21
5925156,12
5925780,13
5926408,24
5927036,34
5927656,26
5928288,13
5928912,22
5929536,28
5930168,31
5930784,20
5931416,25
5932048,35
5932664,41
5933296,46
5933920,43
5934552,51
5935184,37
5935800,26
5936432,18
5937056,15
5937680,20
5938312,11
5938928,25
5939560,37
5940184,45
5940804,47
5941436,32
5942056,20
5942684,17
5943316,29
5943936,32
5944568,17
5945192,18
5945820,21
5946452,25
5947072,28
5947704,15
5948328,12
5948952,26
5949580,39
5950200,47
5950832,55
5951456,52
5952080,41
5952708,38
5953328,22
5953956,13
5954588,18
5955208,34
5955836,46
5956460,49
5957092,33
5957724,18
5958344,16
5958976,18
5959600,14
5960224,13
5960852,12
5961472,13
5962104,13
5962728,17
5963352,45
5963984,43
5964600,30
5965232,18
5965860,15
5966480,31
5967108,39
5967736,41
5968364,40
5968996,30
5969616,16
5970244,13
5970872,15
5971496,17
5972128,22
5972744,25
5973376,26
5974000,37
5974624,39
5975256,18
5975880,10
5976512,11
5977144,13
5977760,12
5978392,15
5979016,14
5979648,20
5980280,21
5980896,22
5981524,17
5982148,14
5982776,15
5983404,19
5984024,35
5984652,46
5985276,44
5985904,42
5986536,37
5987160,25
5987792,12
5988424,19
5989040,38
5989672,39
5990296,26
5990924,15
5991552,10
5992176,18
5992804,33
5993432,34
5994056,32
5994684,29
5995304,19
5995936,14
5996564,10
5997184,11
5997816,24
5998440,35
5999072,16
5999700,13
6000320,35
6000952,57
6001576,62
6002200,55
6002832,45
6003448,36
6004080,22
6004704,11
6005328,10
6005960,15
6006576,21
6007204,17
6007836,23
6008456,38
6009088,40
6009712,24
6010340,18
6010972,19
6011592,22
6012224,19
6012848,12
6013472,11
6014104,21
6014720,23
6015352,17
6015976,20
6016604,31
6017236,42
6017860,50
6018492,38
6019120,32
6019744,41
6020376,48
6021000,33
6021632,14
6022260,16
6022880,45
6023508,51
6024136,54
6024760,57
6025388,65
6026008,67
6026640,49
6027264,24
6027888,14
6028520,24
6029144,33
6029776,39
6030404,47
6031024,58
6031656,45
6032280,29
6032904,32
6033536,48
6034152,54
6034784,56
6035412,36
6036036,22
6036668,16
6037288,14
6037920,15
6038548,25
6039168,34
6039800,45
6040428,44
6041056,41
6041688,33
6042312,26
6042940,20
6043568,16
6044192,14
6044820,14
6045440,15
6046068,13
6046696,14
6047320,17
6047952,21
6048572,30
6049200,41
6049832,51
6050452,67
6051080,79
6051708,49
6052340,16
6052968,17
6053592,17
6054224,16
6054848,15
6055472,46
6056104,63
6056728,56
6057360,65
6057988,36
6058608,11
6059240,18
6059864,13
6060496,14
6061128,13
6061744,13
6062376,13
6063004,14
6063628,11
6064260,20
6064880,45
6065508,45
6066136,50
6066760,65
6067392,65
6068008,63
6068636,48
6069268,33
6069888,23
6070520,16
6071144,15
6071776,41
6072408,59
6073024,57
6073656,49
6074280,43
6074904,39
6075536,34
6076152,29
6076788,23
6077412,20
6078040,16
6078668,16
6079288,25
6079920,38
6080556,38
6081176,43
6081808,49
6082432,56
6083060,69
6083692,71
6084312,71
6084944,57
6085568,35
6086192,20
6086824,13
6087440,15
6088072,23
6088696,41
6089320,56
6089948,51
6090576,48
6091204,41
6091836,36
6092456,37
6093088,25
6093712,13
6094344,15
6094972,17
6095592,15
6096224,16
6096848,22
6097472,27
6098104,27
6098720,40
6099352,45
6099980,57
6100600,64
6101232,63
6101856,50
6102488,29
6103120,20
6103736,15
6104368,15
6104992,21
6105616,32
6106244,35
6106864,25
6107496,20
6108120,22
6108744,27
6109376,31
6109996,29
6110628,26
6111260,22
6111880,21
6112512,14
6113140,18
6113772,23
6114400,26
6115020,28
6115652,23
6116276,29
6116904,49
6117536,59
6118156,48
6118788,33
6119412,27
6120036,16
6120668,13
6121292,17
6121924,30
6122556,39
6123176,38
6123808,31
6124436,25
6125064,22
6125696,21
6126316,28
6126948,31
6127572,26
6128196,19
6128828,14
6129448,30
6130080,39
6130712,32
6131332,21
6131964,16
6132588,25
6133220,43
6133852,54
6134472,67
6135104,64
6135728,41
6136356,30
6136988,28
6137608,19
6138240,11
6138864,20
6139492,46
6140124,49
6140752,25
6141384,19
6142016,36
6142636,53
6143272,50
6143896,33
6144524,19
6145152,15
6145776,16
6146404,19
6147028,23
6147652,19
6148280,22
6148900,40
6149528,52
6150156,62
6150776,73
6151404,69
6152032,47
6152660,35
6153288,26
6153912,14
6154544,21
6155168,36
6155792,46
6156424,48
6157040,47
6157668,47
6158292,41
6158916,35
6159548,33
6160168,22
6160796,16
6161428,14
6162048,25
6162676,18
6163300,27
6163932,27
6164564,20
6165184,17
6165812,31
6166436,59
6167060,59
6167692,49
6168312,57
6168944,56
6169568,38
6170192,16
6170820,16
6171440,20
6172068,32
6172700,36
6173320,37
6173952,41
6174576,33
6175208,28
6175836,24
6176456,32
6177084,28
6177708,15
6178336,14
6178964,14
6179584,17
6180216,26
6180840,23
6181464,24
6182092,26
6182712,35
6183344,47
6183972,50
6184592,47
6185224,34
6185848,19
6186476,13
6187108,14
6187728,12
6188356,11
6188984,11
6189608,27
6190236,38
6190856,42
6191488,43
6192112,43
6192736,41
6193368,36
6193992,27
6194624,24
6195252,26
6195872,15
6196500,38
6197128,40
6197756,36
6198388,46
6199008,54
6199640,49
6200264,49
6200888,59
6201516,64
6202136,47
6202768,27
6203400,14
6204016,13
6204648,14
6205272,24
6205904,29
6206536,44
6207152,47
6207784,32
6208408,14
6209032,18
6209660,24
6210280,23
6210912,14
6211536,14
6212160,16
6212788,23
6213408,20
6214040,17
6214672,18
6215288,22
6215920,18
6216544,17
6217176,31
6217804,40
6218424,41
6219056,45
6219680,36
6220304,23
6220936,14
6221552,16
6222184,24
6222808,28
6223432,24
6224064,18
6224680,22
6225312,35
6225940,35
6226560,23
6227188,16
6227816,14
6228444,15
6229076,16
6229696,18
6230328,14
6230952,23
6231576,29
6232208,17
6232824,10
6233456,26
6234080,40
6234704,49
6235336,53
6235956,41
6236588,20
6237216,17
6237840,11
6238472,18
6239096,39
6239728,48
6240360,40
6240976,38
6241604,35
6242228,26
6242856,13
6243484,12
6244104,14
6244732,23
6245360,21
6245984,13
6246616,21
6247240,20
6247868,16
6248496,15
6249120,19
6249748,44
6250372,45
6251004,46
6251632,53
6252256,57
6252884,55
6253508,42
6254132,33
6254764,12
6255384,11
6256016,27
6256640,39
6257264,41
6257892,32
6258520,35
6259148,52
6259780,38
6260400,16
6261028,14
6261656,15
6262280,13
6262912,10
