tempo_arduino_micro_s,valor_ADC
500,15
1004,17
1504,24
2000,22
2508,15
3000,14
3508,14
4000,12
4508,11
5000,11
5500,22
6000,28
6500,32
7000,19
7500,16
8000,27
8500,19
9000,12
9500,16
10000,18
10508,14
11028,25
11556,22
12076,13
12604,25
13124,11
13648,29
14172,45
14700,51
15220,30
15748,10
16268,17
16796,30
17316,23
17836,16
18356,14
18876,18
19396,22
19916,18
20436,16
20956,10
21476,10
21996,11
22516,13
23036,11
23564,11
24084,10
24612,10
25132,15
25660,16
26180,21
26708,25
27228,29
27756,24
28276,12
28804,13
29324,10
29852,12
30372,13
30900,17
31420,34
31948,57
32472,67
32996,78
33516,72
34044,47
34564,30
35092,18
35612,14
36140,12
36660,18
37188,14
37708,12
38236,32
38760,37
39284,22
39804,25
40332,27
40852,16
41372,10
41892,12
42412,18
42932,29
43452,23
43972,17
44492,12
45012,13
45532,16
46052,16
46572,12
47092,21
47612,30
48140,25
48660,29
49188,36
49708,47
50236,45
50756,37
51284,35
51804,26
52332,15
52852,11
53380,20
53900,18
54428,10
54948,24
55476,35
55996,36
56524,35
57044,48
57572,69
58096,41
58620,14
59140,13
59668,18
60188,14
60716,18
61240,28
61764,31
62284,25
62812,18
63332,14
63860,15
64384,14
64908,16
65428,20
65948,32
66468,45
66988,33
67508,23
68028,25
68548,27
69068,31
69588,25
70108,9
70572,18
71100,28
71620,32
72144,30
72660,30
73180,39
73704,34
74220,25
74744,20
75260,16
75788,14
76312,13
76836,13
77356,14
77884,11
78404,10
78932,11
79452,12
79980,11
80504,10
81028,28
81548,48
82076,46
82596,47
83124,56
83644,66
84172,51
84692,33
85220,22
85740,22
86268,22
86788,11
87316,22
87836,55
88364,75
88884,76
89412,54
89936,29
90460,14
90980,19
91508,16
92032,17
92556,19
93076,28
93596,27
94116,21
94636,21
95160,19
95680,21
96196,17
96716,10
97236,10
97756,15
98276,33
98796,37
99320,34
99836,44
100364,34
100928,22
101512,17
102084,14
102664,15
103232,20
103808,15
104376,31
104944,51
105520,37
106088,22
106672,11
107240,15
107816,16
108384,13
108968,14
109536,13
110104,14
110688,14
111256,11
111840,12
112408,15
112992,12
113560,11
114128,11
114712,12
115280,22
115864,30
116432,25
117016,29
117584,37
118168,53
118736,46
119312,21
119896,27
120468,35
121048,29
121616,21
122200,9
122720,17
123296,28
123864,27
124440,27
125024,15
125592,15
126176,21
126744,17
127328,34
127900,18
128476,12
129056,21
129624,12
130200,11
130768,12
131344,12
131912,14
132496,32
133064,49
133640,43
134224,37
134792,24
135376,18
135944,38
136528,33
137096,23
137680,13
138256,32
138824,39
139408,36
139976,22
140560,48
141128,71
141712,46
142280,31
142856,14
143440,17
144008,14
144592,17
145160,51
145744,48
146312,40
146896,48
147472,62
148040,57
148624,46
149192,44
149776,39
150344,30
150928,26
151500,17
152076,14
152656,15
153228,10
153808,13
154376,30
154960,43
155528,38
156112,25
156688,20
157260,14
157840,11
158412,16
158992,21
159564,27
160144,17
160712,15
161280,16
161864,11
162432,19
163016,28
163588,15
164168,31
164736,15
165312,77
165880,93
166456,76
167040,51
167608,37
168184,26
168752,15
169328,26
169896,27
170464,31
171040,25
171608,13
172192,10
172760,10
173344,10
173912,13
174496,17
175064,20
175632,23
176216,26
176784,27
177368,17
177936,10
178520,14
179088,22
179668,31
180248,14
180816,26
181400,44
181968,47
182552,50
183120,71
183704,57
184276,45
184852,39
185432,26
186004,22
186584,13
187152,10
187736,19
188304,28
188880,36
189464,42
190032,42
190616,30
191188,25
191768,24
192340,22
192920,16
193488,14
194064,16
194648,27
195216,32
195800,25
196368,19
196952,21
197524,26
198096,23
198680,27
199248,16
199832,21
200404,34
200984,25
201552,18
202136,43
202708,19
203284,13
203864,22
204436,17
205016,15
205584,9
206108,10
206680,15
207256,37
207824,47
208400,26
208984,13
209552,20
210128,19
210696,19
211272,19
211840,22
212424,23
213000,11
213568,14
214152,14
214724,11
215304,17
215872,36
216456,35
217024,43
217600,30
218184,23
218752,29
219328,16
219896,10
220480,12
221048,26
221632,32
222200,26
222780,19
223360,10
223928,12
224512,16
225080,32
225664,36
226232,33
226812,15
227392,19
227960,35
228544,50
229112,36
229696,23
230268,19
230848,23
231416,30
231996,34
232576,32
233148,40
233728,36
234296,20
234880,14
235448,14
236028,15
236608,19
237180,11
237760,11
238328,18
238912,23
239484,24
240064,23
240632,26
241212,32
241792,27
242364,17
242944,24
243516,16
244096,14
244664,10
245244,10
245824,11
246392,14
246976,20
247544,12
248128,37
248696,59
249280,57
249848,27
250424,14
251008,24
251580,44
252160,53
252728,47
253312,25
253884,10
254460,16
255040,19
255612,26
256192,29
256764,19
257344,18
257912,21
258488,28
259056,31
259632,34
260216,34
260784,27
261368,12
261936,13
262520,13
263088,12
263664,11
264248,16
264816,38
265400,86
265968,104
266604,64
267172,29
267748,18
268328,14
268896,15
269480,18
270048,14
270624,9
271144,28
271720,47
272288,42
272864,34
273448,26
274016,29
274600,33
275168,16
275752,37
276324,35
276904,26
277472,23
278052,25
278632,33
279204,27
279784,11
280356,24
280936,13
281508,22
282084,44
282664,59
283232,56
283816,41
284388,30
284968,20
285536,14
286120,12
286692,13
287268,19
287848,30
288420,35
289000,39
289568,43
290152,55
290724,79
291300,65
291880,18
292448,27
293032,15
293604,33
294184,39
294756,24
295336,25
295908,51
296484,32
297064,12
297632,27
298216,43
298788,63
299368,72
299948,63
300524,59
301104,64
301676,45
302256,30
302828,34
303408,12
303980,40
304560,37
305140,18
305716,12
306296,12
306868,13
307448,10
308024,13
308608,21
309176,32
309756,37
310336,27
310908,14
311488,15
312060,51
312640,39
313212,16
313792,32
314364,34
314940,24
315520,14
316092,11
316672,23
317244,47
317824,77
318404,70
318980,54
319560,35
320132,25
320712,17
321280,13
321864,27
322432,34
323016,26
323592,27
324164,27
324744,25
325316,23
325896,18
326468,16
327048,14
327616,16
328196,10
328776,12
329344,15
329928,12
330496,11
331080,17
331648,29
332232,28
332808,22
333376,13
333952,17
334520,15
335104,19
335672,28
336256,27
336824,22
337400,19
337984,10
338552,16
339136,35
339708,50
340288,46
340856,41
341440,39
342008,29
342584,17
343168,31
343740,33
344320,24
344888,10
345472,10
346044,11
346616,26
347200,35
347768,17
348352,11
348920,17
349504,27
350072,27
350656,32
351228,34
351804,17
352384,14
352952,28
353536,29
354108,10
354688,27
355260,24
355832,14
356416,10
356988,10
357568,10
358140,12
358720,15
359288,13
359872,17
360444,26
361016,22
361600,11
362168,11
362744,13
363316,11
363896,33
364468,42
365044,38
365624,43
366192,46
366776,46
367348,33
367928,20
368508,15
369088,14
369656,10
370232,12
370816,22
371388,31
371968,28
372540,37
373120,38
373688,30
374268,21
374848,13
375420,14
376000,18
376568,19
377152,14
377724,12
378304,11
378876,12
379452,19
380032,25
380604,34
381184,23
381756,11
382336,10
382908,22
383484,38
384064,41
384636,35
385216,30
385788,16
386368,11
386940,11
387520,11
388092,10
388664,14
389248,33
389816,48
390400,49
390968,41
391552,39
392124,40
392696,42
393280,31
393852,18
394432,40
395004,65
395584,65
396164,50
396744,29
397320,28
397892,30
398472,25
399044,31
399624,35
400204,34
400784,29
401356,27
401932,23
402512,14
403084,12
403664,20
404236,19
404816,15
405384,18
405968,29
406544,48
407116,62
407696,29
408268,15
408848,29
409420,26
410000,21
410576,23
411144,11
411720,23
412288,27
412872,11
413440,15
414016,12
414584,19
415168,35
415740,45
416316,42
416896,32
417464,15
418048,13
418616,14
419200,17
419768,19
420336,10
420920,13
421488,16
422072,19
422644,15
423224,9
423740,10
424320,16
424888,23
425464,19
426048,15
426616,15
427200,18
427768,23
428352,26
428924,16
429504,10
430076,11
430652,12
431232,19
431804,33
432384,48
432952,54
433536,46
434108,31
434684,19
435264,15
435832,14
436416,11
436988,16
437568,19
438140,23
438720,32
439288,27
439864,24
440448,24
441016,22
441600,25
442168,33
442744,30
443316,35
443892,34
444472,26
445044,13
445624,14
446192,14
446776,11
447348,51
447928,75
448508,85
449084,83
449664,72
450236,46
450816,20
451392,27
451976,25
452548,15
453120,22
453704,18
454276,10
454856,17
455428,51
456008,49
456576,41
457160,25
457736,12
458308,16
458888,24
459460,24
460040,15
460620,21
461200,30
461776,26
462352,11
462936,11
463508,20
464088,15
464656,11
465240,29
465812,59
466388,77
466968,63
467540,46
468120,30
468692,27
469272,23
469844,10
470424,12
470996,24
471572,25
472152,19
472724,20
473304,19
473876,21
474456,26
475028,26
475604,19
476184,18
476756,16
477336,17
477908,12
478488,11
479068,18
479648,17
480220,13
480792,15
481376,25
481944,30
482528,30
483100,34
483680,29
484256,18
484836,14
485416,14
485988,12
486568,12
487140,18
487720,9
488240,16
488816,21
489388,32
489964,41
490544,42
491116,52
491696,63
492268,62
492848,63
493416,58
494000,21
494572,39
495148,72
495728,71
496300,63
496880,60
497448,58
498032,32
498604,11
499176,16
499760,20
500332,17
500912,19
501484,54
502064,65
502636,58
503216,46
503788,18
504364,11
504944,11
505516,20
506096,43
506676,36
507256,17
507836,35
508412,21
508992,12
509564,18
510144,26
510716,26
511300,18
511876,10
512460,10
513040,15
513608,9
514132,12
514704,11
515288,23
515856,38
516432,55
517000,55
517584,50
518160,32
518732,28
519312,33
519884,28
520464,15
521032,13
521616,21
522184,26
522764,16
523344,18
523912,16
524496,17
525068,30
525648,23
526216,19
526800,17
527376,16
527944,11
528528,12
529096,13
529680,13
530248,15
530832,17
531404,17
531980,22
532560,25
533128,34
533712,39
534284,33
534864,21
535436,16
536016,11
536592,20
537164,30
537744,31
538312,26
538896,14
539464,12
540048,12
540620,11
541196,14
541776,20
542348,22
542928,19
543496,18
544080,15
544648,10
545224,12
545800,16
546368,14
546952,11
547524,18
548104,37
548676,47
549256,31
549828,17
550404,14
550984,14
551556,23
552136,42
552708,75
553288,34
553868,34
554448,64
555024,59
555596,26
556176,23
556748,49
557328,30
557908,20
558488,15
559068,14
559644,15
560224,16
560796,21
561376,39
561948,27
562528,26
563100,73
563676,80
564256,64
564824,30
565408,15
565980,15
566560,13
567128,15
567712,15
568284,18
568860,15
569440,20
570012,37
570592,45
571164,47
571744,12
572324,44
572900,68
573480,53
574052,36
574632,15
575204,13
575784,13
576356,13
576936,14
577504,29
578084,28
578664,15
579232,14
579816,11
580388,15
580968,9
581488,16
582064,33
582636,36
583212,19
583792,14
584364,18
584944,17
585516,22
586096,31
586676,37
587252,36
587832,18
588404,13
588984,28
589552,29
590136,13
590708,13
591288,11
591868,15
592444,23
593024,27
593596,19
594176,14
594756,13
595336,17
595908,13
596484,12
597064,15
597636,16
598216,22
598788,35
599368,43
599948,32
600528,25
601112,22
601684,17
602264,16
602836,10
603416,14
603996,25
604580,28
605156,23
605732,23
606312,24
606888,20
607464,23
608036,29
608616,25
609188,18
609764,15
610344,15
610916,14
611496,10
612072,21
612648,28
613228,33
613808,44
614388,43
614964,36
615544,27
616116,35
616696,25
617268,14
617848,25
618420,17
618996,17
619576,14
620148,10
620728,17
621300,31
621880,32
622452,40
623032,54
623604,43
624180,26
624760,11
625332,14
625912,28
626484,33
627064,30
627644,31
628220,24
628800,14
629372,10
629952,23
630524,38
631104,40
631684,47
632264,47
632848,28
633420,13
634004,14
634572,21
635152,26
635732,17
636312,17
636892,58
637468,80
638048,68
638620,36
639204,16
639780,37
640364,30
640936,14
641512,14
642096,18
642664,21
643248,18
643816,18
644400,11
644968,10
645552,12
646124,24
646700,35
647280,34
647852,13
648432,11
649000,22
649584,46
650156,58
650732,56
651312,54
651884,40
652464,18
653036,18
653616,19
654188,17
654768,18
655340,20
655916,26
656496,22
657064,17
657648,16
658216,21
658800,24
659368,15
659944,18
660528,27
661096,26
661680,11
662248,35
662832,17
663404,19
663984,37
664556,27
665132,26
665712,33
666280,38
666864,26
667432,21
668016,32
668584,25
669160,15
669744,10
670316,15
670896,18
671468,28
672048,35
672616,29
673192,13
673764,11
674336,16
674920,33
675492,27
676072,13
676640,17
677224,19
677792,18
678368,11
678952,15
679520,24
680104,21
680672,11
681256,11
681828,19
682408,35
682976,50
683556,45
684136,35
684708,22
685288,15
685860,14
686440,10
687008,13
687588,28
688168,31
688736,30
689320,26
689892,15
690472,11
691044,21
691624,32
692200,26
692776,16
693360,19
693932,20
694512,17
695084,15
695664,11
696236,11
696812,14
697392,26
697964,44
698544,43
699116,36
699696,32
700276,29
700856,21
701428,14
702004,19
702584,20
703156,15
703736,20
704316,15
704896,12
705468,11
706044,10
706624,18
707192,28
707776,22
708348,20
708928,15
709500,17
710080,15
710652,14
711228,20
711808,22
712380,10
712960,21
713532,25
714112,18
714692,22
715268,34
715848,57
716424,77
717004,49
717572,17
718152,24
718724,24
719304,13
719880,10
720452,16
721032,32
721604,72
722184,57
722756,15
723336,14
723908,19
724484,15
725064,16
725636,18
726216,23
726788,24
727368,22
727948,19
728528,34
729112,42
729684,35
730264,13
730836,24
731416,49
731988,51
732568,54
733148,46
733724,41
734304,34
734880,28
735456,29
736028,21
736608,12
737180,15
737756,14
738336,26
738908,38
739488,38
740060,38
740640,49
741212,52
741792,41
742364,19
742940,23
743520,35
744092,39
744672,39
745244,27
745824,21
746396,18
746972,24
747552,28
748124,27
748704,24
749276,24
749856,29
750428,27
751008,20
751580,23
752156,26
752736,15
753308,12
753888,17
754460,32
755040,50
755620,45
756196,32
756776,27
757348,34
757928,30
758500,25
759080,14
759652,14
760232,15
760812,27
761388,47
761968,52
762540,31
763120,13
763700,10
764280,21
764860,24
765436,15
766020,12
766592,20
767168,34
767744,30
768324,24
768896,43
769480,36
770056,18
770628,13
771208,11
771776,14
772360,19
772932,17
773512,15
774084,11
774660,10
775240,20
775812,26
776392,22
776964,14
777544,12
778116,13
778696,19
779280,22
779852,11
780432,22
781004,15
781584,17
782156,27
782736,53
783308,51
783884,26
784464,16
785036,17
785616,13
786188,10
786768,25
787348,29
787924,21
788504,15
789076,10
789656,9
790176,10
790760,11
791340,10
791920,18
792500,25
793076,19
793656,13
794228,12
794808,14
795380,13
795960,14
796540,18
797120,11
797704,12
798276,23
798860,45
799432,51
800008,51
800584,43
801168,33
801740,22
802316,19
802896,15
803468,14
804048,67
804616,94
805200,57
805772,32
806352,19
806928,34
807500,38
808080,13
808652,40
809232,73
809804,78
810384,46
810956,12
811532,27
812112,11
812684,30
813264,33
813844,15
814424,10
815004,23
815580,32
816160,34
816732,43
817312,42
817884,31
818464,22
819044,15
819624,10
820200,9
820716,12
821296,30
821864,37
822448,34
823016,40
823600,45
824168,27
824752,12
825320,14
825896,14
826480,15
827048,14
827632,11
828200,25
828784,32
829356,34
829932,38
830512,27
831084,17
831664,14
832236,20
832816,32
833384,34
833968,27
834536,16
835116,14
835696,15
836264,13
836848,9
837364,19
837944,29
838516,29
839096,19
839668,10
840244,14
840824,10
841392,16
841976,21
842544,28
843128,25
843700,18
844276,11
844856,11
845424,11
846000,16
846568,13
847152,23
847724,29
848304,16
848872,54
849448,50
850032,65
850600,64
851184,46
851756,19
852336,16
852908,25
853480,11
854064,18
854636,10
855216,13
855784,14
856368,10
856940,13
857520,15
858092,25
858664,28
859248,25
859820,16
860400,31
860976,32
861560,34
862132,21
862708,10
863288,11
863860,14
864440,10
865012,25
865592,70
866164,30
866744,33
867316,81
867892,94
868472,79
869044,61
869624,41
870204,13
870784,12
871360,23
871936,27
872520,32
873092,35
873672,36
874244,30
874824,27
875396,22
875976,16
876560,17
877132,18
877712,14
878284,26
878864,39
879436,24
880016,12
880592,26
881172,47
881752,70
882324,78
882904,59
883476,41
884056,22
884624,14
885204,14
885784,17
886352,11
886936,10
887508,15
888088,13
888668,11
889248,14
889820,20
890396,23
890976,35
891548,48
892128,37
892700,15
893280,18
893860,26
894436,34
895016,35
895592,34
896172,25
896740,20
897320,17
897888,15
898472,16
899044,30
899620,45
900200,43
900772,34
901352,21
901932,14
902512,13
903080,19
903660,26
904240,22
904808,14
905392,15
905964,27
906544,30
907116,22
907696,21
908276,18
908852,18
909432,19
910004,13
910584,17
911156,18
911736,17
912316,12
912892,12
913472,22
914044,20
914624,32
915196,71
915780,73
916356,43
916936,20
917520,13
918092,21
918672,17
919244,36
919824,48
920404,32
920984,22
921556,10
922132,25
922712,33
923284,15
923864,22
924436,42
925016,39
925588,34
926164,15
926744,24
927316,18
927896,11
928468,20
929048,22
929620,37
930200,43
930772,29
931348,11
931928,13
932500,19
933080,38
933652,35
934232,25
934812,26
935388,38
935968,31
936540,10
937120,26
937692,34
938272,44
938844,74
939428,67
940004,29
940580,24
941160,48
941736,35
942312,18
942892,19
943472,33
944044,15
944620,22
945200,23
945772,30
946352,20
946924,14
947504,14
948084,19
948664,39
949236,38
949812,30
950392,15
950968,16
951544,14
952124,20
952704,18
953284,10
953860,15
954440,31
955012,34
955592,25
956168,19
956744,10
957316,19
957900,13
958480,15
959056,16
959632,19
960208,16
960784,15
961356,15
961936,15
962508,25
963084,27
963664,29
964236,21
964816,18
965388,32
965968,25
966540,19
967120,24
967696,28
968268,19
968848,15
969420,11
970000,10
970580,19
971160,23
971732,23
972308,27
972888,28
973460,23
974040,24
974612,23
975192,29
975764,21
976340,14
976920,16
977492,30
978072,20
978644,13
979224,24
979796,37
980376,48
980956,54
981532,48
982112,48
982688,50
983264,35
983844,30
984424,29
984996,37
985572,31
986152,12
986724,21
987304,42
987876,38
988456,13
989028,16
989608,10
990176,14
990756,22
991336,26
991908,23
992492,14
993068,14
993648,13
994216,11
994796,26
995376,41
995948,12
996528,35
997100,46
997680,26
998260,20
998840,50
999420,50
999996,48
1000576,44
1001192,28
1001824,22
1002444,29
1003068,15
1003700,10
1004320,10
1004948,12
1005576,15
1006192,22
1006820,22
1007444,19
1008072,23
1008704,25
1009320,18
1009948,16
1010572,15
1011200,12
1011828,10
1012448,30
1013076,35
1013700,44
1014324,37
1014956,33
1015576,27
1016204,39
1016828,28
1017456,14
1018084,15
1018708,16
1019340,12
1019968,11
1020588,9
1021164,17
1021792,11
1022420,12
1023052,10
1023672,13
1024304,21
1024924,29
1025544,21
1026172,13
1026788,16
1027416,13
1028040,14
1028660,25
1029288,25
1029904,20
1030532,15
1031152,18
1031776,35
1032404,47
1033028,48
1033656,33
1034284,22
1034900,22
1035528,16
1036152,13
1036780,23
1037412,31
1038032,29
1038660,28
1039284,26
1039904,23
1040536,31
1041152,24
1041780,22
1042404,19
1043024,15
1043652,15
1044272,18
1044900,20
1045528,19
1046144,27
1046772,26
1047396,23
1048024,28
1048652,29
1049268,31
1049900,26
1050520,19
1051144,19
1051772,19
1052392,15
1053020,9
1053592,10
1054216,23
1054844,36
1055464,45
1056092,79
1056712,79
1057336,44
1057964,16
1058584,14
1059212,17
1059832,17
1060456,16
1061084,12
1061708,24
1062336,38
1062968,39
1063584,39
1064212,56
1064836,59
1065464,54
1066096,73
1066712,68
1067340,46
1067964,25
1068588,14
1069216,10
1069832,12
1070460,17
1071084,26
1071708,29
1072336,26
1072952,28
1073580,22
1074212,14
1074832,16
1075460,15
1076084,19
1076712,16
1077340,18
1077960,10
1078588,11
1079208,16
1079832,24
1080460,16
1081076,39
1081708,41
1082328,36
1082952,28
1083580,22
1084200,19
1084828,17
1085456,16
1086072,10
1086700,15
1087324,23
1087952,30
1088584,29
1089200,17
1089828,10
1090452,11
1091076,14
1091708,22
1092328,23
1092956,20
1093580,23
1094204,28
1094832,25
1095448,15
1096080,18
1096700,12
1097328,11
1097956,25
1098580,58
1099208,67
1099836,53
1100456,42
1101084,29
1101708,17
1102340,16
1102968,19
1103584,18
1104216,10
1104840,17
1105460,18
1106092,20
1106712,37
1107340,61
1107964,96
1108584,90
1109216,44
1109836,15
1110468,16
1111096,26
1111716,48
1112344,57
1112968,66
1113596,70
1114228,67
1114848,65
1115476,53
1116100,64
1116728,56
1117356,35
1117976,28
1118604,16
1119228,10
1119856,19
1120488,26
1121108,27
1121740,24
1122368,33
1122984,36
1123616,40
1124240,33
1124868,36
1125496,29
1126120,14
1126748,16
1127372,16
1127996,16
1128624,15
1129240,25
1129868,30
1130492,34
1131120,31
1131748,31
1132372,39
1133000,35
1133632,19
1134248,16
1134876,15
1135500,15
1136132,17
1136760,20
1137376,10
1138008,18
1138628,24
1139252,27
1139880,26
1140504,19
1141132,15
1141756,15
1142384,17
1143012,15
1143636,15
1144268,11
1144900,12
1145520,20
1146152,21
1146776,25
1147400,25
1148028,26
1148648,31
1149276,31
1149900,24
1150524,18
1151152,17
1151776,17
1152408,15
1153036,12
1153656,21
1154284,22
1154904,28
1155536,26
1156164,16
1156784,22
1157412,35
1158036,44
1158660,33
1159292,23
1159912,15
1160540,28
1161164,41
1161788,31
1162416,30
1163032,34
1163660,11
1164284,16
1164912,14
1165540,45
1166164,31
1166792,15
1167420,19
1168040,15
1168668,31
1169288,14
1169920,23
1170548,16
1171168,10
1171796,15
1172420,42
1173044,47
1173676,44
1174296,20
1174924,23
1175548,26
1176176,35
1176804,47
1177428,53
1178060,59
1178688,41
1179304,13
1179936,62
1180560,63
1181188,41
1181820,60
1182440,86
1183068,82
1183692,60
1184316,39
1184948,18
1185568,15
1186196,14
1186828,19
1187448,17
1188076,17
1188700,13
1189328,14
1189960,19
1190576,21
1191204,32
1191828,42
1192456,26
1193084,14
1193704,15
1194332,10
1194956,14
1195580,20
1196208,14
1196832,19
1197460,25
1198092,26
1198712,27
1199340,18
1199968,15
1200596,15
1201228,14
1201848,16
1202476,18
1203100,16
1203724,12
1204356,27
1204976,19
1205604,10
1206228,10
1206852,11
1207480,13
1208104,17
1208732,15
1209364,15
1209984,16
1210612,14
1211236,17
1211868,16
1212496,11
1213112,10
1213744,12
1214368,29
1214992,57
1215624,63
1216240,46
1216872,30
1217492,16
1218116,13
1218748,14
1219368,12
1219996,18
1220628,27
1221248,33
1221876,31
1222500,21
1223132,15
1223760,11
1224380,11
1225008,16
1225632,40
1226256,58
1226884,46
1227504,15
1228136,11
1228760,25
1229384,39
1230012,52
1230632,53
1231260,51
1231892,71
1232512,77
1233140,59
1233764,35
1234392,19
1235024,15
1235640,14
1236268,12
1236892,26
1237516,39
1238144,45
1238760,44
1239392,37
1240016,21
1240636,13
1241268,12
1241888,18
1242516,16
1243144,18
1243768,15
1244396,10
1245020,20
1245648,33
1246280,42
1246896,39
1247524,22
1248148,13
1248772,27
1249404,27
1250024,20
1250652,15
1251276,14
1251900,14
1252528,12
1253144,11
1253776,28
1254404,25
1255020,11
1255652,18
1256276,14
1256904,16
1257536,16
1258152,28
1258784,28
1259408,29
1260036,26
1260668,14
1261288,12
1261916,25
1262540,17
1263164,10
1263796,12
1264416,33
1265044,67
1265676,74
1266296,71
1266924,56
1267552,42
1268180,28
1268808,14
1269432,14
1270064,13
1270688,17
1271308,26
1271940,36
1272560,41
1273188,33
1273812,36
1274436,26
1275068,24
1275688,17
1276316,15
1276948,20
1277568,30
1278200,33
1278824,13
1279452,12
1280084,33
1280700,35
1281328,49
1281948,49
1282572,57
1283200,54
1283812,34
1284444,14
1285064,50
1285688,51
1286316,16
1286936,10
1287564,10
1288188,13
1288808,10
1289436,9
1290008,9
1290592,10
1291212,16
1291836,23
1292468,14
1293088,15
1293716,13
1294344,12
1294960,10
1295592,13
1296212,10
1296840,18
1297472,11
1298088,23
1298716,35
1299340,48
1299968,53
1300596,36
1301216,17
1301844,17
1302468,19
1303088,27
1303720,23
1304336,15
1304964,9
1305536,10
1306160,14
1306788,19
1307408,28
1308036,31
1308660,23
1309284,14
1309912,14
1310536,15
1311168,12
1311796,9
1312364,10
1312996,10
1313616,11
1314244,19
1314872,37
1315496,49
1316124,45
1316744,34
1317376,27
1318004,21
1318624,14
1319252,20
1319872,35
1320496,47
1321124,44
1321740,31
1322368,24
1322992,12
1323616,24
1324244,43
1324864,34
1325492,26
1326124,14
1326740,19
1327372,13
1327992,12
1328624,26
1329252,23
1329872,24
1330500,24
1331124,21
1331748,13
1332376,10
1332992,14
1333620,16
1334244,48
1334864,54
1335492,23
1336112,12
1336740,9
1337312,13
1337936,29
1338564,44
1339184,17
1339812,10
1340440,10
1341064,11
1341692,13
1342316,13
1342944,14
1343572,16
1344192,13
1344820,11
1345440,15
1346064,17
1346692,16
1347312,13
1347940,13
1348564,17
1349184,36
1349812,44
1350432,37
1351060,34
1351688,29
1352304,21
1352932,10
1353556,28
1354184,44
1354816,40
1355432,28
1356060,22
1356684,34
1357316,38
1357944,28
1358560,16
1359188,14
1359812,17
1360436,19
1361064,16
1361680,13
1362308,19
1362932,16
1363552,14
1364184,24
1364804,31
1365432,35
1366060,41
1366680,37
1367308,32
1367932,27
1368560,15
1369188,18
1369808,20
1370436,15
1371060,18
1371684,14
1372312,13
1372928,22
1373556,23
1374180,13
1374804,16
1375432,20
1376048,20
1376676,16
1377304,11
1377920,10
1378548,26
1379172,38
1379804,39
1380432,38
1381056,20
1381684,16
1382308,17
1382932,22
1383564,28
1384184,30
1384812,26
1385432,19
1386056,10
1386688,17
1387304,25
1387932,17
1388564,24
1389184,37
1389812,37
1390436,42
1391064,64
1391692,69
1392312,37
1392940,15
1393564,21
1394188,40
1394816,60
1395436,67
1396064,60
1396688,62
1397308,61
1397940,53
1398560,46
1399188,42
1399816,44
1400440,31
1401068,15
1401692,14
1402320,14
1402948,10
1403568,27
1404196,42
1404820,33
1405444,19
1406072,26
1406696,29
1407324,24
1407952,23
1408576,29
1409204,29
1409824,41
1410452,35
1411080,14
1411696,23
1412328,33
1412952,33
1413580,39
1414208,59
1414832,76
1415460,68
1416084,48
1416708,20
1417340,15
1417960,17
1418588,18
1419212,12
1419836,19
1420464,32
1421088,24
1421716,19
1422348,28
1422968,28
1423596,22
1424220,41
1424852,57
1425480,32
1426096,15
1426724,21
1427348,23
1427972,28
1428604,23
1429224,11
1429852,10
1430476,10
1431100,10
1431732,10
1432352,44
1432980,66
1433612,60
1434228,44
1434860,34
1435480,23
1436112,21
1436740,47
1437360,35
1437988,21
1438612,15
1439236,22
1439868,16
1440488,10
1441116,19
1441740,15
1442360,20
1442988,18
1443608,15
1444236,16
1444856,28
1445480,18
1446108,13
1446732,27
1447360,11
1447988,10
1448608,11
1449236,16
1449860,29
1450488,34
1451116,30
1451736,33
1452364,24
1452988,11
1453612,11
1454240,24
1454856,30
1455488,33
1456112,36
1456732,35
1457364,39
1457984,35
1458616,23
1459244,26
1459860,41
1460492,43
1461112,41
1461744,31
1462372,25
1462992,23
1463620,22
1464244,29
1464868,31
1465496,10
1466120,16
1466748,12
1467372,18
1467996,14
1468628,18
1469252,28
1469880,30
1470508,13
1471128,13
1471756,31
1472384,19
1473012,17
1473640,15
1474264,12
1474892,16
1475516,20
1476140,15
1476768,17
1477384,16
1478012,17
1478636,11
1479260,38
1479888,56
1480504,47
1481136,38
1481764,39
1482384,42
1483012,30
1483636,28
1484264,22
1484896,14
1485512,18
1486140,17
1486764,22
1487384,35
1488016,46
1488628,43
1489260,19
1489884,10
1490508,10
1491136,11
1491752,13
1492384,14
1493012,14
1493632,16
1494260,13
1494884,17
1495516,14
1496144,12
1496760,16
1497392,11
1498016,37
1498640,75
1499268,74
1499888,51
1500516,22
1501140,18
1501764,21
1502396,25
1503016,23
1503644,19
1504276,10
1504896,20
1505524,35
1506148,43
1506780,33
1507408,20
1508028,15
1508656,14
1509280,15
1509904,16
1510536,13
1511152,11
1511780,15
1512408,10
1513028,11
1513660,12
1514280,27
1514908,41
1515540,44
1516160,46
1516788,24
1517412,19
1518044,24
1518676,26
1519296,13
1519928,20
1520552,43
1521176,56
1521804,59
1522424,60
1523052,30
1523676,13
1524300,15
1524932,14
1525552,19
1526184,14
1526812,20
1527432,21
1528060,32
1528684,20
1529316,11
1529948,20
1530568,32
1531196,42
1531824,41
1532448,30
1533080,32
1533696,45
1534328,49
1534952,46
1535576,26
1536208,11
1536824,17
1537452,32
1538080,36
1538696,33
1539328,38
1539948,29
1540576,19
1541208,15
1541824,17
1542452,15
1543076,14
1543700,13
1544328,9
1544892,10
1545524,11
1546148,15
1546772,14
1547404,18
1548024,29
1548652,26
1549276,34
1549900,31
1550532,22
1551152,19
1551784,17
1552412,14
1553032,9
1553608,15
1554240,19
1554868,27
1555500,18
1556120,15
1556748,12
1557372,18
1558004,22
1558632,19
1559248,21
1559876,25
1560500,27
1561124,12
1561756,16
1562376,21
1563004,23
1563628,22
1564252,23
1564880,37
1565496,35
1566128,22
1566756,25
1567376,41
1568004,49
1568628,46
1569256,21
1569884,21
1570504,35
1571132,33
1571756,41
1572380,42
1573012,16
1573632,27
1574260,25
1574888,16
1575508,27
1576140,20
1576760,17
1577388,18
1578020,34
1578640,43
1579268,35
1579892,29
1580524,23
1581152,20
1581776,25
1582404,31
1583028,30
1583652,30
1584284,25
1584904,17
1585532,12
1586160,19
1586784,21
1587412,16
1588036,10
1588668,18
1589296,22
1589912,25
1590544,13
1591168,13
1591796,17
1592428,38
1593048,25
1593676,15
1594300,12
1594924,16
1595556,10
1596176,41
1596804,52
1597428,34
1598056,11
1598684,12
1599308,16
1599940,23
1600572,17
1601188,13
1601820,29
1602440,33
1603072,15
1603700,18
1604320,29
1604948,17
1605568,14
1606192,10
1606820,11
1607440,17
1608068,13
1608692,15
1609312,19
1609940,15
1610564,12
1611192,11
1611820,27
1612440,35
1613068,36
1613692,29
1614320,15
1614948,14
1615568,21
1616196,16
1616820,13
1617444,17
1618072,14
1618688,25
1619316,15
1619940,15
1620564,21
1621192,11
1621808,15
1622440,11
1623068,11
1623688,26
1624316,13
1624940,19
1625572,14
1626200,14
1626824,27
1627452,23
1628076,20
1628700,46
1629332,44
1629952,28
1630580,19
1631204,24
1631828,33
1632460,28
1633080,17
1633708,13
1634340,14
1634960,16
1635588,15
1636212,11
1636844,12
1637472,19
1638096,39
1638728,41
1639348,34
1639968,29
1640596,18
1641212,13
1641840,13
1642464,13
1643084,14
1643712,13
1644328,11
1644956,10
1645584,10
1646200,24
1646828,35
1647448,43
1648076,41
1648704,46
1649324,44
1649952,42
1650572,40
1651200,29
1651828,14
1652448,21
1653076,34
1653700,26
1654320,17
1654948,26
1655568,29
1656196,25
1656820,21
1657440,36
1658068,46
1658692,27
1659320,15
1659948,16
1660568,17
1661196,27
1661820,25
1662448,29
1663076,28
1663696,17
1664324,25
1664948,32
1665568,19
1666196,30
1666816,30
1667440,27
1668064,25
1668684,18
1669312,12
1669932,21
1670564,14
1671192,13
1671808,13
1672436,13
1673060,18
1673688,21
1674316,17
1674936,15
1675564,15
1676188,14
1676808,14
1677436,19
1678056,24
1678684,18
1679308,14
1679932,14
1680560,14
1681176,18
1681804,17
1682428,23
1683048,31
1683676,27
1684300,16
1684928,13
1685556,14
1686176,14
1686804,12
1687428,11
1688056,19
1688684,18
1689304,11
1689932,11
1690552,14
1691176,21
1691804,66
1692424,79
1693052,58
1693672,17
1694296,22
1694924,26
1695544,30
1696172,34
1696800,48
1697416,55
1698044,60
1698668,64
1699296,40
1699924,32
1700540,24
1701172,13
1701792,15
1702416,11
1703044,10
1703660,14
1704292,21
1704916,16
1705540,10
1706168,11
1706784,11
1707412,20
1708044,32
1708664,22
1709292,15
1709916,19
1710548,14
1711176,11
1711792,10
1712424,11
1713048,10
1713668,11
1714300,12
1714920,16
1715548,40
1716172,53
1716796,35
1717424,21
1718044,14
1718672,18
1719300,16
1719920,21
1720548,19
1721172,17
1721800,11
1722432,19
1723048,24
1723676,15
1724300,13
1724928,18
1725556,15
1726176,15
1726804,15
1727428,26
1728052,23
1728680,22
1729296,17
1729924,20
1730548,31
1731172,40
1731800,44
1732424,47
1733052,35
1733680,24
1734304,19
1734932,15
1735556,12
1736188,9
1736764,13
1737388,23
1738020,36
1738644,58
1739268,67
1739900,28
1740520,11
1741148,16
1741772,36
1742396,26
1743024,15
1743640,15
1744272,16
1744892,18
1745520,11
1746148,37
1746772,26
1747400,12
1748028,45
1748648,53
1749276,45
1749900,38
1750528,46
1751160,38
1751776,33
1752404,17
1753028,16
1753652,34
1754280,35
1754896,31
1755528,29
1756152,15
1756776,11
1757404,19
1758028,23
1758660,24
1759288,14
1759912,19
1760544,17
1761164,30
1761796,34
1762424,30
1763040,26
1763668,28
1764292,23
1764916,17
1765544,20
1766160,25
1766792,19
1767412,18
1768036,15
1768664,15
1769288,16
1769916,10
1770544,20
1771168,31
1771796,30
1772420,27
1773052,28
1773680,26
1774296,19
1774928,13
1775552,15
1776176,21
1776804,16
1777424,21
1778052,11
1778676,23
1779300,40
1779928,38
1780552,26
1781180,13
1781812,14
1782432,27
1783060,26
1783684,19
1784312,15
1784940,20
1785560,17
1786192,10
1786816,13
1787440,21
1788068,34
1788688,46
1789316,33
1789944,28
1790568,21
1791196,15
1791824,13
1792456,14
1793084,14
1793704,23
1794332,34
1794956,41
1795584,38
1796212,30
1796832,25
1797460,28
1798084,40
1798708,49
1799336,42
1799956,21
1800584,15
1801208,14
1801832,15
1802460,14
1803080,10
1803712,13
1804340,10
1804960,17
1805588,35
1806208,52
1806840,65
1807468,52
1808088,27
1808716,14
1809336,23
1809960,29
1810588,26
1811208,15
1811836,10
1812460,15
1813084,33
1813712,34
1814328,30
1814960,31
1815588,29
1816208,20
1816836,22
1817460,17
1818092,13
1818720,15
1819336,12
1819964,12
1820588,17
1821212,19
1821840,28
1822464,28
1823092,13
1823716,10
1824340,17
1824968,24
1825592,15
1826220,14
1826848,16
1827472,19
1828100,26
1828724,26
1829352,15
1829984,12
1830600,10
1831232,19
1831856,31
1832480,37
1833108,40
1833728,27
1834356,17
1834980,14
1835604,10
1836232,14
1836856,24
1837484,31
1838116,28
1838736,15
1839364,12
1839988,11
1840620,16
1841252,14
1841872,17
1842500,16
1843124,13
1843752,13
1844380,12
1845000,23
1845628,24
1846252,12
1846872,14
1847504,26
1848120,16
1848748,43
1849376,42
1850000,28
1850628,18
1851252,14
1851880,15
1852508,10
1853128,18
1853756,18
1854380,22
1855004,13
1855636,10
1856256,11
1856884,10
1857508,9
1858076,15
1858708,17
1859328,17
1859956,14
1860580,13
1861204,13
1861832,12
1862448,15
1863076,13
1863708,13
1864328,12
1864956,16
1865580,21
1866208,39
1866840,56
1867456,31
1868088,23
1868712,23
1869336,13
1869964,11
1870584,17
1871212,31
1871836,38
1872460,28
1873092,12
1873712,11
1874340,15
1874972,21
1875592,19
1876220,15
1876844,14
1877476,13
1878104,21
1878724,28
1879352,31
1879976,33
1880600,35
1881228,43
1881848,46
1882476,43
1883100,31
1883724,22
1884356,16
1884976,15
1885604,10
1886232,15
1886852,28
1887480,33
1888104,24
1888732,24
1889360,24
1889984,25
1890612,24
1891236,22
1891860,16
1892488,16
1893108,22
1893736,24
1894360,19
1894988,11
1895616,15
1896232,28
1896864,33
1897492,35
1898112,40
1898740,43
1899364,38
1899996,25
1900624,28
1901248,34
1901876,37
1902504,32
1903128,12
1903756,15
1904376,23
1905004,30
1905628,37
1906252,42
1906884,28
1907504,25
1908132,18
1908764,14
1909384,18
1910012,15
1910640,24
1911268,11
1911900,28
1912520,43
1913148,43
1913776,41
1914400,43
1915028,43
1915648,21
1916276,18
1916904,15
1917528,15
1918156,20
1918776,18
1919408,12
1920040,16
1920652,13
1921284,10
1921904,11
1922532,13
1923164,14
1923784,21
1924412,27
1925036,16
1925660,15
1926292,20
1926912,17
1927540,10
1928164,10
1928788,14
1929416,17
1930036,11
1930664,17
1931292,20
1931912,19
1932540,34
1933164,25
1933796,26
1934424,32
1935048,27
1935676,27
1936300,18
1936924,14
1937552,14
1938176,15
1938804,11
1939428,11
1940052,9
1940632,11
1941256,18
1941884,25
1942508,28
1943132,23
1943764,16
1944388,14
1945016,27
1945648,30
1946264,26
1946892,20
1947516,16
1948144,29
1948776,38
1949392,38
1950024,27
1950648,23
1951272,17
1951900,15
1952520,17
1953148,25
1953772,31
1954396,30
1955028,27
1955652,16
1956280,15
1956912,19
1957528,20
1958160,26
1958784,22
1959412,15
1960044,32
1960664,33
1961292,21
1961916,15
1962540,13
1963172,10
1963792,11
1964424,13
1965048,17
1965672,31
1966300,41
1966924,32
1967552,18
1968184,14
1968800,13
1969428,15
1970052,28
1970680,25
1971308,14
1971928,11
1972556,13
1973180,10
1973800,24
1974432,31
1975048,33
1975676,71
1976300,51
1976924,24
1977556,22
1978180,54
1978808,52
1979440,38
1980056,31
1980688,32
1981312,37
1981940,46
1982572,34
1983192,15
1983824,16
1984448,16
1985072,17
1985700,32
1986320,32
1986948,13
1987572,10
1988196,13
1988824,30
1989448,37
1990076,22
1990704,10
1991328,23
1991956,15
1992580,22
1993212,20
1993840,20
1994464,27
1995092,28
1995716,17
1996344,9
1996920,11
1997544,24
1998172,29
1998796,27
1999420,31
2000048,33
2000664,31
2001292,24
2001916,14
2002544,11
2003172,14
2003796,23
2004428,31
2005056,28
2005680,15
2006308,13
2006932,16
2007560,21
2008188,19
2008808,16
2009436,15
2010060,13
2010684,13
2011312,19
2011932,18
2012560,21
2013188,20
2013808,19
2014436,19
2015060,29
2015692,31
2016320,24
2016944,16
2017572,14
2018196,15
2018820,12
2019452,10
2020072,16
2020700,37
2021324,29
2021948,15
2022580,10
2023200,10
2023828,10
2024456,16
2025080,17
2025708,24
2026332,26
2026964,20
2027592,16
2028208,18
2028840,13
2029464,10
2030084,10
2030716,14
2031336,22
2031968,13
2032592,27
2033216,47
2033844,70
2034464,52
2035096,15
2035724,10
2036344,11
2036972,26
2037596,37
2038228,28
2038860,12
2039480,18
2040112,27
2040736,20
2041360,16
2041988,13
2042608,17
2043236,31
2043860,19
2044488,11
2045116,13
2045736,25
2046368,12
2046996,10
2047616,15
2048248,26
2048868,31
2049496,26
2050124,22
2050740,16
2051368,16
2051992,18
2052612,25
2053240,16
2053860,14
2054488,28
2055112,24
2055736,12
2056364,10
2056980,10
2057608,13
2058232,13
2058856,15
2059484,16
2060108,23
2060736,16
2061364,14
2061980,22
2062612,25
2063232,15
2063864,16
2064492,27
2065108,31
2065740,33
2066360,22
2066984,17
2067612,16
2068232,15
2068860,10
2069484,9
2070052,10
2070684,21
2071304,27
2071932,19
2072556,14
2073180,13
2073808,17
2074424,17
2075052,13
2075680,14
2076304,14
2076932,13
2077556,12
2078184,12
2078812,12
2079432,13
2080060,17
2080680,24
2081304,33
2081932,38
2082548,43
2083180,32
2083804,23
2084424,18
2085052,18
2085672,10
2086300,12
2086928,17
2087552,23
2088180,29
2088804,31
2089432,29
2090060,22
2090680,21
2091308,18
2091932,13
2092552,15
2093180,16
2093800,15
2094428,11
2095048,10
2095672,11
2096304,10
2096920,16
2097548,29
2098172,38
2098800,35
2099428,19
2100052,14
2100680,15
2101308,14
2101928,13
2102556,18
2103180,38
2103808,50
2104436,45
2105056,50
2105684,31
2106308,17
2106928,19
2107560,25
2108176,21
2108804,16
2109428,24
2110052,23
2110680,42
2111304,44
2111936,34
2112568,27
2113184,52
2113812,45
2114436,25
2115064,15
2115692,12
2116312,17
2116940,23
2117564,18
2118188,29
2118820,28
2119440,13
2120068,19
2120692,12
2121316,14
2121944,26
2122568,30
2123196,13
2123828,12
2124448,17
2125076,19
2125700,19
2126332,14
2126960,13
2127576,12
2128208,13
2128832,11
2129452,20
2130084,14
2130700,12
2131332,15
2131952,20
2132576,16
2133204,14
2133828,34
2134456,42
2135084,37
2135704,37
2136332,23
2136956,10
2137584,19
2138216,27
2138832,19
2139464,15
2140088,13
2140712,15
2141340,22
2141960,21
2142588,20
2143212,16
2143836,12
2144468,10
2145092,10
2145720,17
2146348,29
2146968,36
2147596,34
2148220,24
2148852,32
2149480,31
2150100,18
2150728,14
2151348,19
2151972,21
2152604,20
2153224,31
2153852,39
2154476,33
2155100,15
2155728,10
2156348,10
2156976,11
2157604,14
2158224,27
2158852,26
2159476,18
2160108,20
2160736,24
2161352,22
2161980,19
2162604,16
2163228,11
2163856,19
2164472,28
2165100,30
2165724,24
2166348,24
2166980,18
2167600,17
2168228,16
2168860,10
2169480,11
2170108,18
2170732,25
2171364,29
2171992,24
2172616,21
2173244,20
2173868,27
2174492,26
2175124,16
2175744,14
2176376,15
2176996,14
2177620,22
2178248,25
2178864,24
2179492,16
2180120,12
2180744,11
2181372,31
2181996,56
2182628,51
2183256,34
2183872,17
2184500,14
2185124,15
2185748,10
2186376,13
2187000,22
2187628,25
2188252,25
2188876,31
2189504,28
2190128,25
2190756,27
2191388,26
2192008,22
2192636,14
2193260,14
2193888,18
2194520,25
2195136,31
2195768,30
2196392,19
2197016,13
2197644,10
2198264,14
2198892,11
2199516,19
2200144,33
2200772,45
2201392,33
2202024,11
2202652,19
2203272,15
2203900,9
2204472,13
2205108,18
2205740,16
2206360,11
2206988,20
2207612,13
2208244,21
2208872,22
2209496,15
2210124,14
2210748,12
2211372,20
2212004,22
2212624,18
2213252,21
2213876,40
2214500,47
2215128,27
2215752,14
2216380,24
2217012,22
2217632,15
2218260,13
2218884,14
2219512,13
2220144,10
2220764,11
2221392,9
2221968,11
2222596,21
2223228,30
2223848,39
2224480,38
2225100,33
2225728,24
2226356,16
2226976,11
2227608,23
2228236,31
2228856,39
2229484,39
2230108,36
2230740,31
2231368,34
2231992,41
2232624,37
2233248,32
2233872,23
2234500,15
2235120,15
2235752,13
2236376,25
2237000,37
2237632,36
2238248,33
2238880,23
2239508,16
2240128,11
2240756,13
2241380,16
2242012,14
2242640,14
2243256,16
2243884,11
2244508,14
2245132,14
2245760,17
2246376,23
2247008,21
2247632,30
2248256,36
2248884,44
2249504,46
2250132,29
2250764,15
2251384,17
2252016,11
2252640,12
2253268,11
2253896,16
2254520,18
2255148,35
2255772,46
2256396,28
2257024,12
2257640,13
2258272,13
2258892,15
2259516,14
2260148,18
2260768,25
2261396,15
2262028,19
2262648,27
2263276,22
2263900,12
2264532,11
2265160,13
2265780,12
2266408,15
2267032,14
2267656,19
2268284,38
2268904,46
2269532,22
2270156,21
2270780,23
2271412,12
2272032,13
2272660,15
2273292,10
2273912,20
2274540,33
2275164,29
2275796,25
2276424,15
2277048,19
2277676,25
2278304,23
2278928,19
2279556,10
2280176,15
2280804,26
2281428,41
2282052,58
2282684,48
2283304,33
2283932,17
2284564,14
2285184,13
2285812,18
2286436,29
2287068,34
2287700,16
2288320,12
2288948,13
2289572,20
2290196,25
2290828,19
2291448,21
2292076,17
2292700,13
2293328,22
2293956,28
2294576,26
2295204,22
2295832,18
2296456,17
2297084,13
2297708,20
2298340,21
2298968,21
2299584,22
2300216,26
2300840,19
2301464,15
2302092,20
2302712,22
2303344,11
2303968,16
2304592,25
2305220,28
2305840,31
2306468,29
2307096,35
2307716,49
2308344,59
2308968,27
2309596,15
2310228,28
2310848,34
2311476,15
2312100,19
2312724,27
2313352,40
2313976,51
2314604,42
2315228,27
2315852,31
2316484,36
2317104,30
2317732,19
2318364,19
2318984,15
2319612,10
2320236,12
2320868,11
2321496,12
2322112,21
2322744,29
2323368,30
2323988,29
2324620,16
2325240,17
2325868,20
2326492,14
2327116,10
2327744,10
2328368,11
2328996,10
2329628,10
2330248,10
2330876,11
2331500,17
2332132,43
2332760,70
2333384,59
2334016,18
2334640,32
2335264,44
2335892,36
2336512,12
2337140,11
2337764,16
2338388,26
2339020,20
2339640,11
2340268,12
2340900,14
2341520,22
2342148,15
2342772,15
2343404,14
2344032,18
2344656,24
2345284,21
2345908,10
2346532,12
2347164,14
2347784,23
2348412,30
2349040,35
2349660,18
2350292,14
2350916,14
2351548,15
2352180,10
2352800,11
2353428,15
2354056,10
2354684,16
2355316,18
2355936,24
2356564,27
2357188,16
2357812,15
2358440,23
2359064,15
2359692,15
2360316,10
2360944,11
2361572,11
2362200,11
2362828,17
2363460,10
2364080,40
2364708,59
2365336,49
2365960,56
2366592,57
2367208,37
2367836,18
2368464,13
2369088,13
2369716,11
2370336,15
2370964,23
2371596,34
2372216,42
2372844,32
2373468,18
2374100,22
2374732,28
2375352,17
2375984,15
2376608,22
2377232,24
2377860,20
2378480,18
2379108,12
2379732,11
2380360,11
2380988,16
2381608,37
2382236,49
2382868,48
2383488,40
2384116,35
2384740,21
2385372,10
2386000,10
2386624,19
2387252,23
2387876,22
2388500,27
2389132,22
2389752,12
2390384,13
2391008,29
2391632,35
2392264,18
2392880,28
2393512,41
2394144,18
2394764,16
2395392,17
2396020,13
2396648,11
2397280,17
2397900,31
2398528,31
2399156,31
2399780,26
2400412,22
2401032,23
2401660,20
2402284,11
2402908,15
2403536,30
2404160,35
2404788,14
2405420,10
2406040,10
2406668,11
2407292,12
2407924,14
2408552,13
2409168,16
2409800,15
2410424,11
2411044,10
2411676,12
2412296,11
2412924,10
2413548,11
2414172,22
2414804,37
2415428,48
2416056,48
2416688,44
2417304,30
2417932,18
2418556,11
2419188,16
2419816,27
2420440,23
2421068,19
2421692,22
2422316,17
2422948,12
2423568,19
2424200,25
2424824,29
2425444,27
2426076,26
2426700,24
2427332,13
2427964,26
2428584,37
2429216,34
2429840,32
2430468,27
2431100,30
2431720,36
2432352,35
2432976,25
2433600,15
2434228,16
2434848,18
2435476,23
2436108,24
2436728,12
2437356,24
2437980,36
2438612,33
2439244,34
2439864,23
2440492,15
2441116,17
2441740,16
2442372,14
2442992,21
2443620,13
2444244,10
2444872,13
2445500,18
2446120,17
2446748,20
2447380,34
2448000,43
2448628,41
2449252,33
2449884,29
2450516,22
2451136,15
2451768,28
2452392,38
2453016,51
2453648,19
2454264,11
2454896,13
2455520,27
2456144,16
2456776,19
2457392,15
2458024,15
2458656,25
2459272,34
2459900,16
2460524,18
2461152,24
2461780,22
2462400,19
2463028,24
2463652,28
2464276,39
2464904,45
2465520,37
2466152,28
2466772,21
2467396,15
2468028,13
2468648,11
2469276,11
2469904,19
2470524,24
2471152,20
2471776,25
2472404,34
2473036,36
2473656,28
2474284,15
2474908,13
2475532,14
2476160,15
2476784,14
2477416,14
2478040,25
2478664,24
2479292,20
2479912,33
2480544,28
2481172,22
2481792,21
2482420,13
2483044,15
2483676,24
2484304,35
2484924,25
2485552,15
2486176,11
2486800,19
2487428,30
2488048,48
2488676,49
2489300,18
2489924,13
2490552,11
2491176,15
2491804,29
2492436,16
2493056,15
2493684,21
2494308,31
2494940,25
2495572,22
2496192,25
2496820,33
2497444,46
2498068,56
2498696,45
2499320,23
2499948,17
2500572,14
2501196,14
2501824,12
2502448,18
2503076,24
2503708,16
2504328,12
2504956,14
2505580,25
2506212,28
2506844,10
2507464,14
2508096,13
2508720,14
2509344,17
2509972,16
2510592,11
2511220,14
2511848,20
2512472,15
2513100,16
2513720,17
2514348,20
2514980,39
2515600,48
2516228,33
2516852,24
2517484,21
2518116,18
2518736,10
2519368,30
2519992,43
2520616,25
2521244,10
2521864,13
2522492,11
2523116,19
2523740,28
2524372,34
2524996,19
2525628,15
2526256,23
2526880,25
2527508,13
2528136,17
2528764,12
2529396,16
2530016,13
2530644,15
2531268,40
2531892,58
2532524,59
2533144,51
2533776,35
2534404,18
2535024,17
2535652,11
2536280,20
2536908,28
2537540,26
2538160,27
2538792,24
2539416,21
2540040,15
2540668,14
2541288,14
2541916,14
2542544,17
2543168,16
2543796,10
2544416,10
2545044,9
2545620,15
2546248,25
2546876,27
2547496,38
2548128,46
2548760,42
2549376,34
2550008,24
2550632,22
2551260,20
2551892,10
2552512,21
2553144,35
2553768,35
2554392,24
2555024,19
2555644,28
2556272,37
2556900,29
2557524,27
2558156,31
2558776,30
2559408,15
2560040,15
2560660,23
2561288,29
2561908,37
2562540,36
2563168,38
2563784,35
2564412,45
2565036,55
2565660,58
2566288,42
2566904,35
2567532,25
2568156,16
2568780,10
2569408,11
2570024,13
2570652,16
2571280,20
2571904,21
2572532,20
2573156,21
2573784,29
2574412,32
2575032,25
2575660,16
2576284,14
2576908,12
2577536,19
2578152,23
2578784,20
2579408,18
2580028,19
2580660,22
2581280,29
2581908,31
2582536,29
2583152,28
2583784,25
2584408,18
2585036,13
2585664,15
2586284,35
2586916,34
2587536,23
2588164,29
2588792,27
2589416,15
2590044,10
2590668,13
2591292,22
2591924,34
2592544,22
2593172,18
2593804,10
2594424,12
2595052,11
2595676,31
2596308,21
2596936,11
2597552,28
2598184,65
2598808,82
2599432,83
2600060,69
2600680,56
2601308,42
2601932,29
2602556,11
2603184,20
2603808,22
2604436,16
2605068,12
2605688,15
2606316,21
2606940,35
2607572,39
2608200,31
2608824,18
2609452,15
2610076,13
2610700,16
2611332,10
2611952,20
2612580,26
2613204,28
2613828,12
2614456,62
2615080,103
2615760,89
2616384,60
2617004,31
2617632,18
2618256,17
2618884,11
2619516,12
2620136,19
2620768,31
2621392,45
2622016,55
2622644,42
2623264,15
2623892,18
2624520,22
2625140,20
2625772,22
2626392,17
2627020,12
2627648,12
2628268,15
2628900,15
2629520,15
2630148,16
2630780,16
2631400,17
2632028,18
2632652,16
2633272,15
2633900,13
2634520,21
2635148,37
2635772,15
2636400,20
2637028,26
2637652,24
2638280,33
2638908,27
2639528,16
2640156,14
2640780,21
2641408,25
2642036,26
2642652,20
2643284,18
2643904,11
2644528,21
2645156,31
2645776,36
2646404,34
2647028,17
2647648,21
2648280,34
2648900,55
2649532,57
2650160,36
2650784,41
2651412,27
2652036,11
2652664,15
2653296,28
2653912,28
2654540,31
2655164,32
2655788,38
2656420,38
2657040,28
2657668,26
2658292,21
2658912,14
2659544,15
2660168,11
2660796,29
2661428,28
2662048,13
2662676,43
2663300,65
2663928,81
2664556,91
2665176,79
2665804,66
2666424,44
2667048,19
2667676,20
2668296,29
2668924,23
2669544,24
2670168,26
2670796,14
2671416,24
2672044,27
2672672,15
2673292,10
2673924,13
2674544,13
2675176,14
2675804,14
2676424,14
2677052,11
2677676,12
2678300,9
2678876,10
2679500,13
2680132,21
2680756,17
2681380,16
2682008,31
2682624,40
2683256,39
2683880,33
2684500,15
2685132,10
2685752,20
2686380,29
2687012,30
2687632,29
2688264,25
2688884,21
2689512,11
2690140,10
2690760,14
2691388,13
2692012,14
2692632,17
2693264,16
2693880,10
2694508,11
2695132,13
2695756,13
2696384,14
2697000,11
2697628,25
2698256,37
2698880,45
2699508,35
2700132,25
2700760,23
2701392,22
2702008,13
2702636,10
2703260,17
2703884,26
2704516,34
2705136,30
2705764,14
2706388,24
2707012,20
2707640,15
2708256,21
2708884,15
2709512,13
2710136,14
2710764,9
2711336,18
2711972,12
2712604,20
2713224,35
2713856,43
2714476,43
2715104,39
2715736,33
2716352,27
2716984,15
2717608,13
2718228,14
2718860,20
2719480,23
2720108,24
2720732,22
2721352,21
2721984,15
2722600,11
2723228,10
2723856,10
2724480,17
2725108,23
2725728,26
2726360,33
2726988,15
2727608,11
2728236,20
2728860,35
2729484,43
2730112,48
2730728,44
2731360,40
2731984,47
2732608,43
2733236,24
2733856,15
2734484,36
2735116,23
2735736,13
2736364,21
2736988,14
2737620,10
2738248,10
2738864,14
2739496,21
2740120,23
2740744,22
2741372,24
2741992,27
2742620,18
2743244,16
2743868,14
2744500,21
2745120,23
2745748,28
2746376,31
2746996,27
2747624,41
2748248,37
2748876,38
2749508,31
2750128,34
2750756,33
2751380,25
2752008,11
2752636,26
2753256,38
2753884,35
2754508,34
2755132,30
2755764,23
2756384,17
2757012,14
2757644,14
2758264,14
2758892,15
2759516,15
2760148,11
2760780,10
2761400,14
2762028,17
2762652,17
2763276,22
2763908,34
2764528,40
2765156,33
2765780,21
2766404,16
2767032,14
2767656,15
2768284,15
2768916,11
2769536,13
2770164,10
2770788,13
2771416,11
2772048,12
2772664,12
2773296,17
2773920,16
2774544,17
2775172,28
2775792,32
2776420,17
2777044,19
2777668,29
2778300,38
2778920,44
2779548,47
2780180,32
2780800,15
2781428,16
2782052,26
2782684,21
2783316,14
2783936,19
2784568,16
2785192,11
2785816,10
2786444,14
2787064,31
2787692,35
2788316,33
2788940,22
2789568,14
2790192,17
2790824,25
2791452,19
2792072,15
2792700,14
2793324,19
2793956,36
2794584,41
2795204,28
2795832,10
2796456,10
2797080,17
2797708,32
2798328,13
2798956,63
2799584,79
2800208,52
2800836,32
2801456,20
2802084,25
2802712,19
2803336,15
2803964,11
2804588,29
2805220,54
2805848,55
2806464,42
2807092,12
2807716,22
2808340,20
2808972,12
2809592,13
2810224,11
2810848,10
2811472,12
2812100,16
2812720,19
2813352,13
2813980,27
2814600,48
2815228,61
2815856,48
2816488,31
2817116,26
2817736,18
2818364,13
2818988,20
2819612,23
2820240,30
2820856,34
2821484,29
2822108,27
2822732,18
2823360,14
2823976,13
2824608,16
2825236,17
2825856,19
2826484,16
2827108,15
2827736,27
2828368,36
2828984,40
2829612,38
2830236,31
2830860,37
2831488,40
2832104,31
2832736,17
2833360,17
2833980,17
2834612,14
2835232,15
2835860,27
2836492,39
2837112,31
2837740,12
2838364,9
2838944,16
2839572,15
2840192,12
2840820,15
2841444,13
2842076,25
2842704,21
2843328,14
2843956,22
2844580,13
2845204,10
2845836,10
2846456,11
2847084,27
2847708,47
2848332,46
2848964,22
2849584,14
2850212,14
2850844,22
2851464,43
2852092,44
2852716,20
2853348,16
2853980,22
2854600,16
2855228,17
2855852,16
2856476,19
2857108,24
2857728,25
2858356,22
2858980,17
2859608,14
2860236,20
2860856,16
2861484,22
2862116,18
2862736,20
2863364,27
2863992,36
2864624,37
2865252,36
2865872,29
2866504,16
2867128,26
2867752,35
2868384,13
2869000,13
2869628,10
2870252,15
2870876,19
2871504,19
2872128,35
2872756,43
2873388,30
2874008,26
2874636,16
2875260,22
2875892,16
2876520,20
2877140,37
2877768,27
2878392,11
2879016,13
2879644,12
2880264,11
2880892,27
2881516,39
2882136,36
2882768,36
2883384,34
2884012,34
2884640,26
2885256,11
2885884,21
2886508,30
2887136,25
2887764,18
2888384,11
2889012,15
2889632,11
2890256,19
2890884,27
2891504,16
2892132,14
2892756,15
2893380,17
2894012,16
2894632,12
2895260,9
2895832,10
2896456,18
2897084,28
2897704,36
2898332,34
2898964,18
2899584,16
2900212,20
2900836,19
2901464,15
2902096,18
2902712,29
2903344,35
2903968,21
2904592,17
2905220,13
2905840,11
2906468,21
2907092,18
2907716,13
2908348,24
2908968,38
2909596,27
2910224,20
2910848,17
2911476,10
2912100,11
2912732,10
2913360,9
2913928,12
2914556,20
2915180,22
2915812,25
2916444,18
2917064,24
2917692,31
2918320,25
2918944,11
2919572,16
2920192,28
2920820,31
2921444,33
2922068,37
2922700,26
2923320,13
2923948,13
2924580,13
2925200,27
2925828,36
2926452,22
2927084,11
2927712,11
2928336,13
2928964,17
2929588,18
2930212,14
2930844,14
2931464,21
2932092,31
2932716,39
2933340,38
2933972,27
2934596,15
2935228,14
2935856,28
2936476,38
2937104,37
2937732,30
2938360,12
2938992,11
2939612,16
2940240,17
2940864,21
2941488,22
2942116,26
2942736,27
2943368,15
2943992,14
2944616,22
2945248,25
2945872,43
2946500,66
2947132,64
2947752,45
2948384,28
2949008,15
2949636,14
2950268,14
2950888,17
2951516,16
2952140,10
2952764,19
2953392,23
2954016,19
2954644,12
2955276,16
2955896,12
2956524,10
2957148,13
2957780,18
2958408,25
2959028,23
2959656,16
2960280,18
2960904,27
2961532,20
2962152,14
2962780,18
2963404,22
2964028,34
2964656,44
2965280,33
2965908,27
2966540,24
2967160,19
2967788,15
2968412,15
2969044,12
2969676,14
2970296,10
2970924,10
2971544,22
2972168,40
2972796,35
2973416,33
2974044,22
2974668,14
2975292,14
2975924,13
2976544,14
2977172,18
2977804,14
2978424,11
2979052,15
2979676,24
2980308,21
2980936,26
2981560,43
2982188,34
2982816,22
2983436,17
2984068,16
2984688,17
2985316,10
2985940,11
2986564,11
2987196,14
2987816,17
2988444,19
2989076,12
2989696,13
2990324,18
2990948,17
2991580,23
2992208,34
2992832,26
2993460,12
2994084,28
2994708,32
2995340,42
2995960,40
2996588,29
2997212,29
2997836,33
2998468,38
2999088,32
2999716,19
3000348,16
3000968,17
3001596,11
3002220,11
3002852,11
3003484,16
3004104,27
3004736,35
3005360,34
3005984,32
3006616,32
3007232,31
3007864,21
3008488,14
3009112,15
3009740,19
3010360,20
3010992,20
3011620,17
3012240,13
3012868,17
3013492,28
3014124,36
3014756,46
3015376,45
3016008,38
3016628,29
3017256,19
3017884,15
3018504,14
3019136,18
3019760,19
3020384,21
3021016,22
3021640,29
3022268,32
3022900,26
3023520,30
3024152,40
3024776,48
3025404,43
3026036,56
3026656,51
3027288,25
3027908,21
3028536,41
3029164,53
3029784,64
3030416,86
3031044,88
3031664,85
3032296,67
3032920,52
3033552,32
3034180,16
3034800,14
3035432,10
3036056,13
3036680,14
3037312,12
3037928,19
3038560,24
3039184,25
3039808,14
3040440,12
3041056,13
3041684,15
3042316,14
3042936,15
3043564,11
3044188,15
3044820,17
3045448,12
3046072,14
3046704,15
3047328,27
3047952,21
3048584,19
3049200,18
3049828,17
3050452,18
3051080,17
3051708,15
3052328,11
3052956,18
3053588,16
3054208,18
3054836,24
3055464,19
3056092,13
3056724,17
3057344,20
3057976,18
3058600,18
3059224,15
3059852,13
3060472,17
3061104,23
3061728,24
3062352,16
3062984,15
3063600,19
3064232,25
3064864,27
3065480,25
3066112,20
3066736,15
3067368,25
3067996,16
3068616,13
3069248,13
3069876,10
3070500,12
3071132,10
3071752,16
3072388,29
3073008,41
3073632,49
3074260,20
3074884,13
3075512,15
3076140,23
3076760,29
3077388,37
3078012,36
3078644,34
3079272,30
3079892,23
3080520,12
3081144,13
3081768,11
3082396,20
3083016,34
3083644,36
3084268,27
3084892,26
3085520,17
3086144,10
3086772,14
3087404,16
3088024,25
3088652,20
3089276,20
3089904,23
3090536,21
3091156,17
3091784,13
3092408,15
3093036,14
3093664,12
3094284,28
3094912,24
3095536,13
3096160,48
3096788,79
3097416,83
3098044,83
3098676,58
3099296,35
3099924,18
3100548,14
3101180,14
3101812,18
3102432,26
3103064,28
3103688,30
3104312,26
3104940,24
3105560,28
3106188,27
3106816,28
3107440,16
3108068,15
3108692,14
3109324,14
3109956,14
3110576,22
3111204,25
3111832,21
3112456,18
3113088,19
3113704,21
3114332,23
3114956,29
3115580,23
3116212,23
3116832,25
3117460,18
3118092,14
3118712,20
3119344,20
3119968,13
3120600,11
3121228,16
3121848,21
3122476,27
3123104,27
3123728,21
3124356,13
3124976,14
3125604,15
3126228,14
3126852,13
3127484,14
3128104,11
3128732,11
3129364,11
3129984,11
3130612,13
3131240,14
3131868,21
3132500,34
3133120,44
3133752,41
3134376,33
3135000,16
3135632,22
3136248,35
3136880,36
3137504,14
3138128,11
3138756,10
3139376,10
3140004,13
3140636,15
3141256,24
3141884,24
3142512,15
3143140,13
3143772,14
3144392,17
3145020,23
3145648,24
3146272,27
3146900,11
3147520,13
3148152,29
3148776,33
3149400,28
3150032,19
3150652,13
3151280,16
3151912,11
3152532,23
3153164,31
3153788,27
3154420,33
3155052,16
3155672,13
3156304,13
3156928,11
3157552,17
3158184,25
3158800,21
3159432,19
3160056,25
3160680,40
3161308,40
3161936,37
3162564,32
3163196,26
3163816,29
3164448,25
3165072,30
3165704,29
3166332,23
3166952,16
3167584,14
3168208,11
3168832,16
3169460,21
3170080,18
3170712,15
3171340,21
3171960,23
3172592,13
3173216,11
3173848,14
3174480,16
3175096,18
3175724,20
3176348,18
3176976,14
3177604,22
3178224,24
3178856,24
3179480,18
3180104,17
3180736,28
3181352,34
3181984,31
3182616,27
3183232,19
3183864,14
3184492,14
3185120,10
3185752,13
3186372,21
3187004,31
3187632,40
3188256,45
3188884,41
3189504,21
3190136,14
3190760,18
3191384,13
3192016,24
3192632,36
3193264,30
3193896,29
3194520,28
3195152,16
3195780,11
3196412,10
3197040,10
3197664,27
3198296,36
3198920,30
3199544,28
3200176,26
3200792,16
3201420,16
3202044,19
3202664,10
3203292,24
3203916,37
3204544,41
3205172,30
3205792,27
3206420,13
3207044,18
3207672,35
3208300,23
3208920,16
3209548,23
3210172,22
3210796,10
3211428,12
3212048,11
3212676,24
3213300,28
3213924,44
3214556,42
3215180,27
3215812,17
3216440,16
3217056,16
3217684,16
3218308,20
3218936,19
3219568,11
3220184,10
3220816,15
3221440,20
3222060,24
3222692,11
3223312,14
3223940,29
3224568,23
3225192,15
3225820,14
3226444,15
3227072,11
3227704,10
3228320,12
3228952,17
3229576,12
3230204,27
3230836,44
3231456,53
3232088,44
3232708,38
3233332,28
3233964,21
3234584,15
3235212,10
3235836,12
3236464,25
3237092,29
3237716,36
3238348,42
3238980,30
3239600,17
3240228,12
3240852,15
3241476,13
3242108,14
3242728,17
3243356,16
3243980,13
3244608,16
3245236,18
3245856,24
3246484,31
3247116,37
3247736,36
3248368,30
3248988,22
3249620,17
3250248,13
3250868,15
3251496,10
3252120,10
3252744,9
3253324,15
3253948,21
3254580,21
3255204,20
3255828,17
3256460,22
3257080,32
3257708,29
3258332,20
3258956,16
3259588,14
3260208,14
3260836,23
3261468,22
3262088,18
3262716,31
3263344,57
3263976,50
3264608,24
3265224,15
3265852,15
3266480,21
3267104,32
3267732,32
3268352,17
3268980,15
3269608,22
3270232,22
3270864,17
3271480,14
3272112,12
3272740,11
3273360,15
3273992,29
3274616,23
3275248,14
3275876,14
3276496,12
3277128,16
3277748,12
3278372,20
3279000,44
3279616,47
3280244,48
3280864,59
3281488,50
3282116,36
3282732,33
3283364,23
3283988,14
3284608,14
3285236,15
3285856,9
3286436,29
3287068,56
3287684,53
3288316,47
3288936,17
3289564,10
3290192,10
3290816,13
3291444,17
3292068,22
3292688,23
3293320,22
3293936,21
3294564,25
3295188,17
3295812,13
3296440,15
3297056,19
3297688,21
3298316,28
3298936,32
3299564,31
3300188,30
3300816,19
3301444,15
3302064,19
3302692,25
3303316,23
3303940,24
3304572,10
3305192,11
3305820,10
3306444,19
3307068,26
3307696,24
3308312,20
3308940,17
3309564,14
3310192,10
3310820,13
3311444,11
3312072,10
3312704,12
3313320,14
3313948,13
3314572,10
3315200,13
3315832,25
3316448,46
3317076,70
3317700,71
3318324,57
3318956,28
3319576,11
3320204,16
3320828,20
3321456,11
3322084,9
3322656,12
3323284,19
3323916,26
3324536,27
3325164,31
3325788,31
3326420,13
3327048,19
3327668,29
3328296,22
3328916,21
3329540,21
3330168,29
3330784,43
3331416,45
3332036,35
3332660,26
3333288,19
3333904,13
3334532,16
3335156,17
3335780,18
3336408,20
3337032,27
3337660,38
3338288,51
3338904,46
3339532,16
3340156,11
3340788,13
3341416,17
3342036,16
3342664,25
3343288,55
3343912,46
3344540,25
3345160,15
3345788,19
3346412,26
3347036,35
3347664,38
3348284,37
3348912,26
3349540,13
3350160,15
3350788,15
3351412,16
3352044,12
3352672,16
3353292,27
3353920,28
3354544,32
3355168,22
3355796,20
3356416,27
3357044,21
3357668,21
3358292,26
3358924,22
3359544,14
3360172,16
3360800,23
3361416,32
3362044,35
3362668,33
3363296,32
3363924,40
3364544,41
3365172,43
3365796,19
3366416,15
3367044,17
3367664,16
3368292,16
3368916,23
3369540,33
3370168,26
3370784,14
3371416,11
3372044,13
3372664,11
3373292,22
3373916,25
3374548,15
3375176,14
3375796,15
3376424,20
3377048,19
3377672,17
3378300,16
3378920,21
3379548,23
3380172,17
3380796,20
3381424,27
3382040,31
3382668,28
3383292,26
3383920,20
3384548,14
3385172,23
3385800,26
3386432,28
3387048,27
3387676,20
3388300,12
3388932,10
3389560,12
3390176,14
3390808,19
3391432,16
3392056,14
3392684,14
3393304,16
3393932,17
3394556,16
3395180,20
3395808,26
3396432,29
3397060,30
3397692,32
3398312,39
3398944,25
3399564,14
3400196,15
3400824,15
3401440,12
3402072,10
3402696,10
3403316,13
3403948,10
3404568,11
3405196,13
3405820,13
3406448,10
3407076,31
3407700,23
3408328,15
3408960,14
3409576,15
3410204,10
3410828,10
3411456,11
3412088,20
3412704,25
3413332,25
3413956,30
3414580,34
3415212,28
3415832,20
3416460,19
3417084,18
3417712,14
3418340,14
3418964,14
3419596,29
3420224,28
3420848,16
3421476,21
3422100,22
3422728,21
3423356,15
3423976,27
3424608,28
3425232,15
3425856,24
3426484,30
3427104,20
3427736,11
3428364,16
3428984,41
3429612,49
3430236,53
3430868,55
3431500,50
3432120,39
3432748,28
3433372,15
3433996,16
3434628,19
3435248,25
3435876,27
3436500,17
3437128,11
3437756,10
3438376,19
3439008,25
3439636,22
3440256,19
3440884,19
3441508,13
3442136,19
3442768,21
3443384,17
3444012,14
3444636,16
3445260,12
3445888,10
3446504,10
3447136,14
3447760,17
3448384,24
3449012,28
3449632,34
3450260,32
3450892,28
3451512,24
3452140,10
3452764,17
3453396,25
3454028,32
3454648,20
3455276,17
3455904,18
3456528,19
3457156,23
3457776,16
3458404,15
3459028,17
3459652,15
3460280,15
3460904,21
3461532,23
3462164,21
3462784,30
3463412,32
3464036,37
3464664,31
3465296,23
3465912,15
3466540,17
3467164,18
3467792,15
3468420,11
3469040,13
3469668,11
3470292,13
3470916,26
3471548,22
3472168,26
3472796,33
3473428,62
3474048,44
3474676,16
3475300,49
3475932,50
3476564,14
3477184,15
3477812,13
3478440,21
3479064,34
3479692,30
3480312,36
3480944,40
3481568,38
3482192,25
3482820,16
3483440,13
3484068,14
3484696,12
3485320,11
3485948,9
3486520,11
3487148,12
3487780,16
3488400,25
3489028,21
3489652,27
3490280,27
3490908,21
3491528,19
3492156,15
3492780,16
3493404,27
3494036,26
3494656,17
3495284,10
3495908,10
3496532,19
3497164,38
3497784,47
3498412,49
3499044,38
3499664,26
3500292,14
3500920,13
3501548,13
3502180,10
3502800,11
3503428,12
3504052,19
3504676,31
3505308,42
3505928,43
3506556,36
3507184,24
3507808,16
3508436,13
3509060,14
3509692,11
3510324,14
3510944,23
3511576,33
3512200,38
3512832,28
3513460,14
3514080,11
3514708,29
3515336,47
3515960,35
3516592,29
3517208,29
3517840,27
3518472,13
3519088,18
3519720,23
3520344,28
3520972,24
3521604,20
3522224,23
3522852,19
3523476,25
3524100,22
3524732,16
3525352,16
3525980,14
3526604,25
3527228,24
3527856,26
3528480,16
3529108,13
3529740,16
3530360,11
3530988,15
3531612,11
3532244,14
3532872,19
3533496,54
3534124,62
3534748,49
3535372,18
3536000,17
3536616,11
3537248,23
3537872,20
3538496,13
3539124,17
3539744,40
3540372,43
3541004,32
3541624,18
3542252,14
3542880,16
3543508,14
3544140,16
3544760,17
3545388,18
3546016,21
3546636,27
3547268,29
3547888,31
3548516,21
3549140,14
3549764,13
3550396,14
3551016,19
3551648,11
3552280,31
3552896,39
3553524,26
3554152,13
3554780,11
3555412,10
3556032,13
3556660,13
3557288,19
3557912,16
3558544,21
3559160,30
3559792,21
3560416,20
3561040,20
3561668,11
3562288,14
3562916,21
3563548,26
3564168,26
3564796,29
3565420,27
3566052,19
3566684,14
3567304,14
3567936,11
3568560,11
3569184,14
3569816,16
3570432,20
3571064,24
3571688,19
3572312,12
3572944,12
3573560,16
3574192,17
3574820,16
3575440,17
3576072,16
3576696,13
3577328,25
3577956,28
3578576,39
3579208,38
3579832,32
3580456,25
3581088,25
3581704,28
3582336,26
3582964,15
3583588,15
3584220,17
3584844,13
3585472,11
3586100,14
3586720,20
3587348,16
3587972,23
3588604,42
3589232,33
3589848,13
3590480,15
3591104,24
3591728,32
3592356,29
3592976,37
3593604,40
3594228,21
3594852,11
3595484,16
3596108,12
3596740,24
3597368,40
3597992,40
3598624,35
3599248,46
3599876,43
3600508,31
3601128,17
3601756,12
3602380,15
3603004,20
3603636,32
3604256,39
3604884,40
3605512,36
3606136,29
3606764,21
3607388,15
3608016,17
3608644,21
3609264,27
3609892,18
3610516,12
3611140,12
3611772,12
3612392,21
3613020,38
3613644,50
3614268,53
3614900,52
3615520,41
3616148,23
3616776,14
3617400,15
3618028,17
3618652,11
3619280,9
3619860,15
3620484,33
3621112,41
3621736,27
3622364,17
3622996,15
3623616,21
3624244,21
3624868,15
3625492,17
3626124,18
3626744,21
3627372,15
3627996,10
3628620,11
3629252,18
3629872,17
3630500,31
3631132,44
3631752,42
3632384,29
3633008,20
3633636,15
3634268,22
3634888,15
3635516,11
3636140,9
3636712,15
3637348,11
3637968,11
3638596,12
3639220,11
3639844,13
3640476,20
3641096,28
3641724,32
3642348,34
3642972,18
3643604,29
3644228,38
3644856,30
3645488,25
3646104,21
3646732,26
3647356,23
3647988,15
3648620,16
3649240,25
3649868,30
3650492,38
3651116,28
3651748,16
3652368,17
3652996,35
3653620,23
3654244,18
3654876,28
3655500,17
3656132,13
3656760,13
3657380,19
3658008,27
3658632,27
3659260,25
3659892,10
3660512,22
3661144,17
3661768,16
3662388,23
3663020,22
3663640,22
3664268,25
3664892,25
3665520,15
3666152,16
3666776,15
3667404,19
3668036,26
3668656,26
3669284,11
3669908,21
3670536,30
3671164,33
3671784,29
3672416,19
3673040,18
3673664,16
3674292,12
3674912,13
3675544,13
3676172,32
3676792,45
3677424,31
3678048,23
3678680,14
3679312,10
3679928,10
3680560,19
3681184,32
3681808,34
3682436,20
3683056,19
3683688,14
3684312,18
3684936,17
3685568,22
3686184,25
3686816,25
3687444,12
3688064,10
3688692,10
3689312,15
3689944,21
3690572,26
3691192,29
3691820,20
3692444,14
3693068,25
3693696,34
3694320,33
3694948,29
3695572,21
3696196,18
3696828,22
3697448,33
3698076,33
3698708,22
3699328,19
3699956,17
3700580,13
3701212,14
3701840,16
3702460,10
3703088,10
3703712,24
3704336,33
3704964,28
3705584,24
3706216,15
3706840,15
3707464,13
3708092,19
3708712,22
3709344,17
3709972,12
3710592,17
3711224,11
3711848,22
3712480,30
3713108,40
3713728,56
3714356,54
3714980,37
3715604,23
3716236,12
3716856,15
3717484,14
3718108,11
3718732,10
3719364,16
3719984,27
3720616,22
3721244,22
3721864,18
3722492,14
3723116,14
3723748,19
3724380,14
3725000,15
3725628,16
3726252,11
3726876,10
3727508,10
3728128,22
3728756,28
3729380,25
3730004,37
3730636,54
3731256,56
3731884,44
3732516,23
3733136,14
3733764,13
3734388,18
3735020,12
3735652,10
3736272,19
3736904,25
3737528,19
3738152,11
3738780,19
3739400,27
3740028,17
3740652,15
3741276,17
3741908,15
3742532,15
3743164,10
3743796,10
3744416,11
3745044,10
3745668,18
3746300,17
3746928,23
3747552,29
3748184,20
3748808,19
3749428,17
3750060,13
3750680,15
3751308,21
3751936,18
3752560,14
3753192,15
3753816,57
3754448,65
3755076,12
3755696,30
3756328,17
3756952,15
3757576,15
3758208,13
3758824,14
3759456,22
3760080,39
3760704,56
3761332,35
3761952,15
3762584,12
3763212,13
3763832,29
3764460,42
3765088,28
3765716,18
3766348,16
3766968,14
3767600,13
3768224,10
3768848,11
3769476,12
3770096,15
3770724,28
3771352,31
3771976,28
3772604,21
3773224,18
3773856,20
3774484,18
3775104,15
3775736,19
3776360,19
3776988,11
3777620,11
3778240,17
3778868,30
3779492,32
3780120,32
3780748,22
3781368,19
3781996,23
3782624,31
3783248,23
3783876,19
3784496,12
3785124,12
3785756,14
3786376,14
3787008,21
3787632,31
3788264,33
3788892,30
3789512,16
3790140,17
3790764,23
3791388,14
3792020,20
3792640,21
3793268,18
3793892,23
3794516,13
3795148,10
3795768,11
3796396,13
3797028,30
3797648,40
3798280,43
3798904,29
3799536,19
3800164,14
3800784,18
3801416,10
3802040,15
3802664,22
3803292,11
3803912,14
3804544,12
3805168,12
3805792,12
3806424,11
3807048,14
3807676,16
3808312,18
3808928,16
3809560,14
3810184,13
3810812,13
3811444,12
3812064,11
3812692,27
3813320,39
3813944,49
3814576,42
3815192,31
3815824,17
3816452,14
3817072,29
3817704,28
3818328,11
3818956,12
3819588,10
3820208,15
3820840,10
3821464,9
3822036,11
3822672,23
3823292,56
3823920,67
3824548,44
3825172,14
3825804,25
3826424,47
3827056,37
3827680,23
3828304,24
3828936,27
3829552,34
3830184,44
3830816,45
3831440,34
3832072,20
3832696,20
3833328,20
3833960,15
3834576,14
3835208,18
3835836,17
3836460,21
3837092,19
3837712,17
3838344,12
3838972,10
3839600,12
3840236,15
3840856,19
3841488,25
3842116,15
3842736,15
3843364,16
3843988,16
3844616,10
3845244,10
3845864,23
3846492,27
3847116,28
3847740,29
3848372,25
3848992,20
3849620,15
3850252,12
3850872,19
3851500,13
3852124,9
3852704,9
3853276,10
3853904,13
3854532,14
3855152,15
3855784,11
3856412,22
3857032,38
3857660,43
3858284,31
3858916,21
3859544,12
3860164,10
3860792,17
3861416,23
3862040,28
3862668,40
3863288,40
3863916,23
3864544,25
3865168,26
3865796,36
3866416,40
3867044,31
3867676,22
3868296,11
3868924,11
3869548,10
3870180,11
3870812,16
3871432,29
3872064,21
3872684,19
3873308,20
3873940,17
3874560,15
3875188,14
3875816,14
3876440,17
3877068,18
3877688,15
3878316,19
3878948,24
3879568,26
3880200,27
3880824,25
3881452,10
3882084,14
3882704,30
3883336,35
3883960,32
3884584,23
3885216,11
3885832,33
3886464,51
3887088,49
3887712,42
3888344,21
3888968,15
3889596,10
3890228,21
3890848,22
3891480,18
3892104,15
3892732,12
3893364,15
3893984,26
3894612,47
3895236,53
3895860,47
3896492,40
3897112,29
3897740,31
3898364,24
3898992,19
3899620,14
3900248,17
3900876,20
3901508,12
3902128,14
3902760,10
3903384,13
3904008,15
3904636,16
3905256,20
3905888,15
3906512,11
3907136,21
3907768,20
3908384,17
3909016,15
3909644,17
3910264,32
3910896,23
3911520,11
3912152,10
3912780,19
3913400,36
3914032,45
3914656,40
3915280,30
3915912,18
3916528,13
3917160,16
3917784,20
3918408,11
3919040,14
3919660,21
3920292,22
3920920,21
3921540,19
3922168,18
3922792,24
3923424,29
3924052,20
3924672,17
3925304,23
3925928,16
3926552,37
3927184,27
3927800,19
3928432,16
3929056,12
3929680,19
3930308,38
3930928,38
3931560,41
3932188,35
3932808,23
3933436,14
3934060,13
3934692,13
3935320,15
3935944,26
3936576,41
3937200,38
3937824,37
3938452,30
3939072,16
3939700,15
3940328,21
3940952,21
3941580,26
3942200,23
3942832,20
3943460,22
3944080,11
3944708,10
3945332,13
3945960,20
3946592,26
3947208,45
3947840,55
3948464,56
3949088,55
3949716,40
3950336,25
3950968,15
3951592,12
3952216,23
3952844,33
3953464,34
3954092,32
3954724,30
3955344,29
3955972,21
3956596,19
3957228,31
3957860,34
3958480,18
3959108,25
3959732,34
3960360,15
3960988,10
3961608,11
3962236,11
3962864,17
3963488,40
3964116,47
3964744,45
3965372,29
3966004,19
3966624,24
3967256,33
3967880,36
3968512,16
3969140,11
3969760,33
3970388,28
3971012,10
3971640,10
3972268,10
3972888,12
3973516,32
3974144,34
3974768,18
3975396,15
3976020,15
3976652,20
3977280,17
3977900,15
3978528,10
3979152,10
3979784,21
3980416,19
3981032,24
3981664,25
3982288,31
3982912,27
3983544,24
3984160,15
3984788,11
3985420,18
3986040,23
3986668,25
3987292,27
3987924,20
3988556,26
3989176,38
3989808,30
3990432,14
3991056,18
3991684,24
3992304,34
3992936,34
3993560,37
3994188,34
3994816,18
3995440,16
3996068,17
3996700,20
3997320,27
3997952,40
3998576,33
3999208,18
3999836,16
4000456,20
4001088,16
4001708,11
4002332,23
4002964,44
4003584,53
4004212,47
4004836,37
4005460,37
4006088,24
4006712,27
4007340,19
4007972,14
4008592,23
4009220,45
4009844,65
4010476,58
4011104,46
4011724,31
4012352,20
4012976,17
4013600,23
4014228,26
4014848,30
4015476,21
4016100,19
4016724,21
4017352,14
4017976,11
4018604,11
4019236,18
4019856,26
4020484,23
4021108,30
4021736,31
4022368,29
4022984,30
4023616,42
4024240,27
4024864,14
4025492,16
4026112,17
4026740,20
4027364,21
4027988,24
4028620,20
4029240,19
4029868,16
4030500,28
4031120,43
4031752,47
4032376,40
4033004,27
4033636,20
4034256,17
4034884,10
4035508,10
4036132,14
4036764,13
4037384,29
4038012,25
4038640,24
4039260,25
4039892,18
4040516,15
4041148,15
4041776,14
4042400,16
4043028,12
4043652,12
4044284,12
4044916,18
4045536,23
4046164,24
4046788,30
4047412,35
4048044,37
4048664,42
4049292,30
4049916,24
4050544,24
4051172,19
4051800,13
4052428,11
4053060,25
4053680,32
4054312,35
4054936,29
4055560,14
4056188,14
4056808,22
4057436,15
4058064,15
4058684,15
4059316,14
4059936,15
4060568,12
4061196,20
4061816,22
4062444,15
4063072,22
4063700,35
4064332,32
4064952,36
4065584,44
4066208,29
4066832,14
4067460,35
4068080,45
4068708,48
4069336,30
4069960,11
4070592,10
4071208,11
4071836,21
4072468,30
4073088,25
4073716,19
4074344,16
4074972,14
4075604,16
4076224,16
4076852,11
4077476,20
4078104,24
4078732,15
4079352,21
4079984,23
4080608,28
4081232,31
4081864,26
4082484,18
4083116,16
4083744,26
4084368,26
4085000,13
4085624,20
4086252,35
4086884,22
4087504,15
4088136,14
4088760,13
4089384,19
4090016,25
4090632,23
4091264,23
4091892,21
4092516,14
4093148,21
4093772,25
4094404,34
4095036,34
4095660,31
4096292,37
4096912,43
4097540,34
4098168,31
4098784,24
4099412,21
4100032,15
4100656,14
4101284,10
4101900,21
4102532,25
4103152,25
4103776,22
4104404,28
4105024,29
4105652,22
4106284,22
4106900,21
4107532,15
4108152,16
4108784,14
4109412,10
4110032,13
4110660,29
4111284,31
4111908,34
4112536,34
4113152,19
4113784,23
4114408,37
4115028,36
4115660,32
4116280,19
4116908,14
4117536,22
4118160,27
4118788,38
4119412,50
4120040,25
4120668,15
4121288,13
4121916,21
4122540,14
4123160,17
4123792,21
4124408,25
4125036,22
4125660,14
4126284,13
4126912,11
4127528,27
4128160,28
4128788,23
4129408,27
4130036,17
4130660,23
4131288,32
4131916,28
4132536,20
4133164,14
4133788,14
4134412,12
4135040,11
4135656,10
4136288,20
4136912,29
4137536,13
4138164,12
4138784,11
4139412,10
4140044,12
4140664,16
4141292,16
4141916,13
4142548,20
4143176,29
4143796,29
4144424,15
4145048,15
4145672,17
4146300,16
4146920,21
4147548,33
4148172,40
4148796,32
4149424,24
4150048,17
4150676,14
4151308,14
4151928,22
4152556,27
4153180,33
4153812,35
4154444,26
4155064,15
4155692,10
4156316,12
4156940,17
4157572,16
4158192,13
4158820,14
4159444,10
4160068,11
4160696,16
4161316,17
4161948,22
4162576,29
4163192,28
4163820,19
4164444,19
4165072,17
4165704,16
4166320,26
4166948,33
4167572,16
4168200,16
4168828,12
4169448,11
4170076,21
4170700,27
4171324,36
4171952,31
4172576,17
4173204,17
4173836,22
4174456,15
4175084,13
4175708,14
4176340,11
4176968,14
4177584,19
4178212,17
4178836,21
4179460,11
4180092,14
4180712,24
4181340,39
4181964,49
4182588,37
4183216,22
4183832,20
4184460,15
4185084,10
4185712,13
4186340,16
4186964,15
4187592,14
4188220,14
4188840,18
4189468,24
4190092,25
4190720,16
4191348,13
4191968,15
4192600,14
4193220,15
4193844,13
4194476,16
4195096,18
4195724,17
4196352,17
4196976,26
4197604,43
4198228,39
4198860,18
4199488,14
4200108,14
4200736,19
4201360,17
4201988,26
4202616,40
4203232,59
4203864,63
4204488,35
4205108,11
4205740,41
4206360,48
4206988,30
4207612,14
4208240,21
4208868,26
4209492,13
4210120,24
4210752,25
4211368,22
4211996,19
4212620,25
4213252,39
4213880,44
4214500,28
4215128,18
4215752,25
4216376,40
4217004,40
4217624,19
4218252,16
4218876,30
4219504,26
4220132,18
4220756,28
4221388,46
4222020,37
4222640,20
4223268,21
4223892,19
4224520,19
4225148,13
4225768,20
4226396,32
4227020,50
4227644,39
4228272,19
4228892,14
4229520,21
4230148,32
4230768,41
4231396,37
4232020,29
4232648,21
4233280,18
4233896,21
4234524,10
4235148,11
4235780,10
4236412,10
4237032,13
4237660,12
4238284,17
4238908,30
4239540,30
4240160,29
4240788,20
4241416,20
4242040,21
4242668,15
4243292,11
4243920,10
4244552,10
4245168,13
4245796,27
4246420,37
4247044,39
4247676,40
4248296,41
4248924,26
4249548,16
4250176,17
4250804,14
4251424,11
4252052,12
4252684,18
4253304,37
4253932,27
4254556,19
4255188,13
4255820,10
4256440,15
4257068,23
4257692,18
4258316,14
4258948,15
4259568,14
4260196,16
4260820,16
4261444,20
4262072,25
4262692,20
4263320,19
4263948,20
4264568,29
4265196,30
4265820,32
4266448,27
4267080,14
4267696,11
4268324,11
4268948,12
4269572,23
4270204,10
4270824,11
4271452,11
4272076,15
4272700,37
4273332,44
4273952,29
4274580,18
4275212,12
4275832,17
4276460,21
4277084,19
4277716,24
4278344,21
4278964,11
4279592,17
4280220,43
4280844,51
4281472,36
4282088,19
4282720,22
4283344,20
4283968,17
4284596,10
4285216,15
4285844,20
4286476,21
4287096,22
4287728,20
4288352,15
4288980,14
4289608,22
4290232,35
4290860,37
4291484,23
4292108,17
4292740,15
4293360,16
4293988,15
4294612,14
4295236,27
4295868,43
4296488,64
4297116,50
4297748,48
4298368,65
4298996,62
4299624,41
4300252,17
4300884,16
4301500,15
4302132,28
4302756,38
4303380,30
4304008,28
4304624,23
4305252,26
4305876,30
4306500,24
4307132,16
4307752,13
4308380,14
4309012,16
4309632,19
4310260,23
4310888,22
4311516,17
4312148,14
4312768,18
4313396,25
4314024,27
4314648,29
4315276,28
4315896,26
4316528,16
4317152,21
4317776,28
4318404,12
4319024,15
4319656,15
4320284,20
4320904,22
4321532,34
4322156,22
4322788,18
4323416,31
4324036,23
4324664,19
4325288,17
4325912,14
4326540,26
4327160,23
4327788,16
4328412,15
4329036,16
4329664,18
4330288,22
4330916,38
4331548,49
4332168,51
4332796,50
4333424,43
4334052,31
4334684,13
4335304,13
4335936,26
4336560,37
4337184,47
4337816,46
4338432,29
4339064,15
4339688,18
4340312,25
4340944,30
4341560,19
4342192,14
4342820,19
4343440,27
4344068,14
4344692,11
4345324,12
4345952,32
4346576,52
4347204,56
4347828,56
4348452,47
4349084,28
4349704,15
4350336,14
4350960,17
4351584,14
4352216,33
4352836,41
4353468,16
4354096,13
4354712,17
4355344,13
4355968,18
4356596,15
4357228,14
4357848,14
4358476,14
4359100,13
4359724,12
4360352,26
4360976,32
4361604,24
4362228,22
4362852,21
4363480,26
4364108,28
4364736,34
4365368,32
4365984,22
4366612,13
4367236,14
4367868,10
4368500,10
4369120,19
4369748,33
4370372,34
4370996,31
4371628,29
4372248,40
4372876,15
4373500,14
4374128,14
4374756,15
4375384,15
4376012,11
4376644,10
4377264,13
4377896,16
4378520,31
4379144,35
4379772,36
4380392,35
4381024,36
4381648,36
4382272,31
4382900,17
4383520,16
4384148,23
4384780,15
4385400,15
4386028,15
4386652,16
4387284,24
4387912,27
4388532,15
4389160,15
4389784,13
4390408,15
4391040,16
4391656,19
4392288,18
4392912,18
4393536,17
4394168,14
4394784,18
4395416,31
4396044,28
4396664,21
4397296,27
4397920,33
4398552,17
4399180,15
4399800,16
4400432,14
4401056,11
4401680,11
4402308,11
4402928,14
4403560,19
4404180,24
4404804,29
4405432,31
4406056,36
4406684,31
4407316,13
4407936,14
4408568,13
4409188,15
4409820,21
4410452,32
4411072,28
4411704,27
4412328,33
4412952,37
4413580,40
4414200,40
4414828,27
4415456,21
4416080,20
4416708,20
4417328,21
4417956,10
4418588,10
4419208,17
4419836,17
4420460,19
4421092,35
4421724,42
4422344,31
4422976,19
4423600,15
4424224,14
4424852,13
4425472,25
4426100,26
4426724,11
4427348,19
4427980,16
4428600,23
4429228,27
4429860,51
4430480,63
4431108,58
4431732,54
4432364,41
4432992,27
4433616,26
4434244,11
4434868,20
4435492,30
4436124,24
4436744,17
4437372,18
4438000,34
4438624,45
4439252,43
4439876,29
4440508,16
4441140,15
4441760,15
4442388,17
4443012,13
4443644,19
4444276,28
4444896,32
4445524,35
4446148,16
4446772,19
4447404,36
4448024,51
4448652,37
4449276,26
4449904,29
4450532,22
4451160,20
4451792,20
4452420,11
4453040,18
4453672,31
4454296,37
4454920,41
4455552,35
4456168,45
4456800,34
4457424,15
4458048,17
4458676,15
4459296,15
4459928,10
4460556,19
4461176,34
4461808,23
4462432,11
4463064,13
4463692,23
4464312,53
4464944,73
4465568,58
4466192,35
4466824,14
4467440,19
4468068,21
4468692,21
4469320,21
4469948,23
4470568,45
4471196,47
4471828,13
4472448,17
4473076,15
4473704,16
4474332,21
4474964,22
4475584,18
4476216,11
4476840,10
4477464,19
4478096,29
4478712,28
4479344,23
4479968,20
4480596,24
4481224,18
4481848,14
4482476,14
4483108,13
4483728,14
4484356,10
4484980,11
4485612,16
4486240,23
4486864,22
4487492,19
4488116,23
4488740,30
4489372,36
4489992,30
4490620,17
4491244,30
4491868,29
4492500,22
4493124,17
4493752,12
4494384,13
4495004,37
4495636,53
4496260,49
4496888,43
4497516,34
4498136,33
4498764,28
4499392,21
4500016,14
4500644,14
4501264,16
4501896,28
4502520,28
4503144,18
4503776,18
4504400,21
4505028,19
4505660,23
4506280,23
4506908,18
4507532,18
4508160,16
4508788,14
4509408,12
4510036,11
4510660,10
4511288,17
4511916,25
4512536,23
4513164,27
4513788,35
4514416,42
4515044,36
4515668,25
4516300,14
4516928,16
4517552,11
4518180,13
4518808,27
4519428,35
4520060,32
4520680,24
4521308,11
4521932,10
4522556,12
4523188,14
4523808,13
4524436,14
4525068,14
4525688,13
4526316,32
4526944,53
4527572,55
4528204,36
4528824,37
4529452,32
4530076,28
4530700,36
4531332,36
4531952,24
4532580,17
4533204,16
4533828,15
4534460,20
4535080,11
4535708,25
4536340,35
4536960,36
4537588,29
4538212,24
4538844,29
4539476,26
4540096,17
4540728,13
4541352,15
4541976,15
4542608,13
4543224,16
4543856,15
4544480,20
4545104,25
4545736,25
4546352,29
4546984,37
4547612,36
4548232,27
4548860,22
4549484,15
4550116,13
4550748,10
4551368,12
4552000,18
4552620,17
4553248,17
4553876,16
4554496,16
4555128,21
4555752,35
4556376,33
4557008,35
4557624,52
4558256,35
4558884,14
4559504,14
4560136,14
4560760,21
4561388,43
4562020,43
4562640,33
4563268,43
4563892,57
4564516,67
4565148,57
4565768,43
4566396,25
4567024,17
4567648,11
4568276,11
4568904,16
4569532,21
4570164,30
4570784,38
4571416,33
4572040,24
4572672,16
4573300,19
4573920,16
4574552,17
4575176,17
4575800,11
4576432,11
4577048,10
4577680,17
4578308,21
4578928,22
4579560,25
4580184,35
4580812,49
4581444,46
4582064,37
4582696,20
4583320,15
4583944,19
4584576,11
4585192,15
4585824,23
4586448,34
4587072,38
4587704,17
4588320,15
4588952,16
4589580,14
4590200,13
4590828,15
4591456,15
4592084,14
4592716,12
4593336,17
4593964,19
4594592,16
4595216,13
4595844,10
4596464,24
4597096,17
4597720,12
4598344,24
4598976,28
4599592,17
4600224,14
4600852,10
4601472,12
4602104,10
4602728,10
4603356,9
4603936,9
4604512,12
4605144,17
4605768,23
4606396,18
4607028,13
4607648,14
4608280,29
4608904,31
4609532,36
4610160,36
4610784,30
4611412,23
4612036,20
4612660,25
4613288,31
4613904,27
4614536,29
4615160,25
4615784,32
4616412,31
4617036,17
4617664,11
4618296,13
4618912,24
4619540,40
4620164,43
4620796,37
4621424,34
4622048,24
4622676,11
4623300,13
4623928,13
4624556,15
4625176,17
4625804,15
4626428,16
4627056,16
4627688,16
4628312,12
4628940,11
4629572,14
4630192,27
4630820,33
4631448,30
4632072,21
4632700,18
4633320,26
4633952,29
4634572,13
4635196,20
4635828,28
4636448,37
4637076,40
4637708,34
4638328,11
4638960,11
4639584,17
4640212,25
4640844,14
4641464,16
4642092,18
4642716,14
4643340,12
4643968,14
4644592,12
4645220,14
4645844,26
4646468,43
4647100,48
4647720,33
4648348,13
4648980,14
4649600,17
4650228,13
4650852,11
4651484,11
4652112,11
4652736,11
4653368,11
4653992,17
4654616,16
4655244,10
4655864,14
4656496,27
4657120,31
4657744,28
4658376,28
4658992,19
4659624,13
4660252,10
4660872,22
4661500,54
4662128,57
4662756,53
4663388,46
4664008,29
4664636,24
4665260,32
4665888,24
4666516,17
4667136,15
4667768,27
4668392,33
4669016,13
4669648,12
4670264,15
4670892,12
4671524,11
4672144,17
4672772,28
4673396,17
4674028,16
4674656,15
4675272,14
4675904,12
4676528,16
4677152,14
4677780,10
4678400,12
4679028,11
4679652,31
4680280,49
4680908,52
4681528,39
4682160,29
4682788,21
4683408,19
4684040,11
4684664,11
4685292,16
4685924,22
4686544,28
4687172,24
4687800,20
4688424,15
4689052,16
4689672,25
4690304,25
4690928,21
4691552,17
4692180,14
4692804,20
4693436,34
4694068,30
4694688,17
4695320,10
4695944,19
4696572,12
4697204,23
4697824,41
4698452,49
4699080,35
4699704,25
4700336,22
4700952,17
4701584,11
4702212,23
4702832,31
4703464,26
4704088,21
4704716,24
4705348,16
4705968,15
4706600,21
4707224,19
4707848,14
4708480,16
4709096,13
4709728,14
4710356,15
4710980,15
4711612,12
4712232,13
4712860,15
4713492,22
4714112,27
4714744,35
4715368,38
4716000,27
4716628,18
4717248,16
4717876,15
4718504,10
4719128,16
4719760,23
4720376,28
4721008,25
4721632,11
4722256,12
4722884,13
4723504,18
4724136,26
4724764,14
4725384,21
4726016,21
4726640,20
4727268,18
4727900,20
4728520,14
4729152,11
4729776,11
4730400,17
4731032,43
4731648,56
4732280,37
4732904,14
4733528,20
4734160,23
4734776,18
4735408,26
4736040,34
4736656,37
4737284,28
4737908,30
4738540,11
4739172,10
4739792,15
4740424,17
4741048,15
4741672,15
4742304,14
4742920,14
4743552,25
4744176,33
4744800,37
4745428,19
4746056,15
4746688,51
4747316,63
4747936,49
4748568,43
4749192,35
4749824,25
4750452,16
4751072,10
4751704,23
4752328,41
4752952,38
4753584,24
4754200,19
4754832,19
4755460,11
4756080,11
4756708,13
4757336,14
4757964,14
4758596,14
4759216,15
4759848,20
4760472,23
4761096,22
4761728,20
4762344,12
4762972,10
4763596,15
4764224,29
4764852,40
4765472,32
4766104,24
4766732,16
4767352,13
4767984,11
4768608,19
4769236,26
4769868,32
4770488,31
4771120,23
4771744,17
4772368,12
4772996,15
4773616,18
4774248,20
4774872,19
4775496,16
4776128,11
4776744,10
4777376,13
4778008,11
4778624,15
4779256,31
4779880,38
4780512,17
4781140,23
4781760,34
4782392,47
4783016,46
4783640,21
4784272,17
4784892,17
4785524,13
4786148,14
4786772,10
4787404,16
4788024,14
4788656,15
4789284,17
4789904,23
4790536,24
4791160,20
4791792,14
4792424,22
4793040,29
4793672,31
4794296,23
4794920,30
4795552,39
4796172,44
4796800,37
4797424,21
4798052,13
4798684,13
4799308,13
4799940,16
4800576,13
4801192,11
4801820,23
4802444,26
4803076,22
4803708,20
4804328,11
4804956,13
4805580,11
4806208,25
4806836,22
4807456,21
4808084,20
4808716,16
4809336,11
4809968,22
4810592,40
4811220,35
4811852,26
4812472,30
4813104,35
4813728,41
4814352,36
4814980,18
4815600,15
4816228,15
4816852,13
4817476,11
4818108,10
4818728,16
4819356,17
4819988,22
4820608,30
4821236,32
4821860,35
4822492,48
4823124,56
4823744,26
4824372,23
4824996,33
4825624,42
4826252,44
4826872,44
4827504,25
4828128,11
4828752,12
4829384,14
4830000,15
4830632,21
4831264,20
4831884,20
4832516,23
4833140,28
4833768,28
4834400,19
4835016,12
4835648,19
4836272,12
4836896,20
4837524,13
4838144,15
4838776,21
4839400,25
4840024,19
4840652,14
4841272,15
4841900,20
4842532,23
4843152,19
4843784,11
4844408,11
4845036,11
4845668,24
4846288,44
4846916,50
4847544,20
4848168,19
4848796,14
4849416,34
4850048,41
4850672,27
4851296,15
4851924,12
4852552,20
4853180,26
4853812,22
4854432,11
4855060,12
4855688,11
4856316,17
4856948,18
4857568,16
4858200,15
4858824,13
4859448,10
4860080,10
4860696,10
4861328,18
4861960,28
4862580,26
4863208,22
4863836,21
4864468,28
4865096,33
4865720,24
4866348,20
4866972,16
4867596,15
4868228,33
4868848,43
4869476,28
4870100,11
4870728,17
4871356,10
4871976,22
4872608,37
4873236,38
4873856,19
4874488,13
4875112,19
4875740,13
4876372,29
4876992,28
4877620,19
4878244,21
4878868,34
4879500,41
4880120,51
4880748,45
4881372,27
4881996,19
4882628,16
4883248,18
4883876,18
4884508,18
4885128,12
4885756,12
4886384,18
4887012,27
4887644,34
4888264,43
4888896,41
4889520,36
4890144,29
4890772,21
4891392,25
4892024,17
4892648,34
4893272,36
4893904,23
4894520,22
4895152,17
4895784,16
4896404,22
4897032,51
4897660,50
4898288,21
4898916,15
4899536,17
4900168,25
4900792,27
4901416,14
4902048,9
4902616,16
4903248,29
4903872,26
4904496,11
4905128,10
4905744,26
4906376,41
4907000,24
4907624,20
4908256,17
4908880,13
4909508,11
4910140,16
4910760,27
4911392,38
4912016,29
4912648,28
4913276,34
4913900,40
4914532,31
4915156,23
4915784,31
4916412,35
4917032,24
4917660,12
4918292,10
4918912,21
4919540,23
4920164,18
4920796,14
4921424,17
4922048,25
4922676,29
4923300,29
4923924,22
4924556,14
4925176,15
4925804,11
4926428,15
4927052,15
4927684,16
4928304,14
4928932,11
4929560,12
4930184,24
4930812,30
4931436,21
4932068,13
4932696,21
4933316,30
4933944,17
4934568,10
4935192,12
4935824,17
4936440,29
4937072,25
4937696,11
4938320,11
4938948,12
4939568,17
4940196,17
4940828,24
4941448,27
4942076,14
4942700,25
4943332,29
4943960,28
4944584,27
4945212,40
4945840,45
4946464,36
4947092,30
4947712,29
4948340,21
4948964,29
4949588,35
4950220,14
4950840,15
4951472,17
4952100,24
4952720,29
4953352,21
4953976,14
4954604,13
4955236,18
4955856,26
4956488,29
4957112,21
4957736,15
4958364,14
4958984,11
4959616,11
4960240,11
4960864,11
4961492,10
4962116,16
4962744,21
4963376,21
4963992,23
4964624,36
4965248,21
4965876,14
4966508,14
4967128,14
4967756,21
4968380,32
4969004,11
4969632,10
4970256,10
4970884,11
4971508,17
4972132,11
4972764,17
4973388,16
4974020,17
4974652,14
4975272,15
4975904,15
4976528,14
4977156,19
4977788,32
4978408,42
4979036,39
4979664,49
4980288,61
4980916,48
4981536,32
4982168,19
4982796,16
4983416,15
4984048,13
4984672,12
4985300,29
4985932,34
4986552,29
4987184,25
4987808,22
4988432,16
4989064,18
4989680,27
4990312,29
4990936,27
4991564,17
4992196,11
4992816,12
4993444,10
4994076,24
4994696,41
4995324,37
4995952,25
4996580,25
4997212,36
4997832,44
4998460,41
4999084,33
4999708,26
5000340,16
5000960,11
5001588,16
5002212,24
5002840,21
5003468,18
5004088,23
5004716,25
5005348,25
5005968,25
5006600,19
5007224,14
5007852,14
5008484,14
5009104,11
5009732,10
5010360,12
5010984,14
5011616,12
5012232,15
5012864,37
5013488,45
5014112,37
5014744,29
5015368,29
5016000,32
5016628,36
5017248,28
5017880,15
5018504,11
5019132,13
5019764,18
5020384,27
5021016,26
5021640,20
5022264,17
5022892,22
5023512,20
5024144,17
5024772,14
5025392,14
5026020,25
5026648,42
5027276,43
5027908,28
5028528,17
5029156,16
5029784,19
5030408,24
5031036,27
5031656,19
5032288,15
5032912,14
5033536,15
5034168,13
5034784,18
5035416,22
5036048,22
5036672,23
5037304,22
5037928,26
5038560,21
5039188,15
5039808,16
5040440,19
5041064,24
5041692,13
5042320,26
5042940,31
5043572,29
5044196,23
5044820,18
5045448,18
5046072,30
5046704,41
5047332,46
5047952,34
5048584,21
5049208,14
5049840,15
5050468,10
5051088,16
5051720,26
5052344,28
5052968,19
5053600,10
5054216,10
5054848,10
5055476,12
5056100,19
5056732,15
5057356,23
5057988,33
5058616,29
5059240,26
5059868,24
5060496,28
5061124,13
5061756,44
5062376,64
5063008,85
5063636,92
5064260,84
5064892,60
5065512,34
5066144,14
5066776,17
5067396,12
5068028,18
5068652,35
5069284,36
5069912,27
5070536,31
5071168,29
5071792,12
5072420,11
5073048,14
5073672,13
5074304,14
5074928,13
5075552,13
5076184,11
5076808,10
5077440,10
5078068,19
5078688,26
5079320,32
5079948,31
5080576,46
5081208,69
5081828,60
5082460,34
5083084,16
5083708,15
5084340,10
5084960,15
5085588,28
5086220,37
5086840,43
5087472,33
5088096,28
5088728,36
5089356,35
5089976,30
5090608,23
5091232,19
5091856,15
5092488,17
5093104,21
5093736,23
5094360,24
5094988,22
5095620,30
5096240,54
5096872,62
5097504,61
5098124,40
5098756,14
5099380,20
5100012,16
5100644,15
5101264,12
5101896,19
5102520,28
5103148,24
5103780,24
5104400,29
5105032,13
5105660,11
5106284,15
5106916,15
5107544,13
5108172,19
5108804,27
5109424,17
5110056,11
5110680,11
5111308,15
5111940,24
5112564,13
5113192,17
5113820,18
5114448,51
5115080,46
5115700,31
5116332,25
5116964,22
5117584,10
5118220,11
5118844,19
5119476,29
5120112,27
5120728,24
5121356,13
5121976,10
5122600,16
5123228,14
5123844,14
5124476,14
5125096,15
5125720,20
5126352,29
5126968,28
5127596,21
5128228,17
5128848,15
5129476,19
5130100,24
5130728,27
5131356,20
5131976,20
5132604,15
5133228,17
5133852,19
5134484,30
5135104,37
5135732,21
5136356,12
5136980,11
5137608,18
5138232,22
5138860,22
5139492,12
5140112,13
5140740,15
5141364,21
5141996,23
5142624,30
5143244,27
5143872,17
5144496,10
5145120,10
5145748,10
5146368,11
5146996,22
5147620,34
5148244,35
5148872,30
5149496,41
5150124,41
5150756,24
5151376,10
5152004,21
5152628,27
5153260,33
5153888,24
5154512,19
5155144,15
5155768,19
5156392,15
5157024,16
5157640,14
5158268,14
5158896,11
5159520,11
5160148,10
5160772,10
5161404,15
5162032,16
5162656,15
5163284,18
5163908,28
5164540,31
5165168,31
5165788,25
5166416,25
5167040,11
5167664,25
5168292,27
5168912,20
5169540,27
5170164,31
5170792,13
5171420,38
5172044,56
5172672,45
5173304,33
5173920,16
5174552,16
5175176,26
5175804,13
5176436,20
5177056,32
5177684,55
5178308,67
5178932,47
5179564,36
5180184,35
5180812,49
5181436,32
5182064,36
5182696,34
5183320,22
5183952,10
5184580,16
5185200,21
5185828,21
5186452,21
5187080,25
5187708,27
5188328,21
5188956,19
5189584,24
5190208,23
5190836,20
5191456,15
5192088,12
5192716,16
5193336,25
5193968,29
5194592,26
5195220,23
5195852,30
5196472,42
5197104,39
5197728,30
5198352,17
5198984,14
5199600,14
5200232,20
5200856,20
5201480,18
5202108,10
5202728,11
5203356,17
5203988,34
5204608,37
5205236,29
5205860,21
5206492,13
5207120,17
5207740,22
5208368,24
5208992,27
5209616,25
5210244,24
5210864,26
5211496,24
5212120,22
5212744,25
5213376,25
5213992,15
5214624,15
5215256,24
5215872,20
5216504,16
5217128,19
5217756,28
5218388,26
5219008,15
5219640,28
5220264,33
5220888,24
5221516,10
5222136,25
5222768,42
5223392,34
5224016,21
5224644,12
5225264,17
5225892,19
5226524,32
5227144,32
5227776,22
5228400,17
5229028,17
5229660,35
5230280,47
5230908,41
5231536,27
5232160,23
5232788,19
5233408,19
5234036,19
5234664,11
5235288,24
5235916,36
5236536,18
5237168,13
5237796,22
5238416,31
5239044,34
5239668,38
5240300,43
5240932,25
5241552,21
5242184,11
5242808,19
5243432,28
5244060,42
5244680,45
5245308,40
5245932,48
5246556,64
5247184,56
5247808,43
5248440,31
5249068,24
5249684,15
5250316,12
5250936,11
5251568,14
5252196,12
5252816,19
5253444,31
5254064,29
5254688,22
5255320,20
5255936,27
5256564,25
5257188,18
5257812,14
5258440,14
5259056,11
5259688,11
5260316,16
5260936,20
5261564,18
5262188,17
5262816,17
5263448,31
5264064,48
5264692,39
5265316,19
5265940,14
5266568,16
5267184,21
5267816,14
5268436,9
5269008,18
5269644,22
5270264,21
5270892,11
5271516,10
5272140,13
5272772,14
5273392,14
5274024,15
5274652,14
5275272,13
5275900,16
5276524,27
5277156,21
5277784,11
5278400,14
5279032,11
5279656,17
5280280,50
5280908,52
5281528,32
5282156,18
5282780,15
5283404,19
5284032,15
5284648,10
5285276,13
5285904,24
5286528,37
5287156,40
5287780,45
5288408,45
5289036,32
5289656,24
5290284,28
5290908,22
5291528,14
5292160,19
5292776,25
5293404,49
5294028,53
5294652,43
5295284,34
5295904,21
5296532,14
5297164,24
5297784,43
5298412,44
5299036,36
5299668,39
5300296,42
5300920,29
5301548,11
5302172,21
5302796,29
5303428,30
5304048,29
5304676,29
5305300,37
5305924,41
5306556,28
5307176,18
5307804,14
5308436,14
5309056,10
5309684,11
5310308,11
5310940,15
5311572,31
5312192,35
5312824,33
5313444,40
5314068,42
5314700,42
5315320,40
5315948,25
5316572,15
5317196,17
5317828,30
5318448,44
5319076,36
5319708,28
5320328,14
5320956,15
5321580,25
5322212,21
5322844,14
5323464,21
5324096,22
5324720,20
5325344,24
5325972,12
5326592,11
5327220,31
5327844,51
5328464,53
5329096,50
5329712,40
5330340,43
5330972,38
5331592,21
5332220,13
5332844,13
5333472,18
5334100,10
5334720,21
5335348,34
5335972,35
5336596,36
5337228,39
5337848,18
5338476,11
5339100,10
5339724,12
5340352,14
5340976,15
5341604,15
5342236,21
5342856,28
5343484,29
5344108,26
5344740,30
5345368,29
5345992,26
5346620,28
5347244,31
5347868,31
5348496,22
5349112,15
5349744,19
5350368,15
5350992,10
5351620,14
5352240,33
5352868,43
5353500,31
5354120,17
5354748,11
5355376,13
5356004,13
5356636,13
5357256,14
5357884,21
5358512,21
5359136,21
5359764,15
5360384,14
5361012,11
5361636,13
5362260,19
5362892,34
5363512,39
5364140,39
5364772,28
5365392,23
5366024,17
5366644,14
5367276,11
5367904,13
5368528,18
5369156,26
5369780,25
5370404,25
5371036,22
5371656,21
5372284,20
5372912,17
5373536,14
5374164,15
5374788,15
5375420,12
5376052,9
5376616,10
5377252,11
5377876,10
5378504,11
5379132,21
5379752,26
5380380,21
5381004,21
5381636,18
5382264,17
5382884,14
5383512,13
5384136,14
5384760,13
5385388,15
5386008,17
5386636,16
5387260,35
5387888,32
5388516,25
5389140,16
5389772,12
5390400,17
5391020,25
5391648,25
5392272,21
5392900,31
5393532,39
5394152,27
5394780,13
5395408,14
5396032,20
5396660,27
5397280,38
5397908,24
5398540,13
5399160,15
5399792,24
5400416,12
5401044,21
5401676,33
5402296,45
5402924,33
5403548,36
5404172,60
5404804,48
5405424,30
5406056,17
5406680,15
5407304,15
5407932,32
5408552,56
5409180,50
5409812,36
5410432,35
5411060,25
5411684,17
5412316,36
5412948,50
5413568,51
5414196,52
5414824,44
5415448,26
5416076,14
5416696,14
5417324,14
5417948,20
5418572,31
5419204,28
5419824,24
5420452,24
5421084,19
5421704,13
5422332,13
5422960,18
5423588,21
5424220,20
5424840,15
5425468,14
5426092,11
5426716,10
5427348,19
5427968,36
5428596,34
5429220,27
5429844,25
5430472,28
5431096,29
5431724,37
5432356,35
5432976,29
5433604,17
5434228,10
5434860,18
5435488,24
5436112,26
5436744,29
5437368,27
5437992,20
5438624,13
5439240,16
5439872,17
5440496,16
5441120,14
5441748,16
5442372,13
5443000,17
5443628,19
5444248,12
5444876,11
5445500,17
5446132,31
5446760,43
5447380,42
5448008,22
5448628,16
5449252,18
5449884,20
5450504,17
5451132,10
5451756,10
5452380,13
5453012,9
5453584,13
5454212,13
5454836,12
5455460,10
5456092,18
5456716,19
5457344,24
5457972,22
5458592,13
5459220,19
5459844,25
5460472,24
5461100,15
5461720,10
5462352,12
5462976,17
5463600,25
5464228,13
5464848,24
5465476,14
5466104,15
5466728,14
5467356,11
5467980,9
5468560,11
5469188,18
5469808,15
5470436,10
5471064,13
5471692,13
5472324,26
5472944,20
5473572,15
5474200,15
5474824,25
5475452,32
5476072,26
5476700,10
5477328,21
5477952,12
5478584,13
5479200,11
5479828,20
5480460,32
5481080,47
5481708,56
5482332,41
5482964,20
5483592,12
5484216,25
5484844,41
5485468,53
5486092,56
5486724,38
5487344,12
5487976,10
5488600,12
5489224,17
5489852,14
5490472,16
5491100,15
5491732,15
5492352,13
5492980,14
5493604,29
5494236,31
5494868,16
5495488,11
5496116,16
5496744,36
5497368,47
5497996,24
5498616,13
5499248,13
5499872,31
5500496,36
5501124,22
5501744,11
5502376,21
5503008,34
5503624,44
5504256,34
5504880,17
5505512,10
5506140,19
5506760,24
5507388,17
5508016,16
5508640,31
5509268,34
5509888,27
5510516,27
5511140,32
5511768,28
5512396,29
5513016,35
5513648,35
5514276,25
5514896,15
5515524,13
5516152,18
5516780,13
5517412,11
5518032,24
5518664,31
5519288,33
5519912,35
5520544,29
5521160,18
5521792,17
5522416,15
5523040,12
5523672,14
5524296,14
5524928,15
5525556,12
5526176,17
5526808,28
5527432,23
5528064,11
5528692,11
5529312,27
5529944,40
5530568,39
5531192,32
5531820,35
5532440,31
5533068,17
5533692,10
5534320,11
5534952,17
5535576,27
5536204,29
5536836,36
5537456,38
5538084,27
5538708,20
5539336,23
5539964,20
5540584,16
5541212,15
5541836,20
5542460,29
5543092,30
5543712,23
5544340,21
5544972,14
5545592,13
5546224,21
5546848,29
5547480,17
5548108,22
5548728,30
5549360,17
5549984,25
5550608,30
5551240,16
5551856,11
5552488,12
5553112,16
5553736,11
5554368,10
5554984,18
5555616,44
5556248,58
5556868,41
5557496,23
5558120,18
5558752,47
5559380,51
5560000,61
5560628,51
5561256,51
5561880,45
5562508,38
5563128,41
5563760,43
5564384,34
5565008,19
5565640,13
5566256,17
5566888,19
5567516,26
5568136,43
5568768,43
5569392,27
5570024,39
5570652,38
5571272,18
5571900,11
5572524,14
5573148,16
5573780,20
5574400,17
5575028,16
5575652,11
5576280,21
5576908,34
5577528,40
5578160,36
5578788,35
5579408,36
5580040,36
5580664,37
5581296,32
5581924,24
5582544,21
5583172,17
5583800,11
5584424,12
5585052,21
5585672,26
5586300,33
5586928,35
5587552,31
5588180,29
5588804,41
5589436,43
5590068,30
5590688,16
5591320,19
5591944,37
5592576,39
5593204,26
5593824,22
5594452,21
5595080,13
5595704,17
5596332,29
5596952,29
5597584,32
5598212,25
5598832,15
5599464,13
5600088,12
5600716,10
5601348,10
5601968,11
5602596,13
5603220,9
5603796,13
5604432,11
5605048,17
5605676,23
5606304,27
5606928,38
5607556,30
5608176,16
5608804,10
5609428,10
5610052,10
5610684,10
5611304,16
5611936,26
5612564,37
5613184,43
5613812,54
5614440,40
5615068,29
5615700,21
5616320,16
5616948,18
5617572,13
5618200,17
5618828,26
5619448,26
5620076,21
5620700,12
5621328,11
5621956,15
5622576,15
5623204,14
5623836,13
5624456,21
5625084,24
5625712,15
5626340,21
5626972,39
5627592,29
5628224,21
5628848,37
5629472,40
5630104,24
5630720,36
5631352,37
5631980,14
5632604,15
5633232,14
5633856,11
5634484,15
5635112,14
5635736,26
5636364,31
5636988,22
5637620,12
5638248,10
5638872,11
5639500,13
5640124,13
5640748,14
5641380,14
5642000,13
5642628,13
5643252,14
5643876,11
5644508,10
5645132,12
5645760,21
5646388,27
5647008,31
5647640,35
5648264,29
5648892,19
5649520,18
5650140,13
5650768,11
5651396,23
5652020,40
5652648,27
5653264,13
5653896,19
5654520,17
5655144,11
5655772,21
5656396,15
5657028,18
5657660,17
5658280,15
5658908,22
5659532,19
5660160,15
5660792,10
5661408,14
5662040,14
5662664,19
5663288,33
5663916,41
5664536,32
5665164,26
5665788,14
5666416,19
5667044,17
5667668,22
5668300,22
5668932,24
5669552,23
5670184,23
5670808,19
5671432,13
5672064,11
5672680,17
5673308,19
5673932,15
5674556,15
5675188,11
5675808,12
5676440,10
5677068,11
5677688,11
5678320,24
5678944,50
5679572,63
5680204,59
5680824,51
5681452,37
5682080,25
5682700,18
5683332,12
5683952,11
5684580,25
5685204,47
5685828,45
5686460,32
5687080,11
5687708,11
5688340,12
5688960,20
5689588,12
5690216,18
5690844,21
5691476,16
5692096,12
5692728,11
5693352,14
5693976,13
5694608,12
5695228,15
5695856,11
5696480,12
5697104,17
5697732,32
5698352,60
5698984,64
5699612,46
5700232,31
5700864,17
5701488,10
5702116,9
5702696,11
5703320,10
5703952,15
5704576,25
5705204,34
5705836,36
5706456,28
5707084,24
5707712,16
5708336,13
5708968,26
5709584,32
5710216,21
5710840,11
5711464,14
5712096,27
5712720,27
5713352,26
5713980,25
5714600,21
5715232,18
5715856,17
5716484,15
5717116,9
5717684,10
5718320,10
5718944,13
5719568,19
5720200,22
5720820,20
5721448,11
5722072,11
5722696,18
5723328,17
5723944,13
5724580,15
5725208,10
5725832,11
5726464,10
5727088,11
5727720,13
5728352,11
5728968,22
5729600,32
5730224,31
5730848,27
5731480,31
5732100,34
5732732,26
5733356,16
5733984,14
5734616,20
5735240,26
5735868,26
5736496,11
5737120,11
5737748,10
5738372,10
5739004,15
5739632,35
5740252,32
5740880,20
5741504,33
5742128,11
5742756,12
5743376,13
5744004,11
5744628,10
5745252,11
5745884,21
5746508,41
5747140,46
5747772,34
5748392,13
5749024,13
5749648,18
5750276,14
5750908,10
5751528,14
5752160,10
5752784,21
5753408,30
5754040,34
5754656,43
5755288,39
5755916,26
5756536,14
5757168,16
5757792,23
5758424,32
5759052,24
5759672,19
5760304,13
5760928,10
5761548,11
5762180,16
5762800,39
5763428,45
5764052,37
5764676,18
5765304,13
5765920,14
5766552,15
5767180,10
5767800,12
5768428,13
5769052,10
5769684,13
5770312,14
5770928,11
5771560,16
5772184,27
5772808,39
5773436,32
5774056,35
5774688,23
5775312,11
5775936,11
5776564,22
5777184,33
5777812,40
5778444,38
5779064,36
5779692,51
5780316,56
5780948,56
5781580,36
5782200,19
5782828,14
5783452,11
5784076,13
5784708,16
5785328,22
5785960,33
5786580,36
5787204,21
5787836,20
5788456,26
5789084,47
5789716,48
5790336,29
5790968,14
5791592,22
5792220,44
5792852,58
5793472,45
5794100,36
5794724,29
5795348,36
5795980,42
5796600,41
5797228,27
5797852,20
5798476,19
5799108,14
5799728,15
5800356,11
5800988,16
5801608,26
5802236,33
5802860,29
5803492,16
5804124,10
5804744,10
5805376,11
5806000,17
5806624,15
5807252,13
5807872,15
5808504,11
5809128,13
5809752,16
5810380,25
5811000,31
5811632,24
5812264,26
5812880,33
5813512,37
5814136,39
5814768,33
5815396,22
5816016,15
5816644,12
5817268,15
5817892,24
5818524,27
5819144,29
5819776,33
5820400,35
5821024,19
5821652,16
5822280,19
5822908,17
5823540,18
5824160,18
5824788,15
5825412,16
5826044,12
5826672,10
5827296,11
5827924,15
5828548,23
5829172,34
5829804,46
5830424,41
5831052,27
5831680,22
5832304,15
5832936,15
5833560,11
5834192,11
5834824,12
5835440,17
5836072,20
5836696,23
5837320,29
5837952,15
5838568,13
5839200,17
5839824,14
5840448,18
5841076,14
5841696,18
5842324,17
5842956,14
5843576,13
5844204,11
5844828,26
5845460,57
5846088,72
5846712,82
5847344,68
5847968,52
5848592,25
5849220,15
5849840,15
5850468,17
5851092,13
5851720,21
5852348,21
5852968,18
5853596,13
5854228,10
5854848,11
5855480,26
5856104,36
5856732,22
5857364,14
5857984,14
5858612,14
5859236,15
5859860,11
5860492,12
5861112,17
5861744,17
5862368,21
5862992,22
5863624,17
5864240,18
5864868,33
5865500,40
5866120,32
5866752,16
5867376,11
5868008,20
5868636,20
5869256,21
5869888,32
5870512,29
5871136,25
5871768,26
5872388,19
5873016,14
5873644,15
5874268,22
5874900,23
5875524,13
5876156,12
5876788,10
5877408,10
5878040,24
5878664,72
5879296,88
5879924,85
5880544,63
5881176,24
5881800,14
5882424,14
5883056,14
5883672,10
5884304,15
5884936,27
5885552,36
5886188,41
5886812,40
5887444,35
5888076,22
5888696,19
5889324,18
5889948,23
5890572,19
5891200,16
5891824,31
5892456,53
5893080,59
5893704,46
5894336,33
5894956,30
5895584,27
5896216,30
5896836,36
5897468,35
5898092,25
5898724,17
5899352,17
5899972,11
5900600,26
5901228,36
5901848,55
5902480,47
5903096,36
5903728,43
5904352,19
5904976,12
5905604,12
5906224,15
5906852,24
5907484,22
5908104,19
5908732,19
5909360,17
5909988,13
5910620,14
5911240,18
5911868,26
5912496,38
5913120,44
5913752,34
5914368,17
5914996,16
5915624,16
5916248,15
5916876,19
5917496,21
5918128,10
5918756,19
5919376,23
5920008,28
5920628,37
5921260,25
5921888,10
5922512,15
5923140,13
5923768,15
5924392,14
5925020,14
5925640,13
5926268,11
5926896,11
5927520,10
5928148,13
5928772,46
5929404,56
5930036,54
5930656,43
5931288,29
5931912,19
5932544,15
5933172,14
5933792,9
5934372,13
5935000,22
5935624,41
5936256,69
5936872,64
5937504,26
5938128,22
5938752,19
5939384,14
5940000,18
5940628,14
5941260,16
5941880,11
5942508,14
5943132,19
5943764,13
5944396,13
5945016,23
5945644,37
5946268,54
5946892,59
5947524,40
5948144,23
5948776,15
5949400,17
5950024,13
5950656,10
5951272,11
5951904,12
5952536,16
5953152,14
5953780,13
5954408,11
5955036,14
5955668,19
5956288,20
5956916,16
5957544,16
5958168,16
5958800,14
5959416,11
5960048,10
5960668,11
5961292,13
5961924,27
5962544,49
5963172,54
5963804,46
5964424,27
5965056,16
5965680,17
5966308,18
5966940,10
5967560,21
5968192,28
5968816,31
5969440,35
5970068,34
5970688,39
5971320,14
5971944,26
5972568,28
5973196,24
5973816,19
5974448,15
5975076,10
5975696,12
5976328,11
5976952,17
5977584,22
5978216,37
5978836,52
5979464,48
5980092,44
5980716,29
5981348,17
5981968,15
5982600,15
5983224,13
5983848,13
5984480,10
5985104,16
5985732,24
5986364,27
5986984,28
5987616,19
5988240,14
5988868,13
5989500,12
5990120,14
5990752,19
5991376,23
5992000,11
5992628,22
5993248,27
5993880,27
5994508,22
5995128,22
5995760,22
5996384,24
5997016,31
5997644,30
5998264,32
5998896,21
5999520,14
6000144,11
6000772,11
6001392,11
6002024,11
6002648,15
6003272,25
6003900,22
6004520,15
6005148,28
6005780,47
6006400,44
6007028,15
6007656,48
6008284,47
6008916,29
6009536,16
6010168,11
6010792,17
6011416,15
6012048,11
6012668,31
6013300,38
6013924,40
6014548,42
6015180,31
6015804,28
6016436,19
6017064,9
6017632,15
6018260,13
6018884,9
6019464,11
6020088,11
6020712,12
6021344,13
6021968,20
6022596,28
6023228,24
6023848,19
6024476,15
6025104,11
6025732,13
6026364,16
6026984,16
6027616,13
6028240,9
6028812,14
6029444,12
6030064,11
6030696,19
6031320,30
6031944,24
6032576,18
6033196,17
6033828,21
6034460,12
6035080,12
6035712,19
6036336,19
6036968,17
6037596,24
6038216,28
6038848,23
6039476,13
6040100,21
6040732,22
6041352,21
6041984,18
6042608,11
6043236,10
6043864,17
6044488,32
6045116,34
6045748,18
6046368,17
6047000,30
6047624,40
6048256,27
6048884,19
6049504,15
6050136,30
6050760,43
6051384,35
6052016,27
6052632,24
6053264,36
6053896,20
6054512,17
6055144,36
6055768,42
6056400,29
6057028,14
6057648,15
6058280,11
6058904,10
6059528,11
6060160,16
6060776,14
6061408,13
6062036,22
6062660,54
6063292,60
6063912,58
6064544,43
6065176,22
6065792,14
6066424,14
6067048,11
6067680,18
6068308,22
6068928,25
6069556,30
6070184,36
6070808,35
6071440,19
6072056,15
6072688,14
6073312,20
6073936,29
6074568,25
6075184,10
6075816,13
6076448,17
6077068,15
6077700,15
6078324,20
6078956,32
6079588,58
6080212,62
6080840,55
6081464,41
6082088,32
6082716,23
6083336,11
6083964,21
6084592,33
6085216,35
6085844,29
6086468,15
6087100,10
6087728,11
6088352,11
6088980,15
6089604,19
6090236,19
6090868,17
6091488,14
6092120,11
6092744,21
6093368,22
6094000,26
6094620,30
6095248,29
6095880,31
6096500,33
6097128,37
6097756,38
6098388,31
6099016,16
6099640,13
6100272,16
6100896,21
6101520,26
6102152,24
6102772,22
6103404,24
6104028,23
6104652,21
6105284,24
6105904,35
6106536,40
6107164,34
6107784,27
6108416,16
6109040,13
6109672,19
6110300,59
6110924,79
6111556,68
6112180,43
6112804,27
6113436,41
6114056,40
6114688,29
6115312,21
6115936,17
6116568,9
6117140,10
6117776,10
6118408,18
6119024,35
6119656,46
6120280,21
6120912,11
6121544,10
6122164,17
6122792,13
6123420,13
6124048,15
6124676,15
6125296,13
6125928,13
6126552,18
6127176,25
6127808,29
6128428,23
6129060,14
6129692,19
6130312,26
6130944,17
6131568,20
6132200,22
6132832,17
6133456,10
6134088,13
6134716,21
6135340,26
6135972,22
6136596,17
6137228,11
6137852,10
6138480,12
6139112,17
6139740,18
6140372,17
6141004,28
6141624,14
6142260,18
6142884,43
6143512,35
6144144,28
6144760,22
6145388,15
6146012,14
6146636,19
6147264,30
6147880,36
6148512,50
6149140,43
6149760,15
6150388,10
6151012,10
6151644,15
6152276,21
6152896,25
6153524,35
6154152,45
6154776,27
6155404,12
6156024,15
6156652,18
6157280,15
6157904,13
6158532,10
6159152,11
6159784,10
6160412,10
6161032,18
6161660,33
6162284,43
6162916,49
6163544,59
6164168,51
6164796,37
6165420,17
6166044,15
6166676,22
6167296,24
6167924,23
6168552,30
6169176,37
6169804,40
6170424,32
6171052,15
6171684,10
6172304,15
6172932,14
6173560,15
6174188,15
6174820,16
6175440,19
6176068,22
6176692,24
6177316,29
6177948,28
6178568,21
6179196,19
6179824,23
6180448,32
6181080,27
6181704,20
6182332,14
6182964,15
6183584,11
6184216,13
6184840,11
6185468,19
6186100,23
6186720,21
6187352,22
6187976,23
6188600,30
6189232,17
6189848,15
6190480,15
6191104,14
6191728,11
6192360,11
6192984,11
6193616,13
6194244,16
6194864,17
6195496,22
6196120,25
6196744,28
6197376,32
6197992,28
6198624,28
6199248,19
6199872,17
6200504,10
6201120,10
6201752,20
6202384,22
6203000,17
6203632,24
6204256,26
6204888,27
6205516,26
6206136,23
6206768,15
6207392,17
6208016,17
6208644,16
6209264,18
6209896,14
6210520,11
6211144,11
6211776,18
6212392,31
6213024,45
6213656,44
6214276,31
6214908,26
6215532,26
6216164,20
6216796,10
6217416,14
6218048,21
6218672,20
6219296,26
6219928,35
6220548,34
6221180,23
6221804,13
6222428,13
6223060,15
6223684,16
6224316,25
6224948,29
6225568,18
6226200,12
6226824,12
6227452,11
6228084,10
6228704,30
6229336,44
6229960,45
6230584,33
6231212,16
6231832,17
6232464,17
6233092,12
6233712,11
6234340,25
6234968,49
6235596,61
6236228,49
6236848,31
6237476,12
6238104,11
6238728,14
6239360,14
6239976,15
6240608,26
6241236,26
6241860,29
6242488,26
6243112,21
6243744,10
6244376,10
6244992,14
6245624,11
6246248,34
6246880,47
6247508,39
6248128,27
6248756,24
6249380,17
6250004,11
6250636,18
6251256,32
6251888,25
6252508,11
6253136,12
6253764,11
6254384,11
6255016,16
6255648,15
6256264,13
6256892,15
6257520,15
6258148,24
6258780,18
6259400,15
6260028,24
6260652,30
6261280,27
6261908,19
6262528,25
