tempo_arduino_micro_s,valor_ADC,tempo_arduino_s
500,24,0.0005
1004,19,0.001004
1504,14,0.001504
2000,14,0.002
2508,11,0.002508
3000,10,0.003
3508,9,0.003508
4000,10,0.004
4504,17,0.004504
5000,35,0.005
5500,40,0.0055
6000,45,0.006
6500,44,0.0065
7004,41,0.007004
7500,20,0.0075
8000,21,0.008
8500,36,0.0085
9000,38,0.009
9500,27,0.0095
10000,16,0.01
10516,14,0.010516
11036,11,0.011036
11564,13,0.011564
12084,12,0.012084
12612,13,0.012612
13132,10,0.013132
13660,10,0.01366
14180,11,0.01418
14708,12,0.014708
15228,12,0.015228
15756,17,0.015756
16276,25,0.016276
16796,28,0.016796
17316,19,0.017316
17836,16,0.017836
18356,17,0.018356
18876,15,0.018876
19396,11,0.019396
19916,11,0.019916
20436,12,0.020436
20956,12,0.020956
21476,14,0.021476
21996,10,0.021996
22516,10,0.022516
23036,17,0.023036
23564,23,0.023564
24084,21,0.024084
24612,19,0.024612
25132,15,0.025132
25660,17,0.02566
26180,19,0.02618
26708,23,0.026708
27228,28,0.027228
27756,12,0.027756
28276,34,0.028276
28804,36,0.028804
29324,36,0.029324
29852,33,0.029852
30372,20,0.030372
30900,13,0.0309
31420,10,0.03142
31948,15,0.031948
32468,25,0.032468
32996,29,0.032996
33516,23,0.033516
34044,17,0.034044
34564,14,0.034564
35092,16,0.035092
35612,14,0.035612
36140,11,0.03614
36660,15,0.03666
37188,14,0.037188
37708,10,0.037708
38236,20,0.038236
38760,21,0.03876
39284,12,0.039284
39804,11,0.039804
40332,10,0.040332
40852,12,0.040852
41372,13,0.041372
41892,14,0.041892
42412,15,0.042412
42932,16,0.042932
43452,22,0.043452
43972,19,0.043972
44492,19,0.044492
45012,15,0.045012
45532,11,0.045532
46052,19,0.046052
46572,22,0.046572
47092,23,0.047092
47612,24,0.047612
48140,29,0.04814
48660,33,0.04866
49188,33,0.049188
49708,30,0.049708
50236,21,0.050236
50756,16,0.050756
51284,15,0.051284
51804,14,0.051804
52332,12,0.052332
52852,13,0.052852
53380,22,0.05338
53900,33,0.0539
54428,32,0.054428
54948,15,0.054948
55476,23,0.055476
55996,30,0.055996
56524,24,0.056524
57044,17,0.057044
57572,17,0.057572
58096,14,0.058096
58620,19,0.05862
59140,19,0.05914
59668,17,0.059668
60188,13,0.060188
60716,13,0.060716
61240,12,0.06124
61764,14,0.061764
62284,13,0.062284
62812,10,0.062812
63332,21,0.063332
63860,28,0.06386
64384,17,0.064384
64908,21,0.064908
65428,38,0.065428
65948,43,0.065948
66468,36,0.066468
66988,27,0.066988
67508,23,0.067508
68028,28,0.068028
68548,25,0.068548
69068,15,0.069068
69588,10,0.069588
70108,10,0.070108
70628,13,0.070628
71148,19,0.071148
71668,17,0.071668
72192,13,0.072192
72716,9,0.072716
73180,12,0.07318
73708,11,0.073708
74228,16,0.074228
74752,22,0.074752
75280,21,0.07528
75804,27,0.075804
76328,27,0.076328
76852,15,0.076852
77372,13,0.077372
77900,14,0.0779
78420,13,0.07842
78948,10,0.078948
79472,10,0.079472
79996,19,0.079996
80520,25,0.08052
81044,25,0.081044
81564,19,0.081564
82092,13,0.082092
82612,17,0.082612
83140,20,0.08314
83660,13,0.08366
84188,16,0.084188
84708,14,0.084708
85236,16,0.085236
85756,18,0.085756
86284,11,0.086284
86804,19,0.086804
87332,23,0.087332
87852,21,0.087852
88380,23,0.08838
88900,13,0.0889
89428,18,0.089428
89948,33,0.089948
90476,37,0.090476
90996,42,0.090996
91524,25,0.091524
92044,15,0.092044
92572,25,0.092572
93092,37,0.093092
93612,31,0.093612
94132,37,0.094132
94652,40,0.094652
95172,32,0.095172
95696,11,0.095696
96212,23,0.096212
96732,32,0.096732
97252,27,0.097252
97776,15,0.097776
98292,10,0.098292
98812,20,0.098812
99340,40,0.09934
99860,32,0.09986
100388,17,0.100388
100952,15,0.100952
101536,21,0.101536
102108,23,0.102108
102688,16,0.102688
103256,17,0.103256
103832,13,0.103832
104400,11,0.1044
104976,21,0.104976
105552,16,0.105552
106120,12,0.10612
106704,14,0.106704
107272,11,0.107272
107856,16,0.107856
108424,16,0.108424
109008,14,0.109008
109584,15,0.109584
110152,18,0.110152
110736,18,0.110736
111304,11,0.111304
111888,16,0.111888
112460,24,0.11246
113040,17,0.11304
113608,12,0.113608
114184,21,0.114184
114760,30,0.11476
115328,20,0.115328
115912,18,0.115912
116480,22,0.11648
117064,25,0.117064
117632,19,0.117632
118216,15,0.118216
118792,22,0.118792
119360,19,0.11936
119944,11,0.119944
120516,11,0.120516
121096,9,0.121096
121616,15,0.121616
122192,15,0.122192
122764,10,0.122764
123344,9,0.123344
123860,10,0.12386
124432,19,0.124432
125016,35,0.125016
125584,45,0.125584
126168,51,0.126168
126736,40,0.126736
127320,13,0.12732
127892,21,0.127892
128468,32,0.128468
129048,30,0.129048
129616,20,0.129616
130192,10,0.130192
130760,27,0.13076
131336,19,0.131336
131904,29,0.131904
132488,44,0.132488
133056,51,0.133056
133624,65,0.133624
134208,53,0.134208
134776,35,0.134776
135360,22,0.13536
135928,19,0.135928
136512,15,0.136512
137080,15,0.13708
137664,32,0.137664
138232,32,0.138232
138812,24,0.138812
139392,22,0.139392
139960,28,0.13996
140544,21,0.140544
141116,21,0.141116
141696,15,0.141696
142264,28,0.142264
142840,40,0.14284
143424,32,0.143424
143992,31,0.143992
144576,27,0.144576
145144,23,0.145144
145728,16,0.145728
146296,10,0.146296
146880,11,0.14688
147448,15,0.147448
148024,25,0.148024
148608,25,0.148608
149176,16,0.149176
149760,16,0.14976
150328,18,0.150328
150912,19,0.150912
151484,18,0.151484
152060,14,0.15206
152640,13,0.15264
153208,17,0.153208
153792,16,0.153792
154360,10,0.15436
154944,9,0.154944
155460,11,0.15546
156040,13,0.15604
156608,16,0.156608
157188,10,0.157188
157768,11,0.157768
158336,15,0.158336
158920,15,0.15892
159488,14,0.159488
160072,16,0.160072
160640,15,0.16064
161216,16,0.161216
161784,20,0.161784
162360,22,0.16236
162944,26,0.162944
163512,17,0.163512
164096,10,0.164096
164664,19,0.164664
165240,31,0.16524
165808,29,0.165808
166376,29,0.166376
166952,46,0.166952
167520,57,0.16752
168096,52,0.168096
168664,41,0.168664
169240,23,0.16924
169808,9,0.169808
170332,19,0.170332
170904,24,0.170904
171480,24,0.17148
172064,26,0.172064
172632,24,0.172632
173216,27,0.173216
173784,36,0.173784
174368,31,0.174368
174936,25,0.174936
175520,27,0.17552
176088,22,0.176088
176664,15,0.176664
177240,27,0.17724
177808,34,0.177808
178392,46,0.178392
178964,33,0.178964
179544,17,0.179544
180112,15,0.180112
180688,26,0.180688
181264,46,0.181264
181832,46,0.181832
182416,29,0.182416
182984,16,0.182984
183568,15,0.183568
184136,20,0.184136
184720,21,0.18472
185288,15,0.185288
185864,17,0.185864
186448,13,0.186448
187016,10,0.187016
187600,10,0.1876
188168,10,0.188168
188752,21,0.188752
189324,23,0.189324
189904,21,0.189904
190480,20,0.19048
191048,18,0.191048
191632,21,0.191632
192204,18,0.192204
192784,25,0.192784
193352,23,0.193352
193936,12,0.193936
194504,16,0.194504
195080,11,0.19508
195664,11,0.195664
196232,11,0.196232
196816,16,0.196816
197384,32,0.197384
197968,44,0.197968
198540,58,0.19854
199120,60,0.19912
199696,51,0.199696
200264,30,0.200264
200848,17,0.200848
201416,15,0.201416
202000,15,0.202
202568,15,0.202568
203152,11,0.203152
203724,17,0.203724
204300,26,0.2043
204880,24,0.20488
205448,20,0.205448
206024,21,0.206024
206592,28,0.206592
207168,32,0.207168
207736,27,0.207736
208320,21,0.20832
208888,14,0.208888
209456,15,0.209456
210032,19,0.210032
210600,21,0.2106
211176,17,0.211176
211748,11,0.211748
212328,11,0.212328
212896,11,0.212896
213472,16,0.213472
214048,26,0.214048
214616,33,0.214616
215200,46,0.2152
215768,50,0.215768
216352,34,0.216352
216920,25,0.21692
217504,19,0.217504
218076,23,0.218076
218648,19,0.218648
219232,13,0.219232
219800,10,0.2198
220384,15,0.220384
220952,24,0.220952
221536,37,0.221536
222108,46,0.222108
222680,33,0.22268
223264,18,0.223264
223836,14,0.223836
224416,12,0.224416
224984,23,0.224984
225568,23,0.225568
226136,16,0.226136
226720,16,0.22672
227288,14,0.227288
227864,15,0.227864
228448,15,0.228448
229016,11,0.229016
229600,18,0.2296
230168,10,0.230168
230752,13,0.230752
231320,14,0.23132
231896,26,0.231896
232480,37,0.23248
233048,41,0.233048
233632,35,0.233632
234200,19,0.2342
234784,14,0.234784
235356,15,0.235356
235936,11,0.235936
236508,14,0.236508
237084,12,0.237084
237664,12,0.237664
238236,10,0.238236
238816,23,0.238816
239384,32,0.239384
239968,20,0.239968
240540,11,0.24054
241116,17,0.241116
241696,14,0.241696
242264,15,0.242264
242848,16,0.242848
243420,17,0.24342
244000,15,0.244
244568,14,0.244568
245152,12,0.245152
245724,10,0.245724
246300,10,0.2463
246880,11,0.24688
247448,16,0.247448
248032,42,0.248032
248600,43,0.2486
249184,23,0.249184
249752,15,0.249752
250328,14,0.250328
250912,14,0.250912
251480,18,0.25148
252064,24,0.252064
252636,29,0.252636
253216,17,0.253216
253788,10,0.253788
254368,13,0.254368
254940,11,0.25494
255516,11,0.255516
256096,17,0.256096
256668,20,0.256668
257248,24,0.257248
257816,19,0.257816
258392,17,0.258392
258960,20,0.25896
259536,26,0.259536
260112,26,0.260112
260680,23,0.26068
261264,18,0.261264
261832,15,0.261832
262416,12,0.262416
262984,15,0.262984
263560,28,0.26356
264132,44,0.264132
264704,65,0.264704
265288,63,0.265288
265856,53,0.265856
266440,40,0.26644
267008,29,0.267008
267584,25,0.267584
268152,22,0.268152
268736,17,0.268736
269308,41,0.269308
269880,43,0.26988
270464,47,0.270464
271032,30,0.271032
271616,24,0.271616
272192,18,0.272192
272776,11,0.272776
273344,17,0.273344
273920,19,0.27392
274504,18,0.274504
275076,15,0.275076
275656,15,0.275656
276224,18,0.276224
276808,17,0.276808
277376,11,0.277376
277960,10,0.27796
278536,11,0.278536
279108,16,0.279108
279688,27,0.279688
280260,31,0.28026
280840,27,0.28084
281408,32,0.281408
281992,37,0.281992
282564,48,0.282564
283136,62,0.283136
283720,53,0.28372
284292,42,0.284292
284872,31,0.284872
285440,18,0.28544
286024,10,0.286024
286596,14,0.286596
287176,25,0.287176
287752,28,0.287752
288324,26,0.288324
288904,22,0.288904
289472,19,0.289472
290048,18,0.290048
290616,19,0.290616
291200,17,0.2912
291768,14,0.291768
292348,17,0.292348
292928,18,0.292928
293496,15,0.293496
294080,11,0.29408
294652,12,0.294652
295232,12,0.295232
295804,11,0.295804
296384,13,0.296384
296956,23,0.296956
297532,24,0.297532
298112,25,0.298112
298684,30,0.298684
299264,29,0.299264
299836,22,0.299836
300416,15,0.300416
300988,15,0.300988
301564,22,0.301564
302144,16,0.302144
302716,12,0.302716
303296,13,0.303296
303868,20,0.303868
304448,24,0.304448
305028,21,0.305028
305608,15,0.305608
306184,15,0.306184
306756,15,0.306756
307336,15,0.307336
307908,14,0.307908
308488,17,0.308488
309056,23,0.309056
309640,19,0.30964
310208,15,0.310208
310788,11,0.310788
311368,25,0.311368
311940,30,0.31194
312520,24,0.31252
313092,12,0.313092
313672,9,0.313672
314192,11,0.314192
314768,11,0.314768
315340,11,0.31534
315916,15,0.315916
316496,17,0.316496
317068,24,0.317068
317648,30,0.317648
318228,44,0.318228
318808,51,0.318808
319388,22,0.319388
319964,11,0.319964
320548,17,0.320548
321116,33,0.321116
321696,40,0.321696
322264,34,0.322264
322848,16,0.322848
323416,13,0.323416
324000,10,0.324
324568,13,0.324568
325144,13,0.325144
325728,14,0.325728
326300,15,0.3263
326880,22,0.32688
327456,27,0.327456
328040,23,0.32804
328608,23,0.328608
329176,18,0.329176
329760,11,0.32976
330328,20,0.330328
330904,27,0.330904
331472,22,0.331472
332056,15,0.332056
332624,34,0.332624
333208,35,0.333208
333776,30,0.333776
334344,42,0.334344
334928,42,0.334928
335496,30,0.335496
336080,16,0.33608
336648,14,0.336648
337224,28,0.337224
337792,27,0.337792
338376,18,0.338376
338952,20,0.338952
339520,27,0.33952
340104,33,0.340104
340672,35,0.340672
341256,25,0.341256
341824,14,0.341824
342408,20,0.342408
342976,17,0.342976
343556,15,0.343556
344136,14,0.344136
344704,11,0.344704
345288,11,0.345288
345856,15,0.345856
346440,14,0.34644
347008,19,0.347008
347592,28,0.347592
348168,33,0.348168
348736,31,0.348736
349320,22,0.34932
349892,15,0.349892
350472,13,0.350472
351044,18,0.351044
351624,17,0.351624
352196,11,0.352196
352768,18,0.352768
353352,19,0.353352
353920,15,0.35392
354504,11,0.354504
355076,11,0.355076
355656,12,0.355656
356228,10,0.356228
356808,13,0.356808
357384,30,0.357384
357956,37,0.357956
358536,30,0.358536
359108,17,0.359108
359688,15,0.359688
360256,19,0.360256
360840,23,0.36084
361408,11,0.361408
361984,13,0.361984
362568,27,0.362568
363136,41,0.363136
363720,47,0.36372
364288,43,0.364288
364872,42,0.364872
365440,53,0.36544
366024,53,0.366024
366600,31,0.3666
367172,18,0.367172
367752,15,0.367752
368324,14,0.368324
368904,11,0.368904
369472,18,0.369472
370056,26,0.370056
370624,30,0.370624
371204,24,0.371204
371784,19,0.371784
372356,11,0.372356
372936,12,0.372936
373508,15,0.373508
374088,24,0.374088
374656,22,0.374656
375240,15,0.37524
375816,15,0.375816
376388,15,0.376388
376968,16,0.376968
377536,11,0.377536
378120,11,0.37812
378700,18,0.3787
379280,21,0.37928
379856,16,0.379856
380436,14,0.380436
381016,23,0.381016
381588,32,0.381588
382168,29,0.382168
382740,26,0.38274
383320,13,0.38332
383892,17,0.383892
384468,18,0.384468
385048,16,0.385048
385616,11,0.385616
386200,14,0.3862
386772,15,0.386772
387352,19,0.387352
387924,30,0.387924
388504,37,0.388504
389076,46,0.389076
389652,28,0.389652
390232,15,0.390232
390804,11,0.390804
391384,13,0.391384
391956,18,0.391956
392536,23,0.392536
393116,17,0.393116
393692,15,0.393692
394272,12,0.394272
394844,10,0.394844
395424,14,0.395424
395996,31,0.395996
396576,18,0.396576
397156,20,0.397156
397736,35,0.397736
398308,40,0.398308
398884,47,0.398884
399464,49,0.399464
400036,38,0.400036
400616,32,0.400616
401188,25,0.401188
401768,15,0.401768
402336,10,0.402336
402916,28,0.402916
403496,47,0.403496
404068,40,0.404068
404648,13,0.404648
405216,14,0.405216
405800,22,0.4058
406372,14,0.406372
406952,13,0.406952
407532,21,0.407532
408108,25,0.408108
408688,16,0.408688
409260,15,0.40926
409840,24,0.40984
410416,25,0.410416
410992,22,0.410992
411560,19,0.41156
412136,14,0.412136
412720,10,0.41272
413288,15,0.413288
413872,11,0.413872
414440,12,0.41444
415024,16,0.415024
415592,18,0.415592
416176,15,0.416176
416744,12,0.416744
417312,15,0.417312
417896,16,0.417896
418464,14,0.418464
419048,10,0.419048
419616,14,0.419616
420200,10,0.4202
420768,25,0.420768
421344,18,0.421344
421928,15,0.421928
422496,30,0.422496
423080,23,0.42308
423648,15,0.423648
424232,10,0.424232
424800,14,0.4248
425384,18,0.425384
425952,21,0.425952
426528,22,0.426528
427112,20,0.427112
427684,11,0.427684
428264,10,0.428264
428832,12,0.428832
429416,15,0.429416
429988,19,0.429988
430564,24,0.430564
431144,30,0.431144
431716,27,0.431716
432296,23,0.432296
432864,23,0.432864
433448,20,0.433448
434016,16,0.434016
434600,16,0.4346
435168,24,0.435168
435748,29,0.435748
436328,30,0.436328
436896,27,0.436896
437480,13,0.43748
438052,10,0.438052
438632,16,0.438632
439204,26,0.439204
439776,34,0.439776
440360,30,0.44036
440928,21,0.440928
441512,15,0.441512
442084,14,0.442084
442664,16,0.442664
443236,19,0.443236
443816,15,0.443816
444388,13,0.444388
444964,24,0.444964
445544,43,0.445544
446116,46,0.446116
446696,49,0.446696
447268,40,0.447268
447848,32,0.447848
448428,35,0.448428
449000,38,0.449
449584,28,0.449584
450156,13,0.450156
450736,15,0.450736
451304,15,0.451304
451888,13,0.451888
452456,11,0.452456
453040,16,0.45304
453612,13,0.453612
454188,10,0.454188
454768,11,0.454768
455336,13,0.455336
455920,14,0.45592
456492,18,0.456492
457072,24,0.457072
457644,30,0.457644
458216,22,0.458216
458800,19,0.4588
459372,15,0.459372
459952,15,0.459952
460524,11,0.460524
461104,11,0.461104
461672,11,0.461672
462256,23,0.462256
462828,40,0.462828
463400,41,0.4634
463984,35,0.463984
464556,19,0.464556
465136,12,0.465136
465708,21,0.465708
466288,36,0.466288
466860,22,0.46686
467436,14,0.467436
468016,14,0.468016
468584,17,0.468584
469168,11,0.469168
469740,11,0.46974
470320,14,0.47032
470900,11,0.4709
471480,11,0.47148
472060,10,0.47206
472632,17,0.472632
473216,20,0.473216
473788,13,0.473788
474368,15,0.474368
474940,16,0.47494
475520,15,0.47552
476092,20,0.476092
476668,18,0.476668
477248,11,0.477248
477820,24,0.47782
478400,28,0.4784
478972,17,0.478972
479552,9,0.479552
480072,10,0.480072
480648,10,0.480648
481216,11,0.481216
481796,15,0.481796
482376,13,0.482376
482948,14,0.482948
483528,16,0.483528
484096,18,0.484096
484680,15,0.48468
485252,15,0.485252
485832,12,0.485832
486408,14,0.486408
486976,20,0.486976
487560,30,0.48756
488132,22,0.488132
488712,11,0.488712
489284,11,0.489284
489864,37,0.489864
490436,46,0.490436
491012,35,0.491012
491592,19,0.491592
492164,14,0.492164
492744,16,0.492744
493316,14,0.493316
493896,12,0.493896
494468,13,0.494468
495048,19,0.495048
495624,22,0.495624
496196,26,0.496196
496776,27,0.496776
497348,16,0.497348
497928,18,0.497928
498496,44,0.498496
499080,53,0.49908
499652,36,0.499652
500228,19,0.500228
500808,19,0.500808
501376,18,0.501376
501960,15,0.50196
502532,11,0.502532
503112,13,0.503112
503684,39,0.503684
504264,29,0.504264
504840,11,0.50484
505412,24,0.505412
505992,12,0.505992
506564,14,0.506564
507144,15,0.507144
507716,15,0.507716
508296,16,0.508296
508876,15,0.508876
509452,14,0.509452
510032,14,0.510032
510604,13,0.510604
511184,16,0.511184
511764,12,0.511764
512348,11,0.512348
512920,13,0.51292
513488,10,0.513488
514064,11,0.514064
514632,22,0.514632
515216,19,0.515216
515784,13,0.515784
516368,13,0.516368
516936,14,0.516936
517520,14,0.51752
518088,18,0.518088
518664,17,0.518664
519248,22,0.519248
519816,29,0.519816
520400,28,0.5204
520968,43,0.520968
521552,43,0.521552
522124,27,0.522124
522704,11,0.522704
523280,40,0.52328
523848,41,0.523848
524432,38,0.524432
525004,41,0.525004
525584,26,0.525584
526156,18,0.526156
526736,14,0.526736
527304,12,0.527304
527884,22,0.527884
528464,14,0.528464
529032,14,0.529032
529616,12,0.529616
530184,10,0.530184
530768,10,0.530768
531340,15,0.53134
531920,22,0.53192
532496,17,0.532496
533064,17,0.533064
533648,14,0.533648
534216,16,0.534216
534800,15,0.5348
535368,18,0.535368
535952,18,0.535952
536524,26,0.536524
537096,26,0.537096
537680,18,0.53768
538248,12,0.538248
538824,17,0.538824
539396,14,0.539396
539976,11,0.539976
540548,10,0.540548
541128,13,0.541128
541704,15,0.541704
542276,15,0.542276
542856,21,0.542856
543428,24,0.543428
544008,45,0.544008
544576,43,0.544576
545152,23,0.545152
545724,14,0.545724
546296,11,0.546296
546880,14,0.54688
547448,19,0.547448
548032,21,0.548032
548600,21,0.5486
549184,19,0.549184
549756,15,0.549756
550336,15,0.550336
550920,15,0.55092
551492,15,0.551492
552072,13,0.552072
552644,16,0.552644
553224,16,0.553224
553796,10,0.553796
554376,9,0.554376
554896,10,0.554896
555472,10,0.555472
556048,14,0.556048
556620,14,0.55662
557200,17,0.5572
557772,25,0.557772
558352,21,0.558352
558924,20,0.558924
559504,19,0.559504
560076,15,0.560076
560652,12,0.560652
561232,13,0.561232
561804,11,0.561804
562384,11,0.562384
562956,10,0.562956
563536,17,0.563536
564112,16,0.564112
564688,21,0.564688
565272,38,0.565272
565844,56,0.565844
566424,44,0.566424
566992,34,0.566992
567576,25,0.567576
568156,23,0.568156
568736,19,0.568736
569316,16,0.569316
569892,10,0.569892
570472,14,0.570472
571044,23,0.571044
571624,24,0.571624
572196,29,0.572196
572776,38,0.572776
573356,27,0.573356
573932,11,0.573932
574512,14,0.574512
575084,15,0.575084
575664,14,0.575664
576236,14,0.576236
576816,16,0.576816
577384,11,0.577384
577968,11,0.577968
578536,10,0.578536
579116,12,0.579116
579696,15,0.579696
580268,23,0.580268
580848,31,0.580848
581420,35,0.58142
582000,35,0.582
582572,24,0.582572
583148,18,0.583148
583728,15,0.583728
584300,15,0.5843
584880,24,0.58488
585452,15,0.585452
586032,15,0.586032
586604,15,0.586604
587184,10,0.587184
587756,12,0.587756
588332,14,0.588332
588912,32,0.588912
589484,33,0.589484
590064,25,0.590064
590636,26,0.590636
591216,21,0.591216
591788,14,0.591788
592364,15,0.592364
592944,14,0.592944
593516,20,0.593516
594096,24,0.594096
594668,20,0.594668
595248,14,0.595248
595816,14,0.595816
596400,12,0.5964
596972,17,0.596972
597548,32,0.597548
598128,35,0.598128
598700,30,0.5987
599280,27,0.59928
599860,18,0.59986
600440,26,0.60044
601020,41,0.60102
601596,41,0.601596
602180,30,0.60218
602752,19,0.602752
603328,10,0.603328
603900,20,0.6039
604480,18,0.60448
605060,16,0.60506
605640,25,0.60564
606216,33,0.606216
606788,30,0.606788
607368,28,0.607368
607940,27,0.60794
608524,19,0.608524
609100,14,0.6091
609680,18,0.60968
610260,15,0.61026
610836,10,0.610836
611416,13,0.611416
611988,17,0.611988
612568,11,0.612568
613148,10,0.613148
613728,13,0.613728
614308,19,0.614308
614884,29,0.614884
615464,37,0.615464
616036,40,0.616036
616616,37,0.616616
617188,30,0.617188
617768,24,0.617768
618336,20,0.618336
618920,11,0.61892
619492,14,0.619492
620068,11,0.620068
620648,10,0.620648
621220,12,0.62122
621800,21,0.6218
622372,15,0.622372
622952,15,0.622952
623532,20,0.623532
624108,23,0.624108
624688,26,0.624688
625256,30,0.625256
625840,27,0.62584
626412,20,0.626412
626992,17,0.626992
627564,10,0.627564
628144,13,0.628144
628716,13,0.628716
629292,10,0.629292
629872,11,0.629872
630444,19,0.630444
631024,39,0.631024
631596,52,0.631596
632180,49,0.63218
632756,42,0.632756
633332,40,0.633332
633912,31,0.633912
634488,18,0.634488
635064,17,0.635064
635636,11,0.635636
636216,15,0.636216
636796,19,0.636796
637380,25,0.63738
637960,31,0.63796
638536,37,0.638536
639116,29,0.639116
639688,12,0.639688
640268,10,0.640268
640840,15,0.64084
641416,17,0.641416
641984,18,0.641984
642560,17,0.64256
643144,16,0.643144
643716,19,0.643716
644296,29,0.644296
644868,16,0.644868
645448,13,0.645448
646016,19,0.646016
646600,24,0.6466
647176,12,0.647176
647748,39,0.647748
648328,62,0.648328
648896,63,0.648896
649480,59,0.64948
650052,58,0.650052
650632,44,0.650632
651204,41,0.651204
651780,24,0.65178
652360,10,0.65236
652932,11,0.652932
653512,17,0.653512
654084,34,0.654084
654664,43,0.654664
655236,38,0.655236
655816,37,0.655816
656400,24,0.6564
656968,13,0.656968
657544,20,0.657544
658112,23,0.658112
658696,18,0.658696
659264,15,0.659264
659848,14,0.659848
660416,21,0.660416
660992,18,0.660992
661576,11,0.661576
662148,23,0.662148
662728,27,0.662728
663296,25,0.663296
663880,16,0.66388
664452,21,0.664452
665032,39,0.665032
665608,39,0.665608
666176,22,0.666176
666752,16,0.666752
667320,16,0.66732
667904,15,0.667904
668472,17,0.668472
669056,12,0.669056
669624,10,0.669624
670200,16,0.6702
670784,18,0.670784
671352,23,0.671352
671936,26,0.671936
672508,22,0.672508
673088,19,0.673088
673656,23,0.673656
674240,27,0.67424
674808,31,0.674808
675388,32,0.675388
675968,34,0.675968
676536,20,0.676536
677120,21,0.67712
677688,37,0.677688
678272,41,0.678272
678844,43,0.678844
679416,31,0.679416
680000,18,0.68
680568,27,0.680568
681144,46,0.681144
681712,40,0.681712
682296,26,0.682296
682864,18,0.682864
683448,21,0.683448
684020,15,0.68402
684592,18,0.684592
685176,17,0.685176
685748,11,0.685748
686328,10,0.686328
686900,15,0.6869
687480,24,0.68748
688052,38,0.688052
688624,32,0.688624
689208,11,0.689208
689780,12,0.68978
690360,10,0.69036
690932,12,0.690932
691512,15,0.691512
692084,14,0.692084
692664,15,0.692664
693236,26,0.693236
693812,24,0.693812
694392,15,0.694392
694964,14,0.694964
695544,29,0.695544
696116,39,0.696116
696696,49,0.696696
697272,54,0.697272
697852,59,0.697852
698432,44,0.698432
699000,34,0.699
699584,27,0.699584
700156,18,0.700156
700736,23,0.700736
701316,18,0.701316
701896,14,0.701896
702480,14,0.70248
703052,31,0.703052
703632,36,0.703632
704208,30,0.704208
704784,23,0.704784
705356,10,0.705356
705936,11,0.705936
706508,11,0.706508
707084,10,0.707084
707664,16,0.707664
708236,18,0.708236
708816,15,0.708816
709388,14,0.709388
709968,14,0.709968
710540,11,0.71054
711120,12,0.71112
711696,11,0.711696
712268,11,0.712268
712848,12,0.712848
713420,10,0.71342
714000,20,0.714
714580,37,0.71458
715160,49,0.71516
715740,60,0.71574
716316,45,0.716316
716896,25,0.716896
717468,15,0.717468
718048,15,0.718048
718620,17,0.71862
719200,20,0.7192
719772,26,0.719772
720348,43,0.720348
720928,58,0.720928
721500,64,0.7215
722080,50,0.72208
722648,24,0.722648
723232,10,0.723232
723800,25,0.7238
724384,37,0.724384
724956,32,0.724956
725532,17,0.725532
726112,15,0.726112
726684,15,0.726684
727264,14,0.727264
727836,24,0.727836
728416,25,0.728416
728996,25,0.728996
729572,34,0.729572
730152,43,0.730152
730724,44,0.730724
731304,44,0.731304
731876,50,0.731876
732456,49,0.732456
733036,32,0.733036
733616,19,0.733616
734196,14,0.734196
734772,23,0.734772
735352,30,0.735352
735924,17,0.735924
736504,11,0.736504
737084,20,0.737084
737664,17,0.737664
738232,19,0.738232
738812,23,0.738812
739392,27,0.739392
739964,25,0.739964
740544,22,0.740544
741116,22,0.741116
741696,18,0.741696
742276,15,0.742276
742856,15,0.742856
743440,16,0.74344
744012,13,0.744012
744592,11,0.744592
745164,22,0.745164
745744,33,0.745744
746316,23,0.746316
746896,18,0.746896
747476,30,0.747476
748052,35,0.748052
748632,39,0.748632
749204,21,0.749204
749784,13,0.749784
750356,18,0.750356
750936,24,0.750936
751516,27,0.751516
752092,24,0.752092
752672,14,0.752672
753244,11,0.753244
753824,12,0.753824
754396,16,0.754396
754976,26,0.754976
755556,31,0.755556
756136,26,0.756136
756716,22,0.756716
757292,24,0.757292
757872,20,0.757872
758444,21,0.758444
759024,33,0.759024
759596,27,0.759596
760176,15,0.760176
760756,14,0.760756
761332,20,0.761332
761912,16,0.761912
762484,20,0.762484
763064,24,0.763064
763636,18,0.763636
764216,11,0.764216
764796,18,0.764796
765380,58,0.76538
765964,83,0.765964
766536,74,0.766536
767116,50,0.767116
767688,31,0.767688
768268,21,0.768268
768840,11,0.76884
769424,18,0.769424
769996,21,0.769996
770572,27,0.770572
771152,26,0.771152
771724,23,0.771724
772304,21,0.772304
772876,29,0.772876
773456,25,0.773456
774028,21,0.774028
774608,23,0.774608
775184,27,0.775184
775756,20,0.775756
776336,13,0.776336
776908,14,0.776908
777488,14,0.777488
778068,15,0.778068
778648,16,0.778648
779224,11,0.779224
779804,11,0.779804
780384,16,0.780384
780956,34,0.780956
781536,53,0.781536
782108,54,0.782108
782688,37,0.782688
783260,23,0.78326
783836,32,0.783836
784416,28,0.784416
784988,23,0.784988
785568,12,0.785568
786140,15,0.78614
786720,28,0.78672
787292,29,0.787292
787872,21,0.787872
788444,21,0.788444
789020,25,0.78902
789600,25,0.7896
790172,30,0.790172
790752,27,0.790752
791332,33,0.791332
791912,40,0.791912
792492,33,0.792492
793068,22,0.793068
793648,15,0.793648
794220,12,0.79422
794800,31,0.7948
795372,42,0.795372
795952,41,0.795952
796532,47,0.796532
797112,42,0.797112
797692,36,0.797692
798272,25,0.798272
798848,31,0.798848
799424,25,0.799424
800000,27,0.8
800576,47,0.800576
801152,55,0.801152
801724,35,0.801724
802300,18,0.8023
802880,15,0.80288
803448,35,0.803448
804032,30,0.804032
804604,21,0.804604
805184,15,0.805184
805756,12,0.805756
806336,10,0.806336
806920,12,0.80692
807492,11,0.807492
808072,15,0.808072
808644,19,0.808644
809224,21,0.809224
809796,26,0.809796
810376,16,0.810376
810948,14,0.810948
811524,11,0.811524
812104,17,0.812104
812676,13,0.812676
813256,11,0.813256
813828,10,0.813828
814408,12,0.814408
814988,26,0.814988
815568,54,0.815568
816152,45,0.816152
816724,28,0.816724
817304,18,0.817304
817876,18,0.817876
818456,16,0.818456
819036,12,0.819036
819620,18,0.81962
820192,11,0.820192
820760,13,0.82076
821336,32,0.821336
821904,32,0.821904
822488,11,0.822488
823056,12,0.823056
823632,15,0.823632
824200,16,0.8242
824784,16,0.824784
825360,15,0.82536
825928,22,0.825928
826512,27,0.826512
827080,18,0.82708
827664,14,0.827664
828236,27,0.828236
828816,36,0.828816
829384,41,0.829384
829964,40,0.829964
830544,32,0.830544
831116,32,0.831116
831696,32,0.831696
832276,29,0.832276
832856,21,0.832856
833424,15,0.833424
834000,23,0.834
834584,20,0.834584
835152,17,0.835152
835736,20,0.835736
836304,20,0.836304
836888,23,0.836888
837456,38,0.837456
838040,26,0.83804
838612,11,0.838612
839184,15,0.839184
839768,11,0.839768
840336,15,0.840336
840920,16,0.84092
841488,13,0.841488
842072,14,0.842072
842644,17,0.842644
843216,29,0.843216
843800,34,0.8438
844372,26,0.844372
844952,19,0.844952
845520,11,0.84552
846104,10,0.846104
846672,15,0.846672
847256,22,0.847256
847828,38,0.847828
848404,62,0.848404
848984,58,0.848984
849552,39,0.849552
850136,21,0.850136
850712,15,0.850712
851296,14,0.851296
851864,14,0.851864
852440,11,0.85244
853024,10,0.853024
853596,14,0.853596
854176,25,0.854176
854748,34,0.854748
855328,34,0.855328
855900,33,0.8559
856480,27,0.85648
857056,19,0.857056
857636,15,0.857636
858216,15,0.858216
858788,14,0.858788
859368,15,0.859368
859940,22,0.85994
860520,23,0.86052
861096,25,0.861096
861676,31,0.861676
862256,13,0.862256
862828,19,0.862828
863408,24,0.863408
863980,45,0.86398
864560,51,0.86456
865140,52,0.86514
865720,60,0.86572
866292,50,0.866292
866868,40,0.866868
867448,34,0.867448
868020,23,0.86802
868600,13,0.8686
869172,20,0.869172
869752,44,0.869752
870324,51,0.870324
870900,51,0.8709
871480,43,0.87148
872052,30,0.872052
872632,27,0.872632
873204,19,0.873204
873784,22,0.873784
874356,14,0.874356
874936,24,0.874936
875508,18,0.875508
876084,15,0.876084
876664,15,0.876664
877236,18,0.877236
877816,25,0.877816
878388,20,0.878388
878968,23,0.878968
879548,30,0.879548
880124,29,0.880124
880704,34,0.880704
881272,33,0.881272
881856,38,0.881856
882428,42,0.882428
883008,24,0.883008
883580,18,0.88358
884160,21,0.88416
884728,22,0.884728
885308,22,0.885308
885888,12,0.885888
886456,14,0.886456
887040,25,0.88704
887608,20,0.887608
888192,13,0.888192
888764,11,0.888764
889340,11,0.88934
889920,19,0.88992
890492,21,0.890492
891072,20,0.891072
891644,24,0.891644
892224,24,0.892224
892796,26,0.892796
893376,23,0.893376
893960,11,0.89396
894532,11,0.894532
895112,14,0.895112
895688,24,0.895688
896264,32,0.896264
896840,29,0.89684
897424,17,0.897424
897996,24,0.897996
898572,46,0.898572
899152,53,0.899152
899724,45,0.899724
900304,32,0.900304
900876,15,0.900876
901456,17,0.901456
902024,14,0.902024
902608,9,0.902608
903124,10,0.903124
903700,15,0.9037
904280,24,0.90428
904852,31,0.904852
905432,24,0.905432
906004,20,0.906004
906584,17,0.906584
907156,16,0.907156
907732,15,0.907732
908312,15,0.908312
908884,19,0.908884
909464,27,0.909464
910036,22,0.910036
910616,11,0.910616
911196,26,0.911196
911780,32,0.91178
912356,30,0.912356
912932,28,0.912932
913512,21,0.913512
914084,14,0.914084
914664,17,0.914664
915236,18,0.915236
915816,17,0.915816
916388,18,0.916388
916964,16,0.916964
917544,16,0.917544
918116,16,0.918116
918696,11,0.918696
919268,12,0.919268
919848,24,0.919848
920428,20,0.920428
921008,15,0.921008
921580,15,0.92158
922156,17,0.922156
922736,14,0.922736
923308,12,0.923308
923888,14,0.923888
924460,22,0.92446
925040,17,0.92504
925612,16,0.925612
926188,29,0.926188
926768,30,0.926768
927340,27,0.92734
927920,24,0.92792
928492,29,0.928492
929072,17,0.929072
929644,18,0.929644
930224,26,0.930224
930796,30,0.930796
931372,31,0.931372
931952,34,0.931952
932524,21,0.932524
933104,13,0.933104
933676,17,0.933676
934256,16,0.934256
934836,17,0.934836
935412,16,0.935412
935992,11,0.935992
936564,10,0.936564
937144,16,0.937144
937716,28,0.937716
938296,25,0.938296
938868,18,0.938868
939448,13,0.939448
940028,17,0.940028
940604,20,0.940604
941184,16,0.941184
941756,16,0.941756
942340,17,0.94234
942916,18,0.942916
943496,17,0.943496
944076,26,0.944076
944652,24,0.944652
945232,29,0.945232
945804,36,0.945804
946384,33,0.946384
946964,29,0.946964
947544,34,0.947544
948124,32,0.948124
948700,29,0.9487
949280,24,0.94928
949852,15,0.949852
950432,15,0.950432
951004,14,0.951004
951584,15,0.951584
952164,11,0.952164
952744,15,0.952744
953324,18,0.953324
953900,22,0.9539
954480,23,0.95448
955052,19,0.955052
955632,17,0.955632
956212,13,0.956212
956792,15,0.956792
957372,23,0.957372
957948,26,0.957948
958528,15,0.958528
959104,14,0.959104
959684,15,0.959684
960256,12,0.960256
960832,9,0.960832
961352,10,0.961352
961928,12,0.961928
962500,10,0.9625
963076,27,0.963076
963656,34,0.963656
964228,40,0.964228
964808,48,0.964808
965376,51,0.965376
965960,46,0.96596
966532,42,0.966532
967112,38,0.967112
967688,22,0.967688
968260,14,0.96826
968840,19,0.96884
969412,26,0.969412
969992,26,0.969992
970572,31,0.970572
971152,22,0.971152
971724,16,0.971724
972300,15,0.9723
972880,15,0.97288
973452,29,0.973452
974032,33,0.974032
974604,21,0.974604
975184,14,0.975184
975756,13,0.975756
976336,16,0.976336
976920,15,0.97692
977492,16,0.977492
978072,15,0.978072
978644,11,0.978644
979224,9,0.979224
979744,20,0.979744
980320,51,0.98032
980900,70,0.9809
981476,60,0.981476
982056,44,0.982056
982628,29,0.982628
983208,16,0.983208
983780,14,0.98378
984360,14,0.98436
984928,18,0.984928
985512,17,0.985512
986084,22,0.986084
986656,27,0.986656
987240,30,0.98724
987812,25,0.987812
988392,19,0.988392
988972,13,0.988972
989552,16,0.989552
990124,14,0.990124
990700,21,0.9907
991280,34,0.99128
991852,20,0.991852
992432,14,0.992432
993004,15,0.993004
993584,15,0.993584
994156,25,0.994156
994736,27,0.994736
995308,18,0.995308
995884,13,0.995884
996464,16,0.996464
997036,14,0.997036
997616,16,0.997616
998196,28,0.998196
998776,40,0.998776
999356,26,0.999356
999932,16,0.999932
1000512,29,1.000512
1001128,35,1.001128
1001760,35,1.00176
1002380,27,1.00238
1003012,11,1.003012
1003640,19,1.00364
1004256,21,1.004256
1004884,20,1.004884
1005508,15,1.005508
1006128,12,1.006128
1006760,10,1.00676
1007376,19,1.007376
1008004,26,1.008004
1008628,20,1.008628
1009252,20,1.009252
1009880,23,1.00988
1010504,12,1.010504
1011132,22,1.011132
1011764,32,1.011764
1012384,33,1.012384
1013012,26,1.013012
1013636,25,1.013636
1014268,40,1.014268
1014896,51,1.014896
1015516,44,1.015516
1016144,27,1.016144
1016768,15,1.016768
1017392,14,1.017392
1018020,14,1.01802
1018640,12,1.01864
1019268,13,1.019268
1019892,17,1.019892
1020516,20,1.020516
1021148,15,1.021148
1021772,16,1.021772
1022400,19,1.0224
1023032,15,1.023032
1023652,18,1.023652
1024280,31,1.02428
1024904,29,1.024904
1025532,28,1.025532
1026160,24,1.02616
1026772,15,1.026772
1027400,18,1.0274
1028024,27,1.028024
1028644,37,1.028644
1029272,42,1.029272
1029888,39,1.029888
1030516,33,1.030516
1031136,22,1.031136
1031760,26,1.03176
1032388,29,1.032388
1033004,25,1.033004
1033636,21,1.033636
1034264,15,1.034264
1034880,15,1.03488
1035508,10,1.035508
1036128,18,1.036128
1036756,27,1.036756
1037388,30,1.037388
1038008,27,1.038008
1038636,23,1.038636
1039260,28,1.03926
1039880,19,1.03988
1040512,14,1.040512
1041128,13,1.041128
1041756,15,1.041756
1042376,16,1.042376
1043000,19,1.043
1043628,11,1.043628
1044248,10,1.044248
1044876,13,1.044876
1045496,11,1.045496
1046116,19,1.046116
1046748,33,1.046748
1047368,46,1.047368
1047996,45,1.047996
1048628,45,1.048628
1049248,38,1.049248
1049876,29,1.049876
1050496,23,1.050496
1051124,20,1.051124
1051756,16,1.051756
1052376,11,1.052376
1053004,12,1.053004
1053628,17,1.053628
1054248,17,1.054248
1054876,23,1.054876
1055496,33,1.055496
1056124,31,1.056124
1056744,27,1.056744
1057368,33,1.057368
1057996,20,1.057996
1058616,18,1.058616
1059244,19,1.059244
1059872,15,1.059872
1060488,17,1.060488
1061116,11,1.061116
1061740,15,1.06174
1062368,22,1.062368
1062996,12,1.062996
1063616,13,1.063616
1064244,38,1.064244
1064868,57,1.064868
1065492,58,1.065492
1066120,46,1.06612
1066736,33,1.066736
1067364,22,1.067364
1067988,15,1.067988
1068612,18,1.068612
1069240,29,1.06924
1069856,37,1.069856
1070484,38,1.070484
1071112,28,1.071112
1071732,19,1.071732
1072360,12,1.07236
1072984,11,1.072984
1073612,13,1.073612
1074240,16,1.07424
1074856,17,1.074856
1075488,15,1.075488
1076108,17,1.076108
1076736,17,1.076736
1077368,15,1.077368
1077984,11,1.077984
1078612,18,1.078612
1079236,21,1.079236
1079856,19,1.079856
1080488,26,1.080488
1081104,45,1.081104
1081732,61,1.081732
1082356,61,1.082356
1082980,42,1.08298
1083608,33,1.083608
1084232,24,1.084232
1084860,19,1.08486
1085488,14,1.085488
1086104,11,1.086104
1086732,33,1.086732
1087356,35,1.087356
1087984,30,1.087984
1088616,35,1.088616
1089232,27,1.089232
1089860,22,1.08986
1090484,16,1.090484
1091104,15,1.091104
1091736,14,1.091736
1092352,15,1.092352
1092980,15,1.09298
1093604,11,1.093604
1094224,10,1.094224
1094856,15,1.094856
1095472,24,1.095472
1096100,28,1.0961
1096732,23,1.096732
1097352,24,1.097352
1097980,27,1.09798
1098604,34,1.098604
1099232,33,1.099232
1099864,33,1.099864
1100480,32,1.10048
1101108,25,1.101108
1101732,20,1.101732
1102356,12,1.102356
1102984,10,1.102984
1103608,19,1.103608
1104236,29,1.104236
1104860,31,1.10486
1105484,25,1.105484
1106112,16,1.106112
1106736,16,1.106736
1107364,25,1.107364
1107992,28,1.107992
1108612,20,1.108612
1109240,17,1.10924
1109864,17,1.109864
1110492,14,1.110492
1111120,11,1.11112
1111744,13,1.111744
1112372,10,1.112372
1112996,11,1.112996
1113620,22,1.11362
1114248,54,1.114248
1114872,61,1.114872
1115500,57,1.1155
1116128,42,1.116128
1116752,27,1.116752
1117380,18,1.11738
1118000,17,1.118
1118628,15,1.118628
1119260,13,1.11926
1119880,13,1.11988
1120512,23,1.120512
1121132,25,1.121132
1121764,15,1.121764
1122392,16,1.122392
1123008,11,1.123008
1123640,12,1.12364
1124264,17,1.124264
1124888,23,1.124888
1125516,16,1.125516
1126136,16,1.126136
1126764,15,1.126764
1127388,11,1.127388
1128012,12,1.128012
1128640,19,1.12864
1129256,21,1.129256
1129884,21,1.129884
1130512,21,1.130512
1131128,18,1.131128
1131760,25,1.13176
1132384,24,1.132384
1133012,18,1.133012
1133640,19,1.13364
1134264,21,1.134264
1134892,25,1.134892
1135516,30,1.135516
1136140,21,1.13614
1136768,10,1.136768
1137392,25,1.137392
1138020,36,1.13802
1138644,46,1.138644
1139268,44,1.139268
1139896,28,1.139896
1140512,13,1.140512
1141140,20,1.14114
1141772,18,1.141772
1142392,17,1.142392
1143020,31,1.14302
1143644,31,1.143644
1144276,12,1.144276
1144904,12,1.144904
1145528,12,1.145528
1146156,23,1.146156
1146784,21,1.146784
1147408,19,1.147408
1148036,24,1.148036
1148656,29,1.148656
1149284,39,1.149284
1149908,31,1.149908
1150532,22,1.150532
1151160,17,1.15116
1151784,16,1.151784
1152416,13,1.152416
1153044,10,1.153044
1153664,9,1.153664
1154240,9,1.15424
1154812,14,1.154812
1155444,32,1.155444
1156068,39,1.156068
1156692,28,1.156692
1157320,25,1.15732
1157936,21,1.157936
1158564,14,1.158564
1159192,15,1.159192
1159812,14,1.159812
1160440,13,1.16044
1161064,27,1.161064
1161692,23,1.161692
1162320,19,1.16232
1162936,19,1.162936
1163564,30,1.163564
1164188,38,1.164188
1164812,34,1.164812
1165440,27,1.16544
1166056,27,1.166056
1166684,29,1.166684
1167308,19,1.167308
1167932,15,1.167932
1168564,13,1.168564
1169184,14,1.169184
1169812,27,1.169812
1170440,36,1.17044
1171064,12,1.171064
1171692,11,1.171692
1172316,11,1.172316
1172948,21,1.172948
1173576,23,1.173576
1174192,23,1.174192
1174824,28,1.174824
1175448,24,1.175448
1176072,22,1.176072
1176700,14,1.1767
1177320,26,1.17732
1177948,18,1.177948
1178572,18,1.178572
1179196,22,1.179196
1179824,16,1.179824
1180448,21,1.180448
1181076,35,1.181076
1181708,32,1.181708
1182328,29,1.182328
1182956,38,1.182956
1183580,41,1.18358
1184212,28,1.184212
1184840,17,1.18484
1185456,15,1.185456
1186088,20,1.186088
1186708,12,1.186708
1187336,18,1.187336
1187964,18,1.187964
1188584,22,1.188584
1189212,17,1.189212
1189836,15,1.189836
1190460,21,1.19046
1191088,29,1.191088
1191704,27,1.191704
1192336,22,1.192336
1192960,18,1.19296
1193584,15,1.193584
1194212,25,1.194212
1194836,30,1.194836
1195468,34,1.195468
1196100,35,1.1961
1196720,35,1.19672
1197352,32,1.197352
1197976,37,1.197976
1198600,50,1.1986
1199228,51,1.199228
1199848,47,1.199848
1200476,29,1.200476
1201100,16,1.2011
1201724,31,1.201724
1202356,36,1.202356
1202976,38,1.202976
1203604,24,1.203604
1204236,14,1.204236
1204856,12,1.204856
1205484,12,1.205484
1206108,11,1.206108
1206736,14,1.206736
1207368,18,1.207368
1207984,18,1.207984
1208616,17,1.208616
1209236,20,1.209236
1209860,21,1.20986
1210492,15,1.210492
1211112,11,1.211112
1211740,17,1.21174
1212364,17,1.212364
1212988,25,1.212988
1213620,24,1.21362
1214240,28,1.21424
1214868,28,1.214868
1215500,30,1.2155
1216120,25,1.21612
1216748,18,1.216748
1217372,21,1.217372
1218000,22,1.218
1218628,15,1.218628
1219248,10,1.219248
1219876,14,1.219876
1220500,30,1.2205
1221124,36,1.221124
1221756,22,1.221756
1222376,19,1.222376
1223008,15,1.223008
1223632,22,1.223632
1224256,25,1.224256
1224884,15,1.224884
1225504,25,1.225504
1226136,24,1.226136
1226764,22,1.226764
1227384,26,1.227384
1228012,26,1.228012
1228640,15,1.22864
1229268,15,1.229268
1229896,20,1.229896
1230520,21,1.23052
1231148,19,1.231148
1231772,30,1.231772
1232396,26,1.232396
1233024,16,1.233024
1233640,13,1.23364
1234268,23,1.234268
1234892,35,1.234892
1235516,23,1.235516
1236144,10,1.236144
1236760,26,1.23676
1237388,40,1.237388
1238012,40,1.238012
1238640,25,1.23864
1239268,11,1.239268
1239892,13,1.239892
1240520,19,1.24052
1241152,21,1.241152
1241768,16,1.241768
1242396,16,1.242396
1243020,24,1.24302
1243652,19,1.243652
1244280,14,1.24428
1244896,21,1.244896
1245524,25,1.245524
1246148,25,1.246148
1246772,19,1.246772
1247400,12,1.2474
1248024,12,1.248024
1248652,34,1.248652
1249276,47,1.249276
1249900,51,1.2499
1250528,42,1.250528
1251152,26,1.251152
1251780,15,1.25178
1252412,10,1.252412
1253032,13,1.253032
1253660,15,1.25366
1254284,13,1.254284
1254916,21,1.254916
1255544,27,1.255544
1256168,21,1.256168
1256796,16,1.256796
1257420,13,1.25742
1258044,14,1.258044
1258672,22,1.258672
1259296,17,1.259296
1259924,15,1.259924
1260556,12,1.260556
1261176,13,1.261176
1261804,21,1.261804
1262428,26,1.262428
1263060,14,1.26306
1263688,10,1.263688
1264308,12,1.264308
1264936,26,1.264936
1265560,25,1.26556
1266184,15,1.266184
1266812,15,1.266812
1267432,23,1.267432
1268060,25,1.26806
1268684,18,1.268684
1269308,11,1.269308
1269940,15,1.26994
1270560,12,1.27056
1271188,15,1.271188
1271820,22,1.27182
1272440,27,1.27244
1273068,18,1.273068
1273692,13,1.273692
1274324,14,1.274324
1274952,14,1.274952
1275572,16,1.275572
1276200,18,1.2762
1276824,13,1.276824
1277448,15,1.277448
1278076,16,1.278076
1278696,11,1.278696
1279328,15,1.279328
1279952,17,1.279952
1280576,22,1.280576
1281204,30,1.281204
1281820,43,1.28182
1282448,39,1.282448
1283080,38,1.28308
1283696,21,1.283696
1284324,14,1.284324
1284944,17,1.284944
1285572,19,1.285572
1286200,13,1.2862
1286816,15,1.286816
1287444,20,1.287444
1288068,10,1.288068
1288696,12,1.288696
1289324,16,1.289324
1289944,18,1.289944
1290572,18,1.290572
1291192,16,1.291192
1291816,15,1.291816
1292444,14,1.292444
1293064,15,1.293064
1293692,13,1.293692
1294312,10,1.294312
1294936,10,1.294936
1295568,12,1.295568
1296184,15,1.296184
1296812,15,1.296812
1297440,16,1.29744
1298056,24,1.298056
1298684,26,1.298684
1299308,41,1.299308
1299936,51,1.299936
1300564,38,1.300564
1301184,24,1.301184
1301812,12,1.301812
1302436,15,1.302436
1303056,24,1.303056
1303688,32,1.303688
1304304,32,1.304304
1304932,27,1.304932
1305556,17,1.305556
1306180,11,1.30618
1306812,10,1.306812
1307432,16,1.307432
1308060,15,1.30806
1308692,14,1.308692
1309312,17,1.309312
1309940,19,1.30994
1310564,12,1.310564
1311196,12,1.311196
1311824,13,1.311824
1312440,11,1.31244
1313068,12,1.313068
1313692,14,1.313692
1314312,26,1.314312
1314940,40,1.31494
1315560,33,1.31556
1316188,29,1.316188
1316808,27,1.316808
1317432,30,1.317432
1318060,42,1.31806
1318680,32,1.31868
1319308,25,1.319308
1319928,22,1.319928
1320552,12,1.320552
1321180,15,1.32118
1321804,18,1.321804
1322432,20,1.322432
1323060,16,1.32306
1323680,14,1.32368
1324308,23,1.324308
1324932,25,1.324932
1325560,20,1.32556
1326188,22,1.326188
1326808,11,1.326808
1327436,10,1.327436
1328056,11,1.328056
1328680,11,1.32868
1329308,10,1.329308
1329928,11,1.329928
1330556,14,1.330556
1331180,25,1.33118
1331804,37,1.331804
1332432,39,1.332432
1333048,29,1.333048
1333676,28,1.333676
1334304,23,1.334304
1334920,19,1.33492
1335548,15,1.335548
1336172,10,1.336172
1336800,17,1.3368
1337428,18,1.337428
1338048,26,1.338048
1338676,22,1.338676
1339300,17,1.3393
1339920,13,1.33992
1340548,13,1.340548
1341168,22,1.341168
1341796,25,1.341796
1342420,15,1.34242
1343040,15,1.34304
1343672,11,1.343672
1344288,19,1.344288
1344916,14,1.344916
1345544,12,1.345544
1346160,17,1.34616
1346788,23,1.346788
1347412,28,1.347412
1348040,32,1.34804
1348668,36,1.348668
1349288,28,1.349288
1349916,14,1.349916
1350540,15,1.35054
1351168,15,1.351168
1351796,14,1.351796
1352416,11,1.352416
1353044,15,1.353044
1353664,18,1.353664
1354288,21,1.354288
1354916,20,1.354916
1355536,25,1.355536
1356164,23,1.356164
1356788,13,1.356788
1357412,15,1.357412
1358040,14,1.35804
1358664,15,1.358664
1359292,15,1.359292
1359920,18,1.35992
1360544,23,1.360544
1361172,21,1.361172
1361796,10,1.361796
1362424,14,1.362424
1363052,13,1.363052
1363672,12,1.363672
1364300,28,1.3643
1364924,41,1.364924
1365544,39,1.365544
1366176,22,1.366176
1366792,24,1.366792
1367420,31,1.36742
1368044,28,1.368044
1368668,31,1.368668
1369296,22,1.369296
1369912,10,1.369912
1370540,18,1.37054
1371172,29,1.371172
1371792,39,1.371792
1372420,37,1.37242
1373044,33,1.373044
1373672,28,1.373672
1374304,37,1.374304
1374920,35,1.37492
1375548,16,1.375548
1376172,17,1.376172
1376796,15,1.376796
1377424,21,1.377424
1378040,48,1.37804
1378672,45,1.378672
1379292,37,1.379292
1379916,35,1.379916
1380544,39,1.380544
1381168,46,1.381168
1381796,42,1.381796
1382428,29,1.382428
1383044,18,1.383044
1383672,16,1.383672
1384296,19,1.384296
1384928,15,1.384928
1385556,10,1.385556
1386176,15,1.386176
1386804,23,1.386804
1387428,28,1.387428
1388052,24,1.388052
1388680,20,1.38868
1389300,22,1.3893
1389928,30,1.389928
1390552,31,1.390552
1391176,29,1.391176
1391804,19,1.391804
1392424,15,1.392424
1393052,23,1.393052
1393680,26,1.39368
1394304,18,1.394304
1394932,14,1.394932
1395556,15,1.395556
1396184,15,1.396184
1396812,18,1.396812
1397432,33,1.397432
1398060,38,1.39806
1398684,41,1.398684
1399308,29,1.399308
1399936,21,1.399936
1400556,23,1.400556
1401184,15,1.401184
1401808,11,1.401808
1402432,11,1.402432
1403060,16,1.40306
1403680,23,1.40368
1404308,15,1.404308
1404936,18,1.404936
1405560,26,1.40556
1406188,27,1.406188
1406812,25,1.406812
1407444,21,1.407444
1408072,21,1.408072
1408688,17,1.408688
1409316,15,1.409316
1409936,17,1.409936
1410564,11,1.410564
1411192,10,1.411192
1411816,12,1.411816
1412444,21,1.412444
1413068,29,1.413068
1413692,37,1.413692
1414320,44,1.41432
1414944,45,1.414944
1415572,51,1.415572
1416204,34,1.416204
1416824,33,1.416824
1417452,20,1.417452
1418076,14,1.418076
1418704,19,1.418704
1419332,38,1.419332
1419952,25,1.419952
1420580,13,1.42058
1421204,9,1.421204
1421776,11,1.421776
1422412,10,1.422412
1423032,20,1.423032
1423660,24,1.42366
1424284,22,1.424284
1424908,19,1.424908
1425536,14,1.425536
1426160,17,1.42616
1426788,18,1.426788
1427412,28,1.427412
1428036,25,1.428036
1428664,17,1.428664
1429288,10,1.429288
1429916,10,1.429916
1430548,25,1.430548
1431168,42,1.431168
1431796,41,1.431796
1432424,24,1.432424
1433052,17,1.433052
1433684,19,1.433684
1434300,29,1.4343
1434932,25,1.434932
1435552,10,1.435552
1436176,24,1.436176
1436804,30,1.436804
1437420,33,1.43742
1438052,14,1.438052
1438676,10,1.438676
1439300,11,1.4393
1439928,10,1.439928
1440552,15,1.440552
1441180,22,1.44118
1441808,24,1.441808
1442424,26,1.442424
1443052,20,1.443052
1443676,10,1.443676
1444308,11,1.444308
1444936,17,1.444936
1445552,25,1.445552
1446180,17,1.44618
1446804,17,1.446804
1447428,30,1.447428
1448056,36,1.448056
1448680,37,1.44868
1449308,27,1.449308
1449928,21,1.449928
1450552,21,1.450552
1451180,16,1.45118
1451800,13,1.4518
1452428,11,1.452428
1453052,12,1.453052
1453680,17,1.45368
1454308,25,1.454308
1454932,26,1.454932
1455560,23,1.45556
1456192,21,1.456192
1456808,27,1.456808
1457436,31,1.457436
1458060,20,1.45806
1458688,16,1.458688
1459320,15,1.45932
1459936,15,1.459936
1460564,12,1.460564
1461188,10,1.461188
1461812,18,1.461812
1462440,19,1.46244
1463056,15,1.463056
1463684,15,1.463684
1464308,31,1.464308
1464932,34,1.464932
1465560,29,1.46556
1466184,16,1.466184
1466816,19,1.466816
1467444,14,1.467444
1468064,19,1.468064
1468692,31,1.468692
1469316,20,1.469316
1469948,11,1.469948
1470576,11,1.470576
1471200,28,1.4712
1471828,45,1.471828
1472456,38,1.472456
1473076,17,1.473076
1473708,11,1.473708
1474328,19,1.474328
1474956,14,1.474956
1475580,14,1.47558
1476208,16,1.476208
1476836,10,1.476836
1477460,12,1.47746
1478088,14,1.478088
1478716,14,1.478716
1479336,18,1.479336
1479964,22,1.479964
1480588,24,1.480588
1481220,26,1.48122
1481848,27,1.481848
1482464,26,1.482464
1483092,20,1.483092
1483716,15,1.483716
1484340,14,1.48434
1484972,12,1.484972
1485588,11,1.485588
1486220,14,1.48622
1486840,18,1.48684
1487464,13,1.487464
1488092,13,1.488092
1488716,20,1.488716
1489344,14,1.489344
1489972,16,1.489972
1490592,21,1.490592
1491220,18,1.49122
1491844,20,1.491844
1492472,15,1.492472
1493100,15,1.4931
1493720,11,1.49372
1494348,11,1.494348
1494972,13,1.494972
1495596,17,1.495596
1496228,19,1.496228
1496848,24,1.496848
1497476,30,1.497476
1498100,37,1.4981
1498724,35,1.498724
1499352,26,1.499352
1499976,22,1.499976
1500608,20,1.500608
1501236,14,1.501236
1501856,11,1.501856
1502484,11,1.502484
1503108,10,1.503108
1503740,11,1.50374
1504372,16,1.504372
1504992,20,1.504992
1505620,21,1.50562
1506244,21,1.506244
1506868,22,1.506868
1507500,16,1.5075
1508120,15,1.50812
1508748,17,1.508748
1509372,15,1.509372
1510000,20,1.51
1510628,20,1.510628
1511252,12,1.511252
1511884,13,1.511884
1512512,10,1.512512
1513136,13,1.513136
1513764,15,1.513764
1514388,23,1.514388
1515016,31,1.515016
1515644,27,1.515644
1516264,26,1.516264
1516892,22,1.516892
1517516,24,1.517516
1518140,23,1.51814
1518772,22,1.518772
1519392,14,1.519392
1520020,11,1.52002
1520652,10,1.520652
1521272,11,1.521272
1521900,12,1.5219
1522524,13,1.522524
1523156,12,1.523156
1523788,14,1.523788
1524408,18,1.524408
1525036,14,1.525036
1525660,15,1.52566
1526284,17,1.526284
1526916,20,1.526916
1527536,22,1.527536
1528164,15,1.528164
1528788,14,1.528788
1529416,20,1.529416
1530044,23,1.530044
1530664,34,1.530664
1531296,43,1.531296
1531924,40,1.531924
1532544,30,1.532544
1533176,19,1.533176
1533800,15,1.5338
1534428,15,1.534428
1535060,11,1.53506
1535680,12,1.53568
1536312,16,1.536312
1536932,21,1.536932
1537556,27,1.537556
1538184,27,1.538184
1538808,22,1.538808
1539436,17,1.539436
1540060,13,1.54006
1540680,16,1.54068
1541312,14,1.541312
1541928,16,1.541928
1542556,15,1.542556
1543188,15,1.543188
1543808,14,1.543808
1544436,13,1.544436
1545060,12,1.54506
1545688,13,1.545688
1546320,18,1.54632
1546936,24,1.546936
1547564,29,1.547564
1548188,26,1.548188
1548812,30,1.548812
1549440,26,1.54944
1550056,29,1.550056
1550684,24,1.550684
1551308,15,1.551308
1551932,24,1.551932
1552564,35,1.552564
1553184,41,1.553184
1553812,44,1.553812
1554444,43,1.554444
1555064,49,1.555064
1555692,47,1.555692
1556320,25,1.55632
1556948,10,1.556948
1557576,16,1.557576
1558200,16,1.5582
1558828,16,1.558828
1559452,16,1.559452
1560076,21,1.560076
1560704,27,1.560704
1561328,47,1.561328
1561956,74,1.561956
1562580,69,1.56258
1563204,44,1.563204
1563832,36,1.563832
1564452,47,1.564452
1565080,58,1.56508
1565708,42,1.565708
1566328,31,1.566328
1566956,21,1.566956
1567580,15,1.56758
1568212,14,1.568212
1568840,11,1.56884
1569456,19,1.569456
1570088,29,1.570088
1570708,32,1.570708
1571336,33,1.571336
1571964,24,1.571964
1572584,19,1.572584
1573212,22,1.573212
1573836,31,1.573836
1574460,35,1.57446
1575092,22,1.575092
1575712,19,1.575712
1576340,17,1.57634
1576972,11,1.576972
1577592,32,1.577592
1578220,48,1.57822
1578844,43,1.578844
1579476,26,1.579476
1580108,19,1.580108
1580728,21,1.580728
1581360,22,1.58136
1581984,17,1.581984
1582608,17,1.582608
1583236,21,1.583236
1583856,31,1.583856
1584488,31,1.584488
1585112,24,1.585112
1585736,13,1.585736
1586364,13,1.586364
1586984,20,1.586984
1587616,19,1.587616
1588244,20,1.588244
1588864,23,1.588864
1589492,18,1.589492
1590116,14,1.590116
1590748,17,1.590748
1591376,16,1.591376
1592000,16,1.592
1592628,17,1.592628
1593252,13,1.593252
1593880,10,1.59388
1594508,11,1.594508
1595128,13,1.595128
1595760,14,1.59576
1596384,21,1.596384
1597008,26,1.597008
1597640,33,1.59764
1598256,36,1.598256
1598888,35,1.598888
1599516,23,1.599516
1600136,19,1.600136
1600764,16,1.600764
1601384,14,1.601384
1602012,10,1.602012
1602644,20,1.602644
1603260,27,1.60326
1603892,33,1.603892
1604512,21,1.604512
1605136,16,1.605136
1605764,30,1.605764
1606384,34,1.606384
1607012,27,1.607012
1607636,33,1.607636
1608260,38,1.60826
1608888,26,1.608888
1609504,16,1.609504
1610136,10,1.610136
1610764,11,1.610764
1611384,11,1.611384
1612012,12,1.612012
1612636,10,1.612636
1613264,10,1.613264
1613896,31,1.613896
1614512,63,1.614512
1615140,77,1.61514
1615764,75,1.615764
1616388,56,1.616388
1617020,50,1.61702
1617640,44,1.61764
1618268,30,1.618268
1618892,14,1.618892
1619512,14,1.619512
1620144,11,1.620144
1620760,11,1.62076
1621388,11,1.621388
1622012,10,1.622012
1622640,23,1.62264
1623268,29,1.623268
1623892,30,1.623892
1624524,35,1.624524
1625152,34,1.625152
1625768,26,1.625768
1626400,16,1.6264
1627020,25,1.62702
1627652,37,1.627652
1628280,37,1.62828
1628896,35,1.628896
1629528,29,1.629528
1630152,23,1.630152
1630776,21,1.630776
1631404,24,1.631404
1632024,31,1.632024
1632652,18,1.632652
1633276,15,1.633276
1633904,17,1.633904
1634532,15,1.634532
1635156,12,1.635156
1635788,10,1.635788
1636420,12,1.63642
1637040,22,1.63704
1637668,19,1.637668
1638296,18,1.638296
1638920,17,1.63892
1639548,19,1.639548
1640164,25,1.640164
1640792,22,1.640792
1641416,18,1.641416
1642036,17,1.642036
1642664,15,1.642664
1643284,11,1.643284
1643912,10,1.643912
1644536,12,1.644536
1645156,15,1.645156
1645784,15,1.645784
1646408,15,1.646408
1647036,21,1.647036
1647664,30,1.647664
1648280,41,1.64828
1648908,37,1.648908
1649528,31,1.649528
1650156,26,1.650156
1650788,20,1.650788
1651408,19,1.651408
1652036,10,1.652036
1652656,15,1.652656
1653276,25,1.653276
1653908,24,1.653908
1654528,21,1.654528
1655156,27,1.655156
1655776,20,1.655776
1656400,11,1.6564
1657028,12,1.657028
1657648,18,1.657648
1658276,15,1.658276
1658904,15,1.658904
1659520,16,1.65952
1660148,11,1.660148
1660772,15,1.660772
1661400,21,1.6614
1662028,20,1.662028
1662648,20,1.662648
1663276,19,1.663276
1663900,21,1.6639
1664524,23,1.664524
1665152,31,1.665152
1665768,37,1.665768
1666396,29,1.666396
1667016,26,1.667016
1667640,22,1.66764
1668268,10,1.668268
1668884,14,1.668884
1669512,16,1.669512
1670136,25,1.670136
1670760,27,1.67076
1671388,33,1.671388
1672008,35,1.672008
1672636,33,1.672636
1673268,32,1.673268
1673888,35,1.673888
1674516,41,1.674516
1675140,39,1.67514
1675768,44,1.675768
1676396,44,1.676396
1677016,29,1.677016
1677644,24,1.677644
1678268,16,1.678268
1678888,41,1.678888
1679520,44,1.67952
1680136,54,1.680136
1680764,73,1.680764
1681384,98,1.681384
1682004,110,1.682004
1682684,78,1.682684
1683304,54,1.683304
1683932,47,1.683932
1684560,33,1.68456
1685176,15,1.685176
1685804,11,1.685804
1686424,15,1.686424
1687048,11,1.687048
1687676,16,1.687676
1688296,31,1.688296
1688924,33,1.688924
1689548,21,1.689548
1690172,16,1.690172
1690800,16,1.6908
1691416,13,1.691416
1692044,15,1.692044
1692668,14,1.692668
1693288,15,1.693288
1693916,17,1.693916
1694540,13,1.69454
1695168,10,1.695168
1695796,10,1.695796
1696416,13,1.696416
1697044,23,1.697044
1697668,28,1.697668
1698296,36,1.698296
1698924,36,1.698924
1699544,27,1.699544
1700172,21,1.700172
1700792,15,1.700792
1701416,16,1.701416
1702044,20,1.702044
1702664,21,1.702664
1703292,22,1.703292
1703916,19,1.703916
1704536,21,1.704536
1705168,21,1.705168
1705784,21,1.705784
1706412,19,1.706412
1707040,18,1.70704
1707664,18,1.707664
1708292,16,1.708292
1708916,15,1.708916
1709544,15,1.709544
1710172,25,1.710172
1710792,29,1.710792
1711420,19,1.71142
1712044,10,1.712044
1712668,11,1.712668
1713296,14,1.713296
1713912,23,1.713912
1714540,27,1.71454
1715164,33,1.715164
1715792,32,1.715792
1716420,28,1.71642
1717040,21,1.71704
1717668,17,1.717668
1718296,11,1.718296
1718920,16,1.71892
1719548,16,1.719548
1720172,27,1.720172
1720804,28,1.720804
1721432,27,1.721432
1722048,28,1.722048
1722676,14,1.722676
1723300,11,1.7233
1723924,14,1.723924
1724552,13,1.724552
1725168,14,1.725168
1725800,15,1.7258
1726424,17,1.726424
1727044,20,1.727044
1727676,22,1.727676
1728296,24,1.728296
1728924,20,1.728924
1729552,15,1.729552
1730172,16,1.730172
1730800,24,1.7308
1731420,27,1.73142
1732052,30,1.732052
1732680,31,1.73268
1733296,28,1.733296
1733928,20,1.733928
1734548,17,1.734548
1735172,11,1.735172
1735804,10,1.735804
1736424,15,1.736424
1737052,23,1.737052
1737676,20,1.737676
1738300,15,1.7383
1738928,15,1.738928
1739548,16,1.739548
1740176,18,1.740176
1740804,20,1.740804
1741420,21,1.74142
1742048,21,1.742048
1742672,18,1.742672
1743300,11,1.7433
1743932,13,1.743932
1744552,13,1.744552
1745180,18,1.74518
1745804,24,1.745804
1746432,20,1.746432
1747064,22,1.747064
1747680,26,1.74768
1748308,17,1.748308
1748932,14,1.748932
1749556,13,1.749556
1750184,28,1.750184
1750808,39,1.750808
1751436,42,1.751436
1752060,48,1.75206
1752688,21,1.752688
1753316,21,1.753316
1753940,32,1.75394
1754568,30,1.754568
1755200,35,1.7552
1755816,34,1.755816
1756448,21,1.756448
1757068,21,1.757068
1757700,17,1.7577
1758328,18,1.758328
1758952,27,1.758952
1759580,26,1.75958
1760208,19,1.760208
1760828,15,1.760828
1761460,12,1.76146
1762080,37,1.76208
1762708,53,1.762708
1763336,56,1.763336
1763952,62,1.763952
1764580,53,1.76458
1765204,41,1.765204
1765832,37,1.765832
1766460,38,1.76646
1767076,35,1.767076
1767708,19,1.767708
1768328,10,1.768328
1768956,15,1.768956
1769588,18,1.769588
1770208,23,1.770208
1770836,31,1.770836
1771460,34,1.77146
1772084,35,1.772084
1772712,26,1.772712
1773336,23,1.773336
1773964,28,1.773964
1774588,20,1.774588
1775216,17,1.775216
1775844,14,1.775844
1776468,14,1.776468
1777100,10,1.7771
1777728,10,1.777728
1778344,18,1.778344
1778976,19,1.778976
1779600,15,1.7796
1780228,17,1.780228
1780860,36,1.78086
1781480,49,1.78148
1782108,43,1.782108
1782732,25,1.782732
1783356,22,1.783356
1783984,21,1.783984
1784608,19,1.784608
1785236,10,1.785236
1785868,12,1.785868
1786488,20,1.786488
1787116,26,1.787116
1787740,21,1.78774
1788372,16,1.788372
1789000,14,1.789
1789624,17,1.789624
1790252,27,1.790252
1790876,33,1.790876
1791504,21,1.791504
1792132,15,1.792132
1792748,16,1.792748
1793380,18,1.79338
1794000,18,1.794
1794624,15,1.794624
1795252,12,1.795252
1795872,13,1.795872
1796500,20,1.7965
1797128,31,1.797128
1797744,37,1.797744
1798376,38,1.798376
1799000,33,1.799
1799628,26,1.799628
1800260,20,1.80026
1800880,21,1.80088
1801508,15,1.801508
1802132,10,1.802132
1802760,17,1.80276
1803388,24,1.803388
1804008,23,1.804008
1804636,23,1.804636
1805260,24,1.80526
1805880,16,1.80588
1806512,11,1.806512
1807128,13,1.807128
1807756,15,1.807756
1808380,14,1.80838
1809008,15,1.809008
1809636,15,1.809636
1810260,11,1.81026
1810888,15,1.810888
1811516,13,1.811516
1812136,13,1.812136
1812764,19,1.812764
1813388,23,1.813388
1814016,26,1.814016
1814648,33,1.814648
1815264,40,1.815264
1815892,28,1.815892
1816516,21,1.816516
1817140,16,1.81714
1817768,15,1.817768
1818392,19,1.818392
1819020,22,1.81902
1819644,26,1.819644
1820272,31,1.820272
1820900,25,1.8209
1821524,11,1.821524
1822152,9,1.822152
1822732,10,1.822732
1823356,12,1.823356
1823984,16,1.823984
1824608,13,1.824608
1825240,16,1.82524
1825868,14,1.825868
1826488,14,1.826488
1827116,19,1.827116
1827740,23,1.82774
1828364,14,1.828364
1828992,10,1.828992
1829616,12,1.829616
1830244,20,1.830244
1830868,43,1.830868
1831492,56,1.831492
1832124,50,1.832124
1832744,38,1.832744
1833372,28,1.833372
1834004,16,1.834004
1834624,18,1.834624
1835252,19,1.835252
1835876,19,1.835876
1836508,14,1.836508
1837136,11,1.837136
1837760,17,1.83776
1838388,11,1.838388
1839012,13,1.839012
1839640,21,1.83964
1840268,26,1.840268
1840888,19,1.840888
1841516,18,1.841516
1842140,16,1.84214
1842764,15,1.842764
1843396,10,1.843396
1844012,10,1.844012
1844644,10,1.844644
1845272,11,1.845272
1845888,11,1.845888
1846516,12,1.846516
1847140,19,1.84714
1847768,33,1.847768
1848396,43,1.848396
1849016,44,1.849016
1849644,37,1.849644
1850264,21,1.850264
1850888,16,1.850888
1851516,12,1.851516
1852136,13,1.852136
1852764,17,1.852764
1853388,11,1.853388
1854012,10,1.854012
1854644,12,1.854644
1855264,13,1.855264
1855892,13,1.855892
1856524,16,1.856524
1857144,21,1.857144
1857772,23,1.857772
1858396,16,1.858396
1859024,15,1.859024
1859652,14,1.859652
1860272,13,1.860272
1860900,10,1.8609
1861524,16,1.861524
1862148,27,1.862148
1862780,16,1.86278
1863400,11,1.8634
1864028,25,1.864028
1864652,56,1.864652
1865276,67,1.865276
1865904,64,1.865904
1866520,45,1.86652
1867152,27,1.867152
1867780,17,1.86778
1868400,11,1.8684
1869028,24,1.869028
1869652,32,1.869652
1870280,26,1.87028
1870912,26,1.870912
1871528,17,1.871528
1872156,16,1.872156
1872780,29,1.87278
1873412,33,1.873412
1874040,22,1.87404
1874664,14,1.874664
1875292,16,1.875292
1875916,15,1.875916
1876540,18,1.87654
1877168,26,1.877168
1877792,22,1.877792
1878420,11,1.87842
1879052,14,1.879052
1879672,26,1.879672
1880304,30,1.880304
1880928,29,1.880928
1881556,29,1.881556
1882188,17,1.882188
1882808,13,1.882808
1883436,14,1.883436
1884064,15,1.884064
1884688,15,1.884688
1885316,18,1.885316
1885936,20,1.885936
1886564,10,1.886564
1887188,15,1.887188
1887812,22,1.887812
1888444,22,1.888444
1889064,29,1.889064
1889692,34,1.889692
1890320,17,1.89032
1890944,17,1.890944
1891572,18,1.891572
1892196,23,1.892196
1892828,17,1.892828
1893456,11,1.893456
1894076,20,1.894076
1894704,26,1.894704
1895328,19,1.895328
1895952,13,1.895952
1896580,10,1.89658
1897200,23,1.8972
1897828,35,1.897828
1898452,27,1.898452
1899076,18,1.899076
1899708,16,1.899708
1900328,22,1.900328
1900956,18,1.900956
1901588,14,1.901588
1902208,13,1.902208
1902836,10,1.902836
1903464,14,1.903464
1904092,17,1.904092
1904724,13,1.904724
1905344,14,1.905344
1905972,13,1.905972
1906596,14,1.906596
1907220,24,1.90722
1907852,22,1.907852
1908472,20,1.908472
1909100,14,1.9091
1909728,15,1.909728
1910352,11,1.910352
1910984,10,1.910984
1911600,13,1.9116
1912232,14,1.912232
1912864,17,1.912864
1913480,26,1.91348
1914112,37,1.914112
1914736,48,1.914736
1915368,48,1.915368
1915996,34,1.915996
1916616,27,1.916616
1917248,18,1.917248
1917872,15,1.917872
1918496,10,1.918496
1919128,10,1.919128
1919744,19,1.919744
1920380,30,1.92038
1921000,28,1.921
1921624,21,1.921624
1922252,18,1.922252
1922872,15,1.922872
1923500,14,1.9235
1924132,20,1.924132
1924752,23,1.924752
1925380,20,1.92538
1926004,16,1.926004
1926632,13,1.926632
1927264,17,1.927264
1927880,19,1.92788
1928508,15,1.928508
1929132,21,1.929132
1929756,21,1.929756
1930384,21,1.930384
1931000,26,1.931
1931632,40,1.931632
1932256,35,1.932256
1932880,32,1.93288
1933508,26,1.933508
1934128,22,1.934128
1934756,13,1.934756
1935388,10,1.935388
1936008,20,1.936008
1936636,30,1.936636
1937260,24,1.93726
1937888,27,1.937888
1938520,38,1.93852
1939136,25,1.939136
1939768,18,1.939768
1940392,29,1.940392
1941016,28,1.941016
1941644,14,1.941644
1942264,17,1.942264
1942892,18,1.942892
1943516,15,1.943516
1944144,11,1.944144
1944772,11,1.944772
1945392,29,1.945392
1946024,45,1.946024
1946652,32,1.946652
1947272,45,1.947272
1947900,60,1.9479
1948524,46,1.948524
1949152,28,1.949152
1949784,19,1.949784
1950400,16,1.9504
1951032,25,1.951032
1951656,17,1.951656
1952280,12,1.95228
1952908,21,1.952908
1953528,21,1.953528
1954156,20,1.954156
1954780,17,1.95478
1955404,17,1.955404
1956036,16,1.956036
1956656,15,1.956656
1957284,17,1.957284
1957916,14,1.957916
1958536,17,1.958536
1959164,16,1.959164
1959788,13,1.959788
1960420,13,1.96042
1961048,18,1.961048
1961672,15,1.961672
1962300,11,1.9623
1962924,10,1.962924
1963548,15,1.963548
1964180,36,1.96418
1964800,47,1.9648
1965428,38,1.965428
1966052,22,1.966052
1966680,15,1.96668
1967308,14,1.967308
1967928,15,1.967928
1968556,17,1.968556
1969188,11,1.969188
1969808,12,1.969808
1970436,11,1.970436
1971060,11,1.97106
1971692,10,1.971692
1972320,11,1.97232
1972936,11,1.972936
1973564,11,1.973564
1974188,17,1.974188
1974812,26,1.974812
1975440,18,1.97544
1976064,16,1.976064
1976692,14,1.976692
1977316,11,1.977316
1977940,17,1.97794
1978568,29,1.978568
1979192,23,1.979192
1979820,22,1.97982
1980452,38,1.980452
1981072,48,1.981072
1981700,44,1.9817
1982324,26,1.982324
1982956,17,1.982956
1983584,15,1.983584
1984208,15,1.984208
1984836,11,1.984836
1985460,13,1.98546
1986080,17,1.98608
1986712,23,1.986712
1987328,23,1.987328
1987956,20,1.987956
1988580,18,1.98858
1989204,18,1.989204
1989832,23,1.989832
1990452,27,1.990452
1991080,19,1.99108
1991708,14,1.991708
1992328,15,1.992328
1992956,15,1.992956
1993580,15,1.99358
1994212,11,1.994212
1994840,12,1.99484
1995464,10,1.995464
1996096,12,1.996096
1996720,12,1.99672
1997344,11,1.997344
1997972,16,1.997972
1998592,32,1.998592
1999220,38,1.99922
1999844,41,1.999844
2000468,49,2.000468
2001096,55,2.001096
2001720,37,2.00172
2002348,12,2.002348
2002976,13,2.002976
2003600,23,2.0036
2004228,23,2.004228
2004852,28,2.004852
2005480,23,2.00548
2006108,19,2.006108
2006728,25,2.006728
2007356,24,2.007356
2007980,19,2.00798
2008604,14,2.008604
2009232,14,2.009232
2009856,15,2.009856
2010484,20,2.010484
2011108,29,2.011108
2011732,29,2.011732
2012360,22,2.01236
2012984,25,2.012984
2013612,33,2.013612
2014240,41,2.01424
2014864,30,2.014864
2015492,20,2.015492
2016116,17,2.016116
2016748,15,2.016748
2017376,19,2.017376
2017996,17,2.017996
2018624,11,2.018624
2019248,11,2.019248
2019872,13,2.019872
2020500,19,2.0205
2021120,23,2.02112
2021748,27,2.021748
2022372,34,2.022372
2023000,27,2.023
2023628,19,2.023628
2024248,20,2.024248
2024876,16,2.024876
2025508,14,2.025508
2026128,18,2.026128
2026756,30,2.026756
2027380,30,2.02738
2028012,17,2.028012
2028640,10,2.02864
2029264,11,2.029264
2029892,14,2.029892
2030516,33,2.030516
2031140,51,2.03114
2031772,59,2.031772
2032392,49,2.032392
2033020,29,2.03302
2033644,17,2.033644
2034268,15,2.034268
2034900,11,2.0349
2035524,11,2.035524
2036152,15,2.036152
2036784,17,2.036784
2037404,23,2.037404
2038032,27,2.038032
2038656,23,2.038656
2039288,23,2.039288
2039916,20,2.039916
2040536,17,2.040536
2041164,14,2.041164
2041792,17,2.041792
2042416,15,2.042416
2043044,12,2.043044
2043664,11,2.043664
2044292,13,2.044292
2044920,21,2.04492
2045544,16,2.045544
2046172,18,2.046172
2046800,27,2.0468
2047428,30,2.047428
2048060,29,2.04806
2048676,26,2.048676
2049304,21,2.049304
2049924,18,2.049924
2050552,21,2.050552
2051180,19,2.05118
2051800,11,2.0518
2052428,14,2.052428
2053048,25,2.053048
2053668,35,2.053668
2054300,35,2.0543
2054920,30,2.05492
2055548,31,2.055548
2056168,14,2.056168
2056792,13,2.056792
2057420,16,2.05742
2058040,24,2.05804
2058668,21,2.058668
2059296,16,2.059296
2059912,13,2.059912
2060540,15,2.06054
2061164,22,2.061164
2061792,34,2.061792
2062420,34,2.06242
2063036,43,2.063036
2063668,49,2.063668
2064288,47,2.064288
2064912,46,2.064912
2065540,38,2.06554
2066160,25,2.06616
2066788,14,2.066788
2067412,15,2.067412
2068032,13,2.068032
2068664,16,2.068664
2069280,25,2.06928
2069908,20,2.069908
2070536,12,2.070536
2071152,10,2.071152
2071780,12,2.07178
2072404,10,2.072404
2073032,18,2.073032
2073660,25,2.07366
2074276,29,2.074276
2074908,26,2.074908
2075528,19,2.075528
2076156,15,2.076156
2076788,10,2.076788
2077408,11,2.077408
2078036,13,2.078036
2078660,17,2.07866
2079284,23,2.079284
2079912,34,2.079912
2080536,40,2.080536
2081164,45,2.081164
2081788,42,2.081788
2082408,33,2.082408
2083036,24,2.083036
2083660,20,2.08366
2084288,17,2.084288
2084916,10,2.084916
2085536,15,2.085536
2086164,25,2.086164
2086788,31,2.086788
2087416,47,2.087416
2088044,50,2.088044
2088664,50,2.088664
2089292,45,2.089292
2089912,37,2.089912
2090536,23,2.090536
2091164,14,2.091164
2091784,19,2.091784
2092412,24,2.092412
2093036,38,2.093036
2093656,47,2.093656
2094288,40,2.094288
2094904,33,2.094904
2095532,19,2.095532
2096160,10,2.09616
2096780,11,2.09678
2097412,17,2.097412
2098036,41,2.098036
2098664,63,2.098664
2099292,58,2.099292
2099908,44,2.099908
2100540,31,2.10054
2101160,23,2.10116
2101784,14,2.101784
2102412,10,2.102412
2103028,30,2.103028
2103660,45,2.10366
2104284,54,2.104284
2104908,62,2.104908
2105536,42,2.105536
2106156,24,2.106156
2106784,14,2.106784
2107412,14,2.107412
2108032,20,2.108032
2108660,18,2.10866
2109284,19,2.109284
2109916,14,2.109916
2110544,12,2.110544
2111160,16,2.11116
2111792,23,2.111792
2112416,29,2.112416
2113036,30,2.113036
2113668,32,2.113668
2114288,38,2.114288
2114916,33,2.114916
2115540,22,2.11554
2116164,18,2.116164
2116792,17,2.116792
2117408,17,2.117408
2118040,11,2.11804
2118668,10,2.118668
2119288,13,2.119288
2119916,11,2.119916
2120540,14,2.12054
2121168,12,2.121168
2121800,14,2.1218
2122416,15,2.122416
2123044,17,2.123044
2123668,24,2.123668
2124296,25,2.124296
2124924,22,2.124924
2125544,20,2.125544
2126172,17,2.126172
2126796,11,2.126796
2127420,14,2.12742
2128048,17,2.128048
2128664,19,2.128664
2129296,21,2.129296
2129916,22,2.129916
2130544,29,2.130544
2131172,35,2.131172
2131796,45,2.131796
2132428,42,2.132428
2133056,31,2.133056
2133672,23,2.133672
2134300,20,2.1343
2134924,12,2.134924
2135556,16,2.135556
2136184,19,2.136184
2136800,18,2.1368
2137432,24,2.137432
2138056,30,2.138056
2138680,26,2.13868
2139308,24,2.139308
2139928,25,2.139928
2140556,23,2.140556
2141180,18,2.14118
2141808,20,2.141808
2142436,19,2.142436
2143060,12,2.14306
2143692,16,2.143692
2144320,11,2.14432
2144936,13,2.144936
2145568,16,2.145568
2146192,32,2.146192
2146820,51,2.14682
2147452,58,2.147452
2148072,54,2.148072
2148700,41,2.1487
2149324,28,2.149324
2149948,17,2.149948
2150580,16,2.15058
2151200,16,2.1512
2151828,10,2.151828
2152456,10,2.152456
2153072,11,2.153072
2153704,12,2.153704
2154324,13,2.154324
2154956,26,2.154956
2155584,32,2.155584
2156208,31,2.156208
2156836,35,2.156836
2157460,21,2.15746
2158084,16,2.158084
2158716,15,2.158716
2159336,16,2.159336
2159968,18,2.159968
2160592,27,2.160592
2161216,32,2.161216
2161844,27,2.161844
2162464,27,2.162464
2163092,27,2.163092
2163724,34,2.163724
2164344,31,2.164344
2164972,34,2.164972
2165596,31,2.165596
2166224,23,2.166224
2166856,17,2.166856
2167472,15,2.167472
2168104,13,2.168104
2168728,14,2.168728
2169352,14,2.169352
2169980,10,2.16998
2170600,11,2.1706
2171228,21,2.171228
2171852,34,2.171852
2172476,40,2.172476
2173104,42,2.173104
2173728,40,2.173728
2174356,21,2.174356
2174988,14,2.174988
2175608,14,2.175608
2176240,16,2.17624
2176860,13,2.17686
2177488,11,2.177488
2178116,10,2.178116
2178736,15,2.178736
2179364,24,2.179364
2179988,23,2.179988
2180612,50,2.180612
2181244,68,2.181244
2181864,66,2.181864
2182492,51,2.182492
2183116,38,2.183116
2183740,20,2.18374
2184368,16,2.184368
2184984,17,2.184984
2185612,15,2.185612
2186236,16,2.186236
2186864,20,2.186864
2187492,18,2.187492
2188116,24,2.188116
2188748,25,2.188748
2189376,23,2.189376
2190000,15,2.19
2190628,15,2.190628
2191252,19,2.191252
2191880,23,2.19188
2192508,14,2.192508
2193128,20,2.193128
2193756,21,2.193756
2194380,13,2.19438
2195004,13,2.195004
2195636,14,2.195636
2196256,15,2.196256
2196884,25,2.196884
2197516,48,2.197516
2198136,63,2.198136
2198768,55,2.198768
2199392,35,2.199392
2200020,28,2.20002
2200652,22,2.200652
2201272,20,2.201272
2201904,11,2.201904
2202524,19,2.202524
2203148,31,2.203148
2203780,32,2.20378
2204400,31,2.2044
2205028,25,2.205028
2205652,15,2.205652
2206276,16,2.206276
2206908,18,2.206908
2207528,19,2.207528
2208156,17,2.208156
2208788,18,2.208788
2209408,21,2.209408
2210036,22,2.210036
2210660,19,2.21066
2211292,11,2.211292
2211920,10,2.21192
2212544,27,2.212544
2213172,34,2.213172
2213796,39,2.213796
2214420,46,2.21442
2215048,53,2.215048
2215664,41,2.215664
2216296,37,2.216296
2216920,23,2.21692
2217544,19,2.217544
2218172,15,2.218172
2218792,15,2.218792
2219424,11,2.219424
2220052,19,2.220052
2220672,18,2.220672
2221304,18,2.221304
2221928,25,2.221928
2222556,28,2.222556
2223188,20,2.223188
2223808,18,2.223808
2224436,14,2.224436
2225064,14,2.225064
2225684,14,2.225684
2226316,12,2.226316
2226936,12,2.226936
2227568,11,2.227568
2228188,10,2.228188
2228812,10,2.228812
2229444,10,2.229444
2230064,22,2.230064
2230692,40,2.230692
2231324,54,2.231324
2231944,46,2.231944
2232576,27,2.232576
2233200,18,2.2332
2233828,15,2.233828
2234460,14,2.23446
2235080,13,2.23508
2235708,17,2.235708
2236336,25,2.236336
2236960,17,2.23696
2237588,16,2.237588
2238208,12,2.238208
2238840,11,2.23884
2239464,10,2.239464
2240088,16,2.240088
2240716,21,2.240716
2241336,25,2.241336
2241964,19,2.241964
2242592,15,2.242592
2243216,19,2.243216
2243844,20,2.243844
2244468,18,2.244468
2245096,17,2.245096
2245724,24,2.245724
2246344,31,2.246344
2246976,30,2.246976
2247600,29,2.2476
2248220,42,2.24822
2248852,41,2.248852
2249472,27,2.249472
2250100,17,2.2501
2250728,18,2.250728
2251352,12,2.251352
2251980,16,2.25198
2252600,36,2.2526
2253232,44,2.253232
2253860,28,2.25386
2254480,27,2.25448
2255108,26,2.255108
2255732,11,2.255732
2256360,15,2.25636
2256988,14,2.256988
2257608,16,2.257608
2258236,20,2.258236
2258860,15,2.25886
2259484,16,2.259484
2260112,23,2.260112
2260728,18,2.260728
2261360,11,2.26136
2261984,11,2.261984
2262608,11,2.262608
2263236,13,2.263236
2263856,20,2.263856
2264484,34,2.264484
2265116,48,2.265116
2265736,40,2.265736
2266364,26,2.266364
2266988,32,2.266988
2267620,35,2.26762
2268248,16,2.268248
2268864,10,2.268864
2269492,14,2.269492
2270116,20,2.270116
2270740,29,2.27074
2271372,20,2.271372
2271992,16,2.271992
2272624,17,2.272624
2273248,22,2.273248
2273872,26,2.273872
2274500,20,2.2745
2275120,15,2.27512
2275748,16,2.275748
2276380,18,2.27638
2277000,17,2.277
2277628,17,2.277628
2278252,20,2.278252
2278884,15,2.278884
2279512,15,2.279512
2280136,26,2.280136
2280764,30,2.280764
2281388,41,2.281388
2282012,31,2.282012
2282644,24,2.282644
2283264,15,2.283264
2283892,14,2.283892
2284516,13,2.284516
2285140,11,2.28514
2285772,16,2.285772
2286392,25,2.286392
2287024,21,2.287024
2287652,12,2.287652
2288272,11,2.288272
2288900,10,2.2889
2289524,13,2.289524
2290156,18,2.290156
2290788,20,2.290788
2291408,15,2.291408
2292036,15,2.292036
2292660,15,2.29266
2293288,11,2.293288
2293916,11,2.293916
2294536,18,2.294536
2295164,18,2.295164
2295788,10,2.295788
2296412,11,2.296412
2297040,22,2.29704
2297664,47,2.297664
2298292,50,2.298292
2298924,32,2.298924
2299544,23,2.299544
2300172,15,2.300172
2300796,14,2.300796
2301428,16,2.301428
2302060,18,2.30206
2302680,11,2.30268
2303312,25,2.303312
2303936,33,2.303936
2304560,23,2.30456
2305188,15,2.305188
2305808,14,2.305808
2306436,11,2.306436
2307060,15,2.30706
2307684,16,2.307684
2308312,19,2.308312
2308936,18,2.308936
2309564,13,2.309564
2310196,12,2.310196
2310816,16,2.310816
2311444,15,2.311444
2312068,17,2.312068
2312696,14,2.312696
2313328,25,2.313328
2313944,45,2.313944
2314576,36,2.314576
2315200,25,2.3152
2315820,20,2.31582
2316452,22,2.316452
2317072,17,2.317072
2317700,16,2.3177
2318324,16,2.318324
2318948,30,2.318948
2319580,26,2.31958
2320204,12,2.320204
2320832,14,2.320832
2321460,10,2.32146
2322080,15,2.32208
2322708,15,2.322708
2323332,15,2.323332
2323960,26,2.32396
2324592,28,2.324592
2325208,21,2.325208
2325836,15,2.325836
2326460,20,2.32646
2327084,26,2.327084
2327712,22,2.327712
2328336,17,2.328336
2328964,17,2.328964
2329588,23,2.329588
2330212,33,2.330212
2330844,38,2.330844
2331468,54,2.331468
2332100,50,2.3321
2332728,31,2.332728
2333348,15,2.333348
2333976,17,2.333976
2334604,25,2.334604
2335232,30,2.335232
2335864,22,2.335864
2336480,13,2.33648
2337112,13,2.337112
2337736,13,2.337736
2338356,11,2.338356
2338988,16,2.338988
2339608,30,2.339608
2340236,25,2.340236
2340860,22,2.34086
2341488,15,2.341488
2342116,17,2.342116
2342740,21,2.34274
2343372,21,2.343372
2344000,19,2.344
2344616,13,2.344616
2345248,17,2.345248
2345872,18,2.345872
2346500,15,2.3465
2347132,21,2.347132
2347752,34,2.347752
2348384,32,2.348384
2349008,33,2.349008
2349632,31,2.349632
2350260,27,2.35026
2350880,21,2.35088
2351508,13,2.351508
2352140,9,2.35214
2352708,15,2.352708
2353340,24,2.35334
2353960,25,2.35396
2354588,24,2.354588
2355220,17,2.35522
2355840,14,2.35584
2356468,24,2.356468
2357092,36,2.357092
2357724,31,2.357724
2358352,26,2.358352
2358972,24,2.358972
2359600,17,2.3596
2360224,21,2.360224
2360852,10,2.360852
2361480,27,2.36148
2362096,43,2.362096
2362728,37,2.362728
2363352,35,2.363352
2363976,45,2.363976
2364608,45,2.364608
2365224,34,2.365224
2365856,29,2.365856
2366484,27,2.366484
2367104,25,2.367104
2367736,19,2.367736
2368360,14,2.36836
2368988,10,2.368988
2369620,10,2.36962
2370240,10,2.37024
2370868,11,2.370868
2371492,13,2.371492
2372116,13,2.372116
2372748,18,2.372748
2373368,29,2.373368
2373996,31,2.373996
2374624,16,2.374624
2375248,15,2.375248
2375876,15,2.375876
2376496,11,2.376496
2377124,13,2.377124
2377756,10,2.377756
2378376,16,2.378376
2379004,21,2.379004
2379632,28,2.379632
2380260,33,2.38026
2380892,42,2.380892
2381512,44,2.381512
2382140,31,2.38214
2382764,20,2.382764
2383388,17,2.383388
2384020,14,2.38402
2384640,13,2.38464
2385268,19,2.385268
2385892,26,2.385892
2386516,28,2.386516
2387148,18,2.387148
2387768,18,2.387768
2388396,17,2.388396
2389028,12,2.389028
2389648,15,2.389648
2390280,18,2.39028
2390904,24,2.390904
2391532,24,2.391532
2392164,25,2.392164
2392784,24,2.392784
2393416,22,2.393416
2394040,13,2.39404
2394664,20,2.394664
2395296,31,2.395296
2395912,35,2.395912
2396544,37,2.396544
2397168,48,2.397168
2397792,52,2.397792
2398424,37,2.398424
2399048,27,2.399048
2399680,25,2.39968
2400308,19,2.400308
2400928,22,2.400928
2401556,13,2.401556
2402180,19,2.40218
2402812,20,2.402812
2403440,19,2.40344
2404060,20,2.40406
2404688,23,2.404688
2405312,25,2.405312
2405936,21,2.405936
2406564,11,2.406564
2407184,16,2.407184
2407812,15,2.407812
2408436,16,2.408436
2409060,23,2.40906
2409688,11,2.409688
2410312,13,2.410312
2410940,13,2.41094
2411572,10,2.411572
2412192,11,2.412192
2412820,32,2.41282
2413444,59,2.413444
2414076,58,2.414076
2414704,44,2.414704
2415328,35,2.415328
2415960,29,2.41596
2416584,18,2.416584
2417208,15,2.417208
2417836,17,2.417836
2418456,19,2.418456
2419084,12,2.419084
2419712,26,2.419712
2420336,28,2.420336
2420964,26,2.420964
2421588,24,2.421588
2422220,19,2.42222
2422852,24,2.422852
2423472,30,2.423472
2424104,32,2.424104
2424728,18,2.424728
2425352,15,2.425352
2425980,28,2.42598
2426600,39,2.4266
2427232,17,2.427232
2427852,26,2.427852
2428480,40,2.42848
2429108,28,2.429108
2429728,25,2.429728
2430356,44,2.430356
2430988,51,2.430988
2431608,49,2.431608
2432240,45,2.43224
2432860,43,2.43286
2433492,35,2.433492
2434120,26,2.43412
2434744,15,2.434744
2435372,10,2.435372
2435996,12,2.435996
2436620,14,2.43662
2437252,19,2.437252
2437872,28,2.437872
2438500,29,2.4385
2439124,25,2.439124
2439748,23,2.439748
2440380,20,2.44038
2441000,17,2.441
2441628,23,2.441628
2442260,26,2.44226
2442880,13,2.44288
2443508,27,2.443508
2444132,23,2.444132
2444764,21,2.444764
2445396,25,2.445396
2446016,28,2.446016
2446644,23,2.446644
2447272,26,2.447272
2447896,31,2.447896
2448524,24,2.448524
2449144,21,2.449144
2449772,18,2.449772
2450396,17,2.450396
2451024,14,2.451024
2451656,10,2.451656
2452272,16,2.452272
2452904,13,2.452904
2453532,11,2.453532
2454152,22,2.454152
2454784,33,2.454784
2455408,36,2.455408
2456040,34,2.45604
2456668,31,2.456668
2457288,25,2.457288
2457920,22,2.45792
2458540,15,2.45854
2459164,19,2.459164
2459792,31,2.459792
2460416,29,2.460416
2461044,22,2.461044
2461668,16,2.461668
2462288,20,2.462288
2462920,26,2.46292
2463536,31,2.463536
2464168,35,2.464168
2464796,28,2.464796
2465416,26,2.465416
2466044,29,2.466044
2466668,31,2.466668
2467296,22,2.467296
2467924,11,2.467924
2468544,11,2.468544
2469172,20,2.469172
2469796,23,2.469796
2470420,27,2.47042
2471048,31,2.471048
2471664,25,2.471664
2472296,13,2.472296
2472920,12,2.47292
2473544,14,2.473544
2474172,12,2.474172
2474792,15,2.474792
2475424,17,2.475424
2476052,14,2.476052
2476672,11,2.476672
2477300,13,2.4773
2477928,16,2.477928
2478556,16,2.478556
2479188,16,2.479188
2479808,22,2.479808
2480436,37,2.480436
2481060,45,2.48106
2481684,47,2.481684
2482312,31,2.482312
2482936,17,2.482936
2483564,14,2.483564
2484188,15,2.484188
2484812,15,2.484812
2485440,17,2.48544
2486056,13,2.486056
2486684,10,2.486684
2487316,14,2.487316
2487936,17,2.487936
2488568,16,2.488568
2489188,28,2.489188
2489820,33,2.48982
2490448,35,2.490448
2491068,32,2.491068
2491696,31,2.491696
2492320,16,2.49232
2492944,11,2.492944
2493572,15,2.493572
2494192,29,2.494192
2494820,37,2.49482
2495448,32,2.495448
2496072,27,2.496072
2496700,32,2.4967
2497320,48,2.49732
2497948,50,2.497948
2498580,27,2.49858
2499200,13,2.4992
2499828,15,2.499828
2500452,25,2.500452
2501080,39,2.50108
2501712,32,2.501712
2502328,11,2.502328
2502960,16,2.50296
2503584,25,2.503584
2504208,26,2.504208
2504836,23,2.504836
2505456,28,2.505456
2506084,29,2.506084
2506708,23,2.506708
2507336,16,2.507336
2507964,14,2.507964
2508584,17,2.508584
2509216,15,2.509216
2509844,14,2.509844
2510464,15,2.510464
2511092,10,2.511092
2511716,17,2.511716
2512348,30,2.512348
2512976,26,2.512976
2513600,28,2.5136
2514228,28,2.514228
2514852,30,2.514852
2515480,29,2.51548
2516108,18,2.516108
2516728,17,2.516728
2517356,22,2.517356
2517984,13,2.517984
2518608,12,2.518608
2519236,16,2.519236
2519856,19,2.519856
2520488,21,2.520488
2521116,32,2.521116
2521736,30,2.521736
2522364,22,2.522364
2522988,12,2.522988
2523620,14,2.52362
2524248,14,2.524248
2524872,17,2.524872
2525500,15,2.5255
2526128,13,2.526128
2526752,11,2.526752
2527380,10,2.52738
2528000,17,2.528
2528628,24,2.528628
2529252,19,2.529252
2529880,26,2.52988
2530508,22,2.530508
2531128,25,2.531128
2531760,33,2.53176
2532388,35,2.532388
2533008,30,2.533008
2533640,15,2.53364
2534264,19,2.534264
2534896,27,2.534896
2535524,34,2.535524
2536144,22,2.536144
2536776,10,2.536776
2537400,17,2.5374
2538024,21,2.538024
2538656,24,2.538656
2539272,25,2.539272
2539904,19,2.539904
2540528,21,2.540528
2541152,20,2.541152
2541780,18,2.54178
2542408,18,2.542408
2543036,13,2.543036
2543668,12,2.543668
2544288,21,2.544288
2544916,20,2.544916
2545544,23,2.545544
2546172,22,2.546172
2546804,28,2.546804
2547424,32,2.547424
2548056,32,2.548056
2548680,31,2.54868
2549304,25,2.549304
2549932,15,2.549932
2550552,16,2.550552
2551184,21,2.551184
2551812,30,2.551812
2552432,31,2.552432
2553064,25,2.553064
2553688,14,2.553688
2554316,10,2.554316
2554948,10,2.554948
2555568,13,2.555568
2556200,10,2.5562
2556824,15,2.556824
2557448,16,2.557448
2558080,14,2.55808
2558696,15,2.558696
2559328,15,2.559328
2559952,12,2.559952
2560580,15,2.56058
2561208,20,2.561208
2561824,25,2.561824
2562452,19,2.562452
2563080,12,2.56308
2563696,26,2.563696
2564324,45,2.564324
2564948,45,2.564948
2565576,32,2.565576
2566204,22,2.566204
2566824,16,2.566824
2567452,16,2.567452
2568072,10,2.568072
2568704,15,2.568704
2569332,32,2.569332
2569952,37,2.569952
2570580,24,2.57058
2571204,21,2.571204
2571824,19,2.571824
2572452,20,2.572452
2573072,24,2.573072
2573700,21,2.5737
2574324,18,2.574324
2574948,15,2.574948
2575576,18,2.575576
2576200,17,2.5762
2576828,24,2.576828
2577456,19,2.577456
2578076,11,2.578076
2578704,11,2.578704
2579328,15,2.579328
2579956,26,2.579956
2580588,41,2.580588
2581208,46,2.581208
2581836,43,2.581836
2582460,30,2.58246
2583080,29,2.58308
2583712,22,2.583712
2584328,19,2.584328
2584956,10,2.584956
2585580,20,2.58558
2586204,33,2.586204
2586832,34,2.586832
2587456,21,2.587456
2588084,12,2.588084
2588712,12,2.588712
2589336,17,2.589336
2589964,17,2.589964
2590588,21,2.590588
2591220,22,2.59122
2591848,21,2.591848
2592468,14,2.592468
2593096,14,2.593096
2593720,11,2.59372
2594340,14,2.59434
2594972,12,2.594972
2595592,10,2.595592
2596220,10,2.59622
2596844,22,2.596844
2597468,52,2.597468
2598100,66,2.5981
2598724,52,2.598724
2599352,43,2.599352
2599980,41,2.59998
2600600,35,2.6006
2601228,20,2.601228
2601852,11,2.601852
2602480,24,2.60248
2603112,29,2.603112
2603728,24,2.603728
2604360,21,2.60436
2604984,13,2.604984
2605604,11,2.605604
2606236,10,2.606236
2606856,15,2.606856
2607484,21,2.607484
2608108,25,2.608108
2608732,32,2.608732
2609364,18,2.609364
2609984,13,2.609984
2610616,21,2.610616
2611244,16,2.611244
2611864,15,2.611864
2612492,27,2.612492
2613116,24,2.613116
2613744,31,2.613744
2614376,24,2.614376
2614996,21,2.614996
2615624,36,2.615624
2616248,47,2.616248
2616872,33,2.616872
2617504,23,2.617504
2618120,10,2.61812
2618752,16,2.618752
2619376,23,2.619376
2620000,27,2.62
2620628,39,2.620628
2621256,30,2.621256
2621884,27,2.621884
2622512,10,2.622512
2623136,15,2.623136
2623764,14,2.623764
2624388,17,2.624388
2625016,21,2.625016
2625644,15,2.625644
2626260,11,2.62626
2626892,10,2.626892
2627512,15,2.627512
2628136,15,2.628136
2628764,14,2.628764
2629384,20,2.629384
2630012,29,2.630012
2630636,21,2.630636
2631256,18,2.631256
2631888,20,2.631888
2632504,21,2.632504
2633132,17,2.633132
2633760,18,2.63376
2634376,13,2.634376
2635008,19,2.635008
2635632,16,2.635632
2636260,18,2.63626
2636888,34,2.636888
2637504,40,2.637504
2638132,49,2.638132
2638756,54,2.638756
2639380,29,2.63938
2640008,18,2.640008
2640624,15,2.640624
2641252,23,2.641252
2641876,27,2.641876
2642500,30,2.6425
2643128,28,2.643128
2643744,29,2.643744
2644372,36,2.644372
2645000,32,2.645
2645624,28,2.645624
2646252,27,2.646252
2646876,29,2.646876
2647504,34,2.647504
2648132,30,2.648132
2648752,21,2.648752
2649380,21,2.64938
2650004,18,2.650004
2650628,18,2.650628
2651260,10,2.65126
2651880,12,2.65188
2652508,20,2.652508
2653132,21,2.653132
2653756,14,2.653756
2654384,14,2.654384
2655004,18,2.655004
2655632,13,2.655632
2656260,15,2.65626
2656880,25,2.65688
2657508,27,2.657508
2658132,19,2.658132
2658760,15,2.65876
2659388,19,2.659388
2660008,25,2.660008
2660636,30,2.660636
2661260,30,2.66126
2661888,21,2.661888
2662520,20,2.66252
2663136,28,2.663136
2663764,43,2.663764
2664388,40,2.664388
2665008,31,2.665008
2665636,20,2.665636
2666252,16,2.666252
2666884,15,2.666884
2667504,15,2.667504
2668128,11,2.668128
2668756,10,2.668756
2669380,15,2.66938
2670008,38,2.670008
2670636,46,2.670636
2671256,33,2.671256
2671884,21,2.671884
2672508,21,2.672508
2673136,16,2.673136
2673768,14,2.673768
2674384,15,2.674384
2675012,16,2.675012
2675636,16,2.675636
2676260,18,2.67626
2676888,19,2.676888
2677504,15,2.677504
2678136,10,2.678136
2678760,11,2.67876
2679380,11,2.67938
2680012,18,2.680012
2680632,23,2.680632
2681260,32,2.68126
2681892,45,2.681892
2682512,48,2.682512
2683140,23,2.68314
2683764,15,2.683764
2684392,13,2.684392
2685024,14,2.685024
2685640,26,2.68564
2686268,30,2.686268
2686892,26,2.686892
2687516,27,2.687516
2688148,18,2.688148
2688764,11,2.688764
2689392,10,2.689392
2690016,15,2.690016
2690640,15,2.69064
2691268,15,2.691268
2691888,15,2.691888
2692516,14,2.692516
2693144,11,2.693144
2693760,10,2.69376
2694388,12,2.694388
2695012,11,2.695012
2695640,21,2.69564
2696272,39,2.696272
2696888,53,2.696888
2697516,54,2.697516
2698140,47,2.69814
2698764,36,2.698764
2699392,29,2.699392
2700016,23,2.700016
2700644,19,2.700644
2701268,17,2.701268
2701892,12,2.701892
2702524,14,2.702524
2703144,24,2.703144
2703772,28,2.703772
2704404,27,2.704404
2705024,31,2.705024
2705652,24,2.705652
2706276,19,2.706276
2706904,22,2.706904
2707532,17,2.707532
2708152,15,2.708152
2708780,14,2.70878
2709404,12,2.709404
2710028,16,2.710028
2710660,28,2.71066
2711280,25,2.71128
2711908,20,2.711908
2712532,16,2.712532
2713156,19,2.713156
2713788,30,2.713788
2714408,37,2.714408
2715036,22,2.715036
2715664,17,2.715664
2716284,17,2.716284
2716912,15,2.716912
2717536,15,2.717536
2718164,9,2.718164
2718744,11,2.718744
2719368,19,2.719368
2719996,15,2.719996
2720620,10,2.72062
2721252,10,2.721252
2721880,10,2.72188
2722496,11,2.722496
2723124,10,2.723124
2723748,16,2.723748
2724372,20,2.724372
2725000,21,2.725
2725624,17,2.725624
2726252,11,2.726252
2726876,12,2.726876
2727500,16,2.7275
2728128,12,2.728128
2728744,12,2.728744
2729376,14,2.729376
2730004,11,2.730004
2730624,17,2.730624
2731252,33,2.731252
2731876,45,2.731876
2732508,46,2.732508
2733136,43,2.733136
2733752,23,2.733752
2734384,13,2.734384
2735008,16,2.735008
2735632,17,2.735632
2736260,19,2.73626
2736880,26,2.73688
2737508,27,2.737508
2738132,26,2.738132
2738756,23,2.738756
2739388,24,2.739388
2740008,22,2.740008
2740636,24,2.740636
2741264,21,2.741264
2741884,14,2.741884
2742512,20,2.742512
2743136,25,2.743136
2743764,22,2.743764
2744396,16,2.744396
2745016,21,2.745016
2745644,28,2.745644
2746268,28,2.746268
2746892,41,2.746892
2747520,43,2.74752
2748136,41,2.748136
2748764,24,2.748764
2749388,20,2.749388
2750016,18,2.750016
2750644,14,2.750644
2751264,11,2.751264
2751892,22,2.751892
2752524,23,2.752524
2753144,27,2.753144
2753772,21,2.753772
2754396,15,2.754396
2755028,18,2.755028
2755656,13,2.755656
2756276,11,2.756276
2756904,18,2.756904
2757528,19,2.757528
2758152,19,2.758152
2758780,21,2.75878
2759400,14,2.7594
2760028,14,2.760028
2760652,13,2.760652
2761276,14,2.761276
2761908,18,2.761908
2762528,26,2.762528
2763156,39,2.763156
2763788,44,2.763788
2764408,44,2.764408
2765036,44,2.765036
2765660,35,2.76566
2766288,23,2.766288
2766920,14,2.76692
2767536,17,2.767536
2768164,12,2.768164
2768788,11,2.768788
2769412,11,2.769412
2770044,12,2.770044
2770664,16,2.770664
2771292,26,2.771292
2771916,28,2.771916
2772540,37,2.77254
2773168,34,2.773168
2773792,26,2.773792
2774420,17,2.77442
2775052,14,2.775052
2775672,17,2.775672
2776300,16,2.7763
2776924,25,2.776924
2777556,21,2.777556
2778188,10,2.778188
2778808,12,2.778808
2779436,18,2.779436
2780064,37,2.780064
2780688,43,2.780688
2781316,34,2.781316
2781936,22,2.781936
2782564,16,2.782564
2783192,25,2.783192
2783816,27,2.783816
2784448,29,2.784448
2785064,19,2.785064
2785692,10,2.785692
2786324,15,2.786324
2786944,23,2.786944
2787572,27,2.787572
2788196,26,2.788196
2788828,14,2.788828
2789456,14,2.789456
2790072,16,2.790072
2790704,20,2.790704
2791328,22,2.791328
2791952,19,2.791952
2792580,17,2.79258
2793200,29,2.7932
2793828,32,2.793828
2794452,19,2.794452
2795076,10,2.795076
2795708,10,2.795708
2796328,22,2.796328
2796956,27,2.796956
2797588,19,2.797588
2798208,15,2.798208
2798836,19,2.798836
2799460,25,2.79946
2800092,23,2.800092
2800720,16,2.80072
2801344,11,2.801344
2801972,14,2.801972
2802596,22,2.802596
2803220,28,2.80322
2803848,31,2.803848
2804464,24,2.804464
2805096,17,2.805096
2805720,12,2.80572
2806344,12,2.806344
2806972,15,2.806972
2807592,15,2.807592
2808220,14,2.80822
2808852,14,2.808852
2809472,13,2.809472
2810100,15,2.8101
2810724,19,2.810724
2811356,17,2.811356
2811988,14,2.811988
2812608,13,2.812608
2813236,23,2.813236
2813864,37,2.813864
2814488,38,2.814488
2815116,33,2.815116
2815736,30,2.815736
2816368,25,2.816368
2816988,20,2.816988
2817612,14,2.817612
2818240,18,2.81824
2818856,30,2.818856
2819488,28,2.819488
2820116,16,2.820116
2820736,25,2.820736
2821364,32,2.821364
2821988,24,2.821988
2822620,12,2.82262
2823248,13,2.823248
2823864,15,2.823864
2824492,18,2.824492
2825116,15,2.825116
2825740,14,2.82574
2826372,16,2.826372
2826992,23,2.826992
2827620,31,2.82762
2828244,25,2.828244
2828868,16,2.828868
2829496,17,2.829496
2830112,28,2.830112
2830740,33,2.83074
2831372,36,2.831372
2831992,24,2.831992
2832620,13,2.83262
2833244,20,2.833244
2833876,16,2.833876
2834508,12,2.834508
2835128,12,2.835128
2835760,12,2.83576
2836380,16,2.83638
2837004,12,2.837004
2837636,10,2.837636
2838256,12,2.838256
2838884,11,2.838884
2839508,17,2.839508
2840132,16,2.840132
2840764,14,2.840764
2841384,15,2.841384
2842012,14,2.842012
2842644,14,2.842644
2843264,14,2.843264
2843892,22,2.843892
2844516,24,2.844516
2845148,15,2.845148
2845776,11,2.845776
2846396,22,2.846396
2847024,36,2.847024
2847648,42,2.847648
2848272,31,2.848272
2848904,18,2.848904
2849520,17,2.84952
2850148,15,2.850148
2850772,16,2.850772
2851396,10,2.851396
2852028,10,2.852028
2852648,13,2.852648
2853276,28,2.853276
2853908,44,2.853908
2854528,55,2.854528
2855156,51,2.855156
2855784,28,2.855784
2856412,14,2.856412
2857044,14,2.857044
2857664,15,2.857664
2858292,16,2.858292
2858916,17,2.858916
2859540,21,2.85954
2860172,28,2.860172
2860792,27,2.860792
2861424,29,2.861424
2862048,19,2.862048
2862672,11,2.862672
2863304,21,2.863304
2863920,39,2.86392
2864552,42,2.864552
2865184,35,2.865184
2865800,31,2.8658
2866432,26,2.866432
2867056,17,2.867056
2867688,14,2.867688
2868316,10,2.868316
2868936,11,2.868936
2869564,15,2.869564
2870188,14,2.870188
2870812,18,2.870812
2871440,24,2.87144
2872064,26,2.872064
2872692,19,2.872692
2873316,22,2.873316
2873940,25,2.87394
2874568,25,2.874568
2875192,23,2.875192
2875820,20,2.87582
2876452,10,2.876452
2877072,11,2.877072
2877700,12,2.8777
2878324,31,2.878324
2878956,42,2.878956
2879584,43,2.879584
2880208,45,2.880208
2880836,39,2.880836
2881460,40,2.88146
2882080,23,2.88208
2882708,20,2.882708
2883328,20,2.883328
2883956,22,2.883956
2884580,17,2.88458
2885200,10,2.8852
2885832,25,2.885832
2886448,25,2.886448
2887076,11,2.887076
2887704,10,2.887704
2888328,18,2.888328
2888956,18,2.888956
2889576,19,2.889576
2890208,17,2.890208
2890836,13,2.890836
2891456,15,2.891456
2892084,16,2.892084
2892708,11,2.892708
2893332,11,2.893332
2893964,10,2.893964
2894584,11,2.894584
2895212,15,2.895212
2895836,24,2.895836
2896460,41,2.89646
2897088,41,2.897088
2897708,34,2.897708
2898336,29,2.898336
2898964,16,2.898964
2899584,19,2.899584
2900212,25,2.900212
2900836,20,2.900836
2901464,13,2.901464
2902096,14,2.902096
2902712,16,2.902712
2903344,13,2.903344
2903968,11,2.903968
2904592,16,2.904592
2905220,14,2.90522
2905840,13,2.90584
2906468,19,2.906468
2907092,24,2.907092
2907716,22,2.907716
2908348,18,2.908348
2908968,15,2.908968
2909596,11,2.909596
2910228,20,2.910228
2910848,29,2.910848
2911476,29,2.911476
2912100,29,2.9121
2912732,33,2.912732
2913360,42,2.91336
2913976,42,2.913976
2914608,33,2.914608
2915232,27,2.915232
2915856,25,2.915856
2916484,22,2.916484
2917104,17,2.917104
2917736,13,2.917736
2918360,32,2.91836
2918984,34,2.918984
2919612,18,2.919612
2920232,23,2.920232
2920860,39,2.92086
2921492,30,2.921492
2922112,13,2.922112
2922740,11,2.92274
2923364,14,2.923364
2923996,16,2.923996
2924624,26,2.924624
2925248,27,2.925248
2925876,14,2.925876
2926500,33,2.9265
2927124,31,2.927124
2927756,21,2.927756
2928376,23,2.928376
2929004,26,2.929004
2929628,26,2.929628
2930252,31,2.930252
2930880,36,2.93088
2931504,33,2.931504
2932132,30,2.932132
2932764,38,2.932764
2933384,38,2.933384
2934016,28,2.934016
2934636,10,2.934636
2935268,28,2.935268
2935900,29,2.9359
2936520,38,2.93652
2937148,48,2.937148
2937776,43,2.937776
2938400,32,2.9384
2939028,16,2.939028
2939648,13,2.939648
2940276,15,2.940276
2940904,19,2.940904
2941528,29,2.941528
2942156,22,2.942156
2942776,13,2.942776
2943408,13,2.943408
2944036,18,2.944036
2944656,18,2.944656
2945284,18,2.945284
2945908,27,2.945908
2946536,34,2.946536
2947168,36,2.947168
2947788,38,2.947788
2948416,34,2.948416
2949040,19,2.94904
2949668,15,2.949668
2950296,21,2.950296
2950912,14,2.950912
2951544,10,2.951544
2952168,14,2.952168
2952788,25,2.952788
2953420,22,2.95342
2954040,21,2.95404
2954668,20,2.954668
2955300,24,2.9553
2955920,32,2.95592
2956548,34,2.956548
2957176,34,2.957176
2957804,22,2.957804
2958432,14,2.958432
2959056,15,2.959056
2959684,20,2.959684
2960308,25,2.960308
2960932,19,2.960932
2961564,16,2.961564
2962184,16,2.962184
2962812,30,2.962812
2963436,37,2.963436
2964060,37,2.96406
2964692,36,2.964692
2965312,37,2.965312
2965944,36,2.965944
2966572,25,2.966572
2967192,25,2.967192
2967820,13,2.96782
2968448,10,2.968448
2969076,26,2.969076
2969708,46,2.969708
2970328,47,2.970328
2970956,51,2.970956
2971580,49,2.97158
2972204,39,2.972204
2972832,14,2.972832
2973448,15,2.973448
2974076,16,2.974076
2974700,23,2.9747
2975324,17,2.975324
2975956,16,2.975956
2976580,21,2.97658
2977212,18,2.977212
2977840,11,2.97784
2978456,11,2.978456
2979088,21,2.979088
2979712,37,2.979712
2980340,57,2.98034
2980972,62,2.980972
2981592,32,2.981592
2982220,15,2.98222
2982848,16,2.982848
2983468,17,2.983468
2984100,18,2.9841
2984720,10,2.98472
2985348,14,2.985348
2985972,26,2.985972
2986596,30,2.986596
2987228,24,2.987228
2987852,27,2.987852
2988480,30,2.98848
2989112,31,2.989112
2989728,18,2.989728
2990360,17,2.99036
2990984,16,2.990984
2991612,15,2.991612
2992244,16,2.992244
2992864,14,2.992864
2993492,11,2.993492
2994116,17,2.994116
2994740,26,2.99474
2995372,32,2.995372
2995992,32,2.995992
2996620,25,2.99662
2997244,40,2.997244
2997872,43,2.997872
2998500,39,2.9985
2999124,41,2.999124
2999756,31,2.999756
3000388,16,3.000388
3001008,11,3.001008
3001636,12,3.001636
3002260,17,3.00226
3002888,22,3.002888
3003516,19,3.003516
3004136,12,3.004136
3004768,12,3.004768
3005392,11,3.005392
3006016,11,3.006016
3006648,14,3.006648
3007264,15,3.007264
3007896,18,3.007896
3008528,23,3.008528
3009144,17,3.009144
3009772,11,3.009772
3010400,11,3.0104
3011028,11,3.011028
3011660,24,3.01166
3012280,23,3.01228
3012908,18,3.012908
3013532,22,3.013532
3014160,29,3.01416
3014788,34,3.014788
3015408,31,3.015408
3016040,30,3.01604
3016664,21,3.016664
3017288,15,3.017288
3017916,10,3.017916
3018536,17,3.018536
3019168,29,3.019168
3019796,41,3.019796
3020416,44,3.020416
3021048,34,3.021048
3021672,17,3.021672
3022300,10,3.0223
3022932,10,3.022932
3023552,19,3.023552
3024184,18,3.024184
3024808,17,3.024808
3025428,15,3.025428
3026060,19,3.02606
3026680,28,3.02668
3027312,33,3.027312
3027936,24,3.027936
3028560,24,3.02856
3029188,36,3.029188
3029808,49,3.029808
3030440,43,3.03044
3031068,28,3.031068
3031688,20,3.031688
3032316,23,3.032316
3032944,25,3.032944
3033572,24,3.033572
3034204,16,3.034204
3034824,11,3.034824
3035456,23,3.035456
3036080,39,3.03608
3036704,30,3.036704
3037336,21,3.037336
3037952,27,3.037952
3038584,23,3.038584
3039208,16,3.039208
3039832,15,3.039832
3040464,11,3.040464
3041080,13,3.04108
3041712,13,3.041712
3042340,15,3.04234
3042960,11,3.04296
3043588,11,3.043588
3044212,19,3.044212
3044844,20,3.044844
3045472,24,3.045472
3046096,22,3.046096
3046728,25,3.046728
3047348,30,3.047348
3047976,37,3.047976
3048604,29,3.048604
3049224,22,3.049224
3049852,19,3.049852
3050480,16,3.05048
3051104,13,3.051104
3051732,10,3.051732
3052360,17,3.05236
3052988,33,3.052988
3053620,31,3.05362
3054240,31,3.05424
3054868,26,3.054868
3055496,19,3.055496
3056124,17,3.056124
3056756,12,3.056756
3057376,14,3.057376
3058008,14,3.058008
3058632,15,3.058632
3059256,12,3.059256
3059884,13,3.059884
3060504,17,3.060504
3061132,13,3.061132
3061764,11,3.061764
3062384,19,3.062384
3063016,23,3.063016
3063640,46,3.06364
3064272,59,3.064272
3064904,58,3.064904
3065520,45,3.06552
3066152,33,3.066152
3066776,29,3.066776
3067404,22,3.067404
3068032,13,3.068032
3068656,26,3.068656
3069288,27,3.069288
3069912,27,3.069912
3070536,28,3.070536
3071168,16,3.071168
3071792,14,3.071792
3072428,21,3.072428
3073056,18,3.073056
3073672,15,3.073672
3074300,14,3.0743
3074924,15,3.074924
3075552,19,3.075552
3076184,12,3.076184
3076800,21,3.0768
3077428,40,3.077428
3078052,37,3.078052
3078676,32,3.078676
3079308,33,3.079308
3079928,34,3.079928
3080556,28,3.080556
3081180,33,3.08118
3081804,29,3.081804
3082436,18,3.082436
3083056,15,3.083056
3083684,15,3.083684
3084316,15,3.084316
3084936,17,3.084936
3085564,11,3.085564
3086188,13,3.086188
3086820,14,3.08682
3087448,17,3.087448
3088064,18,3.088064
3088696,19,3.088696
3089316,20,3.089316
3089940,25,3.08994
3090572,31,3.090572
3091192,24,3.091192
3091824,18,3.091824
3092448,17,3.092448
3093072,11,3.093072
3093700,10,3.0937
3094320,27,3.09432
3094948,40,3.094948
3095580,39,3.09558
3096200,43,3.0962
3096828,56,3.096828
3097452,50,3.097452
3098084,40,3.098084
3098716,32,3.098716
3099336,31,3.099336
3099964,23,3.099964
3100592,19,3.100592
3101216,12,3.101216
3101844,14,3.101844
3102464,29,3.102464
3103096,27,3.103096
3103720,23,3.10372
3104344,23,3.104344
3104972,20,3.104972
3105592,22,3.105592
3106224,25,3.106224
3106852,32,3.106852
3107472,31,3.107472
3108104,24,3.108104
3108728,17,3.108728
3109356,12,3.109356
3109988,21,3.109988
3110608,20,3.110608
3111236,14,3.111236
3111864,11,3.111864
3112488,15,3.112488
3113120,10,3.11312
3113736,19,3.113736
3114364,15,3.114364
3114988,39,3.114988
3115612,69,3.115612
3116244,80,3.116244
3116868,60,3.116868
3117496,29,3.117496
3118128,10,3.118128
3118748,22,3.118748
3119376,33,3.119376
3120000,26,3.12
3120628,10,3.120628
3121260,10,3.12126
3121880,12,3.12188
3122508,13,3.122508
3123136,14,3.123136
3123760,20,3.12376
3124388,27,3.124388
3125008,33,3.125008
3125636,24,3.125636
3126260,11,3.12626
3126884,18,3.126884
3127516,20,3.127516
3128140,21,3.12814
3128772,19,3.128772
3129400,23,3.1294
3130020,34,3.13002
3130648,41,3.130648
3131272,40,3.131272
3131904,28,3.131904
3132532,17,3.132532
3133152,15,3.133152
3133784,15,3.133784
3134408,13,3.134408
3135032,16,3.135032
3135660,21,3.13566
3136280,29,3.13628
3136908,26,3.136908
3137532,20,3.137532
3138160,17,3.13816
3138788,13,3.138788
3139412,14,3.139412
3140044,15,3.140044
3140672,17,3.140672
3141296,21,3.141296
3141924,17,3.141924
3142552,12,3.142552
3143176,19,3.143176
3143804,18,3.143804
3144424,19,3.144424
3145052,21,3.145052
3145676,23,3.145676
3146304,22,3.146304
3146932,28,3.146932
3147552,43,3.147552
3148184,44,3.148184
3148812,34,3.148812
3149432,27,3.149432
3150060,17,3.15006
3150688,15,3.150688
3151320,15,3.15132
3151948,10,3.151948
3152568,16,3.152568
3153200,20,3.1532
3153824,22,3.153824
3154448,34,3.154448
3155076,36,3.155076
3155696,33,3.155696
3156328,28,3.156328
3156952,31,3.156952
3157576,24,3.157576
3158208,17,3.158208
3158824,20,3.158824
3159456,11,3.159456
3160088,14,3.160088
3160704,22,3.160704
3161336,29,3.161336
3161960,42,3.16196
3162588,41,3.162588
3163220,48,3.16322
3163840,66,3.16384
3164472,75,3.164472
3165096,61,3.165096
3165720,36,3.16572
3166352,17,3.166352
3166968,15,3.166968
3167600,11,3.1676
3168224,19,3.168224
3168848,26,3.168848
3169476,26,3.169476
3170096,22,3.170096
3170728,21,3.170728
3171356,22,3.171356
3171976,22,3.171976
3172608,16,3.172608
3173232,21,3.173232
3173864,22,3.173864
3174496,19,3.174496
3175112,20,3.175112
3175744,17,3.175744
3176368,10,3.176368
3176992,12,3.176992
3177620,15,3.17762
3178240,16,3.17824
3178868,11,3.178868
3179496,11,3.179496
3180120,17,3.18012
3180752,27,3.180752
3181368,38,3.181368
3182000,40,3.182
3182632,31,3.182632
3183248,25,3.183248
3183880,30,3.18388
3184504,15,3.184504
3185136,14,3.185136
3185768,23,3.185768
3186384,17,3.186384
3187016,14,3.187016
3187644,10,3.187644
3188268,10,3.188268
3188900,10,3.1889
3189520,11,3.18952
3190152,16,3.190152
3190776,15,3.190776
3191400,16,3.1914
3192032,15,3.192032
3192656,11,3.192656
3193288,13,3.193288
3193920,14,3.19392
3194536,11,3.194536
3195168,12,3.195168
3195796,16,3.195796
3196424,45,3.196424
3197056,52,3.197056
3197672,45,3.197672
3198304,40,3.198304
3198928,32,3.198928
3199556,19,3.199556
3200188,14,3.200188
3200804,14,3.200804
3201432,18,3.201432
3202064,25,3.202064
3202680,25,3.20268
3203308,19,3.203308
3203932,16,3.203932
3204560,14,3.20456
3205188,13,3.205188
3205808,11,3.205808
3206436,15,3.206436
3207056,18,3.207056
3207684,17,3.207684
3208312,18,3.208312
3208936,17,3.208936
3209564,11,3.209564
3210188,10,3.210188
3210812,12,3.210812
3211440,20,3.21144
3212064,27,3.212064
3212692,34,3.212692
3213324,41,3.213324
3213944,28,3.213944
3214572,17,3.214572
3215196,15,3.215196
3215828,15,3.215828
3216456,14,3.216456
3217080,17,3.21708
3217708,18,3.217708
3218332,18,3.218332
3218956,10,3.218956
3219584,14,3.219584
3220208,23,3.220208
3220836,19,3.220836
3221460,18,3.22146
3222084,17,3.222084
3222712,17,3.222712
3223336,20,3.223336
3223964,16,3.223964
3224596,16,3.224596
3225216,19,3.225216
3225844,20,3.225844
3226468,19,3.226468
3227096,16,3.227096
3227728,12,3.227728
3228344,15,3.228344
3228976,22,3.228976
3229600,34,3.2296
3230220,44,3.23022
3230852,32,3.230852
3231472,17,3.231472
3232100,12,3.2321
3232724,15,3.232724
3233348,16,3.233348
3233980,17,3.23398
3234600,10,3.2346
3235228,14,3.235228
3235860,24,3.23586
3236480,27,3.23648
3237108,25,3.237108
3237732,26,3.237732
3238364,19,3.238364
3238992,16,3.238992
3239616,17,3.239616
3240244,20,3.240244
3240868,16,3.240868
3241492,15,3.241492
3242124,15,3.242124
3242744,13,3.242744
3243372,11,3.243372
3243996,17,3.243996
3244620,16,3.24462
3245252,17,3.245252
3245872,37,3.245872
3246504,56,3.246504
3247132,56,3.247132
3247752,47,3.247752
3248384,27,3.248384
3249004,18,3.249004
3249636,23,3.249636
3250264,26,3.250264
3250888,11,3.250888
3251516,14,3.251516
3252144,15,3.252144
3252768,20,3.252768
3253396,24,3.253396
3254016,25,3.254016
3254644,21,3.254644
3255272,20,3.255272
3255896,28,3.255896
3256524,30,3.256524
3257144,16,3.257144
3257772,16,3.257772
3258404,16,3.258404
3259024,15,3.259024
3259652,11,3.259652
3260280,20,3.26028
3260908,22,3.260908
3261540,14,3.26154
3262160,17,3.26216
3262788,27,3.262788
3263416,28,3.263416
3264040,31,3.26404
3264668,30,3.264668
3265288,25,3.265288
3265916,26,3.265916
3266540,32,3.26654
3267168,33,3.267168
3267796,19,3.267796
3268420,11,3.26842
3269052,11,3.269052
3269684,15,3.269684
3270304,23,3.270304
3270936,25,3.270936
3271560,30,3.27156
3272192,31,3.272192
3272820,27,3.27282
3273440,25,3.27344
3274072,19,3.274072
3274696,15,3.274696
3275320,16,3.27532
3275952,19,3.275952
3276572,18,3.276572
3277204,15,3.277204
3277828,14,3.277828
3278448,18,3.278448
3279072,20,3.279072
3279696,32,3.279696
3280324,44,3.280324
3280952,44,3.280952
3281568,31,3.281568
3282196,22,3.282196
3282816,15,3.282816
3283448,15,3.283448
3284072,14,3.284072
3284692,17,3.284692
3285320,23,3.28532
3285944,21,3.285944
3286564,15,3.286564
3287196,20,3.287196
3287816,24,3.287816
3288444,17,3.288444
3289064,14,3.289064
3289688,18,3.289688
3290316,18,3.290316
3290936,16,3.290936
3291564,17,3.291564
3292192,15,3.292192
3292808,14,3.292808
3293436,15,3.293436
3294060,15,3.29406
3294688,13,3.294688
3295316,16,3.295316
3295936,28,3.295936
3296564,40,3.296564
3297188,37,3.297188
3297812,34,3.297812
3298440,29,3.29844
3299056,25,3.299056
3299684,17,3.299684
3300308,15,3.300308
3300932,10,3.300932
3301560,10,3.30156
3302176,11,3.302176
3302804,10,3.302804
3303432,10,3.303432
3304056,11,3.304056
3304684,21,3.304684
3305308,22,3.305308
3305936,19,3.305936
3306564,19,3.306564
3307184,17,3.307184
3307812,14,3.307812
3308436,14,3.308436
3309060,15,3.30906
3309692,18,3.309692
3310312,17,3.310312
3310940,11,3.31094
3311564,16,3.311564
3312188,25,3.312188
3312816,37,3.312816
3313440,37,3.31344
3314068,35,3.314068
3314696,31,3.314696
3315320,27,3.31532
3315948,18,3.315948
3316572,16,3.316572
3317204,14,3.317204
3317832,10,3.317832
3318448,10,3.318448
3319076,19,3.319076
3319700,24,3.3197
3320324,29,3.320324
3320956,28,3.320956
3321576,23,3.321576
3322204,24,3.322204
3322828,29,3.322828
3323452,32,3.323452
3324084,16,3.324084
3324704,18,3.324704
3325332,19,3.325332
3325964,16,3.325964
3326584,22,3.326584
3327212,21,3.327212
3327836,19,3.327836
3328468,22,3.328468
3329096,22,3.329096
3329720,29,3.32972
3330348,41,3.330348
3330968,49,3.330968
3331592,34,3.331592
3332220,14,3.33222
3332840,16,3.33284
3333468,15,3.333468
3334092,12,3.334092
3334712,14,3.334712
3335344,12,3.335344
3335960,11,3.33596
3336588,10,3.336588
3337212,10,3.337212
3337840,10,3.33784
3338468,15,3.338468
3339092,23,3.339092
3339720,22,3.33972
3340348,13,3.340348
3340968,17,3.340968
3341596,17,3.341596
3342220,16,3.34222
3342848,12,3.342848
3343476,11,3.343476
3344096,11,3.344096
3344724,10,3.344724
3345348,16,3.345348
3345968,18,3.345968
3346600,21,3.3466
3347216,28,3.347216
3347844,29,3.347844
3348468,16,3.348468
3349092,16,3.349092
3349720,16,3.34972
3350344,14,3.350344
3350972,13,3.350972
3351604,16,3.351604
3352224,13,3.352224
3352852,13,3.352852
3353476,14,3.353476
3354108,11,3.354108
3354736,10,3.354736
3355360,11,3.35536
3355988,10,3.355988
3356612,14,3.356612
3357236,13,3.357236
3357868,14,3.357868
3358488,15,3.358488
3359116,14,3.359116
3359740,12,3.35974
3360368,17,3.360368
3360996,27,3.360996
3361620,25,3.36162
3362248,24,3.362248
3362876,25,3.362876
3363496,29,3.363496
3364124,34,3.364124
3364748,30,3.364748
3365376,14,3.365376
3366004,16,3.366004
3366624,15,3.366624
3367252,14,3.367252
3367876,17,3.367876
3368500,28,3.3685
3369128,38,3.369128
3369744,29,3.369744
3370372,22,3.370372
3370996,22,3.370996
3371620,23,3.37162
3372248,23,3.372248
3372872,12,3.372872
3373500,26,3.3735
3374128,21,3.374128
3374752,19,3.374752
3375380,14,3.37538
3376004,11,3.376004
3376632,13,3.376632
3377264,13,3.377264
3377880,15,3.37788
3378512,38,3.378512
3379136,45,3.379136
3379760,45,3.37976
3380388,46,3.380388
3381008,41,3.381008
3381636,25,3.381636
3382260,18,3.38226
3382880,15,3.38288
3383512,14,3.383512
3384136,11,3.384136
3384764,22,3.384764
3385392,28,3.385392
3386016,20,3.386016
3386644,10,3.386644
3387268,10,3.387268
3387896,11,3.387896
3388524,14,3.388524
3389144,19,3.389144
3389772,17,3.389772
3390396,14,3.390396
3391020,13,3.39102
3391652,14,3.391652
3392272,18,3.392272
3392900,11,3.3929
3393524,10,3.393524
3394148,13,3.394148
3394776,14,3.394776
3395400,14,3.3954
3396028,19,3.396028
3396656,28,3.396656
3397280,36,3.39728
3397908,33,3.397908
3398532,18,3.398532
3399164,15,3.399164
3399792,14,3.399792
3400408,15,3.400408
3401040,19,3.40104
3401660,24,3.40166
3402284,21,3.402284
3402912,10,3.402912
3403528,12,3.403528
3404160,15,3.40416
3404780,11,3.40478
3405408,16,3.405408
3406036,25,3.406036
3406660,27,3.40666
3407288,21,3.407288
3407916,16,3.407916
3408536,15,3.408536
3409164,11,3.409164
3409788,12,3.409788
3410420,11,3.41042
3411048,15,3.411048
3411664,14,3.411664
3412296,20,3.412296
3412920,33,3.41292
3413544,41,3.413544
3414172,43,3.414172
3414792,33,3.414792
3415420,21,3.41542
3416044,19,3.416044
3416668,24,3.416668
3417300,29,3.4173
3417924,15,3.417924
3418552,13,3.418552
3419180,25,3.41918
3419800,21,3.4198
3420428,19,3.420428
3421052,19,3.421052
3421684,27,3.421684
3422312,29,3.422312
3422932,23,3.422932
3423564,14,3.423564
3424188,15,3.424188
3424808,17,3.424808
3425440,18,3.42544
3426056,17,3.426056
3426684,12,3.426684
3427308,11,3.427308
3427932,13,3.427932
3428564,10,3.428564
3429188,12,3.429188
3429816,29,3.429816
3430448,61,3.430448
3431064,79,3.431064
3431692,59,3.431692
3432316,35,3.432316
3432948,24,3.432948
3433576,23,3.433576
3434196,14,3.434196
3434828,10,3.434828
3435452,10,3.435452
3436076,12,3.436076
3436704,14,3.436704
3437328,22,3.437328
3437956,29,3.437956
3438584,33,3.438584
3439208,40,3.439208
3439836,43,3.439836
3440464,29,3.440464
3441092,19,3.441092
3441724,14,3.441724
3442344,13,3.442344
3442972,15,3.442972
3443596,34,3.443596
3444224,39,3.444224
3444856,36,3.444856
3445472,36,3.445472
3446100,29,3.4461
3446724,32,3.446724
3447348,29,3.447348
3447976,27,3.447976
3448600,32,3.4486
3449228,27,3.449228
3449852,18,3.449852
3450480,16,3.45048
3451108,10,3.451108
3451732,16,3.451732
3452364,23,3.452364
3452992,26,3.452992
3453616,32,3.453616
3454244,31,3.454244
3454868,31,3.454868
3455496,27,3.455496
3456124,28,3.456124
3456744,29,3.456744
3457372,19,3.457372
3457996,15,3.457996
3458616,16,3.458616
3459248,26,3.459248
3459864,37,3.459864
3460492,38,3.460492
3461116,20,3.461116
3461744,14,3.461744
3462372,10,3.462372
3462996,23,3.462996
3463628,46,3.463628
3464256,50,3.464256
3464880,37,3.46488
3465508,21,3.465508
3466132,17,3.466132
3466760,14,3.46676
3467388,13,3.467388
3468008,19,3.468008
3468636,24,3.468636
3469260,27,3.46926
3469884,22,3.469884
3470516,20,3.470516
3471136,20,3.471136
3471768,12,3.471768
3472396,10,3.472396
3473016,14,3.473016
3473644,16,3.473644
3474268,17,3.474268
3474900,15,3.4749
3475528,16,3.475528
3476152,11,3.476152
3476784,11,3.476784
3477408,13,3.477408
3478032,13,3.478032
3478660,16,3.47866
3479280,21,3.47928
3479908,25,3.479908
3480536,27,3.480536
3481160,29,3.48116
3481792,26,3.481792
3482408,27,3.482408
3483036,15,3.483036
3483664,20,3.483664
3484284,25,3.484284
3484912,16,3.484912
3485536,10,3.485536
3486164,12,3.486164
3486796,14,3.486796
3487416,22,3.487416
3488044,24,3.488044
3488668,18,3.488668
3489288,10,3.489288
3489920,16,3.48992
3490536,19,3.490536
3491164,20,3.491164
3491788,19,3.491788
3492412,14,3.492412
3493044,10,3.493044
3493664,17,3.493664
3494292,19,3.494292
3494924,26,3.494924
3495544,31,3.495544
3496172,28,3.496172
3496796,17,3.496796
3497428,11,3.497428
3498056,24,3.498056
3498680,28,3.49868
3499308,16,3.499308
3499936,17,3.499936
3500560,15,3.50056
3501188,10,3.501188
3501808,11,3.501808
3502436,26,3.502436
3503060,36,3.50306
3503688,25,3.503688
3504316,12,3.504316
3504936,13,3.504936
3505564,15,3.505564
3506196,20,3.506196
3506816,21,3.506816
3507448,16,3.507448
3508072,19,3.508072
3508700,25,3.5087
3509332,13,3.509332
3509952,24,3.509952
3510580,36,3.51058
3511208,33,3.511208
3511832,27,3.511832
3512464,27,3.512464
3513080,43,3.51308
3513708,47,3.513708
3514332,43,3.514332
3514960,32,3.51496
3515588,26,3.515588
3516208,17,3.516208
3516840,16,3.51684
3517468,12,3.517468
3518088,27,3.518088
3518720,34,3.51872
3519344,37,3.519344
3519976,28,3.519976
3520608,17,3.520608
3521224,11,3.521224
3521852,17,3.521852
3522476,17,3.522476
3523100,20,3.5231
3523732,24,3.523732
3524352,19,3.524352
3524980,14,3.52498
3525604,19,3.525604
3526228,11,3.526228
3526856,12,3.526856
3527480,19,3.52748
3528108,17,3.528108
3528740,24,3.52874
3529360,44,3.52936
3529988,58,3.529988
3530612,49,3.530612
3531244,35,3.531244
3531872,21,3.531872
3532496,21,3.532496
3533124,21,3.533124
3533748,18,3.533748
3534372,11,3.534372
3535004,10,3.535004
3535624,14,3.535624
3536252,18,3.536252
3536876,27,3.536876
3537500,35,3.5375
3538132,36,3.538132
3538756,45,3.538756
3539384,35,3.539384
3540012,23,3.540012
3540632,22,3.540632
3541260,15,3.54126
3541884,15,3.541884
3542516,20,3.542516
3543144,15,3.543144
3543768,16,3.543768
3544396,33,3.544396
3545020,37,3.54502
3545644,32,3.545644
3546276,36,3.546276
3546896,35,3.546896
3547524,37,3.547524
3548148,46,3.548148
3548772,45,3.548772
3549404,34,3.549404
3550028,22,3.550028
3550660,13,3.55066
3551288,18,3.551288
3551912,34,3.551912
3552544,33,3.552544
3553168,29,3.553168
3553800,24,3.5538
3554428,28,3.554428
3555048,51,3.555048
3555680,46,3.55568
3556304,44,3.556304
3556928,48,3.556928
3557556,19,3.557556
3558176,26,3.558176
3558808,39,3.558808
3559436,54,3.559436
3560056,66,3.560056
3560684,55,3.560684
3561308,37,3.561308
3561940,24,3.56194
3562572,26,3.562572
3563192,34,3.563192
3563824,27,3.563824
3564448,23,3.564448
3565072,21,3.565072
3565700,22,3.5657
3566320,22,3.56632
3566948,19,3.566948
3567576,11,3.567576
3568200,12,3.5682
3568828,33,3.568828
3569448,44,3.569448
3570076,38,3.570076
3570708,32,3.570708
3571328,30,3.571328
3571956,27,3.571956
3572584,17,3.572584
3573212,14,3.573212
3573844,15,3.573844
3574464,17,3.574464
3575092,14,3.575092
3575720,11,3.57572
3576344,13,3.576344
3576972,14,3.576972
3577592,11,3.577592
3578224,10,3.578224
3578848,10,3.578848
3579472,15,3.579472
3580104,22,3.580104
3580724,45,3.580724
3581352,55,3.581352
3581988,52,3.581988
3582608,35,3.582608
3583240,16,3.58324
3583868,13,3.583868
3584500,10,3.5845
3585128,16,3.585128
3585744,24,3.585744
3586372,19,3.586372
3586996,14,3.586996
3587620,11,3.58762
3588252,10,3.588252
3588872,16,3.588872
3589500,18,3.5895
3590124,15,3.590124
3590748,14,3.590748
3591380,17,3.59138
3592004,20,3.592004
3592632,15,3.592632
3593260,12,3.59326
3593880,11,3.59388
3594508,27,3.594508
3595132,37,3.595132
3595764,33,3.595764
3596396,40,3.596396
3597016,46,3.597016
3597644,41,3.597644
3598268,31,3.598268
3598892,22,3.598892
3599524,16,3.599524
3600144,15,3.600144
3600772,12,3.600772
3601396,11,3.601396
3602020,19,3.60202
3602652,28,3.602652
3603276,28,3.603276
3603904,31,3.603904
3604536,29,3.604536
3605152,23,3.605152
3605780,24,3.60578
3606404,22,3.606404
3607032,20,3.607032
3607660,26,3.60766
3608280,19,3.60828
3608908,21,3.608908
3609532,23,3.609532
3610156,22,3.610156
3610788,32,3.610788
3611408,35,3.611408
3612036,37,3.612036
3612660,32,3.61266
3613284,35,3.613284
3613912,44,3.613912
3614536,41,3.614536
3615168,32,3.615168
3615796,22,3.615796
3616416,18,3.616416
3617044,15,3.617044
3617668,10,3.617668
3618296,13,3.618296
3618924,19,3.618924
3619544,29,3.619544
3620172,29,3.620172
3620796,23,3.620796
3621420,29,3.62142
3622052,32,3.622052
3622672,25,3.622672
3623300,25,3.6233
3623924,17,3.623924
3624548,15,3.624548
3625180,15,3.62518
3625804,11,3.625804
3626432,30,3.626432
3627060,34,3.62706
3627680,30,3.62768
3628308,32,3.628308
3628932,31,3.628932
3629564,26,3.629564
3630192,28,3.630192
3630812,31,3.630812
3631440,33,3.63144
3632064,31,3.632064
3632688,32,3.632688
3633316,23,3.633316
3633936,15,3.633936
3634564,10,3.634564
3635188,18,3.635188
3635816,33,3.635816
3636444,37,3.636444
3637068,28,3.637068
3637700,27,3.6377
3638328,31,3.638328
3638952,23,3.638952
3639580,20,3.63958
3640208,13,3.640208
3640836,16,3.640836
3641468,20,3.641468
3642088,21,3.642088
3642716,14,3.642716
3643340,14,3.64334
3643968,15,3.643968
3644596,13,3.644596
3645216,22,3.645216
3645848,26,3.645848
3646476,24,3.646476
3647096,27,3.647096
3647724,35,3.647724
3648352,33,3.648352
3648980,28,3.64898
3649608,21,3.649608
3650232,17,3.650232
3650860,11,3.65086
3651484,11,3.651484
3652108,21,3.652108
3652740,26,3.65274
3653360,27,3.65336
3653988,21,3.653988
3654616,17,3.654616
3655236,19,3.655236
3655868,19,3.655868
3656488,21,3.656488
3657116,15,3.657116
3657748,15,3.657748
3658368,14,3.658368
3658996,11,3.658996
3659620,10,3.65962
3660252,11,3.660252
3660884,14,3.660884
3661504,16,3.661504
3662132,24,3.662132
3662756,37,3.662756
3663380,36,3.66338
3664012,36,3.664012
3664632,37,3.664632
3665260,43,3.66526
3665888,37,3.665888
3666512,26,3.666512
3667140,15,3.66714
3667760,10,3.66776
3668388,15,3.668388
3669020,22,3.66902
3669640,29,3.66964
3670272,28,3.670272
3670896,17,3.670896
3671524,14,3.671524
3672156,22,3.672156
3672776,22,3.672776
3673408,21,3.673408
3674032,19,3.674032
3674656,19,3.674656
3675288,15,3.675288
3675904,17,3.675904
3676536,27,3.676536
3677160,31,3.67716
3677784,21,3.677784
3678416,19,3.678416
3679032,21,3.679032
3679664,32,3.679664
3680296,32,3.680296
3680912,26,3.680912
3681540,17,3.68154
3682168,15,3.682168
3682796,15,3.682796
3683428,14,3.683428
3684048,12,3.684048
3684676,10,3.684676
3685300,17,3.6853
3685928,15,3.685928
3686560,10,3.68656
3687176,10,3.687176
3687804,10,3.687804
3688428,10,3.688428
3689048,20,3.689048
3689680,23,3.68968
3690296,18,3.690296
3690924,15,3.690924
3691552,14,3.691552
3692176,16,3.692176
3692804,11,3.692804
3693428,21,3.693428
3694056,18,3.694056
3694684,10,3.694684
3695304,12,3.695304
3695932,24,3.695932
3696560,46,3.69656
3697184,57,3.697184
3697812,46,3.697812
3698432,34,3.698432
3699060,15,3.69906
3699684,14,3.699684
3700308,15,3.700308
3700940,10,3.70094
3701560,13,3.70156
3702188,16,3.702188
3702820,17,3.70282
3703440,12,3.70344
3704068,12,3.704068
3704692,22,3.704692
3705324,26,3.705324
3705952,37,3.705952
3706576,45,3.706576
3707204,38,3.707204
3707828,26,3.707828
3708452,15,3.708452
3709084,26,3.709084
3709704,34,3.709704
3710336,23,3.710336
3710960,21,3.71096
3711584,28,3.711584
3712216,34,3.712216
3712840,45,3.71284
3713468,42,3.713468
3714096,34,3.714096
3714716,29,3.714716
3715344,16,3.715344
3715968,15,3.715968
3716596,16,3.716596
3717228,19,3.717228
3717848,17,3.717848
3718476,10,3.718476
3719100,23,3.7191
3719724,31,3.719724
3720356,24,3.720356
3720976,13,3.720976
3721604,12,3.721604
3722228,19,3.722228
3722852,33,3.722852
3723484,28,3.723484
3724108,17,3.724108
3724740,14,3.72474
3725368,16,3.725368
3725992,13,3.725992
3726624,12,3.726624
3727248,17,3.727248
3727876,27,3.727876
3728508,26,3.728508
3729128,23,3.729128
3729756,31,3.729756
3730380,45,3.73038
3731004,39,3.731004
3731636,26,3.731636
3732256,25,3.732256
3732884,22,3.732884
3733516,14,3.733516
3734136,12,3.734136
3734768,11,3.734768
3735392,24,3.735392
3736020,27,3.73602
3736652,22,3.736652
3737272,18,3.737272
3737904,19,3.737904
3738528,18,3.738528
3739152,16,3.739152
3739780,15,3.73978
3740400,16,3.7404
3741028,13,3.741028
3741652,15,3.741652
3742280,12,3.74228
3742908,15,3.742908
3743528,16,3.743528
3744160,17,3.74416
3744788,13,3.744788
3745408,14,3.745408
3746036,16,3.746036
3746660,21,3.74666
3747292,31,3.747292
3747924,32,3.747924
3748544,35,3.748544
3749172,37,3.749172
3749796,31,3.749796
3750424,24,3.750424
3751052,10,3.751052
3751672,16,3.751672
3752304,24,3.752304
3752928,23,3.752928
3753552,27,3.753552
3754184,34,3.754184
3754800,38,3.7548
3755432,24,3.755432
3756064,18,3.756064
3756680,15,3.75668
3757312,15,3.757312
3757936,15,3.757936
3758568,16,3.758568
3759196,10,3.759196
3759816,15,3.759816
3760448,18,3.760448
3761072,15,3.761072
3761700,13,3.7617
