tempo_arduino_micro_s,valor_ADC
500,34
1004,47
1500,59
2000,34
2508,15
3000,18
3508,39
4000,46
4504,55
5000,50
5500,27
6000,11
6500,22
7000,18
7500,20
8000,43
8500,64
9000,77
9500,66
10000,31
10508,13
11028,21
11556,12
12076,35
12604,22
13124,27
13648,67
14172,53
14700,28
15220,23
15748,30
16268,39
16796,21
17316,16
17836,20
18356,13
18876,11
19396,12
19916,12
20436,23
20956,33
21476,29
21996,28
22516,29
23036,15
23564,11
24084,15
24612,21
25132,36
25660,43
26180,39
26708,29
27228,13
27756,15
28276,19
28804,22
29324,12
29852,13
30372,32
30900,57
31420,65
31948,38
32472,11
32996,12
33516,11
34044,10
34564,16
35092,15
35612,12
36140,13
36660,16
37188,25
37708,28
38236,34
38760,25
39284,13
39804,11
40332,13
40852,27
41372,45
41892,51
42412,36
42932,30
43452,30
43972,27
44492,31
45012,22
45532,26
46052,55
46572,51
47092,55
47612,61
48140,50
48660,34
49188,11
49708,17
50236,33
50760,28
51284,18
51804,13
52332,14
52852,15
53380,15
53900,16
54428,18
54948,12
55476,10
55996,10
56524,20
57044,39
57572,63
58096,70
58620,73
59140,68
59668,47
60188,38
60716,23
61240,13
61764,21
62284,37
62812,48
63332,55
63860,53
64384,47
64908,29
65428,15
65948,10
66468,10
66988,14
67508,31
68028,48
68548,80
69068,88
69588,69
70108,33
70628,28
71148,67
71672,77
72192,57
72716,50
73240,51
73764,51
74284,54
74812,53
75332,57
75860,70
76384,66
76908,63
77428,34
77956,15
78480,13
79004,11
79528,10
80052,15
80572,29
81100,39
81624,43
82148,45
82668,32
83196,19
83716,14
84244,16
84764,37
85292,33
85812,28
86340,16
86860,12
87388,14
87908,14
88436,28
88956,24
89484,10
90004,12
90524,23
91044,44
91564,60
92084,69
92604,75
93124,55
93644,39
94164,22
94684,13
95204,23
95724,32
96248,39
96764,42
97292,42
97812,27
98340,15
98860,10
99388,12
99908,12
100436,13
101000,19
101584,21
102156,18
102736,17
103304,13
103880,10
104456,10
105024,23
105600,18
106168,13
106744,50
107312,87
107896,67
108464,56
109040,58
109624,46
110192,39
110768,38
111336,49
111920,33
112492,21
113072,12
113640,14
114216,27
114800,40
115368,53
115952,42
116520,43
117104,38
117676,34
118252,34
118832,27
119400,25
119984,22
120556,11
121136,10
121708,18
122288,18
122856,30
123436,54
124016,75
124584,91
125168,70
125740,54
126320,29
126888,15
127464,13
128048,25
128616,39
129192,26
129760,26
130344,11
130912,20
131496,15
132064,15
132640,30
133216,46
133784,41
134360,21
134928,12
135512,12
136080,15
136656,29
137232,41
137800,38
138384,24
138952,15
139536,17
140104,27
140688,42
141260,42
141832,29
142416,34
142984,39
143568,49
144136,42
144720,43
145288,30
145872,17
146448,59
147016,80
147600,64
148168,39
148752,11
149320,11
149904,17
150476,28
151048,33
151632,32
152204,14
152784,49
153356,53
153936,21
154512,14
155088,12
155672,17
156244,14
156824,14
157392,22
157976,59
158548,62
159128,48
159700,19
160276,28
160856,33
161424,13
162008,15
162576,35
163152,39
163724,19
164304,14
164880,27
165448,31
166024,48
166592,56
167176,60
167744,60
168328,31
168896,18
169464,29
170040,32
170608,25
171192,11
171764,13
172344,10
172912,16
173496,21
174064,48
174644,73
175224,82
175792,81
176376,69
176944,58
177528,37
178096,17
178672,13
179256,21
179824,32
180400,40
180968,43
181552,49
182124,52
182704,55
183272,60
183848,32
184432,23
185000,15
185584,29
186156,34
186736,23
187304,15
187880,44
188464,62
189036,61
189616,47
190184,51
190768,49
191336,51
191920,63
192500,67
193072,63
193656,35
194224,14
194808,12
195376,12
195960,13
196528,26
197104,32
197688,51
198256,48
198840,56
199408,46
199992,42
200564,35
201144,23
201712,11
202292,23
202872,20
203444,19
204024,14
204592,11
205176,17
205744,16
206312,14
206896,22
207464,60
208040,90
208608,74
209184,61
209752,51
210336,45
210904,35
211480,26
212064,11
212632,19
213216,21
213784,43
214368,53
214940,51
215516,24
216096,15
216664,14
217248,24
217816,24
218400,17
218968,17
219544,14
220112,12
220692,11
221272,11
221840,21
222424,22
222992,15
223576,21
224148,42
224720,46
225304,51
225872,76
226456,58
227024,24
227608,25
228176,37
228760,20
229328,26
229904,66
230488,82
231056,56
231632,31
232204,15
232784,33
233356,48
233936,14
234512,11
235084,16
235664,14
236236,14
236816,17
237384,24
237968,24
238540,30
239116,52
239696,38
240268,23
240848,34
241416,40
242000,56
242568,67
243152,45
243728,17
244300,12
244880,13
245448,23
246032,36
246600,34
247184,25
247756,34
248332,45
248912,43
249480,42
250064,51
250636,56
251216,37
251784,18
252368,32
252944,51
253516,53
254096,19
254668,14
255248,25
255820,41
256400,40
256976,41
257544,49
258120,56
258688,57
259272,54
259840,46
260424,23
260992,11
261576,23
262152,42
262720,39
263304,42
263872,38
264456,35
265024,24
265608,13
266176,9
266696,12
267272,19
267840,27
268424,34
268992,31
269576,13
270144,23
270728,17
271296,12
271876,12
272456,21
273024,28
273608,46
274176,66
274760,88
275332,78
275912,59
276488,32
277056,14
277640,13
278208,20
278792,13
279364,14
279944,12
280516,11
281092,28
281672,56
282240,65
282824,49
283392,36
283976,24
284548,19
285128,12
285704,22
286276,28
286856,21
287424,14
288008,19
288576,36
289152,25
289720,10
290296,24
290880,49
291448,36
292032,43
292600,47
293184,39
293756,22
294336,13
294908,24
295480,21
296064,11
296632,12
297216,15
297788,16
298368,13
298940,14
299516,30
300096,44
300668,39
301248,19
301820,17
302400,33
302968,72
303552,42
304136,17
304708,34
305288,54
305860,66
306440,70
307020,64
307600,67
308176,64
308752,69
309336,67
309908,44
310488,25
311056,14
311640,15
312212,22
312788,34
313368,49
313940,62
314520,59
315092,49
315672,33
316244,27
316824,35
317396,27
317972,20
318552,23
319124,34
319704,26
320284,15
320864,11
321432,35
322008,53
322592,51
323160,47
323744,50
324316,60
324896,58
325464,54
326048,49
326620,33
327196,22
327776,15
328348,15
328928,12
329496,11
330080,12
330648,26
331224,35
331808,47
332376,46
332960,35
333528,30
334104,43
334672,50
335256,39
335824,19
336400,13
336984,23
337552,34
338136,34
338704,37
339288,33
339856,25
340432,14
341008,24
341576,30
342160,36
342732,47
343312,56
343884,61
344464,54
345032,51
345612,19
346192,42
346760,59
347344,56
347916,54
348496,29
349064,27
349648,30
350224,33
350796,27
351376,24
351948,27
352528,18
353104,12
353688,18
354256,21
354832,38
355416,34
355988,14
356568,19
357140,32
357720,52
358292,68
358868,73
359448,65
360016,48
360600,32
361168,21
361752,13
362320,20
362904,41
363472,53
364052,49
364632,33
365204,12
365784,11
366352,13
366936,19
367508,28
368084,35
368664,26
369232,14
369808,13
370376,14
370960,24
371532,48
372112,12
372680,38
373256,51
373840,53
374412,62
374992,72
375564,71
376144,47
376724,24
377300,21
377880,14
378452,30
379032,23
379604,33
380184,43
380756,17
381336,10
381916,13
382492,22
383072,14
383644,11
384224,26
384800,63
385384,59
385956,19
386528,34
387112,47
387684,50
388264,44
388836,33
389416,21
389988,22
390568,28
391136,43
391716,46
392296,47
392868,42
393448,26
394020,22
394600,27
395172,22
395748,11
396328,15
396900,30
397480,47
398052,52
398632,54
399212,50
399792,48
400372,36
400944,15
401528,14
402100,14
402680,25
403252,32
403832,17
404404,11
404980,11
405560,11
406132,14
406712,19
407284,19
407864,31
408436,55
409016,74
409588,68
410164,52
410744,28
411312,13
411896,13
412464,29
413048,47
413616,51
414192,45
414776,45
415344,39
415928,33
416500,28
417080,33
417648,30
418232,33
418804,18
419376,16
419960,16
420528,41
421112,41
421684,45
422264,41
422836,30
423408,24
423992,18
424564,31
425144,56
425712,63
426296,63
426864,40
427448,13
428020,25
428592,14
429176,19
429748,19
430328,20
430896,41
431480,24
432052,17
432624,16
433208,12
433776,16
434360,19
434932,30
435512,29
436084,34
436664,60
437232,59
437812,15
438392,43
438964,64
439544,74
440116,77
440696,84
441264,76
441844,61
442424,47
442992,34
443576,20
444148,12
444728,15
445300,15
445880,11
446452,17
447028,24
447608,42
448180,53
448760,55
449328,48
449912,54
450484,49
451060,24
451640,13
452208,31
452792,36
453364,34
453944,37
454516,27
455096,17
455668,22
456244,22
456824,11
457392,27
457976,31
458548,32
459128,52
459700,50
460276,42
460856,42
461424,37
462000,16
462568,14
463152,11
463724,10
464304,13
464872,22
465448,45
466032,48
466600,44
467184,40
467756,41
468336,26
468908,14
469484,15
470064,27
470636,42
471216,37
471788,27
472368,17
472936,17
473520,11
474092,12
474668,29
475248,58
475820,72
476400,67
476980,48
477560,14
478132,33
478708,31
479288,12
479860,10
480440,11
481012,28
481592,45
482164,63
482744,37
483316,27
483892,13
484472,18
485044,29
485624,20
486196,13
486776,15
487352,13
487932,20
488512,32
489084,35
489664,26
490232,15
490816,19
491396,29
491976,48
492560,58
493132,39
493712,21
494284,19
494864,20
495436,18
496016,25
496584,15
497164,21
497744,29
498316,34
498896,37
499468,28
500048,16
500620,14
501200,19
501776,20
502344,17
502928,14
503500,13
504080,15
504660,16
505240,13
505812,14
506388,17
506968,21
507540,36
508120,56
508700,66
509280,65
509860,51
510436,36
511016,22
511592,13
512172,15
512740,37
513320,46
513888,43
514464,24
515032,16
515612,14
516192,12
516760,24
517344,39
517912,34
518496,15
519064,12
519640,15
520224,11
520792,11
521376,10
521944,11
522528,20
523096,11
523680,20
524248,27
524824,30
525408,52
525976,79
526560,79
527132,55
527712,38
528292,35
528868,24
529448,11
530016,20
530600,35
531172,38
531752,32
532332,28
532912,40
533480,51
534056,61
534640,72
535212,55
535792,27
536364,13
536944,25
537516,44
538092,50
538672,41
539244,34
539824,31
540396,38
540976,52
541544,55
542128,53
542700,45
543276,25
543856,14
544428,17
545008,16
545576,11
546160,29
546732,27
547308,12
547888,10
548456,30
549040,32
549612,17
550192,10
550764,15
551344,42
551916,66
552492,58
553072,31
553644,16
554224,13
554796,19
555376,37
555956,55
556532,57
557112,45
557684,48
558264,52
558836,70
559416,66
559996,39
560580,22
561160,58
561732,26
562312,15
562884,20
563464,12
564032,48
564616,66
565188,52
565764,30
566344,24
566916,26
567496,18
568068,17
568648,13
569216,13
569800,13
570376,13
570948,10
571528,11
572100,13
572680,16
573260,14
573840,30
574420,54
574996,64
575576,63
576148,58
576728,32
577296,33
577880,25
578452,18
579028,12
579608,11
580176,10
580760,24
581332,42
581912,43
582484,30
583064,27
583636,27
584212,17
584792,19
585364,14
585944,12
586516,14
587096,13
587668,10
588244,10
588824,10
589392,14
589976,24
590548,50
591128,71
591700,71
592280,65
592860,51
593436,36
594016,18
594588,15
595168,13
595740,13
596320,15
596892,9
597416,9
597936,13
598508,18
599088,24
599660,28
600240,38
600812,49
601392,65
601964,47
602544,21
603116,15
603692,14
604272,15
604844,26
605424,21
605996,18
606576,27
607156,31
607732,42
608312,61
608888,68
609464,58
610036,37
610616,27
611196,16
611780,12
612360,21
612936,34
613512,45
614088,55
614664,42
615240,23
615824,10
616396,10
616972,10
617552,11
618124,17
618704,17
619276,15
619856,16
620436,15
621012,27
621592,35
622164,31
622744,23
623316,21
623896,28
624476,38
625056,55
625636,59
626212,27
626792,16
627368,12
627944,12
628516,19
629096,19
629668,35
630244,47
630824,40
631396,29
631976,31
632552,28
633128,19
633708,20
634288,19
634868,23
635444,31
636024,17
636596,17
637176,33
637756,40
638336,50
638916,52
639492,42
640076,26
640644,22
641224,45
641792,65
642376,69
642948,51
643528,31
644104,13
644672,27
645256,22
645824,16
646408,19
646976,21
647552,24
648124,23
648696,30
649280,35
649852,34
650432,35
651004,38
651584,33
652156,19
652736,14
653320,12
653892,10
654472,9
654992,10
655576,15
656152,16
656736,25
657304,48
657880,65
658464,56
659032,49
659616,56
660184,50
660768,22
661336,14
661920,13
662488,10
663064,13
663648,20
664220,15
664800,11
665368,11
665952,9
666468,12
667048,19
667616,35
668192,42
668776,36
669348,33
669928,22
670496,14
671080,15
671648,14
672228,13
672808,19
673376,26
673960,30
674532,38
675112,82
675684,99
676264,64
676832,29
677408,13
677992,14
678564,14
679144,35
679716,23
680296,53
680864,68
681440,30
682024,11
682592,11
683176,35
683748,57
684328,43
684900,24
685480,12
686048,14
686628,15
687208,26
687780,35
688360,41
688928,45
689512,29
690084,14
690660,19
691240,28
691808,35
692392,51
692964,49
693544,36
694116,16
694696,13
695268,21
695844,33
696424,29
696992,41
697576,36
698148,22
698728,22
699300,24
699876,23
700456,20
701028,11
701608,12
702176,15
702760,17
703332,12
703912,11
704492,19
705064,30
705648,28
706220,24
706800,26
707376,37
707960,47
708532,45
709108,35
709688,37
710260,37
710840,41
711412,29
711992,13
712572,29
713152,40
713736,41
714308,44
714888,33
715460,22
716040,20
716620,39
717204,58
717776,40
718356,14
718936,16
719508,18
720088,19
720656,27
721240,27
721812,26
722388,26
722968,21
723540,11
724120,18
724692,51
725272,72
725844,58
726424,37
726996,24
727572,13
728152,11
728724,16
729304,18
729876,28
730456,48
731028,44
731604,24
732184,13
732756,11
733336,19
733912,37
734488,41
735068,42
735648,27
736228,13
736804,15
737384,11
737956,11
738536,29
739108,53
739688,64
740268,54
740844,59
741424,61
741996,33
742576,35
743148,33
743728,52
744300,50
744880,39
745452,13
746028,15
746608,19
747180,25
747760,36
748340,52
748920,61
749492,53
750068,29
750648,15
751220,20
751800,25
752372,23
752952,16
753532,12
754112,25
754696,33
755272,33
755848,32
756420,31
757000,33
757580,43
758164,56
758740,61
759316,48
759896,28
760468,31
761048,20
761620,13
762200,16
762772,30
763348,36
763928,36
764500,31
765080,28
765652,25
766232,24
766812,37
767392,49
767972,46
768548,38
769128,33
769700,27
770280,15
770852,22
771432,41
772004,39
772580,27
773160,18
773732,36
774312,61
774888,62
775464,57
776036,78
776616,65
777188,22
777764,20
778344,23
778916,13
779496,11
780068,22
780648,32
781220,34
781796,32
782376,43
782948,37
783528,11
784100,12
784680,22
785252,31
785832,15
786412,20
786988,26
787568,28
788140,19
788720,30
789300,45
789880,38
790460,32
791036,34
791620,37
792192,44
792768,53
793344,37
793924,27
794500,13
795080,13
795664,19
796236,32
796816,33
797388,46
797968,48
798548,44
799128,38
799708,54
800284,39
800864,19
801432,24
802016,15
802584,13
803168,19
803740,30
804316,31
804896,29
805468,26
806048,34
806620,49
807200,54
807772,62
808352,56
808924,58
809500,54
810080,22
810652,18
811232,44
811804,35
812384,35
812964,32
813540,44
814120,32
814692,18
815272,10
815844,22
816424,22
817004,13
817584,12
818156,20
818732,30
819312,35
819884,14
820464,33
821032,46
821616,36
822184,40
822760,43
823344,33
823916,27
824496,36
825064,46
825648,49
826216,33
826792,16
827364,12
827936,14
828520,14
829092,24
829672,39
830240,38
830824,27
831392,27
831972,26
832552,24
833124,34
833704,38
834272,41
834856,14
835424,37
836008,34
836576,16
837152,22
837736,19
838308,10
838888,19
839464,27
840048,33
840616,39
841184,50
841768,43
842336,40
842920,38
843488,42
844072,35
844644,29
845224,27
845792,16
846368,26
846952,62
847524,62
848104,36
848672,37
849256,28
849828,29
850404,34
850984,36
851556,32
852136,26
852708,14
853288,20
853856,45
854440,57
855008,52
855588,36
856168,20
856740,11
857320,13
857892,27
858472,51
859044,59
859620,59
860200,42
860768,17
861352,16
861924,27
862504,31
863076,29
863656,31
864228,26
864800,22
865384,19
865952,33
866536,49
867108,68
867688,60
868268,34
868844,15
869424,27
869996,40
870576,49
871148,70
871728,72
872300,50
872880,37
873452,27
874028,28
874608,48
875180,49
875760,51
876340,43
876920,21
877492,14
878068,23
878648,27
879220,30
879800,23
880372,17
880952,29
881524,41
882104,49
882676,33
883252,19
883832,15
884404,16
884984,23
885556,13
886136,23
886708,26
887284,21
887864,11
888436,16
889016,16
889588,10
890168,22
890748,41
891328,67
891912,82
892484,78
893064,62
893636,44
894216,29
894788,22
895368,19
895948,10
896524,20
897104,35
897676,42
898256,45
898828,43
899408,44
899980,54
900560,47
901136,32
901708,37
902288,19
902860,22
903440,36
904012,24
904592,20
905164,27
905740,23
906320,10
906888,16
907472,13
908044,32
908624,49
909196,70
909776,68
910360,56
910932,31
911512,20
912084,48
912664,55
913236,50
913816,30
914396,19
914972,13
915552,12
916124,10
916704,15
917284,11
917864,13
918436,15
919012,21
919596,26
920168,14
920744,11
921316,10
921896,17
922472,32
923056,31
923628,53
924204,77
924784,90
925356,77
925936,71
926516,58
927096,46
927676,30
928252,12
928832,23
929404,26
929984,36
930556,51
931136,71
931716,64
932296,53
932880,55
933452,55
934032,48
934604,23
935184,12
935756,14
936336,13
936916,13
937492,41
938072,47
938644,59
939224,54
939804,22
940384,14
940964,32
941540,28
942120,47
942692,52
943272,37
943848,30
944424,25
945004,16
945584,10
946156,15
946732,13
947312,21
947884,38
948464,49
949036,35
949616,28
950196,39
950772,43
951352,37
951928,32
952508,23
953080,22
953656,30
954236,12
954816,32
955400,41
955972,53
956556,56
957128,55
957704,59
958284,49
958864,37
959444,15
960020,18
960600,11
961172,18
961752,25
962324,35
962904,31
963476,12
964052,22
964632,30
965204,29
965784,30
966356,42
966936,47
967516,43
968096,38
968676,30
969252,19
969832,17
970404,18
970984,31
971556,38
972136,43
972716,39
973292,39
973872,40
974444,51
975024,54
975596,56
976176,55
976756,36
977336,26
977916,14
978492,16
979072,35
979644,56
980224,75
980804,93
981384,89
981956,61
982532,18
983112,17
983684,21
984264,16
984836,12
985416,13
985988,19
986568,16
987144,19
987716,18
988296,11
988868,16
989448,28
990020,23
990600,41
991172,67
991748,61
992328,39
992900,22
993480,14
994052,14
994632,15
995204,13
995784,10
996360,17
996932,21
997512,18
998084,18
998664,30
999244,32
999824,28
1000396,19
1001016,15
1001644,14
1002264,22
1002892,34
1003516,49
1004140,59
1004768,21
1005392,39
1006020,76
1006648,86
1007272,76
1007900,67
1008524,49
1009152,51
1009784,59
1010400,43
1011028,21
1011652,12
1012276,23
1012908,28
1013528,32
1014156,33
1014780,32
1015408,40
1016036,51
1016660,53
1017288,45
1017920,50
1018536,35
1019164,21
1019788,49
1020420,40
1021048,36
1021672,23
1022300,11
1022928,13
1023552,12
1024180,51
1024796,79
1025424,82
1026044,77
1026668,43
1027296,18
1027916,13
1028544,24
1029172,24
1029788,13
1030416,13
1031040,23
1031668,27
1032296,21
1032912,14
1033540,17
1034164,15
1034788,17
1035416,16
1036032,15
1036660,17
1037284,11
1037904,22
1038536,23
1039152,15
1039780,11
1040412,10
1041028,19
1041656,30
1042280,47
1042908,60
1043536,67
1044152,58
1044780,29
1045404,19
1046024,29
1046656,48
1047272,47
1047900,30
1048524,27
1049144,30
1049776,16
1050392,11
1051020,23
1051640,48
1052264,31
1052892,13
1053512,12
1054144,11
1054772,10
1055392,12
1056020,19
1056640,41
1057268,57
1057900,69
1058520,57
1059148,62
1059772,52
1060396,33
1061024,17
1061640,17
1062268,34
1062892,17
1063516,20
1064144,23
1064760,23
1065392,28
1066020,32
1066640,39
1067268,48
1067888,55
1068516,51
1069144,28
1069768,19
1070396,14
1071020,28
1071644,35
1072272,38
1072888,26
1073516,27
1074140,41
1074764,37
1075396,28
1076012,29
1076644,20
1077272,12
1077888,15
1078516,11
1079140,14
1079768,20
1080396,36
1081016,41
1081644,29
1082264,10
1082888,10
1083516,10
1084136,21
1084764,48
1085388,58
1086012,27
1086640,17
1087264,28
1087892,26
1088524,24
1089140,25
1089772,18
1090392,20
1091020,37
1091652,46
1092272,63
1092900,48
1093524,25
1094148,27
1094780,12
1095400,12
1096028,13
1096652,10
1097272,23
1097904,28
1098520,28
1099148,25
1099772,51
1100400,69
1101028,49
1101652,32
1102280,13
1102912,38
1103528,44
1104156,22
1104780,21
1105408,32
1106040,30
1106656,26
1107284,25
1107908,33
1108528,30
1109160,30
1109776,32
1110404,21
1111028,20
1111652,29
1112284,21
1112908,10
1113536,26
1114168,37
1114784,32
1115412,31
1116036,26
1116668,38
1117296,34
1117920,29
1118548,38
1119176,35
1119800,14
1120428,36
1121048,51
1121676,39
1122300,32
1122928,32
1123556,40
1124180,34
1124808,33
1125440,34
1126056,41
1126684,36
1127308,21
1127936,13
1128564,15
1129184,22
1129812,37
1130436,64
1131056,81
1131688,72
1132304,40
1132932,19
1133556,20
1134180,17
1134808,13
1135432,12
1136060,12
1136692,15
1137312,19
1137940,11
1138564,11
1139192,14
1139824,23
1140440,58
1141068,78
1141692,96
1142316,91
1142948,68
1143568,40
1144196,27
1144820,13
1145444,13
1146076,25
1146700,29
1147328,28
1147960,44
1148576,50
1149204,45
1149828,45
1150456,30
1151088,27
1151704,24
1152336,13
1152956,12
1153580,14
1154208,10
1154824,19
1155456,11
1156076,15
1156700,36
1157332,67
1157952,77
1158584,61
1159212,36
1159832,28
1160460,14
1161084,33
1161712,41
1162340,16
1162960,13
1163588,19
1164212,21
1164832,10
1165464,19
1166080,30
1166708,39
1167332,47
1167956,41
1168584,48
1169208,51
1169836,27
1170464,14
1171088,15
1171716,30
1172340,45
1172972,54
1173600,37
1174216,33
1174848,41
1175472,29
1176096,35
1176724,32
1177344,43
1177972,35
1178596,19
1179220,10
1179848,24
1180472,41
1181100,52
1181732,52
1182352,24
1182984,12
1183608,11
1184236,12
1184864,19
1185488,16
1186116,16
1186740,13
1187364,15
1187992,36
1188616,20
1189244,17
1189868,31
1190492,34
1191120,47
1191736,59
1192368,53
1192996,60
1193616,41
1194244,30
1194868,20
1195496,12
1196128,14
1196744,28
1197376,46
1198000,38
1198624,32
1199252,18
1199872,12
1200504,20
1201124,33
1201748,61
1202380,60
1203000,17
1203628,22
1204260,42
1204880,44
1205508,28
1206132,20
1206760,17
1207392,38
1208008,54
1208640,56
1209260,38
1209884,19
1210516,11
1211136,13
1211764,14
1212388,13
1213012,45
1213644,36
1214264,22
1214892,11
1215524,10
1216144,11
1216772,20
1217396,23
1218028,16
1218656,15
1219272,18
1219900,14
1220524,32
1221148,42
1221780,24
1222400,19
1223028,56
1223652,56
1224276,61
1224908,72
1225528,69
1226160,53
1226788,17
1227408,24
1228036,37
1228664,21
1229292,19
1229920,24
1230544,44
1231172,29
1231796,17
1232420,22
1233048,13
1233664,14
1234292,13
1234916,25
1235540,18
1236168,18
1236784,27
1237412,22
1238044,12
1238664,21
1239292,21
1239916,35
1240548,50
1241176,51
1241792,49
1242424,54
1243044,38
1243668,23
1244296,15
1244920,12
1245548,18
1246172,24
1246796,25
1247424,30
1248044,30
1248672,27
1249300,19
1249920,25
1250548,31
1251172,36
1251800,37
1252432,27
1253048,22
1253680,16
1254304,15
1254928,16
1255556,18
1256176,28
1256804,37
1257428,72
1258052,88
1258680,76
1259304,56
1259932,19
1260564,20
1261184,18
1261812,13
1262436,15
1263068,10
1263696,24
1264316,37
1264944,37
1265568,34
1266192,30
1266824,31
1267444,31
1268072,38
1268696,43
1269320,37
1269952,25
1270568,13
1271196,41
1271828,38
1272448,29
1273076,24
1273700,32
1274332,46
1274964,52
1275584,68
1276212,77
1276840,61
1277464,52
1278092,28
1278712,13
1279344,24
1279968,35
1280592,41
1281220,38
1281836,33
1282468,47
1283096,64
1283712,57
1284340,49
1284964,41
1285592,21
1286220,42
1286840,59
1287468,65
1288092,63
1288712,43
1289340,19
1289960,11
1290588,11
1291208,25
1291832,37
1292460,39
1293080,29
1293708,26
1294332,22
1294952,30
1295584,25
1296204,15
1296836,14
1297464,36
1298080,52
1298708,61
1299332,57
1299960,41
1300588,31
1301208,31
1301836,27
1302460,31
1303084,27
1303712,15
1304328,11
1304960,15
1305580,19
1306204,14
1306836,42
1307460,97
1308088,129
1308768,121
1309436,102
1310112,76
1310744,55
1311356,25
1311988,14
1312612,31
1313240,48
1313868,51
1314484,42
1315116,62
1315736,61
1316360,43
1316988,42
1317608,40
1318236,39
1318860,38
1319480,47
1320108,43
1320724,16
1321356,58
1321976,83
1322600,77
1323228,68
1323852,64
1324480,39
1325108,58
1325728,90
1326356,91
1326980,64
1327608,38
1328236,26
1328856,17
1329484,17
1330104,38
1330728,58
1331360,62
1331972,71
1332604,71
1333224,78
1333844,56
1334476,13
1335092,17
1335724,21
1336352,25
1336968,19
1337596,19
1338220,21
1338848,19
1339476,20
1340096,21
1340724,25
1341348,39
1341972,52
1342600,48
1343216,37
1343848,32
1344472,19
1345092,15
1345720,27
1346344,30
1346972,18
1347600,45
1348216,87
1348844,101
1349520,44
1350140,11
1350772,17
1351392,17
1352020,14
1352644,23
1353264,25
1353892,19
1354512,19
1355140,26
1355764,31
1356388,13
1357016,11
1357636,39
1358268,70
1358896,76
1359512,58
1360140,37
1360764,33
1361392,26
1362020,18
1362636,12
1363268,45
1363888,73
1364512,67
1365140,52
1365760,46
1366388,40
1367012,51
1367636,50
1368264,57
1368880,33
1369512,15
1370140,34
1370760,30
1371388,34
1372012,44
1372640,61
1373268,70
1373888,52
1374516,53
1375140,53
1375764,55
1376392,38
1377016,13
1377644,14
1378268,15
1378888,12
1379520,16
1380136,21
1380764,32
1381396,34
1382016,25
1382644,21
1383268,19
1383896,20
1384524,16
1385144,14
1385772,12
1386396,13
1387016,11
1387648,19
1388264,20
1388892,17
1389516,29
1390140,29
1390768,39
1391384,83
1392016,88
1392640,80
1393260,53
1393892,26
1394512,15
1395144,50
1395772,55
1396392,36
1397020,29
1397644,23
1398272,36
1398900,30
1399520,13
1400148,19
1400772,33
1401396,55
1402024,41
1402648,21
1403276,15
1403900,28
1404528,49
1405156,54
1405780,61
1406412,42
1407040,42
1407656,49
1408288,37
1408908,34
1409536,35
1410168,25
1410784,24
1411412,31
1412036,17
1412660,10
1413288,20
1413904,24
1414536,38
1415156,42
1415780,50
1416412,78
1417032,92
1417664,44
1418292,22
1418912,13
1419540,15
1420164,13
1420792,10
1421424,39
1422040,67
1422668,69
1423292,58
1423916,31
1424548,32
1425168,50
1425796,58
1426420,55
1427044,50
1427672,35
1428296,19
1428928,14
1429556,17
1430176,24
1430804,30
1431428,33
1432060,43
1432692,54
1433312,55
1433944,46
1434564,40
1435188,27
1435816,16
1436436,13
1437064,15
1437688,21
1438308,43
1438940,53
1439564,44
1440192,42
1440820,46
1441436,60
1442068,72
1442688,65
1443316,22
1443948,12
1444568,16
1445196,26
1445816,13
1446440,28
1447068,72
1447688,78
1448316,46
1448940,14
1449560,26
1450192,11
1450808,11
1451436,19
1452068,13
1452688,19
1453316,39
1453940,16
1454572,24
1455200,37
1455816,47
1456444,36
1457068,15
1457692,19
1458320,50
1458944,65
1459572,63
1460196,47
1460820,33
1461448,14
1462064,13
1462692,20
1463324,26
1463944,41
1464572,54
1465196,45
1465828,36
1466456,27
1467072,40
1467704,47
1468328,62
1468952,42
1469580,18
1470200,26
1470828,53
1471452,50
1472080,36
1472708,28
1473328,28
1473956,29
1474588,48
1475204,52
1475836,59
1476460,54
1477088,32
1477716,14
1478336,15
1478964,31
1479588,43
1480212,35
1480840,22
1481464,20
1482092,44
1482716,94
1483340,95
1483968,36
1484592,19
1485220,25
1485848,14
1486472,12
1487100,13
1487724,11
1488352,35
1488980,81
1489600,101
1490280,75
1490896,59
1491520,61
1492148,70
1492768,32
1493396,12
1494028,12
1494648,17
1495276,13
1495900,51
1496532,55
1497160,26
1497776,15
1498408,29
1499028,12
1499652,13
1500284,16
1500904,21
1501532,30
1502156,33
1502780,24
1503412,16
1504032,13
1504660,26
1505292,22
1505912,18
1506540,20
1507164,25
1507796,30
1508428,34
1509048,43
1509676,32
1510304,16
1510928,17
1511556,14
1512176,18
1512804,40
1513428,38
1514052,20
1514684,28
1515304,15
1515936,31
1516564,54
1517184,41
1517812,16
1518436,17
1519068,27
1519700,40
1520320,48
1520948,23
1521572,30
1522196,39
1522828,22
1523448,11
1524076,22
1524700,46
1525324,50
1525956,52
1526576,53
1527204,43
1527836,28
1528456,21
1529084,11
1529708,33
1530340,49
1530968,50
1531592,59
1532224,51
1532848,39
1533472,42
1534100,46
1534720,42
1535348,32
1535976,29
1536600,25
1537232,22
1537848,57
1538476,58
1539104,36
1539724,24
1540352,15
1540976,29
1541604,65
1542232,101
1542908,100
1543584,62
1544208,24
1544824,18
1545452,26
1546076,13
1546708,22
1547336,56
1547956,66
1548584,45
1549208,33
1549832,37
1550460,60
1551080,59
1551708,43
1552332,14
1552956,27
1553588,24
1554208,32
1554836,43
1555468,30
1556088,11
1556716,10
1557340,34
1557972,51
1558600,58
1559216,52
1559848,41
1560472,31
1561096,20
1561724,14
1562344,36
1562972,33
1563596,31
1564220,19
1564848,19
1565464,23
1566092,23
1566716,30
1567344,23
1567972,21
1568600,23
1569228,14
1569856,16
1570480,21
1571108,27
1571732,31
1572360,28
1572988,16
1573608,12
1574236,24
1574860,16
1575484,13
1576116,41
1576736,56
1577364,35
1577996,18
1578616,14
1579244,13
1579868,20
1580500,24
1581128,21
1581752,11
1582384,24
1583008,40
1583632,56
1584260,67
1584880,26
1585508,28
1586132,26
1586760,24
1587388,36
1588008,48
1588636,33
1589268,14
1589888,23
1590516,40
1591140,15
1591772,15
1592404,47
1593024,53
1593652,42
1594276,29
1594904,17
1595532,16
1596152,12
1596784,14
1597408,25
1598032,26
1598664,23
1599280,25
1599912,42
1600540,45
1601156,44
1601788,45
1602408,35
1603036,17
1603664,21
1604280,33
1604912,33
1605532,28
1606156,18
1606788,22
1607408,31
1608036,50
1608660,48
1609280,43
1609908,38
1610528,35
1611156,19
1611788,14
1612408,13
1613036,15
1613660,36
1614288,52
1614920,59
1615536,38
1616164,16
1616788,19
1617412,21
1618044,20
1618664,13
1619292,16
1619912,13
1620536,15
1621168,18
1621784,13
1622412,20
1623036,12
1623664,12
1624292,11
1624916,25
1625548,34
1626176,66
1626800,64
1627428,41
1628052,24
1628676,24
1629308,10
1629928,16
1630556,27
1631180,41
1631804,41
1632436,43
1633056,31
1633684,21
1634316,14
1634936,13
1635564,15
1636188,20
1636820,19
1637448,18
1638072,21
1638704,20
1639324,17
1639944,14
1640572,18
1641188,26
1641816,33
1642440,41
1643060,31
1643688,34
1644304,50
1644932,40
1645552,24
1646176,15
1646804,13
1647424,47
1648056,72
1648684,81
1649300,58
1649928,44
1650552,43
1651180,60
1651808,48
1652424,16
1653052,13
1653676,27
1654300,36
1654928,49
1655544,55
1656176,40
1656796,32
1657420,11
1658048,26
1658672,59
1659300,69
1659928,65
1660544,51
1661172,35
1661796,15
1662424,16
1663052,32
1663672,33
1664300,31
1664924,20
1665544,13
1666172,12
1666788,11
1667416,16
1668040,19
1668660,33
1669292,27
1669908,21
1670536,25
1671160,33
1671784,24
1672412,26
1673032,44
1673664,40
1674292,50
1674912,58
1675540,56
1676164,47
1676792,26
1677420,21
1678040,13
1678668,13
1679292,10
1679916,15
1680544,33
1681160,48
1681788,54
1682408,39
1683032,18
1683660,18
1684280,17
1684908,26
1685536,33
1686152,29
1686780,20
1687404,13
1688032,26
1688660,40
1689280,53
1689908,33
1690528,24
1691152,48
1691780,48
1692400,41
1693028,34
1693648,31
1694272,33
1694900,29
1695520,17
1696148,11
1696776,12
1697392,11
1698020,18
1698644,38
1699272,34
1699900,24
1700520,17
1701148,22
1701768,35
1702400,31
1703024,20
1703648,14
1704276,15
1704900,24
1705520,25
1706152,22
1706768,21
1707396,21
1708020,36
1708644,46
1709272,48
1709896,41
1710524,27
1711152,16
1711776,13
1712404,12
1713028,24
1713656,31
1714288,35
1714904,22
1715532,28
1716156,31
1716780,37
1717408,33
1718032,43
1718660,25
1719284,13
1719908,16
1720540,19
1721160,15
1721792,17
1722420,14
1723040,15
1723668,17
1724292,22
1724920,25
1725548,38
1726168,39
1726796,46
1727420,69
1728044,63
1728672,52
1729288,32
1729916,14
1730540,19
1731164,29
1731792,30
1732408,33
1733040,35
1733668,42
1734288,43
1734916,38
1735540,45
1736172,44
1736800,16
1737416,23
1738044,45
1738668,51
1739292,51
1739924,43
1740544,44
1741172,60
1741796,52
1742420,39
1743048,27
1743664,21
1744292,18
1744920,14
1745544,13
1746172,11
1746796,30
1747424,56
1748052,62
1748672,68
1749300,60
1749924,29
1750548,35
1751176,73
1751796,60
1752424,14
1753048,19
1753672,34
1754300,40
1754920,71
1755548,61
1756180,50
1756800,25
1757428,34
1758052,59
1758684,70
1759312,59
1759936,41
1760568,24
1761188,14
1761812,14
1762444,18
1763064,38
1763692,41
1764316,46
1764936,51
1765568,58
1766184,57
1766812,57
1767440,34
1768064,13
1768692,22
1769312,28
1769944,25
1770572,14
1771192,17
1771820,21
1772444,14
1773068,10
1773696,12
1774320,29
1774948,32
1775572,40
1776196,60
1776828,42
1777448,44
1778076,54
1778704,52
1779328,19
1779956,39
1780580,55
1781212,40
1781840,31
1782456,18
1783088,20
1783708,36
1784332,40
1784964,30
1785584,12
1786212,14
1786836,15
1787464,17
1788092,18
1788712,17
1789344,26
1789972,26
1790592,35
1791224,37
1791848,42
1792480,66
1793108,66
1793728,46
1794356,25
1794980,13
1795600,16
1796232,31
1796848,39
1797476,49
1798100,46
1798724,44
1799352,65
1799972,67
1800600,36
1801228,10
1801848,17
1802476,19
1803100,25
1803728,35
1804356,29
1804976,13
1805604,11
1806224,13
1806852,26
1807484,44
1808104,57
1808732,67
1809352,63
1809976,47
1810604,27
1811224,13
1811852,18
1812476,25
1813100,15
1813728,21
1814352,32
1814980,36
1815612,46
1816232,44
1816860,29
1817484,18
1818116,13
1818744,12
1819360,14
1819992,13
1820616,13
1821240,11
1821868,16
1822488,31
1823116,23
1823740,24
1824368,31
1824996,52
1825620,74
1826248,74
1826876,44
1827496,22
1828124,15
1828748,13
1829380,24
1830008,48
1830624,52
1831256,49
1831880,43
1832504,36
1833132,36
1833752,33
1834380,15
1835004,12
1835632,15
1836260,17
1836884,23
1837516,23
1838144,22
1838768,19
1839396,21
1840020,16
1840644,21
1841276,43
1841896,55
1842524,48
1843152,26
1843776,12
1844404,16
1845024,15
1845652,13
1846280,11
1846896,22
1847528,30
1848148,40
1848780,41
1849408,20
1850024,10
1850656,22
1851276,44
1851908,65
1852536,38
1853156,13
1853784,14
1854408,11
1855028,15
1855660,64
1856280,76
1856908,84
1857532,80
1858152,68
1858784,57
1859408,55
1860036,46
1860664,43
1861280,39
1861912,21
1862536,12
1863164,23
1863792,28
1864416,45
1865044,64
1865668,76
1866292,39
1866920,37
1867536,33
1868164,30
1868788,21
1869412,14
1870044,21
1870668,25
1871296,25
1871924,10
1872544,10
1873172,15
1873796,25
1874428,51
1875056,52
1875676,47
1876304,49
1876928,35
1877552,21
1878180,18
1878800,15
1879428,13
1880052,24
1880676,47
1881308,61
1881932,55
1882560,46
1883192,49
1883812,44
1884440,33
1885064,24
1885692,12
1886324,22
1886944,25
1887572,26
1888196,13
1888820,13
1889448,10
1890072,30
1890700,42
1891324,52
1891952,64
1892580,85
1893204,79
1893836,51
1894468,33
1895088,15
1895716,14
1896340,20
1896964,34
1897596,47
1898216,50
1898844,47
1899468,43
1900092,40
1900724,38
1901344,26
1901972,14
1902604,13
1903224,24
1903856,19
1904480,16
1905108,41
1905740,38
1906360,29
1906988,32
1907616,42
1908240,64
1908868,67
1909488,60
1910116,55
1910744,46
1911368,31
1911996,16
1912616,12
1913248,27
1913880,39
1914496,48
1915128,47
1915752,45
1916384,37
1917012,38
1917632,26
1918264,15
1918888,12
1919512,14
1920144,17
1920760,22
1921388,19
1922012,12
1922636,11
1923264,12
1923880,14
1924508,36
1925140,51
1925760,57
1926388,47
1927012,29
1927640,13
1928268,13
1928888,14
1929516,11
1930140,14
1930764,13
1931392,29
1932016,55
1932644,67
1933268,66
1933892,33
1934524,20
1935144,26
1935772,16
1936404,17
1937024,31
1937652,36
1938276,30
1938904,22
1939536,30
1940152,35
1940780,39
1941404,51
1942028,53
1942660,47
1943280,24
1943908,25
1944536,35
1945160,25
1945788,11
1946408,27
1947036,35
1947664,40
1948288,44
1948916,43
1949540,37
1950168,37
1950800,31
1951416,15
1952048,12
1952668,19
1953292,26
1953920,22
1954544,21
1955172,22
1955800,19
1956424,17
1957052,22
1957672,35
1958300,45
1958932,48
1959552,45
1960184,41
1960804,25
1961436,13
1962064,12
1962688,15
1963316,25
1963944,41
1964568,66
1965196,59
1965816,40
1966448,18
1967068,27
1967692,19
1968320,16
1968944,14
1969572,14
1970200,18
1970820,31
1971448,26
1972072,27
1972700,22
1973328,20
1973944,33
1974576,56
1975200,73
1975820,81
1976452,67
1977072,40
1977700,22
1978324,13
1978948,21
1979576,29
1980192,29
1980824,36
1981452,38
1982072,36
1982700,27
1983324,37
1983956,49
1984588,50
1985208,51
1985836,32
1986460,19
1987084,15
1987712,27
1988336,53
1988964,43
1989588,27
1990212,30
1990844,36
1991464,62
1992092,57
1992724,32
1993344,17
1993972,14
1994596,13
1995228,13
1995856,10
1996480,17
1997108,41
1997732,47
1998356,25
1998988,28
1999608,31
2000236,37
2000860,32
2001484,21
2002112,21
2002728,14
2003360,18
2003988,26
2004608,31
2005236,33
2005860,37
2006492,35
2007120,46
2007736,64
2008364,85
2008988,95
2009612,68
2010240,27
2010856,19
2011484,14
2012108,12
2012732,13
2013364,29
2013984,34
2014612,38
2015244,46
2015864,48
2016492,43
2017116,37
2017748,35
2018376,35
2018996,20
2019624,13
2020248,14
2020872,18
2021500,13
2022120,23
2022748,23
2023372,11
2023996,36
2024628,53
2025248,71
2025876,100
2026560,83
2027176,49
2027804,13
2028428,26
2029060,14
2029688,10
2030312,35
2030944,45
2031568,37
2032192,29
2032820,24
2033440,28
2034068,23
2034700,14
2035320,28
2035948,25
2036572,33
2037204,25
2037832,16
2038456,30
2039084,40
2039708,36
2040336,22
2040964,24
2041584,53
2042216,83
2042840,83
2043464,61
2044096,40
2044712,31
2045344,15
2045972,16
2046592,43
2047224,68
2047848,58
2048480,41
2049104,20
2049724,15
2050352,23
2050976,30
2051596,28
2052224,18
2052844,14
2053472,13
2054096,18
2054716,26
2055348,27
2055968,21
2056596,17
2057224,21
2057840,40
2058468,54
2059092,59
2059720,59
2060348,40
2060968,26
2061596,12
2062216,20
2062848,31
2063476,40
2064096,57
2064724,51
2065344,33
2065968,24
2066596,19
2067216,18
2067844,21
2068464,25
2069088,19
2069716,15
2070340,12
2070968,31
2071596,30
2072216,19
2072844,19
2073468,32
2074096,27
2074724,47
2075344,53
2075972,79
2076596,88
2077220,75
2077848,47
2078464,16
2079096,25
2079720,42
2080344,52
2080972,53
2081588,40
2082220,21
2082848,21
2083464,35
2084092,56
2084716,59
2085344,53
2085972,40
2086592,28
2087220,14
2087844,33
2088464,34
2089092,44
2089708,57
2090340,51
2090960,45
2091584,54
2092212,57
2092832,64
2093460,49
2094088,31
2094704,24
2095332,20
2095956,12
2096588,15
2097216,33
2097832,41
2098464,47
2099088,50
2099716,41
2100344,35
2100960,28
2101588,29
2102212,21
2102836,13
2103468,12
2104088,13
2104716,13
2105340,17
2105968,23
2106596,31
2107220,30
2107848,41
2108476,50
2109096,56
2109724,49
2110348,30
2110980,33
2111608,26
2112228,15
2112856,11
2113476,23
2114100,37
2114732,54
2115352,60
2115980,62
2116604,48
2117232,29
2117860,14
2118484,13
2119112,13
2119744,22
2120360,41
2120988,41
2121612,22
2122240,11
2122868,22
2123488,30
2124116,41
2124740,53
2125364,49
2125996,54
2126616,33
2127244,13
2127868,17
2128496,13
2129124,13
2129748,25
2130380,22
2131008,11
2131624,12
2132252,32
2132876,21
2133508,13
2134136,17
2134752,46
2135384,37
2136008,14
2136628,15
2137260,17
2137880,15
2138508,12
2139132,17
2139760,12
2140388,16
2141012,33
2141644,36
2142272,40
2142888,50
2143520,35
2144144,35
2144772,36
2145400,16
2146016,13
2146648,12
2147272,11
2147892,16
2148524,22
2149144,26
2149772,27
2150396,41
2151024,45
2151652,50
2152276,37
2152904,16
2153536,17
2154152,23
2154780,35
2155404,43
2156036,27
2156664,14
2157284,16
2157912,35
2158536,51
2159160,72
2159788,64
2160408,45
2161036,39
2161660,24
2162288,13
2162916,10
2163540,19
2164168,27
2164796,36
2165416,39
2166044,43
2166668,47
2167300,46
2167928,41
2168544,42
2169176,34
2169800,19
2170424,13
2171052,17
2171672,15
2172300,18
2172924,20
2173552,24
2174180,31
2174804,57
2175436,73
2176068,72
2176684,53
2177316,33
2177936,15
2178564,12
2179192,11
2179812,20
2180440,33
2181064,37
2181688,47
2182316,34
2182936,25
2183564,21
2184188,26
2184816,32
2185444,22
2186068,13
2186696,21
2187324,21
2187944,30
2188572,33
2189196,29
2189828,16
2190456,11
2191080,34
2191712,57
2192336,51
2192956,48
2193588,24
2194208,14
2194836,15
2195468,12
2196088,14
2196716,24
2197340,39
2197972,67
2198600,90
2199224,60
2199852,27
2200476,14
2201100,12
2201732,19
2202352,29
2202980,27
2203604,20
2204228,17
2204856,26
2205472,34
2206104,36
2206732,13
2207352,11
2207984,41
2208608,56
2209236,63
2209868,53
2210488,47
2211116,36
2211744,23
2212368,13
2212996,21
2213616,41
2214244,53
2214868,36
2215492,16
2216124,13
2216744,32
2217372,51
2218004,48
2218624,27
2219252,14
2219876,21
2220508,25
2221136,19
2221756,12
2222384,12
2223008,18
2223636,30
2224264,40
2224884,47
2225512,59
2226136,57
2226760,44
2227388,31
2228008,28
2228636,21
2229268,20
2229888,43
2230516,49
2231140,55
2231772,55
2232404,52
2233024,37
2233652,26
2234276,21
2234900,14
2235532,16
2236152,20
2236784,17
2237408,14
2238032,12
2238664,18
2239280,36
2239912,37
2240544,25
2241160,34
2241788,36
2242412,45
2243040,58
2243672,45
2244288,25
2244916,20
2245540,26
2246164,15
2246796,20
2247416,52
2248044,73
2248668,76
2249292,57
2249924,43
2250544,40
2251172,26
2251804,19
2252424,15
2253056,13
2253676,19
2254304,28
2254936,28
2255552,19
2256180,12
2256804,33
2257428,53
2258056,80
2258672,82
2259300,84
2259924,68
2260548,43
2261176,23
2261792,16
2262424,14
2263052,22
2263672,32
2264300,51
2264924,60
2265556,72
2266184,82
2266808,67
2267436,51
2268060,53
2268684,48
2269312,17
2269936,37
2270564,55
2271192,50
2271816,44
2272448,28
2273064,25
2273692,25
2274324,38
2274944,57
2275572,73
2276196,73
2276828,55
2277456,39
2278080,26
2278708,13
2279332,11
2279956,32
2280588,58
2281208,83
2281836,63
2282460,29
2283084,13
2283716,12
2284336,19
2284964,29
2285596,28
2286216,15
2286844,13
2287468,15
2288100,24
2288728,28
2289352,27
2289980,27
2290604,31
2291228,43
2291860,38
2292480,22
2293108,33
2293736,30
2294360,30
2294988,37
2295608,30
2296236,11
2296868,22
2297488,41
2298116,65
2298740,81
2299372,58
2300000,37
2300620,39
2301248,42
2301872,48
2302496,21
2303128,23
2303748,40
2304380,53
2305000,45
2305624,42
2306252,36
2306872,35
2307500,52
2308128,54
2308752,56
2309380,59
2310004,58
2310632,42
2311264,33
2311880,14
2312508,15
2313132,22
2313756,30
2314388,38
2315008,39
2315636,39
2316260,40
2316884,40
2317512,38
2318136,29
2318764,25
2319396,16
2320016,13
2320644,13
2321268,20
2321896,25
2322524,24
2323144,24
2323772,23
2324396,33
2325024,47
2325652,54
2326272,57
2326900,50
2327524,41
2328148,28
2328780,14
2329400,18
2330028,38
2330660,62
2331280,85
2331908,98
2332532,99
2333164,65
2333796,12
2334416,34
2335044,33
2335668,30
2336296,26
2336924,18
2337544,27
2338172,41
2338796,32
2339420,21
2340052,17
2340676,18
2341304,34
2341932,56
2342552,84
2343180,78
2343804,47
2344436,29
2345068,20
2345688,14
2346316,36
2346940,56
2347564,69
2348196,58
2348816,52
2349444,40
2350068,38
2350692,32
2351324,21
2351948,21
2352580,13
2353212,21
2353832,20
2354464,21
2355088,26
2355720,29
2356348,19
2356968,11
2357596,22
2358220,55
2358848,76
2359476,84
2360096,62
2360724,23
2361356,12
2361976,15
2362604,14
2363228,26
2363860,37
2364488,38
2365112,30
2365744,28
2366368,31
2366992,42
2367624,45
2368240,22
2368868,15
2369492,14
2370116,16
2370744,15
2371368,15
2371996,23
2372628,24
2373248,17
2373876,19
2374504,56
2375132,69
2375764,66
2376384,59
2377012,32
2377636,15
2378260,14
2378892,14
2379512,11
2380144,23
2380768,47
2381392,60
2382020,54
2382640,36
2383268,25
2383900,26
2384520,24
2385148,15
2385772,18
2386404,30
2387032,27
2387656,26
2388284,25
2388908,30
2389536,19
2390164,15
2390784,23
2391416,31
2392040,39
2392664,58
2393292,56
2393912,42
2394544,31
2395172,18
2395792,14
2396424,17
2397048,31
2397680,42
2398308,43
2398928,38
2399560,27
2400184,33
2400808,39
2401436,40
2402056,33
2402684,15
2403308,16
2403932,16
2404560,20
2405184,27
2405812,27
2406444,19
2407064,18
2407692,29
2408316,46
2408944,57
2409572,64
2410192,38
2410820,20
2411444,13
2412068,14
2412700,18
2413320,26
2413948,30
2414576,26
2415200,14
2415828,11
2416456,16
2417084,28
2417716,48
2418336,50
2418964,28
2419588,14
2420220,16
2420848,18
2421472,14
2422100,15
2422724,19
2423348,24
2423980,44
2424600,62
2425228,68
2425856,66
2426480,61
2427108,29
2427736,14
2428364,14
2428996,16
2429616,24
2430244,27
2430872,35
2431496,37
2432128,32
2432744,28
2433372,31
2433996,46
2434620,55
2435252,54
2435872,39
2436500,22
2437132,13
2437752,20
2438380,17
2439008,27
2439636,38
2440268,32
2440888,35
2441516,66
2442140,81
2442768,75
2443396,44
2444016,19
2444644,20
2445272,28
2445896,26
2446524,10
2447144,19
2447776,39
2448404,42
2449024,34
2449652,26
2450276,29
2450908,37
2451540,34
2452160,31
2452788,23
2453416,14
2454040,15
2454672,21
2455288,26
2455920,31
2456544,24
2457168,16
2457800,28
2458416,51
2459044,44
2459672,46
2460288,32
2460920,46
2461540,51
2462172,37
2462800,17
2463416,11
2464044,30
2464668,46
2465288,48
2465920,44
2466536,41
2467164,44
2467788,40
2468412,41
2469044,54
2469664,41
2470292,17
2470924,25
2471544,37
2472172,44
2472796,46
2473428,36
2474056,37
2474680,50
2475308,69
2475932,69
2476556,41
2477188,28
2477808,22
2478436,18
2479060,13
2479684,15
2480316,24
2480936,30
2481564,36
2482196,44
2482816,37
2483444,36
2484068,30
2484696,25
2485328,30
2485944,26
2486572,18
2487196,16
2487820,18
2488452,32
2489072,40
2489700,43
2490324,41
2490948,33
2491576,51
2492200,64
2492828,59
2493460,42
2494080,32
2494708,18
2495336,14
2495964,13
2496596,32
2497216,52
2497844,56
2498468,53
2499092,46
2499724,36
2500344,38
2500972,31
2501596,23
2502220,17
2502852,14
2503472,16
2504100,21
2504732,20
2505352,15
2505984,20
2506608,24
2507236,29
2507868,58
2508488,69
2509116,56
2509740,43
2510364,33
2510996,32
2511616,24
2512244,14
2512868,14
2513492,29
2514124,30
2514744,32
2515376,35
2516004,30
2516624,28
2517252,27
2517880,33
2518508,37
2519140,31
2519760,17
2520388,17
2521012,22
2521636,21
2522268,22
2522888,30
2523516,39
2524144,39
2524768,53
2525396,62
2526024,54
2526652,53
2527284,40
2527904,30
2528536,17
2529160,19
2529792,31
2530420,34
2531040,49
2531672,49
2532296,47
2532920,40
2533552,50
2534168,53
2534800,40
2535432,28
2536048,14
2536680,14
2537304,15
2537936,13
2538564,16
2539184,35
2539816,66
2540440,80
2541064,79
2541696,78
2542312,67
2542944,65
2543568,46
2544192,28
2544820,16
2545440,14
2546068,17
2546700,38
2547320,34
2547948,35
2548576,36
2549204,47
2549836,56
2550456,57
2551084,47
2551712,26
2552336,15
2552964,13
2553584,15
2554216,21
2554840,28
2555464,36
2556096,35
2556712,24
2557348,18
2557980,33
2558600,43
2559232,62
2559856,71
2560492,41
2561116,30
2561736,24
2562364,12
2562984,32
2563608,59
2564236,58
2564856,55
2565484,63
2566104,68
2566728,54
2567356,30
2567976,13
2568604,12
2569232,18
2569852,22
2570480,15
2571100,14
2571732,24
2572360,34
2572984,47
2573612,45
2574236,43
2574856,56
2575488,70
2576104,78
2576732,54
2577356,29
2577980,17
2578608,12
2579224,17
2579856,35
2580480,46
2581100,52
2581732,46
2582356,45
2582984,35
2583612,34
2584232,31
2584860,28
2585484,28
2586112,37
2586744,43
2587360,37
2587988,11
2588612,44
2589236,48
2589864,58
2590488,72
2591116,78
2591740,76
2592368,67
2592996,59
2593620,32
2594248,15
2594876,13
2595496,17
2596124,18
2596748,20
2597380,26
2598008,30
2598628,34
2599256,39
2599880,33
2600504,40
2601132,41
2601752,36
2602380,23
2603004,13
2603632,24
2604260,38
2604884,56
2605512,39
2606144,12
2606760,16
2607392,17
2608016,40
2608644,60
2609272,70
2609896,60
2610528,35
2611152,20
2611776,13
2612404,13
2613024,16
2613652,26
2614284,40
2614904,41
2615532,33
2616160,35
2616788,29
2617416,28
2618040,34
2618668,35
2619292,21
2619916,15
2620548,16
2621168,16
2621796,11
2622420,15
2623044,29
2623672,28
2624288,24
2624916,41
2625544,54
2626168,56
2626796,39
2627416,20
2628048,16
2628676,17
2629296,11
2629924,10
2630544,12
2631172,17
2631804,22
2632424,33
2633052,28
2633676,23
2634296,23
2634924,26
2635544,32
2636172,31
2636796,21
2637424,15
2638052,13
2638676,31
2639304,39
2639936,43
2640552,45
2641180,45
2641804,52
2642436,47
2643064,47
2643680,39
2644308,28
2644932,25
2645552,20
2646184,11
2646800,36
2647428,52
2648052,49
2648672,52
2649304,45
2649928,40
2650556,41
2651184,27
2651800,14
2652432,17
2653056,24
2653684,21
2654312,18
2654936,23
2655564,24
2656188,23
2656812,21
2657440,25
2658056,43
2658684,61
2659308,63
2659932,46
2660560,32
2661180,15
2661808,13
2662436,14
2663052,19
2663680,37
2664304,47
2664932,42
2665560,36
2666184,24
2666812,21
2667436,20
2668056,27
2668688,24
2669304,14
2669932,17
2670556,16
2671180,16
2671808,10
2672424,15
2673056,17
2673684,14
2674304,23
2674932,56
2675556,87
2676184,88
2676812,55
2677432,33
2678060,27
2678684,17
2679308,15
2679936,22
2680552,31
2681184,45
2681808,45
2682428,41
2683060,39
2683680,43
2684308,42
2684936,42
2685556,35
2686184,29
2686808,17
2687436,21
2688068,27
2688684,47
2689312,59
2689936,44
2690564,50
2691192,64
2691808,72
2692436,71
2693060,56
2693684,28
2694312,22
2694932,13
2695560,15
2696184,27
2696808,43
2697436,47
2698060,44
2698688,44
2699316,40
2699936,38
2700564,41
2701188,30
2701820,33
2702448,27
2703064,28
2703696,24
2704320,13
2704940,36
2705572,62
2706192,61
2706820,57
2707444,55
2708068,61
2708696,64
2709320,62
2709948,57
2710576,39
2711200,29
2711828,15
2712452,14
2713084,27
2713712,43
2714336,52
2714964,53
2715588,43
2716212,38
2716840,40
2717456,37
2718084,27
2718708,15
2719332,15
2719964,14
2720588,13
2721216,11
2721844,16
2722464,13
2723092,13
2723716,20
2724344,29
2724976,48
2725592,60
2726220,59
2726844,50
2727468,34
2728096,25
2728712,17
2729340,16
2729964,17
2730588,42
2731216,41
2731832,39
2732464,41
2733092,28
2733712,32
2734340,32
2734964,30
2735596,31
2736224,13
2736848,17
2737476,19
2738100,30
2738724,23
2739352,10
2739976,24
2740604,15
2741228,41
2741852,73
2742480,81
2743104,69
2743732,45
2744364,27
2744984,14
2745612,13
2746232,11
2746864,19
2747492,16
2748112,17
2748740,26
2749368,27
2749992,22
2750620,19
2751240,31
2751868,29
2752496,17
2753116,16
2753748,21
2754372,22
2755000,17
2755632,17
2756248,21
2756880,20
2757504,21
2758132,38
2758764,49
2759384,58
2760012,45
2760636,31
2761260,23
2761892,16
2762512,13
2763140,17
2763768,29
2764392,42
2765020,45
2765644,41
2766272,34
2766904,35
2767520,35
2768148,32
2768772,40
2769400,24
2770032,16
2770648,14
2771276,19
2771900,27
2772524,27
2773152,21
2773776,25
2774404,32
2775028,39
2775652,55
2776284,63
2776908,60
2777540,45
2778168,28
2778788,19
2779416,10
2780040,27
2780672,38
2781300,43
2781920,43
2782548,35
2783176,28
2783800,29
2784432,28
2785048,26
2785676,27
2786300,24
2786928,20
2787556,13
2788180,25
2788808,37
2789440,33
2790056,31
2790688,34
2791308,41
2791940,43
2792568,53
2793192,67
2793820,43
2794444,17
2795068,13
2795700,12
2796320,14
2796948,20
2797580,24
2798200,25
2798828,27
2799452,24
2800084,39
2800712,50
2801328,39
2801960,27
2802584,16
2803204,14
2803836,12
2804456,23
2805084,25
2805708,25
2806332,24
2806964,22
2807584,26
2808212,37
2808844,44
2809464,54
2810092,45
2810716,30
2811348,13
2811976,14
2812600,14
2813228,15
2813856,11
2814480,21
2815108,26
2815728,29
2816360,35
2816980,54
2817604,59
2818232,36
2818848,14
2819480,14
2820108,18
2820728,15
2821356,19
2821980,24
2822608,26
2823240,31
2823856,37
2824484,47
2825108,68
2825736,75
2826364,60
2826984,39
2827612,23
2828236,19
2828856,14
2829488,13
2830104,35
2830732,53
2831356,64
2831984,60
2832616,48
2833236,45
2833868,40
2834496,24
2835120,17
2835748,17
2836376,13
2837000,15
2837628,16
2838248,20
2838876,19
2839500,22
2840128,18
2840756,10
2841376,24
2842004,54
2842636,78
2843256,79
2843884,51
2844508,40
2845140,28
2845768,16
2846388,11
2847016,23
2847640,39
2848264,64
2848896,54
2849512,33
2850140,33
2850764,20
2851388,13
2852020,18
2852640,14
2853268,13
2853900,16
2854520,13
2855148,16
2855772,30
2856404,29
2857032,19
2857656,20
2858284,43
2858908,61
2859532,68
2860164,58
2860784,39
2861416,19
2862040,12
2862664,15
2863296,22
2863912,29
2864544,34
2865176,37
2865792,61
2866424,60
2867048,43
2867680,23
2868308,11
2868928,19
2869556,28
2870180,14
2870804,14
2871432,10
2872052,13
2872680,16
2873304,24
2873928,26
2874556,36
2875176,49
2875804,59
2876436,61
2877056,47
2877684,32
2878308,15
2878940,14
2879568,20
2880192,27
2880820,32
2881444,31
2882064,23
2882692,22
2883312,28
2883940,35
2884564,33
2885184,34
2885816,30
2886432,19
2887060,13
2887688,20
2888308,29
2888940,27
2889564,22
2890192,13
2890820,19
2891440,41
2892068,59
2892692,71
2893320,62
2893948,35
2894568,20
2895196,14
2895820,12
2896444,19
2897072,38
2897696,49
2898324,47
2898956,42
2899576,49
2900204,51
2900828,36
2901456,28
2902088,18
2902704,16
2903332,22
2903956,21
2904584,34
2905212,40
2905832,32
2906460,12
2907084,13
2907708,20
2908340,42
2908960,63
2909588,51
2910220,26
2910840,15
2911468,19
2912092,24
2912724,24
2913352,12
2913972,17
2914600,36
2915224,41
2915848,35
2916476,36
2917096,39
2917728,41
2918352,35
2918976,28
2919604,19
2920224,15
2920852,26
2921484,26
2922104,19
2922732,23
2923356,32
2923988,33
2924616,43
2925240,49
2925868,51
2926492,47
2927116,29
2927748,22
2928368,17
2928996,14
2929620,10
2930244,20
2930872,27
2931496,25
2932124,27
2932756,39
2933376,57
2934008,55
2934632,25
2935260,14
2935892,23
2936512,23
2937140,16
2937768,12
2938392,16
2939020,19
2939640,27
2940268,43
2940896,46
2941520,52
2942148,57
2942768,73
2943400,65
2944032,39
2944648,25
2945276,23
2945900,14
2946528,20
2947160,54
2947780,62
2948408,54
2949036,46
2949660,28
2950288,27
2950904,36
2951536,27
2952160,13
2952780,17
2953412,20
2954032,17
2954660,26
2955292,34
2955912,28
2956540,17
2957168,14
2957796,23
2958424,22
2959048,48
2959676,77
2960304,76
2960924,58
2961556,31
2962176,15
2962804,18
2963428,23
2964052,39
2964684,54
2965304,50
2965932,37
2966564,24
2967184,25
2967812,27
2968440,21
2969068,14
2969700,18
2970316,23
2970948,16
2971572,24
2972196,38
2972824,36
2973440,24
2974068,17
2974692,23
2975316,40
2975948,43
2976568,50
2977196,42
2977828,30
2978448,14
2979076,13
2979700,15
2980332,26
2980960,31
2981580,31
2982208,28
2982832,32
2983456,41
2984084,34
2984704,16
2985332,12
2985956,16
2986580,16
2987212,16
2987832,13
2988464,16
2989092,18
2989712,21
2990344,25
2990968,28
2991596,35
2992228,42
2992848,53
2993476,48
2994100,31
2994724,26
2995356,20
2995976,20
2996604,12
2997228,19
2997852,43
2998484,42
2999108,35
2999736,37
3000368,40
3000984,25
3001616,21
3002240,29
3002868,25
3003500,15
3004120,19
3004752,12
3005376,24
3006000,40
3006632,47
3007248,39
3007880,40
3008504,52
3009128,59
3009756,64
3010380,49
3011012,30
3011644,16
3012264,14
3012892,18
3013516,40
3014148,56
3014780,64
3015400,50
3016032,33
3016656,24
3017280,21
3017908,18
3018528,18
3019160,19
3019788,18
3020408,14
3021040,21
3021664,22
3022292,15
3022924,14
3023544,16
3024176,29
3024800,53
3025420,65
3026052,55
3026672,39
3027304,37
3027928,43
3028552,43
3029180,37
3029800,21
3030432,19
3031060,52
3031680,68
3032308,48
3032936,34
3033564,50
3034196,53
3034816,35
3035448,39
3036072,35
3036696,22
3037328,16
3037944,11
3038576,32
3039200,54
3039824,57
3040456,44
3041072,38
3041704,64
3042332,76
3042952,77
3043584,63
3044208,34
3044836,14
3045468,12
3046088,14
3046716,26
3047344,46
3047968,46
3048596,43
3049216,41
3049844,42
3050472,33
3051096,17
3051724,16
3052344,19
3052976,19
3053604,16
3054224,14
3054856,14
3055480,20
3056108,32
3056740,36
3057360,39
3057992,48
3058616,53
3059240,53
3059868,62
3060488,49
3061116,29
3061744,19
3062368,14
3063000,15
3063624,33
3064256,48
3064884,48
3065504,49
3066136,54
3066760,51
3067392,59
3068024,44
3068640,30
3069272,16
3069896,17
3070520,27
3071152,44
3071780,43
3072412,46
3073040,46
3073656,32
3074284,18
3074908,30
3075536,41
3076168,49
3076784,57
3077412,42
3078036,34
3078664,21
3079292,14
3079912,38
3080540,56
3081164,67
3081788,47
3082420,36
3083040,45
3083668,38
3084296,23
3084920,14
3085548,23
3086172,32
3086804,16
3087432,14
3088048,34
3088680,48
3089300,56
3089928,46
3090556,24
3091176,31
3091808,52
3092432,61
3093056,47
3093684,18
3094304,13
3094936,15
3095564,16
3096184,13
3096812,12
3097436,17
3098068,25
3098700,38
3099320,33
3099948,19
3100576,22
3101200,20
3101828,20
3102448,18
3103076,13
3103704,13
3104328,15
3104956,18
3105576,20
3106208,13
3106836,12
3107456,24
3108088,45
3108712,56
3109340,60
3109972,59
3110592,37
3111224,21
3111848,17
3112472,14
3113104,16
3113720,33
3114348,55
3114972,65
3115596,53
3116228,26
3116848,24
3117476,27
3118108,22
3118728,20
3119356,20
3119984,21
3120616,13
3121244,22
3121864,30
3122496,31
3123120,31
3123744,29
3124372,22
3124992,36
3125620,44
3126244,57
3126868,54
3127500,36
3128120,32
3128748,16
3129380,12
3130000,27
3130628,29
3131252,36
3131884,37
3132516,36
3133136,17
3133768,13
3134392,11
3135016,17
3135648,23
3136264,16
3136896,13
3137520,13
3138144,12
3138772,13
3139400,15
3140028,12
3140656,12
3141280,24
3141908,43
3142536,70
3143164,87
3143796,70
3144416,45
3145044,17
3145668,15
3146292,29
3146924,42
3147544,41
3148176,31
3148804,17
3149424,12
3150052,12
3150680,14
3151308,27
3151940,28
3152560,25
3153192,25
3153816,21
3154440,22
3155068,24
3155688,16
3156316,18
3156944,37
3157568,53
3158200,55
3158816,58
3159448,66
3160080,60
3160696,35
3161328,22
3161952,14
3162580,16
3163212,36
3163832,49
3164464,52
3165088,49
3165712,36
3166344,14
3166960,10
3167592,10
3168216,10
3168840,15
3169472,14
3170092,13
3170720,13
3171352,14
3171972,26
3172604,31
3173228,29
3173860,26
3174492,38
3175112,57
3175744,64
3176368,63
3176992,43
3177620,24
3178240,13
3178868,16
3179496,22
3180120,24
3180752,27
3181368,36
3182000,36
3182632,42
3183248,46
3183880,45
3184508,43
3185136,22
3185768,15
3186388,14
3187020,23
3187644,20
3188272,15
3188900,13
3189520,17
3190152,11
3190776,21
3191400,41
3192032,63
3192656,75
3193288,71
3193920,54
3194536,38
3195172,20
3195796,14
3196424,28
3197056,32
3197672,35
3198304,36
3198932,35
3199556,28
3200188,18
3200804,22
3201432,22
3202064,27
3202680,27
3203308,21
3203932,14
3204560,33
3205188,31
3205808,21
3206436,23
3207056,21
3207684,21
3208312,41
3208936,53
3209564,66
3210188,64
3210812,45
3211440,23
3212064,15
3212692,13
3213324,11
3213944,26
3214572,47
3215196,45
3215828,35
3216460,24
3217080,24
3217708,15
3218332,11
3218956,14
3219588,22
3220208,21
3220836,17
3221460,11
3222084,15
3222712,23
3223336,17
3223964,24
3224596,35
3225216,43
3225844,33
3226468,41
3227096,38
3227728,31
3228344,30
3228976,23
3229596,17
3230224,11
3230852,16
3231472,33
3232104,37
3232724,35
3233348,34
3233980,36
3234600,37
3235228,33
3235860,26
3236480,17
3237108,14
3237732,17
3238364,23
3238996,20
3239616,20
3240244,17
3240868,22
3241492,31
3242124,46
3242744,65
3243372,67
3243996,51
3244624,33
3245252,13
3245872,23
3246500,36
3247132,56
3247752,61
3248384,35
3249008,27
3249636,19
3250264,15
3250888,20
3251516,22
3252144,21
3252768,13
3253396,21
3254016,33
3254644,33
3255272,33
3255896,25
3256528,17
3257144,19
3257772,26
3258404,42
3259024,50
3259656,62
3260280,52
3260908,25
3261540,14
3262160,21
3262788,17
3263416,17
3264040,25
3264668,36
3265288,43
3265916,48
3266544,37
3267168,34
3267800,31
3268424,21
3269052,23
3269684,24
3270304,24
3270936,17
3271560,23
3272192,41
3272820,48
3273440,47
3274072,34
3274696,43
3275320,60
3275952,64
3276572,52
3277200,38
3277828,30
3278448,15
3279072,14
3279696,20
3280324,23
3280952,16
3281568,22
3282196,28
3282820,42
3283448,83
3284076,70
3284696,40
3285324,30
3285944,16
3286568,15
3287196,13
3287816,18
3288444,27
3289064,35
3289688,41
3290316,41
3290936,37
3291564,41
3292192,36
3292808,43
3293436,46
3294060,31
3294688,29
3295316,23
3295936,15
3296564,13
3297188,29
3297812,26
3298440,16
3299056,16
3299684,19
3300308,27
3300932,27
3301560,31
3302176,35
3302808,31
3303436,22
3304056,15
3304684,11
3305304,12
3305936,26
3306564,31
3307184,30
3307812,36
3308436,54
3309060,61
3309692,69
3310312,60
3310940,41
3311564,20
3312188,14
3312816,30
3313440,45
3314068,49
3314696,44
3315320,37
3315948,19
3316572,12
3317200,16
3317832,15
3318448,16
3319076,16
3319700,15
3320324,13
3320956,13
3321576,24
3322204,21
3322828,14
3323452,11
3324084,14
3324704,33
3325332,53
3325964,66
3326584,71
3327212,48
3327836,25
3328468,13
3329096,16
3329720,22
3330348,31
3330968,44
3331592,52
3332220,47
3332840,39
3333468,28
3334092,35
3334712,34
3335344,24
3335960,15
3336588,15
3337212,24
3337840,29
3338468,35
3339092,29
3339720,26
3340348,28
3340968,39
3341596,51
3342220,64
3342848,68
3343476,58
3344096,42
3344724,32
3345348,20
3345968,16
3346600,48
3347216,54
3347844,50
3348468,50
3349092,47
3349720,40
3350344,33
3350972,25
3351604,20
3352224,18
3352852,13
3353476,13
3354108,13
3354736,20
3355360,29
3355988,26
3356612,25
3357236,24
3357868,27
3358488,41
3359116,53
3359740,54
3360368,37
3360996,22
3361620,12
3362248,16
3362876,12
3363496,15
3364124,23
3364748,31
3365376,39
3366004,46
3366624,31
3367252,31
3367876,39
3368500,31
3369128,13
3369744,25
3370372,25
3370996,22
3371620,19
3372248,30
3372872,34
3373500,35
3374128,36
3374752,43
3375380,57
3376004,62
3376632,61
3377260,35
3377880,18
3378508,14
3379132,13
3379760,15
3380388,23
3381008,36
3381636,47
3382260,43
3382884,38
3383512,37
3384136,42
3384764,37
3385392,39
3386016,33
3386644,26
3387268,13
3387896,19
3388524,24
3389144,26
3389772,21
3390396,21
3391020,29
3391652,54
3392272,73
3392900,75
3393524,74
3394148,46
3394776,14
3395400,19
3396028,17
3396656,22
3397276,22
3397904,19
3398528,25
3399156,32
3399788,33
3400408,40
3401036,38
3401660,37
3402280,25
3402912,12
3403528,17
3404156,19
3404780,23
3405404,24
3406036,23
3406660,20
3407288,24
3407916,32
3408536,47
3409164,44
3409788,46
3410420,42
3411048,25
3411664,17
3412296,16
3412920,24
3413544,19
3414172,13
3414792,39
3415420,41
3416048,35
3416668,34
3417300,40
3417924,44
3418552,36
3419184,20
3419804,13
3420432,14
3421056,13
3421684,18
3422316,22
3422936,26
3423564,25
3424188,27
3424812,43
3425444,56
3426064,63
3426692,59
3427316,37
3427940,18
3428572,13
3429196,12
3429828,16
3430456,27
3431072,39
3431704,46
3432328,51
3432956,50
3433588,46
3434208,46
3434836,42
3435464,29
3436088,13
3436716,16
3437336,23
3437964,32
3438596,40
3439216,47
3439848,41
3440472,29
3441100,29
3441732,46
3442352,57
3442980,65
3443604,55
3444228,35
3444860,20
3445480,13
3446108,14
3446732,24
3447356,36
3447984,45
3448604,45
3449232,39
3449860,38
3450480,44
3451108,43
3451732,41
3452364,31
3452992,15
3453616,17
3454244,26
3454868,31
3455496,29
3456124,32
3456744,46
3457372,48
3457996,58
3458620,74
3459248,76
3459864,69
3460492,47
3461116,30
3461744,14
3462372,16
3462996,32
3463628,51
3464256,61
3464880,61
3465508,55
3466132,53
3466760,53
3467388,60
3468008,59
3468636,40
3469260,20
3469884,16
3470516,23
3471136,33
3471768,41
3472396,44
3473016,38
3473644,36
3474268,35
3474900,49
3475528,62
3476152,71
3476784,65
3477408,42
3478032,23
3478660,13
3479280,24
3479908,27
3480536,35
3481160,50
3481792,50
3482408,47
3483036,41
3483664,36
3484288,41
3484916,35
3485540,22
3486168,14
3486796,13
3487416,15
3488044,12
3488668,12
3489292,19
3489920,28
3490536,37
3491164,51
3491792,70
3492416,80
3493044,76
3493664,60
3494292,38
3494924,18
3495544,14
3496172,18
3496796,21
3497428,20
3498056,28
3498680,29
3499308,28
3499936,33
3500560,43
3501188,34
3501808,32
3502440,24
3503060,15
3503688,27
3504316,18
3504936,15
3505564,22
3506196,33
3506816,43
3507448,52
3508068,71
3508700,71
3509332,63
3509952,64
3510584,52
3511208,35
3511832,21
3512464,12
3513080,13
3513708,21
3514332,33
3514960,43
3515588,41
3516208,43
3516836,32
3517468,32
3518088,38
3518720,37
3519344,27
3519976,15
3520608,15
3521224,24
3521852,25
3522476,20
3523100,15
3523732,20
3524352,30
3524980,41
3525604,45
3526228,54
3526860,54
3527480,25
3528108,22
3528740,28
3529360,13
3529988,17
3530612,12
3531244,11
3531872,26
3532496,35
3533124,35
3533748,27
3534372,23
3535004,24
3535624,27
3536252,19
3536876,21
3537500,33
3538132,19
3538756,11
3539384,13
3540012,18
3540632,17
3541260,25
3541884,59
3542516,75
3543148,80
3543768,58
3544396,31
3545020,19
3545644,19
3546276,10
3546896,33
3547524,45
3548148,50
3548772,54
3549404,53
3550028,37
3550660,21
3551292,10
3551912,13
3552544,23
3553168,33
3553800,14
3554428,39
3555048,63
3555680,60
3556304,43
3556928,23
3557556,11
3558176,20
3558808,34
3559436,59
3560056,77
3560684,68
3561308,50
3561940,31
3562572,17
3563192,12
3563824,21
3564448,45
3565072,58
3565700,55
3566320,58
3566952,65
3567576,51
3568200,28
3568828,25
3569448,21
3570076,18
3570708,26
3571328,37
3571956,35
3572584,31
3573212,37
3573844,38
3574464,41
3575092,52
3575720,56
3576344,53
3576972,46
3577592,33
3578224,21
3578848,16
3579472,40
3580104,43
3580720,46
3581352,51
3581984,40
3582608,30
3583240,25
3583868,42
3584500,66
3585128,52
3585744,15
3586376,36
3587000,38
3587624,24
3588252,26
3588872,33
3589500,33
3590124,24
3590748,26
3591380,57
3592004,66
3592632,59
3593264,54
3593880,42
3594508,37
3595132,24
3595764,13
3596396,32
3597016,50
3597644,55
3598268,53
3598892,51
3599524,39
3600144,32
3600772,39
3601396,62
3602020,98
3602652,85
3603276,37
3603904,21
3604532,37
3605152,48
3605780,56
3606404,53
3607032,35
3607660,53
3608280,82
3608908,71
3609532,59
3610156,45
3610784,38
3611408,54
3612036,55
3612660,49
3613284,20
3613912,34
3614540,65
3615168,77
3615796,71
3616416,58
3617044,26
3617668,10
3618296,29
3618924,32
3619544,19
3620172,35
3620796,29
3621420,33
3622052,31
3622672,24
3623300,27
3623924,38
3624548,53
3625180,70
3625804,63
3626432,51
3627060,42
3627680,15
3628308,36
3628932,37
3629564,21
3630192,19
3630816,41
3631444,57
3632072,44
3632692,35
3633324,40
3633944,58
3634572,58
3635200,41
3635824,18
3636452,28
3637076,51
3637708,32
3638336,23
3638956,15
3639584,16
3640208,13
3640840,11
3641468,24
3642088,30
3642716,16
3643340,10
3643968,17
3644596,28
3645216,50
3645848,45
3646476,24
3647096,12
3647724,17
3648352,33
3648980,17
3649608,13
3650224,27
3650856,57
3651480,69
3652104,23
3652732,26
3653352,15
3653980,15
3654608,16
3655228,11
3655860,12
3656480,12
3657108,11
3657740,47
3658360,108
3659040,110
3659716,88
3660336,66
3660968,34
3661584,13
3662212,35
3662836,63
3663464,62
3664092,64
3664716,45
3665348,29
3665976,32
3666600,36
3667228,49
3667852,41
3668480,17
3669112,11
3669728,20
3670360,16
3670988,15
3671612,20
3672240,28
3672864,49
3673496,54
3674124,45
3674744,40
3675376,33
3676000,28
3676628,38
3677260,35
3677880,40
3678512,23
3679136,13
3679760,33
3680392,34
3681008,24
3681640,30
3682264,44
3682888,43
3683516,32
3684136,38
3684768,35
3685396,36
3686016,21
3686648,13
3687268,13
3687896,22
3688528,18
3689144,19
3689772,19
3690396,11
3691020,15
3691648,34
3692268,63
3692896,97
3693520,106
3694192,56
3694820,36
3695444,29
3696076,16
3696704,9
3697268,27
3697900,58
3698524,60
3699156,78
3699788,70
3700408,47
3701036,24
3701660,13
3702284,26
3702916,18
3703536,14
3704168,12
3704792,15
3705416,20
3706044,17
3706664,17
3707292,13
3707924,16
3708544,47
3709172,73
3709800,89
3710428,83
3711060,48
3711680,17
3712312,13
3712936,19
3713560,49
3714188,64
3714808,84
3715436,87
3716060,72
3716684,50
3717316,16
3717936,12
3718564,15
3719196,12
3719816,14
3720444,25
3721068,24
3721700,30
3722328,22
3722952,14
3723580,10
3724204,13
3724832,12
3725460,28
3726080,63
3726708,85
3727332,61
3727960,57
3728592,53
3729208,27
3729836,12
3730468,24
3731088,43
3731720,62
3732344,91
3732972,80
3733604,46
3734224,19
3734856,11
3735480,16
3736104,15
3736732,19
3737352,34
3737984,32
3738608,35
3739232,33
3739860,20
3740484,17
3741116,24
3741748,40
3742368,52
3743000,51
3743624,43
3744256,29
3744884,18
3745504,15
3746132,14
3746760,9
3747332,17
3747968,43
3748584,42
3749212,40
3749836,37
3750464,39
3751092,44
3751712,29
3752344,27
3752972,14
3753592,13
3754224,17
3754848,12
3755480,10
3756108,20
3756728,42
3757360,55
3757984,69
3758608,73
3759240,59
3759860,69
3760488,58
3761112,30
3761740,14
3762368,22
3762992,51
3763624,64
3764252,42
3764872,35
3765504,34
3766128,40
3766756,27
3767388,20
3768008,13
3768636,19
3769260,25
3769888,25
3770516,16
3771136,15
3771768,13
3772392,21
3773016,35
3773648,28
3774264,25
3774896,35
3775524,40
3776144,50
3776772,49
3777396,39
3778028,28
3778660,12
3779280,24
3779908,37
3780532,47
3781156,49
3781788,44
3782408,51
3783036,47
3783664,38
3784288,43
3784916,48
3785544,47
3786172,25
3786804,11
3787424,30
3788056,68
3788680,75
3789312,61
3789940,53
3790560,47
3791188,27
3791816,29
3792440,56
3793068,70
3793688,56
3794316,43
3794944,38
3795568,29
3796196,15
3796824,27
3797452,55
3798084,64
3798704,52
3799336,49
3799960,45
3800584,41
3801216,39
3801832,35
3802464,36
3803088,15
3803712,15
3804344,13
3804960,10
3805592,15
3806224,36
3806840,45
3807472,40
3808096,40
3808724,56
3809356,64
3809976,75
3810604,56
3811228,28
3811852,13
3812484,15
3813104,46
3813736,63
3814360,37
3814984,26
3815616,43
3816236,44
3816864,32
3817496,16
3818112,12
3818744,13
3819368,11
3820000,13
3820628,12
3821248,16
3821880,11
3822504,17
3823128,38
3823760,38
3824380,20
3825008,27
3825632,19
3826260,31
3826888,34
3827512,29
3828144,24
3828776,36
3829392,45
3830024,33
3830652,12
3831280,44
3831912,57
3832532,62
3833164,55
3833788,57
3834416,42
3835044,23
3835664,26
3836296,16
3836920,32
3837544,31
3838176,42
3838804,33
3839436,28
3840068,22
3840684,11
3841316,12
3841936,26
3842564,50
3843196,71
3843816,76
3844444,57
3845068,41
3845692,24
3846324,11
3846944,13
3847572,31
3848204,52
3848824,61
3849452,63
3850076,55
3850708,52
3851340,52
3851960,46
3852588,33
3853212,12
3853836,28
3854468,45
3855088,36
3855716,35
3856340,37
3856964,11
3857596,20
3858216,20
3858844,54
3859476,69
3860096,65
3860724,35
3861348,20
3861980,12
3862608,16
3863232,27
3863860,33
3864488,25
3865108,15
3865740,10
3866360,11
3866988,11
3867612,22
3868236,26
3868868,42
3869488,38
3870116,20
3870748,12
3871368,43
3871996,54
3872624,32
3873252,11
3873884,10
3874504,14
3875132,39
3875760,55
3876384,73
3877016,74
3877632,59
3878264,27
3878888,16
3879512,21
3880144,18
3880760,24
3881392,31
3882020,28
3882640,40
3883268,51
3883896,42
3884524,31
3885156,38
3885776,35
3886408,29
3887032,23
3887656,19
3888288,14
3888904,29
3889536,39
3890160,45
3890784,47
3891416,40
3892040,46
3892668,47
3893296,44
3893920,34
3894548,39
3895172,35
3895804,17
3896436,11
3897056,14
3897684,28
3898308,27
3898932,27
3899564,16
3900184,14
3900812,32
3901440,46
3902064,45
3902696,31
3903320,19
3903952,13
3904584,14
3905200,21
3905828,13
3906456,12
3907080,21
3907708,25
3908328,32
3908956,57
3909584,73
3910208,66
3910840,38
3911456,36
3912088,27
3912716,20
3913336,11
3913968,23
3914592,46
3915224,58
3915852,60
3916472,61
3917104,85
3917728,70
3918352,37
3918984,16
3919600,29
3920232,64
3920856,60
3921480,38
3922112,22
3922728,25
3923356,13
3923988,10
3924608,14
3925236,21
3925864,56
3926492,95
3927124,104
3927796,66
3928424,34
3929048,25
3929672,14
3930300,25
3930920,46
3931552,53
3932180,63
3932800,58
3933428,42
3934052,57
3934684,68
3935312,53
3935936,28
3936568,13
3937192,18
3937816,32
3938444,36
3939064,26
3939692,18
3940320,16
3940944,11
3941572,21
3942192,49
3942824,66
3943452,73
3944072,53
3944700,34
3945324,13
3945956,19
3946584,11
3947200,10
3947832,11
3948456,10
3949080,24
3949708,34
3950328,32
3950960,31
3951584,40
3952208,29
3952836,18
3953456,16
3954084,19
3954716,10
3955336,19
3955964,29
3956588,41
3957220,41
3957852,37
3958472,49
3959100,51
3959728,40
3960352,33
3960980,19
3961600,15
3962228,13
3962852,13
3963480,13
3964108,10
3964728,28
3965360,50
3965988,46
3966608,46
3967240,29
3967864,17
3968496,23
3969124,18
3969744,15
3970372,17
3971000,20
3971624,11
3972252,17
3972872,25
3973500,17
3974128,16
3974752,29
3975380,54
3976004,72
3976632,82
3977264,77
3977884,65
3978512,40
3979136,15
3979768,23
3980396,41
3981016,52
3981644,46
3982272,31
3982896,19
3983524,12
3984144,23
3984772,46
3985396,50
3986024,32
3986652,17
3987276,13
3987908,19
3988540,30
3989160,27
3989788,27
3990416,36
3991044,47
3991676,58
3992296,51
3992928,46
3993552,52
3994176,37
3994808,30
3995428,18
3996056,13
3996688,25
3997304,47
3997936,55
3998560,51
3999188,41
3999820,39
4000440,43
4001072,37
4001692,29
4002316,27
4002948,14
4003568,13
4004196,14
4004820,12
4005444,26
4006072,28
4006692,11
4007320,11
4007948,31
4008568,102
4009248,111
4009924,82
4010544,46
4011172,23
4011792,13
4012424,13
4013048,20
4013672,31
4014300,42
4014924,41
4015552,23
4016184,11
4016800,15
4017428,23
4018052,29
4018680,34
4019312,23
4019928,12
4020556,13
4021180,13
4021804,10
4022432,10
4023056,13
4023684,13
4024308,19
4024932,49
4025564,62
4026188,54
4026816,53
4027448,41
4028064,24
4028696,13
4029320,13
4029948,14
4030580,32
4031200,45
4031828,41
4032456,37
4033080,25
4033708,18
4034328,21
4034956,30
4035580,39
4036208,27
4036836,16
4037460,31
4038092,42
4038720,45
4039344,38
4039976,16
4040600,11
4041224,11
4041852,30
4042472,49
4043100,56
4043728,59
4044352,45
4044980,24
4045600,15
4046228,13
4046860,16
4047480,16
4048108,19
4048732,39
4049364,60
4049992,65
4050612,40
4051240,39
4051864,34
4052488,22
4053116,17
4053736,14
4054368,13
4054992,11
4055616,11
4056244,12
4056864,19
4057492,36
4058124,60
4058744,86
4059372,80
4059996,53
4060628,28
4061260,30
4061880,29
4062512,27
4063136,11
4063760,21
4064392,24
4065008,35
4065640,39
4066260,32
4066884,29
4067516,28
4068136,25
4068764,29
4069396,38
4070016,32
4070648,15
4071272,16
4071900,21
4072532,16
4073152,28
4073784,43
4074408,52
4075032,59
4075664,73
4076280,71
4076912,45
4077536,21
4078160,13
4078792,19
4079408,22
4080040,20
4080668,26
4081288,56
4081916,43
4082544,19
4083172,10
4083804,13
4084424,18
4085056,20
4085680,30
4086304,23
4086936,14
4087552,12
4088184,16
4088808,25
4089432,18
4090064,20
4090684,17
4091312,28
4091944,31
4092564,40
4093196,69
4093820,62
4094452,40
4095084,24
4095704,14
4096336,27
4096960,28
4097580,18
4098208,24
4098824,31
4099452,29
4100072,27
4100696,25
4101324,18
4101940,24
4102572,27
4103200,15
4103816,13
4104444,14
4105068,14
4105696,22
4106324,31
4106940,26
4107572,15
4108192,13
4108816,39
4109444,60
4110064,65
4110692,55
4111316,41
4111940,20
4112568,13
4113184,32
4113812,43
4114444,54
4115064,67
4115692,65
4116316,57
4116944,37
4117576,24
4118192,22
4118820,18
4119444,27
4120068,20
4120696,17
4121320,40
4121948,45
4122572,41
4123192,31
4123824,29
4124440,35
4125072,65
4125692,93
4126320,95
4126948,77
4127572,47
4128200,23
4128828,12
4129448,15
4130076,31
4130700,52
4131328,61
4131956,67
4132576,53
4133204,33
4133828,11
4134452,9
4135028,14
4135652,23
4136284,19
4136908,13
4137532,18
4138160,16
4138776,21
4139408,25
4140036,22
4140656,37
4141284,25
4141908,27
4142540,27
4143168,31
4143788,31
4144416,34
4145040,21
4145668,15
4146296,15
4146920,11
4147548,31
4148172,40
4148796,43
4149424,40
4150044,33
4150672,40
4151300,40
4151920,29
4152548,21
4153172,13
4153804,17
4154432,19
4155052,15
4155680,11
4156304,12
4156932,13
4157564,15
4158184,13
4158812,31
4159436,53
4160060,68
4160688,51
4161308,14
4161940,20
4162568,27
4163184,56
4163812,35
4164436,17
4165064,51
4165696,51
4166312,40
4166940,35
4167564,30
4168196,17
4168824,12
4169440,18
4170068,24
4170692,27
4171316,25
4171944,14
4172568,15
4173196,14
4173820,21
4174448,53
4175076,76
4175700,76
4176332,73
4176960,64
4177576,36
4178204,15
4178828,13
4179456,13
4180088,18
4180704,19
4181332,37
4181956,61
4182580,63
4183208,63
4183824,45
4184456,23
4185080,20
4185704,24
4186332,19
4186956,16
4187584,15
4188212,13
4188832,17
4189460,37
4190084,44
4190712,48
4191344,43
4191960,43
4192592,42
4193216,47
4193840,47
4194468,42
4195088,30
4195716,16
4196340,13
4196964,33
4197596,61
4198220,64
4198852,41
4199480,23
4200096,18
4200724,13
4201348,25
4201976,37
4202608,22
4203224,15
4203852,15
4204476,17
4205100,16
4205728,13
4206348,10
4206976,18
4207600,19
4208224,20
4208852,44
4209476,69
4210104,74
4210732,46
4211352,45
4211980,47
4212604,25
4213236,10
4213864,21
4214480,32
4215112,48
4215736,45
4216360,29
4216988,23
4217608,29
4218236,40
4218860,43
4219484,31
4220116,19
4220740,12
4221368,15
4222000,13
4222616,12
4223248,12
4223872,18
4224504,17
4225132,46
4225752,62
4226380,68
4227004,76
4227628,43
4228256,16
4228872,12
4229504,14
4230128,11
4230752,23
4231380,32
4232004,35
4232632,26
4233260,15
4233880,32
4234508,34
4235132,22
4235764,13
4236392,16
4237016,23
4237644,17
4238268,12
4238892,14
4239524,38
4240144,46
4240772,47
4241396,48
4242020,55
4242648,54
4243272,57
4243900,51
4244532,36
4245152,13
4245780,16
4246404,16
4247032,25
4247664,43
4248284,50
4248912,54
4249536,47
4250164,31
4250792,24
4251408,18
4252040,22
4252664,20
4253288,13
4253916,13
4254540,19
4255172,15
4255804,14
4256424,19
4257052,15
4257676,57
4258308,91
4258936,111
4259612,84
4260240,55
4260860,20
4261488,14
4262116,11
4262740,30
4263368,32
4263996,22
4264616,12
4265244,10
4265868,12
4266496,21
4267128,23
4267744,24
4268372,16
4268996,21
4269620,30
4270252,23
4270872,34
4271500,27
4272124,16
4272752,51
4273380,44
4274004,34
4274636,28
4275264,41
4275880,52
4276512,45
4277136,36
4277764,35
4278396,32
4279016,20
4279648,13
4280272,24
4280896,36
4281524,28
4282144,25
4282772,13
4283404,20
4284024,42
4284652,49
4285276,49
4285908,37
4286540,16
4287160,13
4287792,28
4288416,17
4289040,26
4289668,58
4290288,61
4290916,51
4291540,42
4292164,47
4292792,54
4293416,47
4294044,45
4294676,36
4295296,26
4295924,27
4296552,15
4297180,14
4297812,22
4298432,47
4299060,70
4299688,63
4300312,46
4300944,28
4301560,31
4302188,35
4302812,26
4303436,14
4304064,15
4304680,13
4305312,10
4305940,11
4306560,15
4307188,21
4307812,23
4308444,41
4309072,49
4309696,67
4310328,81
4310952,62
4311576,35
4312208,15
4312824,13
4313452,24
4314076,28
4314700,25
4315332,22
4315952,11
4316584,14
4317212,16
4317832,20
4318464,13
4319088,28
4319716,33
4320348,34
4320968,39
4321596,13
4322220,18
4322844,30
4323472,40
4324096,61
4324724,63
4325348,59
4325972,61
4326604,58
4327224,42
4327852,29
4328480,12
4329104,27
4329732,24
4330356,14
4330988,20
4331616,28
4332240,32
4332868,35
4333492,35
4334116,34
4334748,34
4335368,41
4335996,34
4336624,15
4337248,13
4337876,14
4338504,11
4339132,16
4339764,20
4340384,15
4341016,51
4341640,79
4342268,94
4342900,71
4343520,69
4344148,39
4344772,24
4345400,19
4346028,13
4346648,14
4347276,24
4347900,30
4348528,51
4349160,59
4349784,45
4350412,35
4351044,28
4351664,27
4352296,38
4352920,30
4353540,13
4354172,18
4354792,29
4355420,35
4356044,35
4356668,32
4357296,30
4357920,25
4358548,31
4359180,33
4359800,43
4360428,52
4361052,35
4361684,33
4362312,16
4362928,11
4363560,12
4364184,29
4364804,38
4365436,31
4366056,29
4366684,30
4367308,39
4367936,43
4368564,32
4369184,27
4369812,17
4370444,12
4371064,17
4371696,27
4372320,24
4372948,24
4373580,30
4374200,30
4374832,36
4375456,69
4376080,63
4376708,47
4377328,41
4377960,26
4378584,15
4379208,14
4379836,10
4380456,38
4381088,65
4381716,65
4382336,42
4382968,34
4383592,23
4384220,24
4384852,24
4385472,15
4386100,17
4386724,19
4387348,12
4387980,12
4388600,18
4389228,21
4389852,19
4390480,25
4391108,38
4391728,50
4392360,57
4392988,54
4393608,55
4394236,33
4394860,19
4395492,13
4396124,15
4396744,12
4397376,11
4398000,29
4398624,44
4399256,51
4399872,46
4400504,40
4401128,34
4401752,29
4402384,31
4403000,24
4403632,18
4404260,13
4404880,13
4405508,19
4406132,27
4406764,17
4407392,9
4407960,10
4408592,23
4409216,29
4409844,43
4410472,65
4411096,49
4411724,37
4412352,30
4412976,22
4413604,13
4414224,17
4414856,33
4415480,37
4416104,31
4416732,13
4417356,17
4417988,25
4418616,22
4419240,23
4419868,16
4420492,13
4421124,14
4421752,36
4422372,46
4423004,24
4423628,13
4424252,11
4424880,21
4425504,29
4426132,56
4426764,45
4427384,17
4428012,11
4428636,12
4429268,13
4429900,10
4430520,11
4431148,10
4431772,32
4432400,35
4433028,42
4433648,45
4434276,37
4434900,28
4435524,21
4436156,14
4436776,14
4437404,23
4438036,26
4438656,40
4439288,53
4439912,51
4440540,27
4441172,27
4441792,38
4442420,56
4443044,74
4443672,71
4444300,34
4444920,20
4445548,11
4446172,14
4446796,35
4447428,46
4448048,47
4448676,43
4449308,26
4449928,29
4450556,32
4451184,36
4451812,31
4452444,27
4453064,17
4453696,15
4454320,13
4454944,13
4455572,10
4456192,10
4456820,11
4457444,11
4458072,43
4458700,83
4459320,63
4459952,43
4460580,40
4461200,37
4461828,38
4462456,26
4463084,21
4463716,9
4464284,14
4464920,28
4465544,34
4466172,43
4466804,40
4467424,42
4468052,46
4468676,46
4469300,40
4469932,18
4470552,13
4471184,22
4471812,28
4472432,24
4473064,17
4473688,23
4474316,33
4474948,42
4475568,54
4476200,58
4476824,62
4477448,43
4478080,30
4478696,17
4479328,13
4479956,14
4480580,24
4481212,48
4481832,43
4482460,13
4483092,15
4483712,16
4484340,36
4484964,61
4485596,50
4486224,42
4486848,17
4487476,19
4488100,23
4488724,28
4489352,33
4489976,26
4490604,17
4491228,21
4491852,29
4492484,44
4493104,54
4493732,63
4494364,39
4494984,25
4495616,15
4496240,15
4496868,13
4497496,10
4498120,12
4498748,15
4499376,32
4500000,27
4500628,16
4501248,13
4501876,16
4502504,28
4503128,32
4503760,22
4504376,12
4505008,12
4505640,14
4506256,15
4506884,13
4507508,20
4508136,19
4508764,30
4509384,51
4510012,48
4510636,36
4511264,26
4511892,13
4512512,16
4513140,12
4513764,20
4514388,21
4515020,12
4515640,16
4516268,19
4516900,24
4517520,47
4518148,54
4518776,43
4519404,29
4520032,13
4520656,13
4521284,17
4521908,25
4522532,18
4523164,10
4523784,11
4524412,18
4525040,40
4525664,55
4526292,59
4526916,54
4527548,33
4528176,23
4528800,16
4529428,21
4530052,27
4530684,11
4531312,46
4531936,73
4532568,49
4533188,29
4533812,19
4534444,26
4535064,24
4535692,17
4536320,14
4536944,19
4537572,22
4538200,15
4538828,43
4539460,46
4540080,33
4540712,23
4541336,29
4541960,46
4542592,64
4543208,68
4543840,63
4544464,43
4545088,23
4545716,12
4546336,15
4546968,14
4547596,30
4548216,44
4548844,54
4549468,69
4550100,53
4550732,39
4551352,35
4551984,36
4552608,26
4553232,13
4553864,21
4554480,17
4555108,21
4555736,18
4556360,10
4556992,13
4557608,11
4558236,34
4558868,75
4559488,91
4560120,76
4560740,44
4561372,40
4562000,32
4562624,25
4563252,11
4563876,31
4564500,65
4565132,74
4565752,68
4566384,43
4567008,16
4567632,16
4568264,10
4568880,15
4569508,24
4570140,12
4570760,14
4571392,15
4572016,19
4572644,20
4573276,20
4573896,15
4574528,21
4575152,42
4575776,61
4576408,81
4577024,77
4577656,46
4578280,26
4578904,15
4579536,14
4580152,19
4580784,29
4581416,45
4582032,44
4582664,38
4583288,37
4583920,30
4584552,24
4585168,24
4585800,25
4586424,16
4587048,14
4587680,12
4588296,19
4588924,29
4589548,32
4590172,23
4590804,19
4591428,23
4592056,42
4592684,51
4593304,61
4593932,56
4594556,46
4595188,38
4595820,20
4596440,13
4597072,17
4597696,29
4598320,48
4598952,65
4599568,67
4600200,55
4600824,39
4601448,27
4602080,32
4602704,35
4603332,27
4603964,12
4604584,18
4605216,28
4605840,37
4606472,33
4607100,22
4607720,22
4608352,45
4608976,85
4609596,101
4610280,94
4610896,61
4611524,31
4612152,12
4612776,17
4613404,23
4614028,30
4614660,43
4615288,56
4615908,44
4616536,22
4617160,19
4617784,21
4618412,18
4619032,25
4619660,24
4620284,18
4620912,27
4621540,24
4622164,11
4622796,15
4623424,19
4624044,42
4624672,59
4625296,69
4625924,59
4626556,46
4627176,24
4627808,13
4628432,17
4629056,23
4629684,22
4630304,12
4630936,20
4631564,32
4632184,41
4632812,47
4633436,46
4634068,43
4634700,40
4635320,38
4635948,24
4636576,15
4637200,12
4637828,25
4638448,28
4639076,35
4639704,39
4640328,26
4640956,12
4641576,13
4642204,33
4642836,78
4643456,97
4644084,90
4644708,62
4645340,27
4645968,16
4646592,13
4647220,27
4647844,47
4648468,49
4649100,32
4649720,21
4650348,26
4650972,37
4651596,35
4652228,34
4652848,28
4653476,22
4654108,18
4654728,14
4655356,17
4655984,12
4656616,19
4657244,24
4657864,27
4658496,46
4659120,69
4659744,61
4660372,47
4660992,41
4661620,28
4662244,14
4662868,15
4663500,26
4664120,37
4664748,51
4665380,72
4666000,70
4666628,55
4667252,32
4667884,23
4668516,16
4669136,11
4669768,24
4670392,39
4671016,49
4671648,49
4672264,44
4672896,30
4673520,21
4674140,21
4674772,35
4675396,45
4676024,41
4676656,36
4677272,39
4677904,36
4678528,24
4679156,15
4679788,12
4680408,20
4681036,36
4681660,55
4682284,53
4682916,43
4683536,35
4684168,29
4684792,19
4685416,17
4686044,25
4686672,23
4687300,23
4687932,18
4688552,13
4689184,34
4689808,50
4690436,49
4691068,30
4691688,32
4692316,46
4692944,56
4693568,36
4694200,12
4694816,17
4695448,13
4696076,15
4696696,13
4697328,21
4697952,23
4698580,15
4699212,10
4699832,31
4700464,29
4701088,31
4701712,33
4702344,27
4702964,23
4703592,16
4704220,17
4704844,38
4705476,42
4706096,29
4706728,18
4707356,16
4707976,19
4708608,17
4709232,56
4709864,84
4710496,98
4711112,63
4711744,20
4712368,19
4712992,16
4713620,18
4714240,35
4714868,38
4715496,40
4716120,41
4716748,35
4717368,32
4718000,30
4718632,31
4719248,32
4719880,28
4720504,25
4721132,18
4721764,10
4722384,18
4723016,28
4723640,41
4724264,57
4724896,62
4725512,76
4726144,69
4726768,66
4727392,52
4728024,38
4728648,20
4729276,14
4729908,12
4730528,25
4731160,47
4731784,57
4732416,44
4733044,42
4733664,43
4734296,57
4734920,67
4735544,44
4736176,25
4736792,14
4737420,25
4738048,48
4738672,44
4739300,17
4739924,17
4740556,27
4741188,18
4741808,18
4742436,54
4743060,66
4743688,60
4744316,39
4744936,32
4745568,25
4746192,14
4746816,24
4747448,37
4748064,38
4748696,35
4749328,29
4749944,23
4750576,22
4751204,31
4751832,28
4752464,26
4753084,33
4753712,32
4754340,13
4754964,40
4755592,60
4756216,64
4756848,53
4757472,41
4758096,35
4758724,30
4759344,33
4759976,33
4760608,14
4761224,14
4761856,16
4762480,12
4763112,15
4763744,11
4764360,10
4764988,13
4765616,11
4766240,27
4766868,23
4767488,27
4768120,31
4768744,34
4769368,44
4769996,43
4770616,21
4771248,17
4771876,42
4772496,41
4773124,19
4773748,15
4774380,19
4775012,35
4775632,59
4776264,71
4776888,64
4777512,41
4778144,24
4778760,18
4779392,12
4780020,15
4780644,28
4781276,40
4781900,48
4782532,51
4783164,47
4783784,41
4784416,52
4785044,38
4785672,19
4786304,14
4786920,18
4787552,15
4788176,18
4788800,21
4789428,14
4790048,10
4790680,12
4791312,39
4791932,69
4792564,59
4793188,55
4793820,64
4794452,36
4795072,28
4795704,24
4796328,13
4796952,31
4797584,62
4798204,66
4798836,50
4799460,38
4800088,16
4800716,10
4801336,15
4801964,23
4802596,20
4803216,15
4803844,12
4804468,12
4805100,14
4805728,20
4806348,11
4806980,11
4807604,21
4808228,37
4808856,65
4809476,83
4810104,85
4810728,68
4811356,19
4811984,15
4812608,17
4813240,12
4813868,16
4814488,28
4815116,26
4815740,24
4816372,30
4817004,30
4817624,35
4818252,31
4818876,29
4819500,34
4820132,16
4820752,25
4821380,35
4822008,23
4822632,14
4823260,29
4823884,14
4824516,39
4825148,46
4825768,60
4826396,71
4827024,79
4827652,48
4828284,26
4828904,17
4829532,15
4830160,12
4830784,29
4831416,64
4832032,65
4832664,57
4833292,39
4833912,32
4834540,33
4835168,21
4835796,21
4836428,22
4837048,15
4837680,13
4838304,11
4838928,15
4839556,24
4840176,41
4840804,45
4841428,44
4842052,48
4842684,44
4843304,38
4843936,41
4844564,46
4845184,39
4845812,26
4846440,15
4847068,10
4847700,10
4848320,37
4848948,60
4849572,52
4850200,33
4850828,31
4851448,33
4852080,32
4852704,33
4853328,22
4853960,14
4854576,13
4855204,16
4855836,18
4856456,26
4857088,21
4857712,18
4858344,31
4858972,62
4859592,71
4860224,68
4860848,50
4861472,36
4862104,23
4862720,16
4863352,11
4863980,17
4864608,38
4865236,45
4865860,47
4866492,46
4867120,38
4867740,40
4868368,34
4868992,18
4869624,17
4870252,18
4870872,15
4871504,13
4872128,23
4872752,41
4873384,59
4874000,36
4874632,29
4875256,18
4875880,21
4876512,42
4877136,64
4877764,68
4878396,46
4879016,16
4879648,21
4880272,43
4880900,55
4881532,70
4882152,71
4882784,44
4883408,12
4884032,14
4884660,14
4885280,11
4885908,14
4886540,12
4887160,16
4887792,19
4888416,16
4889044,22
4889676,22
4890296,23
4890924,23
4891552,24
4892176,31
4892804,37
4893424,54
4894056,64
4894680,40
4895304,20
4895936,14
4896556,13
4897184,12
4897816,23
4898432,32
4899064,30
4899688,41
4900316,51
4900948,70
4901568,70
4902200,44
4902824,12
4903448,21
4904080,17
4904704,16
4905336,13
4905960,12
4906584,21
4907216,15
4907832,34
4908464,68
4909096,80
4909712,89
4910344,82
4910972,51
4911604,23
4912236,12
4912856,12
4913488,18
4914112,30
4914740,40
4915372,38
4915992,45
4916620,55
4917244,58
4917872,59
4918500,40
4919124,21
4919752,12
4920384,13
4921000,15
4921628,17
4922252,22
4922880,27
4923508,34
4924128,32
4924756,33
4925384,43
4926008,51
4926636,46
4927256,25
4927884,16
4928516,40
4929136,30
4929764,14
4930388,11
4931016,12
4931648,29
4932264,39
4932896,39
4933520,33
4934148,28
4934780,16
4935400,11
4936028,15
4936652,16
4937276,21
4937908,15
4938528,11
4939156,10
4939788,14
4940408,18
4941036,14
4941660,10
4942292,17
4942920,31
4943544,59
4944176,62
4944796,56
4945424,35
4946052,22
4946672,13
4947300,17
4947924,37
4948548,49
4949180,48
4949800,47
4950428,43
4951060,42
4951680,35
4952312,27
4952936,23
4953568,14
4954200,12
4954816,14
4955448,21
4956072,15
4956696,16
4957328,20
4957944,21
4958576,39
4959200,51
4959824,60
4960456,52
4961072,45
4961700,49
4962332,36
4962952,19
4963580,10
4964208,26
4964836,43
4965468,45
4966088,40
4966716,44
4967340,40
4967964,47
4968596,46
4969216,29
4969844,20
4970468,12
4971092,13
4971724,25
4972344,53
4972972,35
4973604,10
4974224,25
4974856,14
4975480,51
4976108,85
4976740,92
4977360,83
4977988,59
4978616,40
4979240,28
4979868,17
4980488,10
4981116,23
4981744,44
4982368,47
4983000,37
4983624,29
4984256,23
4984884,30
4985504,39
4986136,48
4986760,47
4987392,37
4988020,27
4988640,19
4989272,45
4989896,54
4990520,45
4991152,31
4991772,35
4992404,47
4993032,51
4993652,52
4994280,39
4994904,39
4995536,35
4996168,23
4996784,11
4997416,25
4998040,35
4998664,39
4999292,32
4999912,38
5000544,35
5001168,30
5001792,26
5002420,27
5003040,32
5003672,29
5004300,20
5004920,15
5005548,12
5006172,23
5006804,36
5007436,27
5008056,24
5008684,48
5009308,66
5009932,75
5010564,60
5011184,35
5011816,22
5012440,17
5013064,13
5013696,14
5014312,29
5014944,40
5015576,42
5016196,33
5016828,23
5017452,19
5018084,31
5018712,39
5019336,33
5019968,13
5020592,14
5021216,13
5021848,11
5022464,11
5023096,10
5023720,12
5024344,11
5024972,13
5025592,34
5026224,41
5026852,66
5027472,50
5028104,35
5028728,35
5029360,34
5029988,28
5030608,18
5031236,37
5031864,45
5032488,38
5033120,32
5033736,27
5034368,33
5034992,20
5035616,17
5036248,23
5036872,29
5037504,27
5038132,17
5038752,10
5039384,19
5040008,19
5040636,38
5041268,28
5041888,40
5042520,55
5043144,79
5043768,73
5044400,37
5045016,23
5045648,14
5046280,13
5046896,38
5047528,58
5048152,64
5048784,52
5049412,42
5050032,28
5050664,12
5051288,13
5051912,11
5052544,12
5053164,12
5053796,12
5054420,12
5055044,16
5055676,26
5056300,36
5056928,38
5057560,32
5058176,17
5058808,34
5059432,53
5060064,58
5060692,48
5061312,29
5061944,17
5062568,15
5063192,13
5063824,19
5064444,34
5065072,46
5065696,45
5066320,42
5066952,41
5067572,36
5068200,30
5068832,33
5069456,32
5070088,25
5070712,16
5071344,13
5071976,19
5072596,26
5073224,31
5073852,30
5074476,33
5075108,38
5075728,48
5076360,58
5076988,53
5077616,27
5078248,14
5078872,13
5079504,14
5080136,15
5080756,33
5081388,43
5082012,46
5082636,38
5083268,35
5083888,32
5084520,24
5085144,28
5085768,26
5086400,12
5087016,24
5087648,36
5088280,48
5088900,48
5089528,44
5090156,30
5090784,16
5091416,10
5092036,20
5092668,40
5093292,49
5093920,48
5094552,46
5095168,42
5095800,23
5096424,13
5097048,12
5097680,11
5098296,20
5098928,36
5099560,49
5100176,49
5100808,45
5101432,50
5102064,45
5102696,30
5103316,13
5103948,16
5104572,15
5105200,25
5105832,30
5106452,33
5107084,25
5107708,12
5108336,11
5108968,54
5109596,96
5110228,97
5110860,53
5111480,12
5112112,17
5112740,13
5113368,13
5114000,10
5114620,15
5115252,29
5115876,31
5116504,36
5117136,37
5117756,36
5118388,34
5119024,31
5119644,27
5120276,13
5120900,14
5121528,13
5122156,10
5122776,13
5123404,12
5124028,10
5124648,33
5125276,58
5125896,65
5126524,85
5127148,72
5127772,44
5128400,38
5129016,26
5129644,13
5130272,18
5130896,31
5131524,39
5132148,45
5132776,50
5133408,48
5134024,51
5134652,41
5135276,23
5135900,15
5136532,12
5137152,13
5137780,20
5138404,14
5139028,22
5139660,12
5140280,12
5140908,15
5141540,12
5142160,45
5142788,98
5143412,116
5144096,96
5144716,69
5145336,44
5145968,22
5146588,13
5147212,20
5147844,38
5148464,57
5149092,60
5149724,54
5150344,56
5150976,52
5151600,40
5152228,23
5152856,22
5153480,18
5154108,12
5154732,14
5155356,25
5155988,42
5156608,41
5157236,24
5157860,20
5158488,39
5159116,58
5159736,63
5160368,54
5160996,38
5161616,31
5162244,22
5162868,16
5163496,13
5164124,29
5164744,43
5165376,47
5166000,41
5166624,49
5167252,42
5167872,35
5168504,21
5169128,16
5169748,19
5170380,20
5171000,13
5171632,12
5172260,10
5172880,17
5173508,16
5174132,32
5174764,45
5175392,68
5176012,76
5176640,71
5177264,77
5177888,55
5178516,28
5179136,21
5179768,17
5180392,17
5181016,34
5181648,28
5182264,24
5182892,41
5183524,52
5184144,45
5184772,43
5185396,37
5186028,42
5186656,23
5187272,13
5187904,13
5188528,23
5189152,28
5189780,19
5190400,22
5191028,25
5191656,15
5192280,31
5192908,51
5193528,70
5194160,72
5194788,49
5195408,26
5196040,14
5196664,16
5197296,21
5197924,18
5198544,24
5199176,43
5199800,41
5200424,32
5201052,24
5201672,31
5202304,31
5202924,26
5203548,13
5204180,15
5204804,13
5205432,10
5206064,11
5206680,17
5207308,17
5207932,43
5208564,55
5209196,58
5209816,54
5210444,67
5211068,50
5211692,25
5212324,18
5212944,19
5213572,14
5214200,10
5214824,21
5215452,46
5216076,42
5216708,38
5217340,42
5217960,44
5218588,36
5219212,26
5219844,13
5220476,12
5221096,13
5221728,16
5222352,17
5222976,17
5223608,11
5224224,34
5224856,55
5225484,72
5226104,82
5226732,74
5227356,49
5227988,17
5228620,14
5229240,21
5229868,13
5230496,10
5231120,13
5231748,19
5232368,34
5233000,43
5233620,29
5234244,20
5234876,16
5235496,19
5236124,33
5236756,46
5237376,32
5238008,15
5238632,35
5239260,28
5239892,11
5240512,12
5241144,12
5241768,13
5242392,40
5243024,63
5243640,80
5244268,62
5244892,38
5245516,19
5246144,13
5246760,11
5247392,13
5248020,36
5248636,59
5249264,75
5249888,67
5250516,45
5251148,18
5251768,12
5252396,11
5253020,13
5253644,15
5254272,13
5254892,15
5255520,34
5256144,49
5256764,41
5257396,28
5258016,28
5258644,40
5259272,55
5259896,77
5260524,80
5261148,42
5261780,19
5262408,12
5263024,13
5263652,11
5264276,23
5264900,33
5265532,38
5266152,53
5266780,69
5267404,54
5268028,39
5268656,32
5269280,24
5269908,13
5270540,20
5271160,16
5271788,23
5272412,39
5273044,36
5273672,23
5274296,29
5274924,35
5275548,41
5276172,48
5276800,54
5277416,44
5278044,29
5278668,27
5279296,21
5279924,14
5280544,12
5281172,37
5281804,44
5282424,40
5283052,35
5283676,25
5284304,32
5284936,37
5285552,32
5286180,29
5286804,16
5287428,13
5288060,15
5288680,19
5289308,15
5289928,11
5290552,12
5291184,13
5291800,44
5292432,69
5293060,74
5293680,51
5294308,41
5294932,49
5295564,33
5296192,12
5296808,12
5297440,10
5298064,29
5298692,59
5299324,58
5299944,51
5300572,37
5301196,23
5301820,20
5302452,28
5303072,49
5303700,32
5304332,14
5304952,22
5305580,35
5306204,31
5306836,33
5307468,46
5308088,47
5308716,51
5309344,57
5309968,65
5310600,65
5311216,36
5311848,19
5312472,12
5313096,12
5313724,14
5314344,26
5314972,38
5315604,48
5316224,56
5316852,50
5317476,48
5318108,53
5318740,44
5319360,37
5319988,19
5320616,14
5321240,23
5321868,35
5322488,46
5323116,35
5323744,26
5324368,11
5325000,12
5325616,39
5326244,54
5326872,52
5327488,47
5328116,23
5328740,15
5329368,47
5329996,42
5330616,13
5331244,23
5331868,38
5332488,39
5333120,35
5333736,31
5334368,25
5334992,15
5335616,21
5336244,35
5336864,46
5337492,44
5338124,14
5338744,26
5339372,39
5339996,49
5340628,53
5341256,47
5341880,51
5342508,64
5343132,68
5343756,64
5344388,44
5345008,30
5345636,14
5346260,14
5346884,19
5347512,29
5348132,48
5348760,61
5349388,50
5350008,38
5350636,27
5351260,24
5351892,28
5352520,25
5353144,21
5353772,15
5354396,15
5355020,13
5355652,20
5356272,23
5356900,23
5357524,23
5358148,31
5358780,56
5359400,68
5360028,65
5360660,63
5361280,46
5361908,25
5362532,14
5363164,12
5363796,19
5364416,37
5365044,51
5365668,50
5366292,43
5366924,44
5367544,47
5368172,44
5368796,25
5369420,22
5370052,26
5370672,23
5371300,16
5371932,14
5372552,45
5373184,66
5373808,64
5374436,49
5375068,32
5375688,49
5376320,79
5376940,76
5377564,56
5378192,28
5378812,14
5379440,13
5380064,22
5380684,36
5381316,43
5381936,49
5382564,57
5383196,48
5383816,22
5384444,21
5385068,27
5385700,19
5386328,17
5386944,19
5387576,19
5388200,23
5388824,15
5389452,18
5390072,40
5390700,39
5391328,35
5391952,52
5392580,67
5393200,75
5393828,68
5394460,46
5395080,32
5395712,17
5396336,13
5396964,25
5397596,37
5398216,45
5398848,45
5399472,27
5400096,13
5400724,10
5401344,20
5401976,27
5402600,27
5403224,18
5403852,12
5404472,13
5405104,13
5405732,20
5406352,27
5406984,25
5407608,23
5408236,29
5408864,40
5409488,49
5410116,57
5410740,56
5411364,35
5411992,16
5412616,20
5413244,21
5413868,21
5414492,23
5415124,31
5415748,26
5416376,38
5417004,41
5417624,29
5418252,18
5418876,15
5419508,17
5420140,22
5420760,21
5421392,21
5422016,18
5422640,21
5423268,16
5423888,32
5424520,49
5425144,49
5425768,54
5426396,61
5427024,69
5427656,59
5428284,47
5428904,34
5429532,29
5430156,16
5430788,14
5431416,22
5432036,42
5432664,52
5433288,39
5433912,25
5434544,19
5435160,29
5435792,37
5436424,34
5437040,31
5437672,16
5438296,24
5438928,40
5439556,42
5440176,29
5440804,14
5441428,13
5442052,36
5442684,53
5443304,55
5443932,41
5444556,18
5445180,12
5445808,15
5446424,18
5447056,14
5447680,20
5448304,11
5448932,19
5449556,25
5450184,26
5450816,21
5451432,19
5452060,19
5452684,22
5453316,16
5453944,16
5454568,19
5455196,12
5455820,14
5456448,24
5457076,26
5457696,26
5458324,27
5458956,42
5459576,57
5460204,56
5460828,48
5461460,32
5462088,12
5462704,18
5463336,18
5463960,15
5464584,18
5465212,39
5465832,47
5466460,31
5467084,18
5467708,17
5468340,17
5468960,20
5469588,26
5470220,15
5470840,13
5471468,19
5472096,22
5472724,13
5473356,13
5473976,32
5474604,36
5475228,42
5475852,57
5476484,59
5477104,67
5477736,51
5478360,44
5478984,50
5479612,41
5480232,15
5480860,17
5481492,34
5482112,51
5482740,51
5483368,44
5483996,38
5484628,45
5485248,34
5485876,30
5486504,25
5487128,21
5487756,21
5488376,14
5489004,17
5489628,20
5490252,24
5490884,36
5491504,41
5492132,54
5492764,74
5493384,82
5494012,75
5494640,49
5495268,24
5495900,12
5496520,13
5497148,10
5497776,25
5498400,37
5499028,40
5499648,46
5500276,39
5500904,41
5501528,46
5502156,36
5502776,30
5503408,28
5504040,23
5504656,14
5505284,16
5505908,43
5506540,63
5507168,41
5507792,27
5508424,15
5509048,34
5509672,47
5510300,56
5510920,46
5511548,27
5512176,25
5512800,23
5513428,25
5514056,10
5514684,25
5515316,40
5515936,41
5516568,48
5517192,46
5517824,46
5518452,36
5519072,26
5519704,13
5520328,13
5520952,13
5521580,12
5522200,13
5522832,21
5523460,14
5524080,11
5524708,19
5525336,59
5525964,82
5526596,68
5527216,63
5527848,39
5528472,24
5529096,17
5529728,21
5530344,18
5530972,16
5531596,36
5532220,49
5532852,57
5533472,63
5534100,66
5534732,63
5535352,48
5535984,33
5536608,23
5537236,13
5537868,22
5538488,41
5539116,48
5539744,36
5540368,35
5540996,26
5541616,17
5542244,40
5542872,66
5543496,69
5544124,55
5544744,35
5545376,28
5546004,20
5546624,12
5547256,13
5547880,33
5548508,45
5549140,42
5549760,38
5550392,24
5551016,15
5551640,11
5552272,27
5552888,40
5553520,28
5554144,14
5554768,18
5555400,21
5556016,18
5556644,16
5557276,14
5557896,15
5558528,23
5559152,67
5559784,105
5560464,84
5561088,49
5561720,25
5562344,13
5562968,13
5563600,22
5564216,33
5564848,46
5565476,38
5566096,35
5566728,35
5567352,21
5567984,20
5568616,21
5569236,20
5569864,19
5570492,16
5571116,13
5571748,12
5572368,21
5572996,23
5573624,31
5574248,38
5574876,31
5575500,34
5576132,32
5576764,46
5577384,49
5578016,38
5578640,25
5579268,14
5579900,18
5580520,27
5581152,46
5581776,51
5582400,44
5583028,27
5583648,13
5584280,14
5584908,24
5585528,32
5586160,33
5586784,29
5587412,14
5588044,39
5588664,43
5589292,39
5589920,37
5590544,35
5591172,35
5591792,40
5592424,51
5593048,59
5593672,61
5594300,44
5594920,32
5595552,22
5596180,11
5596800,15
5597428,39
5598056,48
5598688,48
5599320,52
5599936,45
5600568,33
5601192,35
5601820,36
5602448,25
5603064,24
5603696,34
5604320,41
5604944,14
5605572,32
5606192,29
5606824,11
5607452,12
5608072,12
5608700,49
5609324,79
5609956,102
5610636,107
5611308,54
5611936,28
5612564,21
5613184,26
5613812,10
5614440,32
5615068,41
5615700,30
5616320,21
5616948,15
5617572,15
5618200,28
5618828,27
5619448,27
5620076,13
5620700,16
5621328,14
5621956,17
5622576,14
5623204,13
5623836,15
5624456,20
5625084,28
5625712,40
5626340,51
5626972,64
5627592,51
5628224,27
5628848,19
5629472,15
5630104,11
5630720,15
5631352,33
5631976,62
5632604,51
5633232,36
5633856,29
5634484,27
5635116,22
5635736,33
5636364,40
5636988,20
5637620,11
5638248,18
5638868,14
5639496,24
5640120,34
5640744,40
5641372,54
5641992,57
5642620,57
5643244,51
5643868,46
5644500,27
5645124,18
5645752,15
5646384,13
5647004,13
5647632,26
5648256,45
5648884,34
5649516,19
5650136,25
5650764,34
5651392,43
5652016,47
5652644,36
5653264,24
5653892,19
5654516,22
5655140,15
5655772,14
5656396,24
5657024,44
5657656,52
5658272,37
5658904,53
5659524,68
5660156,66
5660788,70
5661408,49
5662040,32
5662664,27
5663288,22
5663916,14
5664536,38
5665164,47
5665788,42
5666416,33
5667044,27
5667668,23
5668300,30
5668932,38
5669552,45
5670184,32
5670808,15
5671432,13
5672064,16
5672680,18
5673312,28
5673936,28
5674560,27
5675188,30
5675808,43
5676440,56
5677072,62
5677688,51
5678320,37
5678944,22
5679576,17
5680204,16
5680824,10
5681452,26
5682076,48
5682704,55
5683332,64
5683952,51
5684580,24
5685204,16
5685828,18
5686460,18
5687080,14
5687708,13
5688340,12
5688960,13
5689588,15
5690216,29
5690844,41
5691476,44
5692096,40
5692728,41
5693352,56
5693976,65
5694608,49
5695228,31
5695856,21
5696480,14
5697104,10
5697732,15
5698352,29
5698984,39
5699612,57
5700232,53
5700864,35
5701488,33
5702116,30
5702748,36
5703368,40
5704000,20
5704620,14
5705248,27
5705876,32
5706496,35
5707128,35
5707752,31
5708376,22
5709008,43
5709628,55
5710256,52
5710888,48
5711504,31
5712136,14
5712760,14
5713392,16
5714020,23
5714640,32
5715272,41
5715896,42
5716520,30
5717148,14
5717768,11
5718400,13
5719024,21
5719648,26
5720280,15
5720904,12
5721536,13
5722168,19
5722784,21
5723416,15
5724044,11
5724676,12
5725304,22
5725928,49
5726560,71
5727184,83
5727808,65
5728440,38
5729064,13
5729696,17
5730324,23
5730944,39
5731576,55
5732204,59
5732836,31
5733468,11
5734088,12
5734720,17
5735344,27
5735968,24
5736596,25
5737216,21
5737844,17
5738468,12
5739092,35
5739724,35
5740344,32
5740972,22
5741604,18
5742224,51
5742852,66
5743476,61
5744108,48
5744740,29
5745360,38
5745988,31
5746612,18
5747236,10
5747868,32
5748488,44
5749116,33
5749744,28
5750368,31
5751000,29
5751624,33
5752256,34
5752884,30
5753504,30
5754136,20
5754760,13
5755392,17
5756020,19
5756640,25
5757272,19
5757896,17
5758520,26
5759152,54
5759772,63
5760404,66
5761032,55
5761648,38
5762276,20
5762900,12
5763528,15
5764156,25
5764776,35
5765404,40
5766028,37
5766660,40
5767288,38
5767904,43
5768532,38
5769156,28
5769780,12
5770412,17
5771032,25
5771660,25
5772284,12
5772912,15
5773540,36
5774164,33
5774796,24
5775424,18
5776048,25
5776676,49
5777300,61
5777924,47
5778556,42
5779176,29
5779808,19
5780432,11
5781056,27
5781684,44
5782304,58
5782936,52
5783564,36
5784184,23
5784812,17
5785436,16
5786068,16
5786700,11
5787320,13
5787948,12
5788572,15
5789196,13
5789828,10
5790448,13
5791076,26
5791700,29
5792328,38
5792956,46
5793576,54
5794208,52
5794836,38
5795456,15
5796084,12
5796708,17
5797340,14
5797972,11
5798592,14
5799220,24
5799844,36
5800468,38
5801100,42
5801720,41
5802348,35
5802972,25
5803596,17
5804228,12
5804848,15
5805476,20
5806108,24
5806728,25
5807356,15
5807984,16
5808616,24
5809244,51
5809864,61
5810496,58
5811120,44
5811744,35
5812376,33
5812992,25
5813624,14
5814248,11
5814872,20
5815504,38
5816124,50
5816752,57
5817384,57
5818004,41
5818632,27
5819256,37
5819884,18
5820516,22
5821136,29
5821768,28
5822392,37
5823016,35
5823648,25
5824268,23
5824896,20
5825520,41
5826144,60
5826776,72
5827400,70
5828028,37
5828660,16
5829280,14
5829908,12
5830536,18
5831164,32
5831796,40
5832416,47
5833044,48
5833672,40
5834296,31
5834928,32
5835544,22
5836176,23
5836808,33
5837424,32
5838052,16
5838680,27
5839308,45
5839940,40
5840560,31
5841188,25
5841812,32
5842440,50
5843068,56
5843688,52
5844316,35
5844944,34
5845568,32
5846196,26
5846816,15
5847448,28
5848076,64
5848696,76
5849328,53
5849952,36
5850580,27
5851212,24
5851832,21
5852464,13
5853088,13
5853712,13
5854344,14
5854960,13
5855592,17
5856220,31
5856844,31
5857476,42
5858096,46
5858724,36
5859356,42
5859976,59
5860608,55
5861232,21
5861860,13
5862492,12
5863112,13
5863740,27
5864368,34
5864992,27
5865620,28
5866240,29
5866868,33
5867496,32
5868120,29
5868752,12
5869368,12
5870000,12
5870632,11
5871248,12
5871880,14
5872508,11
5873136,10
5873768,14
5874388,29
5875020,46
5875644,65
5876272,76
5876900,77
5877520,66
5878152,35
5878776,21
5879400,13
5880032,19
5880656,26
5881288,27
5881916,32
5882536,37
5883168,40
5883792,38
5884424,38
5885056,33
5885676,23
5886304,21
5886932,14
5887556,13
5888192,14
5888808,16
5889436,13
5890068,11
5890688,15
5891316,25
5891944,27
5892572,48
5893204,70
5893824,74
5894456,63
5895080,39
5895704,17
5896332,12
5896952,12
5897584,10
5898208,19
5898832,34
5899460,38
5900080,41
5900708,28
5901340,16
5901960,15
5902588,14
5903212,22
5903844,35
5904476,20
5905096,15
5905724,31
5906352,31
5906976,12
5907604,10
5908224,11
5908856,27
5909476,37
5910104,39
5910732,37
5911352,24
5911984,19
5912616,18
5913232,13
5913864,24
5914488,19
5915116,11
5915748,14
5916368,19
5917000,18
5917624,17
5918248,23
5918880,14
5919496,14
5920128,17
5920748,13
5921372,15
5922004,21
5922628,19
5923256,21
5923884,17
5924504,14
5925132,17
5925756,37
5926388,63
5927020,60
5927640,56
5928272,47
5928896,37
5929520,31
5930148,18
5930768,11
5931400,18
5932024,21
5932648,25
5933280,37
5933904,54
5934536,64
5935164,58
5935784,39
5936416,22
5937040,13
5937672,13
5938300,11
5938920,13
5939552,22
5940176,28
5940800,25
5941428,22
5942048,24
5942676,31
5943308,34
5943928,47
5944560,50
5945180,43
5945812,36
5946444,34
5947064,25
5947692,12
5948320,33
5948944,49
5949572,55
5950192,54
5950824,37
5951448,25
5952072,29
5952700,27
5953320,21
5953948,17
5954580,12
5955200,21
5955828,31
5956456,24
5957084,28
5957716,26
5958336,20
5958968,30
5959592,43
5960216,49
5960844,64
5961464,50
5962096,28
5962720,13
5963344,18
5963972,32
5964592,34
5965224,23
5965852,26
5966472,30
5967100,25
5967728,20
5968356,14
5968988,21
5969608,40
5970236,51
5970864,33
5971488,19
5972116,14
5972736,29
5973368,27
5973992,34
5974616,50
5975248,56
5975864,60
5976496,60
5977128,69
5977744,68
5978376,48
5979000,25
5979632,13
5980264,14
5980880,23
5981508,35
5982136,39
5982760,30
5983388,27
5984008,15
5984636,15
5985260,29
5985888,35
5986516,31
5987144,20
5987772,13
5988404,12
5989024,15
5989656,13
5990280,14
5990912,17
5991544,19
5992160,23
5992788,40
5993416,46
5994040,47
5994672,38
5995288,32
5995920,21
5996552,13
5997168,10
5997800,14
5998424,29
5999056,37
5999684,23
6000304,10
6000936,10
6001560,23
6002184,39
6002816,44
6003432,33
6004060,24
6004684,14
6005312,16
6005940,28
6006560,38
6007188,33
6007820,28
6008440,30
6009068,47
6009696,55
6010324,56
6010956,54
6011576,39
6012208,19
6012832,14
6013456,13
6014088,10
6014704,28
6015336,48
6015964,56
6016588,57
6017220,46
6017840,46
6018468,38
6019100,13
6019720,13
6020352,15
6020976,13
6021608,12
6022236,12
6022856,27
6023484,37
6024112,39
6024736,39
6025364,37
6025984,54
6026616,59
6027240,65
6027864,49
6028496,26
6029112,19
6029744,15
6030376,11
6030996,17
6031624,28
6032252,38
6032880,46
6033512,43
6034132,37
6034764,35
6035388,35
6036012,22
6036644,14
6037264,17
6037896,17
6038520,12
6039144,15
6039776,16
6040400,11
6041032,10
6041664,30
6042280,66
6042908,85
6043532,82
6044164,63
6044796,29
6045416,15
6046048,18
6046672,24
6047296,27
6047928,50
6048548,55
6049176,21
6049808,14
6050424,11
6051056,19
6051680,20
6052312,26
6052944,27
6053560,20
6054192,19
6054816,13
6055440,15
6056072,20
6056696,22
6057328,22
6057952,21
6058576,20
6059208,45
6059824,65
6060456,48
6061088,37
6061712,36
6062344,36
6062972,25
6063600,17
6064232,15
6064852,33
6065480,46
6066108,50
6066732,43
6067364,24
6067984,29
6068616,35
6069240,33
6069864,19
6070496,13
6071120,20
6071748,20
6072380,30
6073000,41
6073632,36
6074256,27
6074884,28
6075516,44
6076136,63
6076768,57
6077396,48
6078020,33
6078652,27
6079272,17
6079904,11
6080540,21
6081160,49
6081792,64
6082416,57
6083044,52
6083676,50
6084296,41
6084924,29
6085548,19
6086176,18
6086804,16
6087424,16
6088056,16
6088680,15
6089304,33
6089932,46
6090552,57
6091184,41
6091816,33
6092436,39
6093064,44
6093688,57
6094320,65
6094952,42
6095568,15
6096200,13
6096824,12
6097448,24
6098080,46
6098696,59
6099328,40
6099952,12
6100576,13
6101208,21
6101832,41
6102464,41
6103096,32
6103712,24
6104344,17
6104968,13
6105596,21
6106228,41
6106848,47
6107480,33
6108104,26
6108728,26
6109360,34
6109980,42
6110608,52
6111240,48
6111864,36
6112496,24
6113124,13
6113756,10
6114384,18
6115008,31
6115640,36
6116268,47
6116892,45
6117524,24
6118144,23
6118776,27
6119404,21
6120028,13
6120660,13
6121284,13
6121916,13
6122548,18
6123168,25
6123800,35
6124428,30
6125060,23
6125688,38
6126312,56
6126944,62
6127568,58
6128192,30
6128824,15
6129444,12
6130076,13
6130708,18
6131328,29
6131960,40
6132584,45
6133216,50
6133848,53
6134468,42
6135096,33
6135724,30
6136348,25
6136980,13
6137600,21
6138232,29
6138860,26
6139484,26
6140116,28
6140744,22
6141376,11
6142008,16
6142628,43
6143260,63
6143888,83
6144520,78
6145152,52
6145768,23
6146396,12
6147020,15
6147644,23
6148276,30
6148896,36
6149524,38
6150156,45
6150776,42
6151404,33
6152028,27
6152660,29
6153288,30
6153912,17
6154544,13
6155168,13
6155792,20
6156424,28
6157040,21
6157672,16
6158296,14
6158920,29
6159548,66
6160168,77
6160796,57
6161428,27
6162048,13
6162676,15
6163300,24
6163932,24
6164560,14
6165184,10
6165812,16
6166436,21
6167060,29
6167692,40
6168312,53
6168944,52
6169568,32
6170192,13
6170820,11
6171440,13
6172068,13
6172700,24
6173320,27
6173952,17
6174576,13
6175208,29
6175836,60
6176456,73
6177088,70
6177712,60
6178336,41
6178968,27
6179584,15
6180216,15
6180840,25
6181464,35
6182092,48
6182712,52
6183344,54
6183972,49
6184592,31
6185224,21
6185848,20
6186476,18
6187108,14
6187728,13
6188360,20
6188984,25
6189608,16
6190236,17
6190856,18
6191488,21
6192112,37
6192736,47
6193368,47
6193992,47
6194624,44
6195252,40
6195872,28
6196500,17
6197128,10
6197756,23
6198388,46
6199008,61
6199640,44
6200264,34
6200888,32
6201520,39
6202136,43
6202768,35
6203400,22
6204016,13
6204648,13
6205272,20
6205904,33
6206536,30
6207152,31
6207784,35
6208408,23
6209032,28
6209664,39
6210280,62
6210912,87
6211536,87
6212160,67
6212788,24
6213408,31
6214040,35
6214668,28
6215288,23
6215920,22
6216544,28
6217176,36
6217804,47
6218424,58
6219056,60
6219680,48
6220304,31
6220936,25
6221556,13
6222184,47
6222812,70
6223436,63
6224068,35
6224688,23
6225320,24
6225948,42
6226568,62
6227196,67
6227824,52
6228452,42
6229084,24
6229704,13
6230336,14
6230960,23
6231584,31
6232216,42
6232832,44
6233464,43
6234088,33
6234712,28
6235344,25
6235964,29
6236596,26
6237224,21
6237848,14
6238480,14
6239104,11
6239736,19
6240368,19
6240984,17
6241612,22
6242236,27
6242860,42
6243492,62
6244112,76
6244744,62
6245368,41
6245992,21
6246624,12
6247248,10
6247876,13
6248508,26
6249128,40
6249756,43
6250380,43
6251012,40
6251644,34
6252264,25
6252892,21
6253516,13
6254144,13
6254772,13
6255392,15
6256024,12
6256652,14
6257272,29
6257904,32
6258528,40
6259156,47
6259792,44
6260408,55
6261040,60
6261664,44
6262288,29
6262920,26
