tempo_arduino_micro_s,valor_ADC
500,23
1004,21
1504,20
2000,28
2508,29
3000,34
3508,42
4000,47
4504,42
5000,25
5500,16
6000,17
6500,20
7000,16
7500,10
8000,16
8500,22
9000,30
9500,23
10000,18
10508,22
11028,38
11556,41
12076,45
12604,49
13124,61
13652,72
14172,67
14700,52
15220,32
15748,16
16268,11
16796,14
17316,22
17836,25
18356,23
18876,21
19396,30
19916,36
20436,37
20956,34
21476,30
21996,19
22516,14
23036,18
23564,10
24084,18
24612,17
25132,16
25660,31
26180,33
26708,37
27228,44
27756,41
28276,39
28804,34
29324,16
29852,12
30372,20
30900,26
31420,20
31948,14
32472,10
32996,16
33516,28
34044,30
34564,36
35092,47
35612,52
36140,52
36660,34
37188,20
37708,17
38236,16
38760,18
39284,14
39804,14
40332,21
40852,28
41372,39
41892,33
42412,27
42932,27
43452,25
43972,32
44492,32
45012,42
45532,44
46052,46
46572,50
47092,38
47612,23
48140,14
48660,11
49188,16
49708,25
50236,29
50756,23
51284,23
51804,27
52332,47
52852,47
53380,39
53900,26
54428,14
54948,16
55476,22
55996,19
56524,18
57044,12
57572,10
58096,10
58620,12
59140,15
59668,24
60188,37
60716,44
61240,45
61764,49
62284,43
62812,23
63332,17
63860,18
64384,19
64908,18
65428,17
65948,10
66468,19
66988,29
67508,30
68028,26
68548,22
69068,20
69588,16
70108,16
70628,31
71148,37
71672,35
72192,29
72716,17
73236,15
73764,17
74284,22
74812,32
75336,38
75860,37
76384,36
76908,37
77428,39
77956,41
78480,37
79004,39
79528,27
80052,18
80572,13
81100,15
81620,12
82148,14
82668,26
83196,36
83720,34
84244,37
84764,41
85292,31
85812,20
86340,11
86860,11
87388,18
87908,23
88436,26
88956,16
89484,16
90004,23
90524,18
91044,25
91564,51
92084,46
92604,30
93124,33
93644,39
94164,39
94684,37
95208,45
95724,51
96248,43
96764,33
97292,22
97812,16
98340,11
98860,19
99388,28
99908,32
100436,32
101004,28
101584,21
102156,14
102736,20
103304,29
103880,36
104456,29
105024,21
105600,22
106168,28
106744,17
107312,11
107896,13
108464,10
109040,19
109624,38
110192,58
110768,72
111336,70
111920,49
112492,32
113072,31
113640,34
114216,33
114800,19
115368,11
115952,17
116520,25
117104,32
117676,38
118252,47
118832,41
119400,31
119984,19
120556,13
121136,11
121704,14
122288,13
122856,14
123436,11
124016,19
124584,18
125168,11
125736,15
126320,39
126888,57
127464,58
128048,51
128616,45
129192,42
129760,29
130344,17
130912,16
131496,13
132064,16
132640,21
133216,29
133784,29
134360,37
134928,50
135512,60
136084,61
136656,32
137232,19
137800,13
138384,15
138952,22
139536,31
140104,36
140688,29
141260,34
141832,36
142416,29
142984,20
143568,13
144136,12
144720,20
145288,27
145864,30
146440,35
147008,20
147592,14
148160,24
148744,26
149312,19
149896,20
150468,12
151040,11
151624,12
152196,11
152776,11
153348,11
153928,12
154496,17
155080,24
155656,27
156224,25
156808,15
157376,11
157952,27
158524,46
159104,56
159676,53
160252,50
160832,49
161400,47
161984,31
162552,20
163136,17
163708,25
164288,29
164856,14
165424,13
166000,19
166568,26
167144,31
167712,30
168296,29
168864,32
169440,40
170024,40
170592,23
171168,12
171736,14
172320,15
172888,22
173472,24
174040,17
174620,11
175200,13
175768,21
176352,59
176920,79
177504,57
178076,48
178648,42
179232,40
179800,35
180376,32
180944,30
181528,13
182096,11
182680,11
183248,25
183824,40
184408,38
184976,28
185552,17
186124,24
186704,33
187272,35
187856,23
188432,14
189000,16
189584,20
190152,29
190736,25
191304,14
191888,13
192460,14
193032,12
193616,15
194184,35
194768,49
195336,51
195920,40
196488,33
197072,15
197648,15
198216,16
198800,11
199368,10
199952,9
200472,16
201048,36
201616,38
202192,35
202776,30
203348,35
203928,34
204500,22
205080,13
205648,17
206224,20
206792,26
207368,17
207952,14
208520,17
209104,25
209672,48
210256,73
210824,74
211408,62
211984,50
212552,27
213136,15
213704,13
214288,13
214856,11
215440,11
216008,17
216584,27
217160,32
217732,32
218312,29
218880,24
219464,21
220032,21
220616,23
221192,21
221764,19
222344,17
222916,14
223496,12
224068,14
224648,18
225216,24
225792,23
226376,26
226944,38
227528,46
228096,51
228680,43
229248,23
229832,18
230408,18
230976,16
231552,11
232124,17
232704,29
233272,25
233856,18
234424,27
235000,27
235584,27
236152,44
236736,37
237308,30
237888,15
238460,15
239040,18
239612,18
240188,14
240768,10
241336,19
241920,25
242488,28
243072,19
243644,34
244216,78
244800,85
245368,74
245952,50
246520,31
247104,15
247672,16
248256,19
248824,11
249400,19
249984,15
250552,13
251136,15
251708,26
252288,29
252856,27
253432,16
254016,12
254588,12
255168,17
255740,15
256320,19
256896,27
257472,22
258040,14
258616,12
259192,12
259760,16
260344,40
260912,64
261496,71
262064,43
262640,12
263224,15
263792,15
264376,17
264944,11
265528,9
266048,10
266624,11
267192,20
267772,38
268352,49
268924,35
269504,32
270072,25
270656,24
271224,17
271808,13
272380,14
272952,26
273536,46
274108,36
274688,26
275256,22
275840,17
276408,11
276984,14
277568,38
278140,44
278720,42
279288,40
279872,30
280444,17
281024,14
281596,10
282172,17
282752,22
283324,19
283904,21
284476,25
285056,28
285624,30
286200,23
286784,18
287352,22
287936,19
288508,18
289088,22
289656,15
290240,17
290808,14
291384,11
291968,13
292536,24
293120,38
293688,47
294272,51
294844,55
295416,50
296000,31
296568,19
297152,14
297724,13
298304,15
298876,24
299456,25
300040,36
300612,39
301192,30
301764,19
302344,13
302916,13
303496,11
304068,14
304640,14
305224,17
305796,18
306376,15
306948,12
307528,14
308104,18
308688,20
309264,22
309836,33
310416,49
310984,60
311568,66
312148,51
312728,31
313300,23
313876,18
314456,14
315028,14
315608,19
316180,33
316760,29
317332,20
317908,15
318488,16
319060,26
319640,31
320212,26
320792,24
321360,19
321944,14
322512,14
323092,21
323672,37
324244,35
324824,12
325392,15
325976,10
326548,18
327124,29
327704,44
328272,60
328848,55
329416,45
329992,36
330560,26
331144,18
331712,10
332288,19
332872,35
333440,36
334016,32
334584,38
335168,36
335740,39
336320,37
336888,24
337464,24
338040,18
338608,16
339184,18
339756,25
340336,17
340904,15
341480,11
342064,11
342632,12
343216,32
343784,64
344368,86
344936,76
345520,50
346092,32
346664,20
347248,18
347816,14
348400,11
348968,24
349552,52
350124,43
350700,32
351280,30
351852,20
352432,13
353004,15
353584,15
354156,13
354736,13
355308,16
355884,17
356464,11
357036,17
357616,18
358188,20
358768,30
359344,34
359924,38
360504,52
361072,61
361656,57
362224,47
362808,30
363380,15
363960,16
364532,23
365108,31
365688,27
366256,29
366840,26
367412,18
367992,17
368564,21
369140,29
369720,38
370288,22
370872,13
371444,14
372024,17
372592,17
373176,17
373748,18
374324,19
374904,20
375476,16
376056,15
376628,18
377208,25
377780,38
378356,40
378936,31
379508,24
380088,19
380660,15
381240,17
381812,13
382392,11
382964,15
383540,20
384120,24
384692,26
385272,22
385844,23
386424,19
386996,18
387572,21
388152,17
388724,13
389304,14
389872,15
390456,15
391024,19
391608,20
392180,17
392752,19
393336,25
393908,33
394488,43
395068,42
395648,29
396220,26
396796,19
397376,16
397948,15
398528,34
399100,45
399680,55
400260,51
400840,37
401416,20
401988,10
402568,11
403136,11
403720,13
404300,14
404880,27
405448,34
406028,25
406608,24
407180,30
407760,29
408332,22
408912,15
409484,18
410064,42
410648,47
411216,41
411792,24
412360,15
412944,27
413512,28
414096,32
414664,18
415240,27
415824,28
416396,11
416976,18
417544,21
418128,18
418696,11
419280,11
419856,24
420424,29
421000,30
421568,17
422152,16
422724,16
423304,17
423872,17
424448,13
425032,11
425600,11
426184,27
426756,40
427336,55
427908,66
428488,63
429064,47
429632,26
430216,14
430784,14
431368,23
431936,34
432520,39
433088,43
433664,52
434248,45
434816,20
435400,11
435968,16
436552,17
437124,21
437704,17
438280,13
438852,20
439432,24
440004,15
440584,11
441152,26
441736,35
442304,46
442884,47
443464,48
444036,52
444616,58
445188,56
445768,35
446340,23
446920,13
447496,14
448068,14
448648,15
449216,21
449800,31
450372,35
450952,33
451520,35
452096,28
452680,26
453248,23
453832,22
454404,16
454984,15
455556,15
456136,14
456720,16
457288,15
457872,14
458444,13
459024,19
459596,25
460176,31
460748,39
461324,50
461904,41
462476,30
463056,27
463628,17
464208,14
464776,12
465360,17
465936,27
466504,35
467088,40
467660,35
468240,16
468812,21
469392,33
469964,21
470540,13
471120,13
471692,18
472272,23
472844,20
473424,16
473996,40
474576,53
475152,44
475724,39
476304,43
476876,54
477456,54
478028,50
478608,43
479188,38
479764,28
480344,17
480916,14
481496,11
482064,19
482648,32
483216,41
483792,50
484376,45
484948,32
485528,29
486100,31
486680,15
487256,14
487840,14
488412,14
488984,17
489568,13
490140,10
490720,12
491292,11
491872,29
492448,35
493024,35
493608,42
494176,49
494760,52
495332,43
495912,27
496492,15
497072,13
497644,15
498216,13
498800,10
499372,25
499952,29
500524,30
501104,27
501676,28
502252,30
502832,34
503404,34
503984,31
504556,15
505136,13
505708,14
506288,23
506860,23
507436,16
508016,20
508588,39
509168,40
509748,41
510328,54
510908,55
511484,39
512068,18
512636,15
513216,20
513784,18
514368,16
514936,10
515520,17
516088,17
516664,15
517248,19
517816,24
518400,31
518968,39
519552,35
520124,25
520696,23
521280,14
521848,23
522432,22
523000,18
523584,20
524152,23
524736,29
525308,31
525880,26
526464,26
527032,36
527616,43
528184,45
528768,37
529336,29
529916,18
530496,15
531068,33
531648,40
532220,44
532800,50
533368,35
533952,17
534524,13
535096,12
535680,23
536248,24
536832,17
537404,12
537984,18
538552,18
539132,15
539712,11
540284,10
540864,14
541432,16
542016,23
542596,34
543176,40
543760,33
544332,40
544912,43
545484,32
546064,15
546636,14
547216,25
547784,31
548364,23
548944,18
549516,20
550096,26
550676,25
551256,21
551828,11
552404,10
552984,10
553552,14
554136,13
554708,13
555288,14
555868,14
556448,9
556968,10
557540,11
558120,11
558692,13
559272,27
559844,42
560424,46
561004,34
561584,40
562156,56
562732,55
563312,30
563884,14
564464,13
565036,10
565616,12
566188,23
566764,31
567344,34
567916,34
568496,28
569068,20
569648,21
570216,16
570800,12
571380,12
571956,14
572536,13
573108,13
573688,13
574264,15
574848,18
575420,18
575996,32
576580,53
577148,56
577728,49
578296,31
578880,13
579448,17
580032,32
580604,22
581180,12
581760,10
582332,11
582912,10
583492,10
584072,11
584648,20
585224,16
585808,19
586380,26
586960,37
587532,39
588112,29
588684,19
589264,15
589848,11
590420,12
591000,18
591572,34
592152,46
592732,44
593312,45
593884,50
594460,60
595040,51
595612,36
596192,28
596764,21
597344,16
597916,11
598492,14
599072,34
599644,45
600224,45
600796,47
601376,45
601956,25
602536,13
603108,15
603684,28
604264,22
604836,24
605416,37
605988,23
606568,15
607148,11
607724,11
608304,15
608876,23
609456,38
610028,56
610608,50
611180,44
611764,48
612340,44
612916,31
613496,25
614072,14
614652,19
615224,27
615808,31
616380,28
616956,27
617536,31
618108,38
618688,27
619260,13
619840,11
620412,15
620992,13
621564,13
622140,17
622720,15
623292,10
623872,11
624452,11
625032,15
625612,14
626188,20
626768,35
627340,54
627920,54
628492,45
629072,31
629644,23
630224,18
630808,21
631380,14
631960,10
632536,18
633112,21
633692,17
634272,31
634852,44
635428,39
636008,27
636580,20
637160,31
637740,26
638320,22
638900,22
639476,15
640060,23
640628,39
641208,46
641776,46
642360,44
642932,39
643512,40
644084,38
644656,40
645240,38
645808,24
646392,18
646964,15
647544,13
648116,21
648688,32
649272,34
649844,40
650424,42
650992,22
651576,12
652148,16
652728,15
653308,11
653884,13
654464,13
655036,13
655616,14
656192,13
656776,11
657344,10
657920,18
658504,14
659072,28
659656,45
660224,51
660808,49
661376,37
661952,31
662524,32
663096,24
663680,23
664248,24
664832,13
665404,10
665984,14
666552,26
667128,35
667712,35
668284,25
668864,12
669432,15
670016,17
670588,15
671168,17
671740,22
672316,22
672896,11
673464,14
674048,31
674616,43
675200,41
675768,38
676348,33
676928,19
677496,27
678080,44
678652,35
679232,21
679800,21
680384,20
680952,17
681532,10
682112,14
682684,15
683264,10
683836,14
684416,19
684988,18
685560,26
686144,30
686716,27
687296,25
687868,23
688448,16
689016,16
689600,11
690168,12
690748,15
691328,16
691896,19
692480,19
693048,26
693632,23
694204,31
694780,37
695360,43
695932,58
696512,45
697084,24
697664,16
698232,10
698816,10
699388,16
699964,24
700544,27
701116,31
701696,27
702276,19
702856,14
703436,12
704012,12
704592,14
705164,17
705744,25
706316,27
706896,16
707472,11
708052,16
708632,21
709204,26
709784,36
710356,43
710936,43
711516,31
712100,18
712676,13
713252,13
713832,14
714404,13
714984,17
715556,13
716136,12
716716,10
717292,11
717872,15
718444,15
719024,14
719596,18
720176,20
720752,17
721336,16
721908,14
722484,13
723064,17
723636,19
724216,25
724788,22
725368,12
725940,11
726516,21
727096,11
727668,47
728248,77
728820,58
729400,30
729972,17
730552,19
731124,14
731700,12
732280,27
732852,40
733432,39
734004,13
734584,13
735156,15
735732,13
736312,13
736888,16
737464,12
738036,17
738616,17
739188,14
739768,11
740348,15
740924,24
741504,21
742076,11
742656,11
743232,18
743816,34
744388,48
744964,39
745544,23
746116,22
746696,18
747268,17
747848,11
748420,15
749000,13
749576,18
750148,26
750728,23
751300,25
751880,22
752460,21
753040,23
753612,20
754188,15
754768,13
755340,22
755920,23
756492,14
757072,10
757644,10
758224,11
758808,10
759380,13
759960,27
760532,34
761112,35
761692,34
762272,17
762844,12
763420,13
764000,16
764572,18
765152,10
765732,16
766312,29
766892,30
767468,15
768052,12
768620,21
769200,21
769768,19
770352,13
770924,16
771504,14
772076,15
772652,16
773232,17
773804,11
774384,13
774956,11
775536,24
776116,45
776692,58
777272,60
777844,57
778424,49
778996,39
779576,31
780148,20
780728,26
781308,21
781884,10
782464,25
783036,31
783616,22
784196,25
784776,29
785348,34
785924,34
786504,24
787076,19
787656,16
788228,14
788808,13
789376,15
789960,13
790536,15
791108,15
791688,15
792260,19
792840,23
793420,37
794004,49
794580,51
795156,39
795736,24
796312,20
796888,19
797468,14
798048,12
798628,15
799204,24
799784,33
800360,29
800936,23
801504,16
802088,12
802656,12
803240,21
803808,36
804388,35
804968,25
805540,22
806120,12
806692,19
807272,16
807844,13
808420,11
809000,16
809568,25
810152,50
810724,62
811304,53
811884,18
812464,19
813044,32
813620,27
814200,13
814772,22
815352,27
815932,25
816516,27
817092,20
817668,14
818248,10
818820,14
819400,11
819972,15
820552,21
821120,14
821704,16
822280,21
822848,14
823432,10
824004,11
824584,14
825152,22
825736,27
826304,27
826880,24
827464,38
828036,43
828616,33
829188,16
829768,20
830336,28
830920,23
831496,10
832068,18
832648,31
833216,30
833792,25
834360,24
834944,20
835512,17
836092,19
836672,24
837244,21
837824,17
838396,14
838976,15
839556,20
840136,25
840712,23
841280,19
841864,13
842432,11
843016,18
843588,45
844168,49
844736,43
845316,39
845896,28
846464,15
847048,15
847616,14
848200,9
848716,9
849244,15
849820,21
850396,25
850976,26
851548,17
852128,16
852700,18
853280,17
853848,14
854432,13
855004,14
855580,12
856160,13
856732,13
857312,13
857884,11
858464,12
859036,14
859612,20
860192,24
860760,22
861344,34
861916,33
862496,27
863076,24
863656,16
864228,18
864800,20
865384,18
865952,11
866536,23
867108,32
867688,32
868268,35
868844,46
869424,42
869996,35
870576,24
871148,19
871728,15
872300,15
872880,26
873452,35
874028,42
874608,53
875180,50
875760,45
876340,28
876920,30
877492,42
878068,42
878648,34
879220,27
879800,21
880376,14
880952,16
881524,15
882104,14
882672,30
883252,40
883832,37
884404,26
884984,19
885556,16
886136,22
886716,25
887292,18
887872,15
888444,15
889024,13
889596,14
890176,23
890756,27
891336,29
891920,34
892492,32
893072,34
893644,34
894224,37
894804,42
895384,32
895956,18
896532,12
897112,12
897684,12
898264,11
898836,18
899416,26
899988,27
900564,29
901144,32
901712,37
902296,38
902868,34
903448,13
904020,18
904600,21
905172,18
905748,13
906328,11
906900,13
907480,10
908052,12
908632,19
909204,32
909780,44
910360,50
910932,49
911512,48
912084,32
912664,25
913236,27
913816,23
914396,17
914972,11
915552,23
916124,40
916704,31
917284,25
917864,17
918436,26
919012,46
919596,39
920168,25
920744,16
921316,18
921896,14
922476,17
923056,10
923628,14
924204,23
924784,45
925356,50
925936,53
926516,58
927096,59
927676,54
928252,44
928832,29
929400,22
929984,20
930556,15
931136,11
931716,10
932296,19
932880,26
933452,33
934032,37
934604,33
935184,26
935756,24
936336,27
936916,33
937492,34
938072,28
938644,18
939224,17
939804,16
940384,38
940964,58
941540,65
942120,41
942692,24
943272,21
943844,19
944424,24
945004,31
945584,30
946164,20
946740,13
947320,14
947892,13
948472,9
948992,13
949568,21
950140,26
950720,18
951304,14
951880,22
952456,28
953028,26
953608,33
954188,22
954768,14
955348,19
955924,28
956504,31
957080,25
957656,19
958236,15
958820,12
959396,10
959972,21
960556,33
961128,39
961704,36
962276,32
962856,21
963428,14
964008,14
964576,19
965156,17
965736,12
966308,10
966888,11
967468,16
968048,21
968616,25
969196,32
969776,25
970348,22
970928,18
971500,15
972084,14
972660,19
973240,21
973820,17
974396,20
974976,30
975548,31
976128,33
976708,32
977288,32
977860,25
978436,22
979016,19
979588,17
980168,13
980740,13
981320,12
981900,10
982480,11
983064,16
983632,18
984216,27
984788,23
985368,24
985940,20
986520,17
987092,15
987668,14
988248,13
988816,14
989400,13
989972,16
990552,19
991132,15
991708,15
992288,16
992860,22
993440,40
994012,46
994592,44
995164,29
995744,16
996324,15
996900,14
997480,17
998052,30
998632,45
999212,44
999792,29
1000364,22
1000984,14
1001612,14
1002232,11
1002860,13
1003484,17
1004108,13
1004736,18
1005356,20
1005984,16
1006612,31
1007232,36
1007860,23
1008484,18
1009112,22
1009740,35
1010360,47
1010988,48
1011612,34
1012236,30
1012864,34
1013488,29
1014116,26
1014740,10
1015364,21
1015992,36
1016616,53
1017244,55
1017876,39
1018496,21
1019124,33
1019748,35
1020380,28
1021008,12
1021632,12
1022260,14
1022884,33
1023508,37
1024140,30
1024756,38
1025384,48
1026004,44
1026628,41
1027252,39
1027868,31
1028496,23
1029124,18
1029740,14
1030368,13
1030992,13
1031620,26
1032248,25
1032864,21
1033492,20
1034116,22
1034744,28
1035372,29
1035992,21
1036620,13
1037244,16
1037864,17
1038492,14
1039112,21
1039740,12
1040364,10
1040984,19
1041612,28
1042228,39
1042860,47
1043488,48
1044104,60
1044732,58
1045356,31
1045984,20
1046612,13
1047232,18
1047860,23
1048480,23
1049104,35
1049732,41
1050348,35
1050980,30
1051600,26
1052220,19
1052852,12
1053468,13
1054100,14
1054728,15
1055344,14
1055972,20
1056596,23
1057224,25
1057856,27
1058472,24
1059100,29
1059724,40
1060352,42
1060980,46
1061600,41
1062228,25
1062852,18
1063476,14
1064104,14
1064720,16
1065348,22
1065972,29
1066592,28
1067224,26
1067844,24
1068472,14
1069104,14
1069720,11
1070348,14
1070972,19
1071600,19
1072228,13
1072848,12
1073476,11
1074100,10
1074720,12
1075352,28
1075968,37
1076596,47
1077216,45
1077840,32
1078468,30
1079088,36
1079716,24
1080344,13
1080960,13
1081588,24
1082212,31
1082840,27
1083468,14
1084088,11
1084716,11
1085340,12
1085964,12
1086592,15
1087208,16
1087840,14
1088464,15
1089084,14
1089712,12
1090328,10
1090960,11
1091580,10
1092208,11
1092836,14
1093460,29
1094088,37
1094716,38
1095336,26
1095964,15
1096588,15
1097216,25
1097848,23
1098464,12
1099092,15
1099716,17
1100340,23
1100972,25
1101592,30
1102220,36
1102844,25
1103472,26
1104100,26
1104724,17
1105352,14
1105984,16
1106600,27
1107228,23
1107852,20
1108480,17
1109108,18
1109728,36
1110356,56
1110980,63
1111604,49
1112236,30
1112856,23
1113484,18
1114108,14
1114736,19
1115364,25
1115988,24
1116620,23
1117248,33
1117872,30
1118500,19
1119124,24
1119752,35
1120380,45
1121000,23
1121628,14
1122252,15
1122872,21
1123504,18
1124120,23
1124752,32
1125380,38
1126000,45
1126628,45
1127252,51
1127880,63
1128508,57
1129128,43
1129756,29
1130380,19
1131008,11
1131636,19
1132256,27
1132884,37
1133508,40
1134132,38
1134760,31
1135376,29
1136008,24
1136628,17
1137252,13
1137884,13
1138504,14
1139136,17
1139768,13
1140384,15
1141012,14
1141636,13
1142268,15
1142896,27
1143516,36
1144144,39
1144768,35
1145392,29
1146024,26
1146640,19
1147268,15
1147892,12
1148516,18
1149144,27
1149768,36
1150396,36
1151028,31
1151648,36
1152280,37
1152900,25
1153528,13
1154156,16
1154776,14
1155404,13
1156028,10
1156648,15
1157280,19
1157896,16
1158524,24
1159148,24
1159768,29
1160400,40
1161016,49
1161644,41
1162272,35
1162896,26
1163524,28
1164148,24
1164776,13
1165404,10
1166024,21
1166652,29
1167276,34
1167900,27
1168528,17
1169152,22
1169780,26
1170404,18
1171028,14
1171656,13
1172276,15
1172904,12
1173532,15
1174152,19
1174780,12
1175404,14
1176036,27
1176664,46
1177284,47
1177912,36
1178536,19
1179160,19
1179788,18
1180408,14
1181036,16
1181660,14
1182284,12
1182916,16
1183536,15
1184164,13
1184792,16
1185416,25
1186044,21
1186668,20
1187296,24
1187928,16
1188544,15
1189172,22
1189796,35
1190420,19
1191048,10
1191664,11
1192296,11
1192920,21
1193544,43
1194172,58
1194792,61
1195424,46
1196052,32
1196672,23
1197300,13
1197924,15
1198556,17
1199188,29
1199808,39
1200440,31
1201060,17
1201684,11
1202312,24
1202936,29
1203564,23
1204188,35
1204812,28
1205440,13
1206056,25
1206688,24
1207316,26
1207936,34
1208568,32
1209188,31
1209820,31
1210448,47
1211064,48
1211696,42
1212320,24
1212944,13
1213572,13
1214192,12
1214820,14
1215444,27
1216068,36
1216700,26
1217320,23
1217948,19
1218576,18
1219200,18
1219828,15
1220452,11
1221080,13
1221712,14
1222332,14
1222960,14
1223584,10
1224208,14
1224836,25
1225456,33
1226084,32
1226708,33
1227332,33
1227964,33
1228584,19
1229216,17
1229844,18
1230460,19
1231092,11
1231716,23
1232344,27
1232972,26
1233592,21
1234220,16
1234844,20
1235468,27
1236096,30
1236712,31
1237340,20
1237964,14
1238588,16
1239216,26
1239840,29
1240468,26
1241096,23
1241720,24
1242348,27
1242972,40
1243600,51
1244228,51
1244848,39
1245476,21
1246100,15
1246724,12
1247356,12
1247976,16
1248608,25
1249228,38
1249852,42
1250484,34
1251104,19
1251732,18
1252364,21
1252984,29
1253612,30
1254236,24
1254868,15
1255496,13
1256116,12
1256744,16
1257368,28
1257992,34
1258620,47
1259240,53
1259868,55
1260492,55
1261116,58
1261748,46
1262368,35
1262996,19
1263628,14
1264248,27
1264876,29
1265500,36
1266132,38
1266760,32
1267384,37
1268012,31
1268636,13
1269260,10
1269892,12
1270512,12
1271140,13
1271764,13
1272388,13
1273020,10
1273640,16
1274268,24
1274900,14
1275520,18
1276148,13
1276772,27
1277404,53
1278036,78
1278656,76
1279288,49
1279912,27
1280536,14
1281164,19
1281780,24
1282408,26
1283032,26
1283656,25
1284284,28
1284900,29
1285532,23
1286160,22
1286776,17
1287404,14
1288028,13
1288656,18
1289284,28
1289904,31
1290532,24
1291152,18
1291780,13
1292412,13
1293032,17
1293660,22
1294284,40
1294904,39
1295536,14
1296152,17
1296780,14
1297404,13
1298032,23
1298660,21
1299284,11
1299912,15
1300540,12
1301160,28
1301788,34
1302412,23
1303040,27
1303668,20
1304288,14
1304916,14
1305540,13
1306164,16
1306796,14
1307416,20
1308044,38
1308668,38
1309296,35
1309924,45
1310548,51
1311180,48
1311808,23
1312424,15
1313052,13
1313676,18
1314304,21
1314932,21
1315552,32
1316180,28
1316800,12
1317420,12
1318052,14
1318672,16
1319300,14
1319920,14
1320544,13
1321172,15
1321796,17
1322424,12
1323052,11
1323672,11
1324300,18
1324920,28
1325552,22
1326180,11
1326800,15
1327428,32
1328048,31
1328672,38
1329300,35
1329920,15
1330548,12
1331172,11
1331796,10
1332424,19
1333040,29
1333668,30
1334296,15
1334912,10
1335544,12
1336164,15
1336792,13
1337424,13
1338040,15
1338668,14
1339292,10
1339912,10
1340540,14
1341160,23
1341788,22
1342412,19
1343032,32
1343664,41
1344280,38
1344908,22
1345532,12
1346160,15
1346788,13
1347408,11
1348040,11
1348668,13
1349288,21
1349916,14
1350540,10
1351168,11
1351796,14
1352416,24
1353044,28
1353664,27
1354288,27
1354916,16
1355536,13
1356164,13
1356788,14
1357412,17
1358040,18
1358664,29
1359292,45
1359920,50
1360536,46
1361168,41
1361788,21
1362416,16
1363048,17
1363664,15
1364292,11
1364916,10
1365536,14
1366168,20
1366784,27
1367412,16
1368036,15
1368660,22
1369288,28
1369904,25
1370532,14
1371160,12
1371784,17
1372412,31
1373036,25
1373664,13
1374296,12
1374912,12
1375540,13
1376164,34
1376788,47
1377416,51
1378032,24
1378664,13
1379284,18
1379908,16
1380536,15
1381160,21
1381788,24
1382420,32
1383036,25
1383668,15
1384292,10
1384920,10
1385548,10
1386168,18
1386796,18
1387420,18
1388044,14
1388672,15
1389296,12
1389924,15
1390548,14
1391172,11
1391804,28
1392424,46
1393052,67
1393684,72
1394304,54
1394932,37
1395556,20
1396184,20
1396812,20
1397432,12
1398060,13
1398684,17
1399308,28
1399936,27
1400552,27
1401184,29
1401808,26
1402428,30
1403060,30
1403680,17
1404308,13
1404936,16
1405560,14
1406188,15
1406812,28
1407444,33
1408072,31
1408688,29
1409316,33
1409940,40
1410564,39
1411192,29
1411816,19
1412444,14
1413068,15
1413692,17
1414320,16
1414944,27
1415572,28
1416200,20
1416824,10
1417452,10
1418076,13
1418704,27
1419332,32
1419952,26
1420580,13
1421204,20
1421828,23
1422460,16
1423080,11
1423708,12
1424332,23
1424956,18
1425584,21
1426204,39
1426832,35
1427460,19
1428080,27
1428708,33
1429332,35
1429964,30
1430592,25
1431212,11
1431840,12
1432464,17
1433092,21
1433724,25
1434340,30
1434972,24
1435592,16
1436216,14
1436844,14
1437464,17
1438092,16
1438716,21
1439340,18
1439968,10
1440592,22
1441224,27
1441852,15
1442472,14
1443100,23
1443724,42
1444352,49
1444980,32
1445600,36
1446228,32
1446852,31
1447472,18
1448104,17
1448720,40
1449348,38
1449972,30
1450592,27
1451224,21
1451848,26
1452476,19
1453104,12
1453728,12
1454356,27
1454980,33
1455612,15
1456240,47
1456856,45
1457484,27
1458108,19
1458732,19
1459360,25
1459976,18
1460608,13
1461228,16
1461852,22
1462480,27
1463104,24
1463732,21
1464364,10
1464984,13
1465612,18
1466236,22
1466864,16
1467492,10
1468112,11
1468740,14
1469368,16
1469992,17
1470620,19
1471240,16
1471868,13
1472496,10
1473116,15
1473748,20
1474372,11
1475004,10
1475632,14
1476248,16
1476876,15
1477500,29
1478128,36
1478756,46
1479376,36
1480004,18
1480628,15
1481248,16
1481880,10
1482496,11
1483124,23
1483748,37
1484372,29
1485000,16
1485620,19
1486252,21
1486880,19
1487496,21
1488124,17
1488748,25
1489376,17
1490004,15
1490624,21
1491252,20
1491876,16
1492500,23
1493128,37
1493744,33
1494376,34
1495000,31
1495624,29
1496252,29
1496872,21
1497500,10
1498132,14
1498752,20
1499380,20
1500004,12
1500636,9
1501212,17
1501836,18
1502468,16
1503092,19
1503720,22
1504352,23
1504968,16
1505600,12
1506220,12
1506844,20
1507476,15
1508096,15
1508724,13
1509348,24
1509972,18
1510604,14
1511224,12
1511852,12
1512484,14
1513104,32
1513732,49
1514356,36
1514988,15
1515620,10
1516240,20
1516868,23
1517492,24
1518116,18
1518744,20
1519368,23
1519996,19
1520624,16
1521248,19
1521876,15
1522500,13
1523132,16
1523764,10
1524384,11
1525012,16
1525636,18
1526268,25
1526900,48
1527520,53
1528148,45
1528772,27
1529400,27
1530028,16
1530648,13
1531276,24
1531900,30
1532528,37
1533160,25
1533784,11
1534412,11
1535044,10
1535664,16
1536296,14
1536916,12
1537540,13
1538168,14
1538792,20
1539420,13
1540044,15
1540664,32
1541296,34
1541912,27
1542540,21
1543164,20
1543792,27
1544420,21
1545044,17
1545672,15
1546300,14
1546920,15
1547548,12
1548172,23
1548800,28
1549428,17
1550048,10
1550676,10
1551300,11
1551924,11
1552556,10
1553176,13
1553804,15
1554428,14
1555056,17
1555684,19
1556308,23
1556940,19
1557568,20
1558192,36
1558820,25
1559444,16
1560068,15
1560700,16
1561320,21
1561948,24
1562572,16
1563196,14
1563824,14
1564444,11
1565072,13
1565700,20
1566320,27
1566948,28
1567572,32
1568204,29
1568832,19
1569448,25
1570076,25
1570700,17
1571332,37
1571960,19
1572580,10
1573208,13
1573832,15
1574456,27
1575084,22
1575704,14
1576332,11
1576956,10
1577584,21
1578212,13
1578836,16
1579468,22
1580100,24
1580720,28
1581348,31
1581976,27
1582600,11
1583228,10
1583848,11
1584480,10
1585104,11
1585728,10
1586356,21
1586976,30
1587608,29
1588236,26
1588856,15
1589484,10
1590108,16
1590740,22
1591368,23
1591988,16
1592616,12
1593240,11
1593868,21
1594496,31
1595116,31
1595744,26
1596372,16
1596996,14
1597628,16
1598248,18
1598876,21
1599508,26
1600128,17
1600756,10
1601376,13
1602008,13
1602636,12
1603252,13
1603884,14
1604504,15
1605128,14
1605756,16
1606376,20
1607004,25
1607628,18
1608252,13
1608880,13
1609504,24
1610132,31
1610760,36
1611384,35
1612012,25
1612636,17
1613264,14
1613896,12
1614512,10
1615140,10
1615764,12
1616388,15
1617020,25
1617640,25
1618268,30
1618892,32
1619516,26
1620144,12
1620760,15
1621388,13
1622012,13
1622640,15
1623268,15
1623892,11
1624524,10
1625152,10
1625768,16
1626400,31
1627020,36
1627652,29
1628280,18
1628904,20
1629532,25
1630156,18
1630780,10
1631408,10
1632032,14
1632660,10
1633288,11
1633912,12
1634540,11
1635164,10
1635796,23
1636428,20
1637048,14
1637676,13
1638304,13
1638928,11
1639556,12
1640172,15
1640800,12
1641424,12
1642044,13
1642672,10
1643288,12
1643916,13
1644536,26
1645160,39
1645788,46
1646408,41
1647036,22
1647668,12
1648288,12
1648916,17
1649536,22
1650164,34
1650792,35
1651408,19
1652036,13
1652660,14
1653280,21
1653908,25
1654528,33
1655156,33
1655776,13
1656400,24
1657028,22
1657648,13
1658276,11
1658904,11
1659520,17
1660148,34
1660772,21
1661400,13
1662028,38
1662648,86
1663276,86
1663900,52
1664524,13
1665152,10
1665768,14
1666396,24
1667016,28
1667640,24
1668268,14
1668884,11
1669516,18
1670136,13
1670760,13
1671388,13
1672012,13
1672640,13
1673268,12
1673888,11
1674516,11
1675140,15
1675768,32
1676396,46
1677016,56
1677644,43
1678268,18
1678888,13
1679516,13
1680136,18
1680764,14
1681384,11
1682004,33
1682632,33
1683256,42
1683880,37
1684512,35
1685128,41
1685756,38
1686376,34
1687008,38
1687636,30
1688256,17
1688884,24
1689504,44
1690128,65
1690760,67
1691376,38
1692004,11
1692624,24
1693248,50
1693876,66
1694496,61
1695124,42
1695752,14
1696372,15
1697000,19
1697620,43
1698248,42
1698876,31
1699496,19
1700124,13
1700748,17
1701376,20
1702004,29
1702624,31
1703252,17
1703876,14
1704496,18
1705128,22
1705744,30
1706372,38
1706996,29
1707620,22
1708248,21
1708868,34
1709500,43
1710128,40
1710744,36
1711376,31
1711996,28
1712628,19
1713260,21
1713880,13
1714508,17
1715132,26
1715756,24
1716388,22
1717008,22
1717636,24
1718260,26
1718884,25
1719512,26
1720140,20
1720768,15
1721396,12
1722016,16
1722644,19
1723268,17
1723896,17
1724524,23
1725144,33
1725772,31
1726396,29
1727020,25
1727648,18
1728272,15
1728900,13
1729524,13
1730144,14
1730776,15
1731396,29
1732028,23
1732656,14
1733272,11
1733900,10
1734524,10
1735152,13
1735784,15
1736400,27
1737028,22
1737652,20
1738276,19
1738904,11
1739520,15
1740152,17
1740776,29
1741400,35
1742028,40
1742648,49
1743276,55
1743904,54
1744528,36
1745156,15
1745780,14
1746408,13
1747036,20
1747656,12
1748284,18
1748908,22
1749532,11
1750160,10
1750784,14
1751412,19
1752036,23
1752660,19
1753288,22
1753912,26
1754540,19
1755172,14
1755792,11
1756420,14
1757044,13
1757676,11
1758304,12
1758924,19
1759552,32
1760176,38
1760800,46
1761428,36
1762048,29
1762676,16
1763296,24
1763920,13
1764548,23
1765168,37
1765796,39
1766424,24
1767044,32
1767676,39
1768296,38
1768928,42
1769556,28
1770176,17
1770804,39
1771428,41
1772052,44
1772680,55
1773304,47
1773932,39
1774556,34
1775180,31
1775812,36
1776432,40
1777060,34
1777692,24
1778312,20
1778940,19
1779564,14
1780196,13
1780824,16
1781440,24
1782072,29
1782696,25
1783320,25
1783948,38
1784568,42
1785196,26
1785820,14
1786444,13
1787076,14
1787696,15
1788324,15
1788956,14
1789576,18
1790204,13
1790832,19
1791460,41
1792092,46
1792708,49
1793340,57
1793960,52
1794584,38
1795212,26
1795832,17
1796460,13
1797084,13
1797708,20
1798336,29
1798960,24
1799588,20
1800220,21
1800840,25
1801468,27
1802092,26
1802720,21
1803348,15
1803968,17
1804596,19
1805220,20
1805844,13
1806472,13
1807088,17
1807716,31
1808340,12
1808964,56
1809592,73
1810208,75
1810836,61
1811468,56
1812088,41
1812716,19
1813340,15
1813968,13
1814596,26
1815216,23
1815844,12
1816468,11
1817092,11
1817724,18
1818344,16
1818972,11
1819596,13
1820220,19
1820848,25
1821464,25
1822092,11
1822716,24
1823344,31
1823972,31
1824600,23
1825228,20
1825856,34
1826472,49
1827104,56
1827728,43
1828356,26
1828988,16
1829608,13
1830236,13
1830860,15
1831484,22
1832112,24
1832736,27
1833364,33
1833996,32
1834616,37
1835244,41
1835868,30
1836500,12
1837128,17
1837752,23
1838384,24
1839008,22
1839632,21
1840260,16
1840880,16
1841508,17
1842132,17
1842756,32
1843388,46
1844004,54
1844632,42
1845264,31
1845880,21
1846508,15
1847132,14
1847760,28
1848388,31
1849008,34
1849636,30
1850256,32
1850884,24
1851512,22
1852136,19
1852764,17
1853388,15
1854012,24
1854644,15
1855264,17
1855892,20
1856524,30
1857144,36
1857772,30
1858396,33
1859024,42
1859656,48
1860272,52
1860900,42
1861524,18
1862148,13
1862780,12
1863400,13
1864028,10
1864652,10
1865276,13
1865904,22
1866520,26
1867152,29
1867780,31
1868400,30
1869028,16
1869652,15
1870280,16
1870912,14
1871528,13
1872160,13
1872784,15
1873412,13
1874044,10
1874664,10
1875292,19
1875916,49
1876540,64
1877168,58
1877792,43
1878420,37
1879052,34
1879672,22
1880304,12
1880928,27
1881556,30
1882188,34
1882808,35
1883436,25
1884064,13
1884688,11
1885316,10
1885936,15
1886564,12
1887188,15
1887812,15
1888444,18
1889064,25
1889692,24
1890320,34
1890944,31
1891572,16
1892196,25
1892828,41
1893456,51
1894080,46
1894708,35
1895332,19
1895956,13
1896588,14
1897208,13
1897836,13
1898460,23
1899084,30
1899716,28
1900336,32
1900964,35
1901596,38
1902216,23
1902844,16
1903472,19
1904100,22
1904732,14
1905352,15
1905980,27
1906604,28
1907228,25
1907860,23
1908480,14
1909108,14
1909732,33
1910360,44
1910988,31
1911608,25
1912240,20
1912868,15
1913488,14
1914120,13
1914744,24
1915376,32
1916004,34
1916624,40
1917256,31
1917880,17
1918504,19
1919136,19
1919752,14
1920384,14
1921008,14
1921632,17
1922260,22
1922884,19
1923512,20
1924140,26
1924760,38
1925388,33
1926012,40
1926640,50
1927272,49
1927888,27
1928516,13
1929140,14
1929764,15
1930392,10
1931008,11
1931640,24
1932264,30
1932888,14
1933516,16
1934136,18
1934764,21
1935396,18
1936016,17
1936644,13
1937268,14
1937896,14
1938524,12
1939144,14
1939776,14
1940400,15
1941024,22
1941652,26
1942272,25
1942900,33
1943528,37
1944152,30
1944780,16
1945400,15
1946032,18
1946660,14
1947280,23
1947908,39
1948532,49
1949160,43
1949792,24
1950408,14
1951036,15
1951660,23
1952284,12
1952916,15
1953536,13
1954164,19
1954788,19
1955412,34
1956044,44
1956664,25
1957292,15
1957924,10
1958544,25
1959172,53
1959796,48
1960428,39
1961056,33
1961680,26
1962308,24
1962932,19
1963556,11
1964188,12
1964808,25
1965436,45
1966060,38
1966688,32
1967316,40
1967940,39
1968568,21
1969200,18
1969816,17
1970444,17
1971068,15
1971696,25
1972328,34
1972944,20
1973572,11
1974196,11
1974820,17
1975448,35
1976072,53
1976700,51
1977324,38
1977948,30
1978576,28
1979200,16
1979828,16
1980460,10
1981080,13
1981708,15
1982332,15
1982964,13
1983592,14
1984216,17
1984844,21
1985468,14
1986092,14
1986720,16
1987336,17
1987964,17
1988588,13
1989212,11
1989840,11
1990456,11
1991088,12
1991716,14
1992336,29
1992964,49
1993588,68
1994220,51
1994848,25
1995472,15
1996104,15
1996728,15
1997352,14
1997980,10
1998600,9
1999176,14
1999808,22
2000432,29
2001060,30
2001680,32
2002308,30
2002932,27
2003556,20
2004184,16
2004808,14
2005436,11
2006064,10
2006688,19
2007316,31
2007940,36
2008572,35
2009200,33
2009816,27
2010448,35
2011068,43
2011692,43
2012324,28
2012944,18
2013572,11
2014196,14
2014820,20
2015448,29
2016072,37
2016704,37
2017332,28
2017952,25
2018580,27
2019204,33
2019832,29
2020460,22
2021080,15
2021708,23
2022332,39
2022960,39
2023588,24
2024208,25
2024836,24
2025460,20
2026084,18
2026716,26
2027340,29
2027968,21
2028600,22
2029216,20
2029844,16
2030468,10
2031100,10
2031728,10
2032352,16
2032980,23
2033604,20
2034228,19
2034860,21
2035480,22
2036108,25
2036732,16
2037360,17
2037988,25
2038616,17
2039244,11
2039876,10
2040496,13
2041124,22
2041748,36
2042376,42
2043004,33
2043624,23
2044252,18
2044880,15
2045504,15
2046132,14
2046752,13
2047384,24
2048012,28
2048628,17
2049256,13
2049876,11
2050504,12
2051132,10
2051752,11
2052380,12
2053000,12
2053632,15
2054260,14
2054880,15
2055508,11
2056128,12
2056752,22
2057380,16
2058000,23
2058628,38
2059248,54
2059872,50
2060500,32
2061124,16
2061752,14
2062380,14
2063000,19
2063628,13
2064252,10
2064880,20
2065508,26
2066128,22
2066756,24
2067380,22
2068000,24
2068632,22
2069248,25
2069876,21
2070500,17
2071120,13
2071748,12
2072368,15
2072996,28
2073624,23
2074240,15
2074868,21
2075492,31
2076120,41
2076752,50
2077368,59
2077996,26
2078620,30
2079244,44
2079872,18
2080496,11
2081124,11
2081748,17
2082368,19
2082996,11
2083616,10
2084244,11
2084872,10
2085488,13
2086116,13
2086740,13
2087368,14
2087996,14
2088616,12
2089244,10
2089868,14
2090496,28
2091124,26
2091744,27
2092372,38
2092996,45
2093616,39
2094248,21
2094864,14
2095492,15
2096116,15
2096740,16
2097368,24
2097988,18
2098620,14
2099248,20
2099864,29
2100492,36
2101116,33
2101744,29
2102372,28
2102992,25
2103620,16
2104244,13
2104868,14
2105496,18
2106120,21
2106748,16
2107372,13
2107996,20
2108624,26
2109252,41
2109880,44
2110508,40
2111128,29
2111756,29
2112384,29
2113012,15
2113640,14
2114256,24
2114884,33
2115508,40
2116132,36
2116760,29
2117376,19
2118008,14
2118632,17
2119256,26
2119884,20
2120504,18
2121132,14
2121760,11
2122384,11
2123012,13
2123636,21
2124264,32
2124896,44
2125512,42
2126140,37
2126764,47
2127388,46
2128016,26
2128632,15
2129264,13
2129888,22
2130512,15
2131140,10
2131760,13
2132388,11
2133016,10
2133640,13
2134268,18
2134892,30
2135520,30
2136152,33
2136768,35
2137396,24
2138020,14
2138644,21
2139272,17
2139896,11
2140524,16
2141148,11
2141772,31
2142400,63
2143024,63
2143652,50
2144284,18
2144904,18
2145532,39
2146156,48
2146784,40
2147416,18
2148032,12
2148660,27
2149284,36
2149908,35
2150540,18
2151160,12
2151788,18
2152412,22
2153032,21
2153664,15
2154280,14
2154908,13
2155536,12
2156160,17
2156788,15
2157412,16
2158044,21
2158672,29
2159288,44
2159920,54
2160544,54
2161168,34
2161796,31
2162416,22
2163044,14
2163668,11
2164292,15
2164920,27
2165536,37
2166168,35
2166796,30
2167416,24
2168044,27
2168668,26
2169296,23
2169928,12
2170544,17
2171172,21
2171796,12
2172424,10
2173052,11
2173672,19
2174300,21
2174924,16
2175548,14
2176180,20
2176796,30
2177428,27
2178056,25
2178672,25
2179300,18
2179924,13
2180552,14
2181180,14
2181800,17
2182428,16
2183052,12
2183680,12
2184308,11
2184928,16
2185556,23
2186180,20
2186804,18
2187436,13
2188056,19
2188684,22
2189308,18
2189936,14
2190564,11
2191188,15
2191820,22
2192452,26
2193072,36
2193700,41
2194324,26
2194952,24
2195580,36
2196200,19
2196828,19
2197452,22
2198076,17
2198708,26
2199328,27
2199956,14
2200588,14
2201208,18
2201836,28
2202460,36
2203092,35
2203720,30
2204340,15
2204968,33
2205592,50
2206216,41
2206844,30
2207464,22
2208092,18
2208716,29
2209340,45
2209968,56
2210592,50
2211220,31
2211852,28
2212472,24
2213100,13
2213724,18
2214356,34
2214988,50
2215608,42
2216236,32
2216860,24
2217484,12
2218116,10
2218736,12
2219364,13
2219988,13
2220616,14
2221244,16
2221864,13
2222492,21
2223124,22
2223744,19
2224372,17
2224996,23
2225628,37
2226256,46
2226880,48
2227508,37
2228132,24
2228756,13
2229388,20
2230008,30
2230636,25
2231264,21
2231888,20
2232516,12
2233136,11
2233764,20
2234396,28
2235016,30
2235648,31
2236272,32
2236900,22
2237532,14
2238152,14
2238784,15
2239408,24
2240032,45
2240660,60
2241280,48
2241908,37
2242532,35
2243156,45
2243788,55
2244408,40
2245036,23
2245668,14
2246288,14
2246916,13
2247540,25
2248172,32
2248800,30
2249424,27
2250052,24
2250680,31
2251304,39
2251932,35
2252552,18
2253184,15
2253804,17
2254428,15
2255056,13
2255672,14
2256304,24
2256932,24
2257552,13
2258180,10
2258804,24
2259432,47
2260064,56
2260680,41
2261308,25
2261932,15
2262556,16
2263184,14
2263808,10
2264436,10
2265060,16
2265684,27
2266312,24
2266936,14
2267564,12
2268196,17
2268816,20
2269444,15
2270068,15
2270696,14
2271328,15
2271948,11
2272576,11
2273200,18
2273824,21
2274456,24
2275072,27
2275704,41
2276328,49
2276952,52
2277580,35
2278200,27
2278832,21
2279460,14
2280080,10
2280708,16
2281332,32
2281964,41
2282592,36
2283212,32
2283840,27
2284464,17
2285088,14
2285716,14
2286336,13
2286964,13
2287592,14
2288216,13
2288844,13
2289464,11
2290092,17
2290724,20
2291344,26
2291972,35
2292600,44
2293228,54
2293860,55
2294480,38
2295108,27
2295732,17
2296356,13
2296984,20
2297600,28
2298232,36
2298856,24
2299480,16
2300108,16
2300728,24
2301356,39
2301988,31
2302608,19
2303236,13
2303864,19
2304496,25
2305124,28
2305744,29
2306372,24
2306996,19
2307620,15
2308248,22
2308864,39
2309492,45
2310116,45
2310740,41
2311368,33
2311988,19
2312616,14
2313244,11
2313864,19
2314492,18
2315116,23
2315748,31
2316376,39
2317000,35
2317628,31
2318252,31
2318876,27
2319504,27
2320128,23
2320756,15
2321380,13
2322004,17
2322632,22
2323248,31
2323880,39
2324508,44
2325128,41
2325756,30
2326380,36
2327012,38
2327640,23
2328264,14
2328892,22
2329516,19
2330144,19
2330772,12
2331392,11
2332020,11
2332644,18
2333268,19
2333900,12
2334520,15
2335148,24
2335780,22
2336400,19
2337028,14
2337652,14
2338280,12
2338912,19
2339528,25
2340156,24
2340780,23
2341404,22
2342036,38
2342656,51
2343284,48
2343908,17
2344532,12
2345164,26
2345784,38
2346412,29
2347044,12
2347664,11
2348292,22
2348920,32
2349548,25
2350180,11
2350800,13
2351428,13
2352056,13
2352680,15
2353308,13
2353928,18
2354556,15
2355184,11
2355808,13
2356440,22
2357064,17
2357692,13
2358324,16
2358944,28
2359572,39
2360200,41
2360828,32
2361460,22
2362080,15
2362708,14
2363332,10
2363956,13
2364588,22
2365208,33
2365836,32
2366460,22
2367088,21
2367720,20
2368344,21
2368972,20
2369600,20
2370224,15
2370852,14
2371476,12
2372104,13
2372732,14
2373352,13
2373984,10
2374608,32
2375232,52
2375860,56
2376480,60
2377108,45
2377740,26
2378360,21
2378988,19
2379612,16
2380244,11
2380872,20
2381496,35
2382124,40
2382748,35
2383372,18
2384000,10
2384624,11
2385252,13
2385876,18
2386504,18
2387132,13
2387752,17
2388380,11
2389012,10
2389632,13
2390264,13
2390888,13
2391520,14
2392148,26
2392768,39
2393400,41
2394024,36
2394648,35
2395280,27
2395896,17
2396528,12
2397152,17
2397776,13
2398404,17
2399024,21
2399656,21
2400288,21
2400904,21
2401532,22
2402156,22
2402788,19
2403416,14
2404036,14
2404664,15
2405288,13
2405912,11
2406544,11
2407160,13
2407788,21
2408412,31
2409036,40
2409664,54
2410288,58
2410916,39
2411548,22
2412168,16
2412796,14
2413420,15
2414052,22
2414684,28
2415304,22
2415936,17
2416560,17
2417184,23
2417812,38
2418432,43
2419060,39
2419684,35
2420308,24
2420940,14
2421560,15
2422192,23
2422820,26
2423440,29
2424068,33
2424692,51
2425324,64
2425952,56
2426576,43
2427204,31
2427828,22
2428456,13
2429084,14
2429704,29
2430336,49
2430960,30
2431584,12
2432216,31
2432840,26
2433468,10
2434096,22
2434720,15
2435348,15
2435972,12
2436604,14
2437236,14
2437856,20
2438484,29
2439108,27
2439732,18
2440364,18
2440984,20
2441612,37
2442236,54
2442864,50
2443492,40
2444120,15
2444748,13
2445380,14
2446000,20
2446628,23
2447256,26
2447880,45
2448508,48
2449128,35
2449756,32
2450384,30
2451008,27
2451636,30
2452256,32
2452888,21
2453516,14
2454136,15
2454768,21
2455392,28
2456024,33
2456652,34
2457272,31
2457904,28
2458524,36
2459148,45
2459776,59
2460400,59
2461028,39
2461652,22
2462276,14
2462904,13
2463520,17
2464152,25
2464780,32
2465400,37
2466028,31
2466652,39
2467280,47
2467908,33
2468528,19
2469156,13
2469780,15
2470404,15
2471032,13
2471656,12
2472284,15
2472908,24
2473532,25
2474164,23
2474784,33
2475412,51
2476044,56
2476664,54
2477292,31
2477916,15
2478548,13
2479180,12
2479800,15
2480428,17
2481052,24
2481676,29
2482308,28
2482928,15
2483556,19
2484180,31
2484804,30
2485432,27
2486052,24
2486680,15
2487308,13
2487928,18
2488556,17
2489180,18
2489812,29
2490440,37
2491056,44
2491688,55
2492312,55
2492936,61
2493564,61
2494184,40
2494812,22
2495436,14
2496064,14
2496692,18
2497312,27
2497940,30
2498572,26
2499192,25
2499820,22
2500444,17
2501076,29
2501704,37
2502328,32
2502960,19
2503584,13
2504208,18
2504836,28
2505456,24
2506084,19
2506708,12
2507332,10
2507964,12
2508584,27
2509216,35
2509844,41
2510464,34
2511092,32
2511716,32
2512348,25
2512976,14
2513600,17
2514228,27
2514852,33
2515480,31
2516108,45
2516728,56
2517360,57
2517984,33
2518608,16
2519236,15
2519856,27
2520484,20
2521116,28
2521736,32
2522364,35
2522988,37
2523620,27
2524252,17
2524872,17
2525500,25
2526124,43
2526752,51
2527380,27
2528000,16
2528628,18
2529252,15
2529876,13
2530508,12
2531128,19
2531760,27
2532388,23
2533008,28
2533640,34
2534264,36
2534896,30
2535524,24
2536144,18
2536772,15
2537400,13
2538024,34
2538656,42
2539272,32
2539904,21
2540528,19
2541152,30
2541780,41
2542408,57
2543036,62
2543668,42
2544288,24
2544916,17
2545544,13
2546172,18
2546804,34
2547424,40
2548052,38
2548680,26
2549304,19
2549932,19
2550552,31
2551184,31
2551816,21
2552432,18
2553064,16
2553688,14
2554316,13
2554948,15
2555568,24
2556200,23
2556824,25
2557448,31
2558080,34
2558696,46
2559328,56
2559956,56
2560584,45
2561212,34
2561832,17
2562460,13
2563088,15
2563704,23
2564332,29
2564956,26
2565584,25
2566212,32
2566832,39
2567460,39
2568084,31
2568708,21
2569336,15
2569960,14
2570588,15
2571212,15
2571832,29
2572464,31
2573080,31
2573712,27
2574332,22
2574960,28
2575588,36
2576212,43
2576840,47
2577468,32
2578088,22
2578716,15
2579340,13
2579968,13
2580600,16
2581216,25
2581844,25
2582468,23
2583088,20
2583720,17
2584336,22
2584964,25
2585588,27
2586212,18
2586840,13
2587464,16
2588092,16
2588724,16
2589344,22
2589972,26
2590596,24
2591228,28
2591856,40
2592476,47
2593104,48
2593728,37
2594352,26
2594980,14
2595600,13
2596228,15
2596852,26
2597476,33
2598104,34
2598728,31
2599360,24
2599988,26
2600608,33
2601236,19
2601860,12
2602488,12
2603120,12
2603736,18
2604364,15
2604988,14
2605612,16
2606240,18
2606864,22
2607492,18
2608116,20
2608740,42
2609372,54
2609996,60
2610624,50
2611252,34
2611872,15
2612500,13
2613124,11
2613752,10
2614380,25
2615000,29
2615628,25
2616252,37
2616880,37
2617508,34
2618128,26
2618756,18
2619384,16
2620008,15
2620636,14
2621260,16
2621892,18
2622520,23
2623136,26
2623768,22
2624392,25
2625020,47
2625648,59
2626264,59
2626892,51
2627512,25
2628136,13
2628764,14
2629384,21
2630012,33
2630636,35
2631260,33
2631888,35
2632504,43
2633132,40
2633760,29
2634376,14
2635008,11
2635632,13
2636260,13
2636888,14
2637504,14
2638132,21
2638756,36
2639380,43
2640008,38
2640624,28
2641252,22
2641876,41
2642500,51
2643128,52
2643744,45
2644372,36
2645000,22
2645624,20
2646252,12
2646876,19
2647504,39
2648132,48
2648752,42
2649380,31
2650004,24
2650628,31
2651260,28
2651880,21
2652508,13
2653132,14
2653756,14
2654384,13
2655004,12
2655632,11
2656260,16
2656880,15
2657508,12
2658132,25
2658760,48
2659388,59
2660008,63
2660636,45
2661260,38
2661888,29
2662520,23
2663136,12
2663764,14
2664384,30
2665008,35
2665636,27
2666252,21
2666880,15
2667504,23
2668128,32
2668756,28
2669380,22
2670008,17
2670636,12
2671256,18
2671884,17
2672508,24
2673136,40
2673768,32
2674384,21
2675012,25
2675636,39
2676260,49
2676888,40
2677504,24
2678132,13
2678756,13
2679380,13
2680008,10
2680632,19
2681260,26
2681888,26
2682512,29
2683140,33
2683764,36
2684392,38
2685024,27
2685640,16
2686268,16
2686892,13
2687516,14
2688148,17
2688764,18
2689392,20
2690016,23
2690640,29
2691268,28
2691888,43
2692516,59
2693144,61
2693760,45
2694388,27
2695012,16
2695644,14
2696272,11
2696892,16
2697520,35
2698144,45
2698768,49
2699396,40
2700016,27
2700644,14
2701268,10
2701892,11
2702524,12
2703144,15
2703776,15
2704404,14
2705020,12
2705652,11
2706276,11
2706904,13
2707532,18
2708152,37
2708780,53
2709404,57
2710028,50
2710656,35
2711280,31
2711908,18
2712532,13
2713156,14
2713788,30
2714408,36
2715036,26
2715664,22
2716288,22
2716916,34
2717540,51
2718172,38
2718800,24
2719416,16
2720048,14
2720668,13
2721292,13
2721920,20
2722536,19
2723164,22
2723788,33
2724412,42
2725040,54
2725664,60
2726292,69
2726920,54
2727544,37
2728172,25
2728796,19
2729424,14
2730052,14
2730672,27
2731300,29
2731924,24
2732548,24
2733180,28
2733800,32
2734428,31
2735052,35
2735676,32
2736308,26
2736928,22
2737556,15
2738188,24
2738808,31
2739436,30
2740060,20
2740688,21
2741320,37
2741936,51
2742564,53
2743188,48
2743816,31
2744444,19
2745064,18
2745692,15
2746316,12
2746940,31
2747568,53
2748184,48
2748816,35
2749440,22
2750064,15
2750692,17
2751316,13
2751948,12
2752580,12
2753200,15
2753828,22
2754452,23
2755080,20
2755708,16
2756328,17
2756956,20
2757580,23
2758204,36
2758836,46
2759456,53
2760084,49
2760716,34
2761336,22
2761964,15
2762588,16
2763220,11
2763848,22
2764472,42
2765104,47
2765724,36
2766348,28
2766980,30
2767600,33
2768228,33
2768852,27
2769476,19
2770104,13
2770720,16
2771352,27
2771980,27
2772600,23
2773228,25
2773852,27
2774484,26
2775112,38
2775732,44
2776360,51
2776984,51
2777608,34
2778236,18
2778856,14
2779484,13
2780112,19
2780736,31
2781364,35
2781984,32
2782616,27
2783244,20
2783864,27
2784496,26
2785120,20
2785748,12
2786376,14
2787000,22
2787628,15
2788252,13
2788876,12
2789508,17
2790128,27
2790756,26
2791380,39
2792004,56
2792632,68
2793256,71
2793884,52
2794516,34
2795136,15
2795768,17
2796392,27
2797020,32
2797652,40
2798272,41
2798900,41
2799528,37
2800152,30
2800780,30
2801400,31
2802028,24
2802652,15
2803276,19
2803904,37
2804528,35
2805156,33
2805788,34
2806408,34
2807036,31
2807660,29
2808292,41
2808920,51
2809536,63
2810168,58
2810792,37
2811416,21
2812044,13
2812664,17
2813292,23
2813920,37
2814544,39
2815172,33
2815792,37
2816424,32
2817052,44
2817672,48
2818300,37
2818924,26
2819552,17
2820180,13
2820800,21
2821428,30
2822052,33
2822676,27
2823304,29
2823924,31
2824552,37
2825176,48
2825800,56
2826428,52
2827048,40
2827676,30
2828304,18
2828928,14
2829556,12
2830180,23
2830808,35
2831440,36
2832056,36
2832684,37
2833308,29
2833932,29
2834560,29
2835176,23
2835808,19
2836432,14
2837056,16
2837684,19
2838304,17
2838932,12
2839564,14
2840184,22
2840812,29
2841436,37
2842068,46
2842696,56
2843320,65
2843948,40
2844572,29
2845196,17
2845828,13
2846448,14
2847076,18
2847700,23
2848324,23
2848952,20
2849576,18
2850204,21
2850836,26
2851456,33
2852084,40
2852708,30
2853340,18
2853968,16
2854592,14
2855220,20
2855844,19
2856468,18
2857100,34
2857720,57
2858348,66
2858976,63
2859600,50
2860228,34
2860848,24
2861476,13
2862108,16
2862728,18
2863356,23
2863984,24
2864616,34
2865244,47
2865864,55
2866496,43
2867120,28
2867744,15
2868372,12
2868992,13
2869620,14
2870244,14
2870868,16
2871496,20
2872112,33
2872744,47
2873372,44
2873992,39
2874620,24
2875244,11
2875876,16
2876504,42
2877120,56
2877752,53
2878376,36
2879000,17
2879628,17
2880248,30
2880876,37
2881500,39
2882120,37
2882752,42
2883368,39
2883996,37
2884624,37
2885240,26
2885872,15
2886492,13
2887124,13
2887752,15
2888368,34
2888996,46
2889620,35
2890244,34
2890872,39
2891496,53
2892124,53
2892748,51
2893372,44
2894004,30
2894624,19
2895252,15
2895880,13
2896504,18
2897132,24
2897756,34
2898388,29
2899016,26
2899636,26
2900264,28
2900888,22
2901508,21
2902140,26
2902760,30
2903388,19
2904012,15
2904636,21
2905268,14
2905888,13
2906516,14
2907148,25
2907768,35
2908396,56
2909020,68
2909652,55
2910280,29
2910900,22
2911528,21
2912152,19
2912776,12
2913404,13
2914024,26
2914652,34
2915276,35
2915900,35
2916532,34
2917152,43
2917780,44
2918412,34
2919032,24
2919660,14
2920284,14
2920916,25
2921544,34
2922164,30
2922792,30
2923416,24
2924040,18
2924668,28
2925288,42
2925916,54
2926544,56
2927168,35
2927796,24
2928416,19
2929044,15
2929676,10
2930296,15
2930924,31
2931552,33
2932180,32
2932812,31
2933432,28
2934064,25
2934688,22
2935312,26
2935940,18
2936560,15
2937188,13
2937816,15
2938440,24
2939068,28
2939688,25
2940316,22
2940948,22
2941568,42
2942200,46
2942824,53
2943452,40
2944084,26
2944704,22
2945332,16
2945956,13
2946580,16
2947208,21
2947824,26
2948456,32
2949080,33
2949704,33
2950332,32
2950952,15
2951580,13
2952212,13
2952832,17
2953460,21
2954084,17
2954712,10
2955344,13
2955964,11
2956592,10
2957216,13
2957840,22
2958468,52
2959088,64
2959716,67
2960340,52
2960964,41
2961592,28
2962216,19
2962844,11
2963476,16
2964096,28
2964724,33
2965348,32
2965980,23
2966608,26
2967228,23
2967856,16
2968480,15
2969104,13
2969732,13
2970352,13
2970980,15
2971604,14
2972228,10
2972856,10
2973472,17
2974100,31
2974732,42
2975352,57
2975980,68
2976608,56
2977236,29
2977868,18
2978488,15
2979116,13
2979740,17
2980364,20
2980996,25
2981616,27
2982244,36
2982868,35
2983492,37
2984124,34
2984744,27
2985372,26
2986004,18
2986624,14
2987252,15
2987876,27
2988508,26
2989140,28
2989760,28
2990388,27
2991016,32
2991640,53
2992268,59
2992888,63
2993516,36
2994140,15
2994764,13
2995396,12
2996016,17
2996644,29
2997276,35
2997896,31
2998524,28
2999148,25
2999780,21
3000412,22
3001032,20
3001660,17
3002284,13
3002908,14
3003540,14
3004160,14
3004788,17
3005416,17
3006040,22
3006672,17
3007288,17
3007920,28
3008552,33
3009168,50
3009800,56
3010424,45
3011056,37
3011684,23
3012304,18
3012936,11
3013560,18
3014184,31
3014816,29
3015432,34
3016064,37
3016688,30
3017312,26
3017940,20
3018568,19
3019196,13
3019828,13
3020448,13
3021080,13
3021704,11
3022332,11
3022964,13
3023584,21
3024216,31
3024840,59
3025464,75
3026092,74
3026712,53
3027344,19
3027972,14
3028592,15
3029224,13
3029848,11
3030476,23
3031108,34
3031728,38
3032360,36
3032984,30
3033608,30
3034236,36
3034856,28
3035488,15
3036112,14
3036736,13
3037368,15
3037984,19
3038616,21
3039244,20
3039864,17
3040496,23
3041120,35
3041748,50
3042380,61
3043000,56
3043632,38
3044256,32
3044880,20
3045508,14
3046128,13
3046760,23
3047384,32
3048008,33
3048636,27
3049256,28
3049884,31
3050516,35
3051136,32
3051768,29
3052392,20
3053024,14
3053652,18
3054272,23
3054904,28
3055528,25
3056152,26
3056784,23
3057400,27
3058032,41
3058656,50
3059280,59
3059908,51
3060528,31
3061160,21
3061788,13
3062408,16
3063036,17
3063664,27
3064296,46
3064924,40
3065544,33
3066176,33
3066800,31
3067424,22
3068056,18
3068672,12
3069304,13
3069932,15
3070556,16
3071188,12
3071816,14
3072448,21
3073076,30
3073696,35
3074324,39
3074948,54
3075576,57
3076204,52
3076824,36
3077452,28
3078076,23
3078700,13
3079328,25
3079952,39
3080580,37
3081204,35
3081828,28
3082460,27
3083080,34
3083712,31
3084340,27
3084960,23
3085588,13
3086212,14
3086844,14
3087472,17
3088088,20
3088720,26
3089344,37
3089964,32
3090596,28
3091216,33
3091844,42
3092468,48
3093092,51
3093724,29
3094348,17
3094980,15
3095608,14
3096232,11
3096860,11
3097488,23
3098116,25
3098748,18
3099368,18
3099996,20
3100624,16
3101248,10
3101876,18
3102496,21
3103128,14
3103756,14
3104376,15
3105004,15
3105628,14
3106260,11
3106892,11
3107512,26
3108144,48
3108768,61
3109392,59
3110024,34
3110644,24
3111272,29
3111896,29
3112520,18
3113152,19
3113768,34
3114396,40
3115028,32
3115648,24
3116276,19
3116904,34
3117532,39
3118164,34
3118784,30
3119416,19
3120040,14
3120664,15
3121292,22
3121912,23
3122544,24
3123168,22
3123792,23
3124420,36
3125040,45
3125668,48
3126300,50
3126920,40
3127548,26
3128176,18
3128804,13
3129436,18
3130056,30
3130684,35
3131312,35
3131936,33
3132564,16
3133184,11
3133816,13
3134440,15
3135064,17
3135692,13
3136312,18
3136940,13
3137572,10
3138192,10
3138820,12
3139448,13
3140076,11
3140708,14
3141328,15
3141956,46
3142584,68
3143208,64
3143836,33
3144456,22
3145084,22
3145708,25
3146336,13
3146964,12
3147588,18
3148220,22
3148852,25
3149472,24
3150100,27
3150724,29
3151356,29
3151988,36
3152608,32
3153240,30
3153864,16
3154488,17
3155116,27
3155736,33
3156368,39
3157000,32
3157616,28
3158248,35
3158872,41
3159504,41
3160132,27
3160752,23
3161384,20
3162008,16
3162632,11
3163264,15
3163880,24
3164512,33
3165136,40
3165760,32
3166392,17
3167008,16
3167640,10
3168272,12
3168892,15
3169520,21
3170148,18
3170776,13
3171408,11
3172032,12
3172664,16
3173288,25
3173912,35
3174544,60
3175160,73
3175792,79
3176416,73
3177040,45
3177668,27
3178288,20
3178916,14
3179548,14
3180168,15
3180796,22
3181424,36
3182056,35
3182688,37
3183304,38
3183936,34
3184564,34
3185188,29
3185820,20
3186440,23
3187072,16
3187696,16
3188320,18
3188952,25
3189576,36
3190208,38
3190840,43
3191456,57
3192092,57
3192716,46
3193348,24
3193980,14
3194600,14
3195232,15
3195856,12
3196480,19
3197112,27
3197728,29
3198360,26
3198992,18
3199616,22
3200252,34
3200872,28
3201500,23
3202128,23
3202744,15
3203376,14
3203996,17
3204620,35
3205248,40
3205872,44
3206500,44
3207124,37
3207744,50
3208376,58
3208992,54
3209620,40
3210248,16
3210872,15
3211500,23
3212124,23
3212756,19
3213384,16
3214008,30
3214636,41
3215260,45
3215884,45
3216516,40
3217136,45
3217764,41
3218388,31
3219012,22
3219644,16
3220264,14
3220892,11
3221524,18
3222144,28
3222772,32
3223396,40
3224028,47
3224660,63
3225280,74
3225912,66
3226532,41
3227156,27
3227788,20
3228408,32
3229036,19
3229660,14
3230284,23
3230916,31
3231536,28
3232164,29
3232796,22
3233416,31
3234044,26
3234668,31
3235300,24
3235928,15
3236544,14
3237176,23
3237800,28
3238424,32
3239052,21
3239672,9
3240252,11
3240880,23
3241504,55
3242132,67
3242752,59
3243384,37
3244008,25
3244628,22
3245260,13
3245880,25
3246508,35
3247140,46
3247760,51
3248388,54
3249012,53
3249644,45
3250272,39
3250896,23
3251524,16
3252148,12
3252772,19
3253404,25
3254024,35
3254656,44
3255280,38
3255904,38
3256536,35
3257156,24
3257788,41
3258416,60
3259040,53
3259668,45
3260296,23
3260924,15
3261556,14
3262176,24
3262808,34
3263432,41
3264056,45
3264684,43
3265304,50
3265932,47
3266556,41
3267184,27
3267816,11
3268440,26
3269068,23
3269700,16
3270320,13
3270952,12
3271576,18
3272200,17
3272828,19
3273448,24
3274080,35
3274704,62
3275328,86
3275960,78
3276580,55
3277212,31
3277840,16
3278452,13
3279080,15
3279704,25
3280332,25
3280960,19
3281576,35
3282204,53
3282828,56
3283456,57
3284084,44
3284700,24
3285332,13
3285952,13
3286576,13
3287204,14
3287820,16
3288452,28
3289072,39
3289696,52
3290324,76
3290944,83
3291572,79
3292200,62
3292820,47
3293448,22
3294072,13
3294700,15
3295332,18
3295952,17
3296580,16
3297204,19
3297828,22
3298456,31
3299072,25
3299704,29
3300324,34
3300948,39
3301580,48
3302200,51
3302828,60
3303456,70
3304080,40
3304708,14
3305332,35
3305960,48
3306588,63
3307208,54
3307836,58
3308460,67
3309084,73
3309712,67
3310328,61
3310960,50
3311584,42
3312204,39
3312836,11
3313456,48
3314084,85
3314712,81
3315336,73
3315964,60
3316588,43
3317220,32
3317848,22
3318464,12
3319092,25
3319716,23
3320340,27
3320968,24
3321592,11
3322220,21
3322844,24
3323468,27
3324100,26
3324720,39
3325348,37
3325980,38
3326600,17
3327228,13
3327852,16
3328484,14
3329112,42
3329728,35
3330356,11
3330980,23
3331604,11
3332232,12
3332848,15
3333476,10
3334100,16
3334724,24
3335352,14
3335976,26
3336604,44
3337236,42
3337856,26
3338484,19
3339108,20
3339736,13
3340364,22
3340984,35
3341612,11
3342236,30
3342856,41
3343488,19
3344104,24
3344732,31
3345356,37
3345980,40
3346608,57
3347224,71
3347856,36
3348476,12
3349104,24
3349732,11
3350356,30
3350988,34
3351620,14
3352240,14
3352868,13
3353492,19
3354120,51
3354748,66
3355368,69
3355996,49
3356620,34
3357244,28
3357876,49
3358496,59
3359124,44
3359756,20
3360376,32
3361004,51
3361628,52
3362252,29
3362884,16
3363504,15
3364132,43
3364756,39
3365380,45
3366012,66
3366632,65
3367260,55
3367884,42
3368504,42
3369136,58
3369752,75
3370380,31
3371004,30
3371632,51
3372260,43
3372884,26
3373512,21
3374140,31
3374760,41
3375388,41
3376012,38
3376640,18
3377268,14
3377888,16
3378516,27
3379140,43
3379768,38
3380396,16
3381016,11
3381644,12
3382268,10
3382896,17
3383524,32
3384148,45
3384776,21
3385408,13
3386024,29
3386652,37
3387276,27
3387904,10
3388536,16
3389152,15
3389780,25
3390404,45
3391028,26
3391660,12
3392280,65
3392908,107
3393588,85
3394208,54
3394836,24
3395460,14
3396088,15
3396720,10
3397336,17
3397964,35
3398588,38
3399212,55
3399844,46
3400464,11
3401092,58
3401716,128
3402392,188
3403064,128
3403740,42
3404360,15
3404988,13
3405608,11
3406236,19
3406864,31
3407480,61
3408112,67
3408736,73
3409364,69
3409992,41
3410616,25
3411244,13
3411868,16
3412492,17
3413120,14
3413736,30
3414368,32
3414992,42
3415616,16
3416244,35
3416864,27
3417492,13
3418124,21
3418744,17
3419372,23
3419996,40
3420628,31
3421260,18
3421880,45
3422508,52
3423132,47
3423756,40
3424388,32
3425008,61
3425636,81
3426260,87
3426884,67
3427512,67
3428136,79
3428764,141
3429448,117
3430116,34
3430744,11
3431368,10
3431988,53
3432620,126
3433292,264
3433968,214
3434648,128
3435324,84
3435952,49
3436580,14
3437200,32
3437828,41
3438452,18
3439084,22
3439716,22
3440336,12
3440964,56
3441588,82
3442212,64
3442840,30
3443464,18
3444092,19
3444716,27
3445340,21
3445968,12
3446588,19
3447216,44
3447844,40
3448464,47
3449092,34
3449716,14
3450348,28
3450976,32
3451596,33
3452224,15
3452848,26
3453472,20
3454100,15
3454720,35
3455348,44
3455976,36
3456600,26
3457228,14
3457848,13
3458476,11
3459108,13
3459728,29
3460356,48
3460980,52
3461612,59
3462240,36
3462860,28
3463488,65
3464112,73
3464736,29
3465364,24
3465984,40
3466612,27
3467236,15
3467860,25
3468492,23
3469112,35
3469740,36
3470372,16
3470992,25
3471624,24
3472248,28
3472876,14
3473504,15
3474128,39
3474756,49
3475380,36
3476004,49
3476636,57
3477256,55
3477888,31
3478512,79
3479136,99
3479764,80
3480392,30
3481020,40
3481652,64
3482268,67
3482900,61
3483520,56
3484152,59
3484780,78
3485400,80
3486028,61
3486652,51
3487276,15
3487908,30
3488528,46
3489156,72
3489780,73
3490404,48
3491032,43
3491656,63
3492288,93
3492916,88
3493536,50
3494164,13
3494792,27
3495420,23
3496052,14
3496672,32
3497300,67
3497924,50
3498548,15
3499180,48
3499800,61
3500428,11
3501056,12
3501680,32
3502308,47
3502936,132
3503616,115
3504292,45
3504912,15
3505540,10
3506168,20
3506792,40
3507420,62
3508044,139
3508728,196
3509404,158
3510076,124
3510756,93
3511384,40
3512000,90
3512628,131
3513304,72
3513928,48
3514556,76
3515176,77
3515808,37
3516436,34
3517056,35
3517688,34
3518312,32
3518944,35
3519572,37
3520192,34
3520824,29
3521448,16
3522068,15
3522700,58
3523320,99
3523948,120
3524628,114
3525300,84
3525924,20
3526548,18
3527172,14
3527804,15
3528424,23
3529052,21
3529676,13
3530300,52
3530928,112
3531604,90
3532228,31
3532860,11
3533480,21
3534108,67
3534732,65
3535360,19
3535988,39
3536608,51
3537236,44
3537860,35
3538484,13
3539116,11
3539736,44
3540364,81
3540988,108
3541668,107
3542348,79
3542968,32
3543592,82
3544220,145
3544892,88
3545516,58
3546148,49
3546768,84
3547396,216
3548076,193
3548748,36
3549376,78
3549992,77
3550624,33
3551252,16
3551872,97
3552504,147
3553180,192
3553852,57
3554476,34
3555096,47
3555728,53
3556356,39
3556976,34
3557608,128
3558284,153
3558964,132
3559640,105
3560316,41
3560944,141
3561624,176
3562300,73
3562928,57
3563556,46
3564176,32
3564804,11
3565428,16
3566060,11
3566688,10
3567312,10
3567944,25
3568568,35
3569192,37
3569824,30
3570440,16
3571072,45
3571696,55
3572320,20
3572948,13
3573576,44
3574208,111
3574888,125
3575564,126
3576244,119
3576924,84
3577544,15
3578176,42
3578800,38
3579424,66
3580056,79
3580672,46
3581304,57
3581928,57
3582556,29
3583188,25
3583812,24
3584444,17
3585076,12
3585696,36
3586324,28
3586948,14
3587576,14
3588204,14
3588824,50
3589452,86
3590076,82
3590700,46
3591328,46
3591952,74
3592584,71
3593208,63
3593832,111
3594512,188
3595180,142
3595852,28
3596476,21
3597096,129
3597776,258
3598456,223
3599132,144
3599812,95
3600440,72
3601056,65
3601684,63
3602308,54
3602940,16
3603568,32
3604192,29
3604820,36
3605444,61
3606068,51
3606696,22
3607312,13
3607940,72
3608564,128
3609240,141
3609916,106
3610588,65
3611208,17
3611836,62
3612456,73
3613084,27
3613716,14
3614336,12
3614964,12
3615588,37
3616220,55
3616848,27
3617464,31
3618092,20
3618716,16
3619340,45
3619968,34
3620592,53
3621220,85
3621844,22
3622468,31
3623096,20
3623720,42
3624348,73
3624980,117
3625652,118
3626328,83
3626944,56
3627568,55
3628196,28
3628816,14
3629444,42
3630068,82
3630692,162
3631376,113
3632044,146
3632716,88
3633340,50
3633960,21
3634588,21
3635220,37
3635840,37
3636468,40
3637092,51
3637724,49
3638352,27
3638972,34
3639600,57
3640224,54
3640852,62
3641480,22
3642100,19
3642728,79
3643352,143
3644028,80
3644652,27
3645280,32
3645908,14
3646540,117
3647212,146
3647888,55
3648520,16
3649136,24
3649764,50
3650388,13
3651020,86
3651648,104
3652324,95
3652948,47
3653572,37
3654196,20
3654828,13
3655448,41
3656076,13
3656700,42
3657328,111
3658008,203
3658684,178
3659356,120
3660036,64
3660656,34
3661288,133
3661968,76
3662584,33
3663212,74
3663840,31
3664464,31
3665092,78
3665712,113
3666396,118
3667076,116
3667748,71
3668376,17
3669004,12
3669624,19
3670256,21
3670880,39
3671508,51
3672140,60
3672760,44
3673392,31
3674016,15
3674640,39
3675272,21
3675888,22
3676520,26
3677144,24
3677768,20
3678396,14
3679016,11
3679648,11
3680280,10
3680896,13
3681524,14
3682148,11
3682780,43
3683412,38
3684032,17
3684660,19
3685284,33
3685912,22
3686540,48
3687160,67
3687788,89
3688412,31
3689032,91
3689660,107
3690332,55
3690956,14
3691588,50
3692208,60
3692836,77
3693460,82
3694084,58
3694716,48
3695336,35
3695968,36
3696592,52
3697216,43
3697844,18
3698464,45
3699092,97
3699724,164
3700396,56
3701024,45
3701644,140
3702328,126
3703004,214
3703676,54
3704304,131
3704984,141
3705660,50
3706284,11
3706916,36
3707536,182
3708216,52
3708836,70
3709456,123
3710140,153
3710812,132
3711492,80
3712120,20
3712736,49
3713364,109
3714040,61
3714656,12
3715284,24
3715908,107
3716592,115
3717268,60
3717888,32
3718516,14
3719140,30
3719764,31
3720396,45
3721016,12
3721644,74
3722276,94
3722896,31
3723524,11
3724148,14
3724780,34
3725412,46
3726032,78
3726664,55
3727288,34
3727912,31
3728540,27
3729160,60
3729788,62
3730416,29
3731036,11
3731668,31
3732292,63
3732924,56
3733552,36
3734176,29
3734808,43
3735432,35
3736060,25
3736692,56
3737312,119
3737996,79
3738616,31
3739240,11
3739868,15
3740492,51
3741124,119
3741804,111
3742476,82
3743104,36
3743728,13
3744352,55
3744980,37
3745604,17
3746236,12
3746864,20
3747488,28
3748120,18
3748744,18
3749372,11
3750004,12
3750624,31
3751252,92
3751880,103
3752556,104
3753236,52
3753856,93
3754488,146
3755168,98
3755784,38
3756416,22
3757040,43
3757664,61
3758296,64
3758920,30
3759552,25
3760184,38
3760800,72
3761428,74
3762056,17
3762684,77
3763316,115
3763988,149
3764668,51
3765296,10
3765912,11
3766544,23
3767168,21
3767800,27
3768428,18
3769048,35
3769676,27
3770300,35
3770924,58
3771556,17
3772176,14
3772804,59
3773428,80
3774056,41
3774684,49
3775312,134
3775992,150
3776676,99
3777296,24
3777924,64
3778548,169
3779224,178
3779904,72
3780528,39
3781152,29
3781780,18
3782400,17
3783028,15
3783652,25
3784280,68
3784908,59
3785528,30
3786160,86
3786788,113
3787460,122
3788140,84
3788760,69
3789384,36
3790016,32
3790632,88
3791264,67
3791896,22
3792512,27
3793140,13
3793768,35
3794396,33
3795028,28
3795648,39
3796276,13
3796904,24
3797528,11
3798156,10
3798776,11
3799408,17
3800032,51
3800656,33
3801284,15
3801904,30
3802536,20
3803164,20
3803784,35
3804416,19
3805040,11
3805668,39
3806300,62
3806920,37
3807552,46
3808176,25
3808800,42
3809428,13
3810048,13
3810676,19
3811304,13
3811928,14
3812556,11
3813176,47
3813808,38
3814436,10
3815056,54
3815684,48
3816308,26
3816940,22
3817572,59
3818192,25
3818824,59
3819448,130
3820124,130
3820804,93
3821424,99
3822056,97
3822684,22
3823304,36
3823936,21
3824560,52
3825184,121
3825868,25
3826488,22
3827120,48
3827752,20
3828368,13
3829000,26
3829628,35
3830260,38
3830888,34
3831512,20
3832144,17
3832768,17
3833392,17
3834024,14
3834644,31
3835276,19
3835900,16
3836528,16
3837160,38
3837788,64
3838420,54
3839052,87
3839672,75
3840308,66
3840932,59
3841552,84
3842184,31
3842800,39
3843428,25
3844052,19
3844676,54
3845304,160
3845980,141
3846656,101
3847336,13
3847960,134
3848640,400
3849320,182
3849996,65
3850624,21
3851244,15
3851868,15
3852500,26
3853124,39
3853752,13
3854380,19
3855000,55
3855628,14
3856252,74
3856884,142
3857564,163
3858236,106
3858912,56
3859544,60
3860160,17
3860788,14
3861412,22
3862036,52
3862668,30
3863288,95
3863916,44
3864544,41
3865168,110
3865848,65
3866472,37
3867100,24
3867732,16
3868352,15
3868980,17
3869604,51
3870228,43
3870860,12
3871480,25
3872112,24
3872732,11
3873360,27
3873988,60
3874608,93
3875236,106
3875920,101
3876588,87
3877212,88
3877840,64
3878464,18
3879092,16
3879712,75
3880344,74
3880972,34
3881592,57
3882224,105
3882900,120
3883576,111
3884252,69
3884872,32
3885500,88
3886132,80
3886752,68
3887384,56
3888008,46
3888636,65
3889268,16
3889888,55
3890520,75
3891144,70
3891768,54
3892400,71
3893016,33
3893648,25
3894272,80
3894896,77
3895524,14
3896148,27
3896780,53
3897412,112
3898084,101
3898760,48
3899384,36
3900008,30
3900636,33
3901264,49
3901896,21
3902524,13
3903144,13
3903776,16
3904400,37
3905028,30
3905660,42
3906280,44
3906908,41
3907532,57
3908160,61
3908788,28
3909408,14
3910040,26
3910668,27
3911288,27
3911920,13
3912544,31
3913172,12
3913804,10
3914424,25
3915052,78
3915680,78
3916304,57
3916936,23
3917552,13
3918184,19
3918808,16
3919432,31
3920064,28
3920680,17
3921308,19
3921940,52
3922560,57
3923188,92
3923816,88
3924444,83
3925076,65
3925696,66
3926328,13
3926952,35
3927576,14
3928208,22
3928824,10
3929456,46
3930080,86
3930704,85
3931336,73
3931956,23
3932588,19
3933216,51
3933836,77
3934464,77
3935088,39
3935716,34
3936348,51
3936968,38
3937596,31
3938220,31
3938844,25
3939476,10
3940096,11
3940724,27
3941348,50
3941972,70
3942604,66
3943224,23
3943852,15
3944480,38
3945104,64
3945732,59
3946356,50
3946988,30
3947616,26
3948240,22
3948868,55
3949492,159
3950168,114
3950844,16
3951464,70
3952096,118
3952776,112
3953444,33
3954068,27
3954700,142
3955372,175
3956048,109
3956724,49
3957344,14
3957976,79
3958600,69
3959228,40
3959860,36
3960480,58
3961108,55
3961736,36
3962364,11
3962996,12
3963616,23
3964244,60
3964872,80
3965496,58
3966124,22
3966744,14
3967376,11
3968004,12
3968620,15
3969252,14
3969876,15
3970508,12
3971136,37
3971760,17
3972388,54
3973016,87
3973640,103
3974320,99
3974944,90
3975572,91
3976204,71
3976824,49
3977452,16
3978076,44
3978708,33
3979340,22
3979960,23
3980592,17
3981216,14
3981840,13
3982468,30
3983088,66
3983720,89
3984344,73
3984968,15
3985596,58
3986216,83
3986848,84
3987476,78
3988096,19
3988728,13
3989352,15
3989980,35
3990612,56
3991232,14
3991864,113
3992540,166
3993212,52
3993840,41
3994464,81
3995092,62
3995724,16
3996344,17
3996972,15
3997600,75
3998224,41
3998852,23
3999472,25
4000104,59
4000724,111
4001400,144
4002076,88
4002696,32
4003324,14
4003956,12
4004576,14
4005204,13
4005828,13
4006452,13
4007080,75
4007696,110
4008380,99
4009004,79
4009624,51
4010252,55
4010876,55
4011508,37
4012136,18
4012760,14
4013392,63
4014016,99
4014640,45
4015268,11
4015888,29
4016516,18
4017140,16
4017764,28
4018396,67
4019020,46
4019652,79
4020280,113
4020948,20
4021572,86
4022196,155
4022876,198
4023556,69
4024176,40
4024804,95
4025436,146
4026108,120
4026784,91
4027416,53
4028032,27
4028660,140
4029340,140
4030012,100
4030692,31
4031312,33
4031944,24
4032576,26
4033192,47
4033824,17
4034448,21
4035076,16
4035708,28
4036328,21
4036956,34
4037580,25
4038204,11
4038836,18
4039456,45
4040084,80
4040716,84
4041336,73
4041968,51
4042592,48
4043220,16
4043852,16
4044472,17
4045104,36
4045728,21
4046348,43
4046980,39
4047600,19
4048228,21
4048852,14
4049476,67
4050108,72
4050728,87
4051356,121
4052040,40
4052656,28
4053284,44
4053908,46
4054536,40
4055168,10
4055784,19
4056412,23
4057036,60
4057664,99
4058292,100
4058964,71
4059592,24
4060220,72
4060840,35
4061468,14
4062092,11
4062724,17
4063356,69
4063976,101
4064660,20
4065284,27
4065904,15
4066532,18
4067160,25
4067788,27
4068420,13
4069040,15
4069672,15
4070296,26
4070920,28
4071548,29
4072168,45
4072796,55
4073424,62
4074048,61
4074680,15
4075296,19
4075928,19
4076556,13
4077176,20
4077808,14
4078432,15
4079060,23
4079692,26
4080312,19
4080944,25
4081568,10
4082192,13
4082824,22
4083440,13
4084072,50
4084696,45
4085320,43
4085952,18
4086568,18
4087196,62
4087828,90
4088448,28
4089080,17
4089704,13
4090332,17
4090964,40
4091584,71
4092216,73
4092840,45
4093464,34
4094096,41
4094712,34
4095348,11
4095972,42
4096600,48
4097228,25
4097844,12
4098472,12
4099100,21
4099720,32
4100348,37
4100968,45
4101596,16
4102228,42
4102848,81
4103476,43
4104096,43
4104720,18
4105348,82
4105968,128
4106648,112
4107320,42
4107936,32
4108564,68
4109188,51
4109816,17
4110444,13
4111064,14
4111692,13
4112316,21
4112936,51
4113568,40
4114184,13
4114812,27
4115436,12
4116060,11
4116688,45
4117304,12
4117932,23
4118564,38
4119184,47
4119812,14
4120436,23
4121064,33
4121692,26
4122308,28
4122940,22
4123560,12
4124184,48
4124812,67
4125432,51
4126060,27
4126684,16
4127308,14
4127936,23
4128560,44
4129188,77
4129820,72
4130440,45
4131068,37
4131692,25
4132320,13
4132952,11
4133568,16
4134196,14
4134820,22
4135444,15
4136076,13
4136696,14
4137324,37
4137948,65
4138572,70
4139200,49
4139816,51
4140448,77
4141076,82
4141696,83
4142324,106
4143000,81
4143624,16
4144252,44
4144872,69
4145500,73
4146124,120
4146800,123
4147476,64
4148096,44
4148724,47
4149352,86
4149972,58
4150600,17
4151224,13
4151848,14
4152476,33
4153096,65
4153724,72
4154348,49
4154972,43
4155604,16
4156228,12
4156856,45
4157484,22
4158104,78
4158732,77
4159356,63
4159988,62
4160620,80
4161240,43
4161868,38
4162488,45
4163112,23
4163740,18
4164360,116
4165040,95
4165664,49
4166280,32
4166908,18
4167532,19
4168164,20
4168792,16
4169408,22
4170036,38
4170660,29
4171284,13
4171912,18
4172536,13
4173164,23
4173788,42
4174412,57
4175040,69
4175664,58
4176292,31
4176924,15
4177544,17
4178172,17
4178796,20
4179424,24
4180056,20
4180672,14
4181300,37
4181924,49
4182548,37
4183176,22
4183792,29
4184420,27
4185044,15
4185668,16
4186296,16
4186912,18
4187544,21
4188172,26
4188792,11
4189420,20
4190044,63
4190676,94
4191304,75
4191928,66
4192560,55
4193184,32
4193808,18
4194436,39
4195056,33
4195684,103
4196368,59
4196984,21
4197612,17
4198236,14
4198868,29
4199500,67
4200120,75
4200748,41
4201372,19
4201996,31
4202624,39
4203240,16
4203872,20
4204492,34
4205116,44
4205748,42
4206368,41
4206996,62
4207628,100
4208300,122
4208976,86
4209600,39
4210220,16
4210852,57
4211472,60
4212100,30
4212724,15
4213348,10
4213980,10
4214604,15
4215232,16
4215860,11
4216480,11
4217108,15
4217732,14
4218364,74
4218996,30
4219616,19
4220244,20
4220868,20
4221492,19
4222120,34
4222740,80
4223368,42
4223992,15
4224616,42
4225248,49
4225868,47
4226500,39
4227128,28
4227752,22
4228380,12
4229004,10
4229636,11
4230264,14
4230884,14
4231512,13
4232136,11
4232760,12
4233388,10
4234008,21
4234636,17
4235260,72
4235888,83
4236516,27
4237140,13
4237772,33
4238400,40
4239024,36
4239656,74
4240280,96
4240904,72
4241532,96
4242152,71
4242780,20
4243404,13
4244028,15
4244656,56
4245280,47
4245908,25
4246540,12
4247160,21
4247788,41
4248412,67
4249044,53
4249672,58
4250296,37
4250924,21
4251548,29
4252172,31
4252800,18
4253416,23
4254044,71
4254672,116
4255348,110
4256028,71
4256648,29
4257276,35
4257908,72
4258528,14
4259156,39
4259784,22
4260408,14
4261036,24
4261656,15
4262284,12
4262908,12
4263536,15
4264164,31
4264788,71
4265416,85
4266048,56
4266664,41
4267292,22
4267916,45
4268548,63
4269176,50
4269800,45
4270428,20
4271052,12
4271676,11
4272308,18
4272928,56
4273556,117
4274240,111
4274908,56
4275536,53
4276156,15
4276780,55
4277412,36
4278032,14
4278660,11
4279284,37
4279908,61
4280540,57
4281164,19
4281792,15
4282424,35
4283040,36
4283668,19
4284292,15
4284924,18
4285552,20
4286172,28
4286800,17
4287424,23
4288048,58
4288676,50
4289296,27
4289924,29
4290548,30
4291172,24
4291804,31
4292428,17
4293056,35
4293684,16
4294304,35
4294936,23
4295560,10
4296188,15
4296820,27
4297440,22
4298068,25
4298696,29
4299320,13
4299948,55
4300568,32
4301200,27
4301820,27
4302448,17
4303076,19
4303700,10
4304328,10
4304960,11
4305576,17
4306204,12
4306828,33
4307460,15
4308088,25
4308704,41
4309336,31
4309960,37
4310584,34
4311212,63
4311832,69
4312464,33
4313088,10
4313712,35
4314340,67
4314964,129
4315648,105
4316324,59
4316944,34
4317572,17
4318200,13
4318824,14
4319452,24
4320080,15
4320708,16
4321336,44
4321960,68
4322588,65
4323212,58
4323840,79
4324472,118
4325140,94
4325764,39
4326388,27
4327016,32
4327644,23
4328268,32
4328896,10
4329528,11
4330144,18
4330776,44
4331400,164
4332080,176
4332760,101
4333436,48
4334064,22
4334692,13
4335312,13
4335944,15
4336568,14
4337192,21
4337824,36
4338440,26
4339072,43
4339696,49
4340320,30
4340952,27
4341576,52
4342208,60
4342836,75
4343456,75
4344088,47
4344708,20
4345340,15
4345972,36
4346592,54
4347224,69
4347844,40
4348468,63
4349100,74
4349720,51
4350352,21
4350980,18
4351600,21
4352232,14
4352852,16
4353484,16
4354112,18
4354728,25
4355360,31
4355980,45
4356612,53
4357240,64
4357864,82
4358492,68
4359116,52
4359740,40
4360372,32
4360992,21
4361620,16
4362252,11
4362872,19
4363500,30
4364124,25
4364756,28
4365384,24
4366008,36
4366636,44
4367260,22
4367884,16
4368516,26
4369136,17
4369764,32
4370388,25
4371012,15
4371644,42
4372264,42
4372892,11
4373524,16
4374144,18
4374772,11
4375400,37
4376028,64
4376660,58
4377280,54
4377912,36
4378536,20
4379160,15
4379788,20
4380408,26
4381036,32
4381664,55
4382288,43
4382916,25
4383536,25
4384164,38
4384796,20
4385416,13
4386044,33
4386668,44
4387300,33
4387928,30
4388552,38
4389180,14
4389804,11
4390432,16
4391060,52
4391680,62
4392308,20
4392936,15
4393560,18
4394192,25
4394808,22
4395440,29
4396072,33
4396688,30
4397320,50
4397944,73
4398576,46
4399204,31
4399824,13
4400456,12
4401080,15
4401704,17
4402336,17
4402952,19
4403584,18
4404208,14
4404828,20
4405460,55
4406084,66
4406712,68
4407340,71
4407960,71
4408592,92
4409216,85
4409844,74
4410472,54
4411096,29
4411724,15
4412352,72
4412976,132
4413656,91
4414280,41
4414908,12
4415540,10
4416160,11
4416788,10
4417412,23
4418044,43
4418672,21
4419288,14
4419920,30
4420544,34
4421168,24
4421796,26
4422416,37
4423044,11
4423668,37
4424296,64
4424924,82
4425548,83
4426180,81
4426808,25
4427428,13
4428056,15
4428680,14
4429308,41
4429940,42
4430560,65
4431188,72
4431816,48
4432440,28
4433068,13
4433688,13
4434316,22
4434940,32
4435568,54
4436196,65
4436820,76
4437452,30
4438084,34
4438704,48
4439336,57
4439960,30
4440584,19
4441212,41
4441832,49
4442460,45
4443084,63
4443712,83
4444340,59
4444960,39
4445588,11
4446220,98
4446840,151
4447520,68
4448144,31
4448772,18
4449404,12
4450024,10
4450652,17
4451276,17
4451904,15
4452532,26
4453152,28
4453784,38
4454412,24
4455032,13
4455660,35
4456288,32
4456916,22
4457548,62
4458168,72
4458800,85
4459424,110
4460100,116
4460780,65
4461400,15
4462032,31
4462664,93
4463280,92
4463912,45
4464536,34
4465164,28
4465792,21
4466412,19
4467040,56
4467668,55
4468292,23
4468920,14
4469544,16
4470176,11
4470804,15
4471424,34
4472056,76
4472680,104
4473360,83
4473992,75
4474612,97
4475244,21
4475868,44
4476492,39
4477124,30
4477744,57
4478376,78
4479008,74
4479628,56
4480260,22
4480880,11
4481512,10
4482140,10
4482760,11
4483388,17
4484012,29
4484636,23
4485268,24
4485888,30
4486516,37
4487140,15
4487764,35
4488392,21
4489016,56
4489644,42
4490276,31
4490896,32
4491524,18
4492148,12
4492780,14
4493412,19
4494032,19
4494664,21
4495288,11
4495912,29
4496544,38
4497160,18
4497788,13
4498416,11
4499040,22
4499668,29
4500292,12
4500924,46
4501556,73
4502176,55
4502808,18
4503432,19
4504064,29
4504692,31
4505312,28
4505944,37
4506564,40
4507188,42
4507820,34
4508440,33
4509068,30
4509692,19
4510320,27
4510948,51
4511572,37
4512204,15
4512832,10
4513452,32
4514080,51
4514704,54
4515332,28
4515964,52
4516584,133
4517264,151
4517948,85
4518568,45
4519196,16
4519820,22
4520452,29
4521080,11
4521704,12
4522332,16
4522956,10
4523580,13
4524212,42
4524832,83
4525460,103
4526144,86
4526760,68
4527388,43
4528012,27
4528644,100
4529324,93
4529944,77
4530572,37
4531196,14
4531824,10
4532456,14
4533080,16
4533708,13
4534340,12
4534960,25
4535588,17
4536216,14
4536840,17
4537468,46
4538088,27
4538716,30
4539344,21
4539968,21
4540600,33
4541216,58
4541848,71
4542480,61
4543096,43
4543728,30
4544352,36
4544980,28
4545612,10
4546232,11
4546864,11
4547488,16
4548112,14
4548740,23
4549360,69
4549988,89
4550616,78
4551240,49
4551868,34
4552488,17
4553116,19
4553748,33
4554368,18
4555000,12
4555624,23
4556252,32
4556884,58
4557504,73
4558132,79
4558760,68
4559384,33
4560012,16
4560632,20
4561260,28
4561888,37
4562512,16
4563140,14
4563760,45
4564388,20
4565020,25
4565640,14
4566272,32
4566896,49
4567524,83
4568156,80
4568776,79
4569408,44
4570032,15
4570656,18
4571284,12
4571904,12
4572536,30
4573160,45
4573784,68
4574416,57
4575032,55
4575664,40
4576296,28
4576912,19
4577544,15
4578168,12
4578800,15
4579428,19
4580048,25
4580676,21
4581304,13
4581928,10
4582560,14
4583176,15
4583808,17
4584432,18
4585056,17
4585688,15
4586312,16
4586944,52
4587572,38
4588192,23
4588820,23
4589444,17
4590076,23
4590704,17
4591324,40
4591956,78
4592580,55
4593204,37
4593836,34
4594456,37
4595088,13
4595716,11
4596336,11
4596964,11
4597588,32
4598220,93
4598852,94
4599472,85
4600104,63
4600728,30
4601352,15
4601980,21
4602600,45
4603228,59
4603856,32
4604480,15
4605108,22
4605728,36
4606360,16
4606988,16
4607608,30
4608240,50
4608864,55
4609492,13
4610120,24
4610744,19
4611372,12
4611996,13
4612620,18
4613248,11
4613864,10
4614496,14
4615120,13
4615740,73
4616372,80
4616992,52
4617620,37
4618252,16
4618872,34
4619500,36
4620124,37
4620756,17
4621388,20
4622008,48
4622636,42
4623260,33
4623888,47
4624516,70
4625136,57
4625764,27
4626388,14
4627012,13
4627644,13
4628264,25
4628892,40
4629524,50
4630144,56
4630776,55
4631400,49
4632028,23
4632660,11
4633280,17
4633908,14
4634532,12
4635156,16
4635788,22
4636408,38
4637036,73
4637664,76
4638288,49
4638916,25
4639536,34
4640168,13
4640796,34
4641416,13
4642044,36
4642668,39
4643296,23
4643928,16
4644544,17
4645172,52
4645796,45
4646420,23
4647052,16
4647672,29
4648300,21
4648928,13
4649552,35
4650180,44
4650800,25
4651428,17
4652060,42
4652680,46
4653308,30
4653936,18
4654564,13
4655196,18
4655816,39
4656448,87
4657072,129
4657748,86
4658376,77
4658992,43
4659624,16
4660252,68
4660872,88
4661500,33
4662124,21
4662756,31
4663388,55
4664008,52
4664636,61
4665260,58
4665888,33
4666516,10
4667136,22
4667768,35
4668392,40
4669016,15
4669648,31
4670264,50
4670892,56
4671524,36
4672144,27
4672772,32
4673396,50
4674028,60
4674656,74
4675276,74
4675904,45
4676528,40
4677152,26
4677780,42
4678400,35
4679028,30
4679652,35
4680280,42
4680908,43
4681528,34
4682160,22
4682788,18
4683408,17
4684036,17
4684664,15
4685292,14
4685924,18
4686544,33
4687172,33
4687800,24
4688424,13
4689052,23
4689672,34
4690304,48
4690928,52
4691552,51
4692180,41
4692804,49
4693436,47
4694068,32
4694688,17
4695320,12
4695944,24
4696576,17
4697204,27
4697824,57
4698456,27
4699080,27
4699704,49
4700336,70
4700952,96
4701584,61
4702216,35
4702836,14
4703464,19
4704092,37
4704720,43
4705352,30
4705968,13
4706600,39
4707224,58
4707848,59
4708480,46
4709096,22
4709728,14
4710356,19
4710980,19
4711612,10
4712232,20
4712860,29
4713492,16
4714112,10
4714744,24
4715368,38
4715996,19
4716628,48
4717248,47
4717880,39
4718504,22
4719128,14
4719760,16
4720380,19
4721008,16
4721632,21
4722256,20
4722884,20
4723504,40
4724136,55
4724764,80
4725384,91
4726016,83
4726640,42
4727268,14
4727900,16
4728520,25
4729152,29
4729776,28
4730400,38
4731032,46
4731648,50
4732280,41
4732904,13
4733528,13
4734160,11
4734776,15
4735408,14
4736040,14
4736656,19
4737284,10
4737908,10
4738540,10
4739172,10
4739792,20
4740424,33
4741048,59
4741672,66
4742304,55
4742920,69
4743552,63
4744176,22
4744800,39
4745432,37
4746056,11
4746688,9
4747260,19
4747892,102
4748576,153
4749244,112
4749916,64
4750544,23
4751164,47
4751796,44
4752424,27
4753048,16
4753676,25
4754304,46
4754932,16
4755564,27
4756184,11
4756812,70
4757440,83
4758064,85
4758692,55
4759312,15
4759944,73
4760568,42
4761192,24
4761824,40
4762448,31
4763076,12
4763708,10
4764328,20
4764956,21
4765580,16
4766212,15
4766844,24
4767464,39
4768096,35
4768720,23
4769344,15
4769972,11
4770592,18
4771224,35
4771852,50
4772472,36
4773104,32
4773728,45
4774360,66
4774992,69
4775608,52
4776240,46
4776864,55
4777488,43
4778120,14
4778736,17
4779368,32
4779992,35
4780616,58
4781248,56
4781872,21
4782504,10
4783132,12
4783752,13
4784384,18
4785012,23
4785640,14
4786272,23
4786892,10
4787524,10
4788148,17
4788772,11
4789404,31
4790024,22
4790656,22
4791280,42
4791904,40
4792536,29
4793160,15
4793792,31
4794420,42
4795040,39
4795672,38
4796296,40
4796928,21
4797560,10
4798176,11
4798808,11
4799436,11
4800060,12
4800688,16
4801312,13
4801940,13
4802572,17
4803192,35
4803820,58
4804444,66
4805076,70
4805708,62
4806328,31
4806960,13
4807584,25
4808208,14
4808836,21
4809456,16
4810084,25
4810712,32
4811336,15
4811964,22
4812584,26
4813216,62
4813844,102
4814516,78
4815144,33
4815768,11
4816392,13
4817020,11
4817640,13
4818268,21
4818892,37
4819516,18
4820148,27
4820768,26
4821396,11
4822028,34
4822648,48
4823276,74
4823904,76
4824532,77
4825164,64
4825784,40
4826412,15
4827036,19
4827664,12
4828292,11
4828912,27
4829540,36
4830168,45
4830792,57
4831424,40
4832040,26
4832672,15
4833300,10
4833920,13
4834548,13
4835172,15
4835804,27
4836436,26
4837056,14
4837688,29
4838312,25
4838936,11
4839564,18
4840184,43
4840812,51
4841436,42
4842060,21
4842692,12
4843312,17
4843944,13
4844572,17
4845192,11
4845820,13
4846448,10
4847076,34
4847708,48
4848328,12
4848956,42
4849584,54
4850208,49
4850836,38
4851456,17
4852088,29
4852712,35
4853336,47
4853968,59
4854584,59
4855216,34
4855844,36
4856464,37
4857096,35
4857720,25
4858348,31
4858980,18
4859600,15
4860232,34
4860856,61
4861480,59
4862112,63
4862732,75
4863360,85
4863988,79
4864612,58
4865244,17
4865868,13
4866496,53
4867128,98
4867748,103
4868428,63
4869048,66
4869672,63
4870304,13
4870920,53
4871552,61
4872176,45
4872800,21
4873428,71
4874056,82
4874688,63
4875316,67
4875936,49
4876568,46
4877192,40
4877820,18
4878452,42
4879072,32
4879704,27
4880328,25
4880952,35
4881580,36
4882200,29
4882828,22
4883456,30
4884080,41
4884708,31
4885336,15
4885964,25
4886596,28
4887216,23
4887844,19
4888472,22
4889096,33
4889728,38
4890344,49
4890972,73
4891600,75
4892224,54
4892852,39
4893472,32
4894104,24
4894732,16
4895352,50
4895984,67
4896608,82
4897236,62
4897868,44
4898488,30
4899120,19
4899744,23
4900368,15
4901000,40
4901616,35
4902248,28
4902872,19
4903496,28
4904128,46
4904748,16
4905376,35
4906008,66
4906628,90
4907260,69
4907884,25
4908516,22
4909148,28
4909768,19
4910400,15
4911024,14
4911648,28
4912280,38
4912904,28
4913536,30
4914160,27
4914788,24
4915420,28
4916044,27
4916672,17
4917300,14
4917920,13
4918548,13
4919172,14
4919804,12
4920432,11
4921048,17
4921680,42
4922300,41
4922924,35
4923556,58
4924176,68
4924804,60
4925428,41
4926052,16
4926684,47
4927308,44
4927936,21
4928568,11
4929184,11
4929816,20
4930440,18
4931068,15
4931700,22
4932320,37
4932948,43
4933572,24
4934200,13
4934828,14
4935448,20
4936076,17
4936700,14
4937328,12
4937956,13
4938580,25
4939212,19
4939844,17
4940464,38
4941096,65
4941720,64
4942344,31
4942972,20
4943592,18
4944224,13
4944844,15
4945468,25
4946100,28
4946720,31
4947348,33
4947980,34
4948600,17
4949228,11
4949852,17
4950484,22
4951116,18
4951736,15
4952368,45
4952992,126
4953668,129
4954344,81
4954968,13
4955596,73
4956228,150
4956900,102
4957576,39
4958200,25
4958824,54
4959456,87
4960080,83
4960708,51
4961340,36
4961960,27
4962588,35
4963212,33
4963844,12
4964472,14
4965088,10
4965720,11
4966344,19
4966968,52
4967596,82
4968216,63
4968844,37
4969468,36
4970096,17
4970724,18
4971348,28
4971980,33
4972612,36
4973232,60
4973860,66
4974488,75
4975112,66
4975740,43
4976360,28
4976988,15
4977612,18
4978236,12
4978868,14
4979488,25
4980116,24
4980748,28
4981368,25
4982000,32
4982624,33
4983252,31
4983884,30
4984504,17
4985132,13
4985760,13
4986384,11
4987012,10
4987632,11
4988264,11
4988888,16
4989512,36
4990140,64
4990760,66
4991392,68
4992024,56
4992640,42
4993268,15
4993892,15
4994524,14
4995156,16
4995776,15
4996408,13
4997032,27
4997656,51
4998284,43
4998904,34
4999532,29
5000156,36
5000784,38
5001412,26
5002032,13
5002660,19
5003292,46
5003912,73
5004544,64
5005168,50
5005796,61
5006428,52
5007048,33
5007680,30
5008304,48
5008928,42
5009556,36
5010176,23
5010808,15
5011432,43
5012056,71
5012688,65
5013304,66
5013936,67
5014564,48
5015184,27
5015816,33
5016440,33
5017072,19
5017704,14
5018320,14
5018948,15
5019572,11
5020200,11
5020828,10
5021448,21
5022076,12
5022704,29
5023328,90
5023960,113
5024636,102
5025316,55
5025944,16
5026560,74
5027188,68
5027816,44
5028440,45
5029068,50
5029688,45
5030320,33
5030952,11
5031568,45
5032200,44
5032824,21
5033456,15
5034084,16
5034704,16
5035336,18
5035960,29
5036588,27
5037216,19
5037840,35
5038472,67
5039096,71
5039720,79
5040352,98
5040976,77
5041604,14
5042236,44
5042856,53
5043488,51
5044112,43
5044740,45
5045372,42
5045992,37
5046624,27
5047248,29
5047872,27
5048504,16
5049120,11
5049752,12
5050384,20
5051000,21
5051632,25
5052256,33
5052888,23
5053516,18
5054136,42
5054768,45
5055392,46
5056016,54
5056648,54
5057264,36
5057896,11
5058520,19
5059144,13
5059776,32
5060396,26
5061024,31
5061656,30
5062272,31
5062904,31
5063532,22
5064160,14
5064792,11
5065412,13
5066044,10
5066668,33
5067296,36
5067928,18
5068544,30
5069180,31
5069804,22
5070428,12
5071060,28
5071684,31
5072316,39
5072948,50
5073568,59
5074200,67
5074828,51
5075456,30
5076088,24
5076712,16
5077344,13
5077968,10
5078596,22
5079228,43
5079848,43
5080480,29
5081108,16
5081728,18
5082356,28
5082984,23
5083612,14
5084244,17
5084864,17
5085492,27
5086120,40
5086744,33
5087376,21
5087992,24
5088624,14
5089252,10
5089876,14
5090508,20
5091128,31
5091760,21
5092392,19
5093012,14
5093640,48
5094268,62
5094900,50
5095532,30
5096152,28
5096784,95
5097408,76
5098036,38
5098668,31
5099288,24
5099920,18
5100552,13
5101172,12
5101800,15
5102428,28
5103060,57
5103692,88
5104312,103
5104996,105
5105676,70
5106296,24
5106928,36
5107556,53
5108188,29
5108820,18
5109440,28
5110072,14
5110696,27
5111324,47
5111956,48
5112580,19
5113212,13
5113836,20
5114464,24
5115096,24
5115720,99
5116356,91
5116988,40
5117608,14
5118244,23
5118868,59
5119496,58
5120128,53
5120748,53
5121376,28
5122000,11
5122620,24
5123252,46
5123872,48
5124500,51
5125128,36
5125744,20
5126372,55
5126996,33
5127624,14
5128256,39
5128872,49
5129500,30
5130124,12
5130756,30
5131384,36
5132004,37
5132632,27
5133256,19
5133880,19
5134508,34
5135128,32
5135756,17
5136384,14
5137008,16
5137636,33
5138260,51
5138888,48
5139520,56
5140136,77
5140764,89
5141388,77
5142020,55
5142648,47
5143272,36
5143900,31
5144528,11
5145148,54
5145780,76
5146400,79
5147028,64
5147656,47
5148280,33
5148908,26
5149532,11
5150164,18
5150792,38
5151416,51
5152044,40
5152668,13
5153292,34
5153920,32
5154544,33
5155172,25
5155800,13
5156424,14
5157052,31
5157672,53
5158304,65
5158932,49
5159552,37
5160184,17
5160808,22
5161436,29
5162064,46
5162688,44
5163316,29
5163940,16
5164564,10
5165196,10
5165816,11
5166444,10
5167068,30
5167692,35
5168324,20
5168944,34
5169572,35
5170204,17
5170824,14
5171456,20
5172076,33
5172708,11
5173336,38
5173956,73
5174584,74
5175208,45
5175832,14
5176464,15
5177080,22
5177708,39
5178332,41
5178956,25
5179588,10
5180208,19
5180836,53
5181468,46
5182088,30
5182716,27
5183344,30
5183972,28
5184604,28
5185224,34
5185852,21
5186476,10
5187100,25
5187732,28
5188352,36
5188980,35
5189608,48
5190228,32
5190860,43
5191480,65
5192112,59
5192740,29
5193360,38
5193992,34
5194616,21
5195244,9
5195824,20
5196448,37
5197080,59
5197704,65
5198332,55
5198964,28
5199584,13
5200216,13
5200840,19
5201460,29
5202092,30
5202712,41
5203340,18
5203964,44
5204592,50
5205220,37
5205844,25
5206476,19
5207104,50
5207724,67
5208352,33
5208976,24
5209608,33
5210236,28
5210856,13
5211488,21
5212112,29
5212736,37
5213368,40
5213984,27
5214616,25
5215244,17
5215864,22
5216496,43
5217120,31
5217748,27
5218380,13
5219000,26
5219632,14
5220256,13
5220880,29
5221508,17
5222128,14
5222760,53
5223384,77
5224008,80
5224636,83
5225256,72
5225884,65
5226516,44
5227136,15
5227768,20
5228392,43
5229020,51
5229652,40
5230272,51
5230904,56
5231528,63
5232152,69
5232784,42
5233400,18
5234028,23
5234656,41
5235280,29
5235908,20
5236528,17
5237156,16
5237788,16
5238408,17
5239036,28
5239664,48
5240296,68
5240924,62
5241544,50
5242176,43
5242800,30
5243424,18
5244052,27
5244672,41
5245300,35
5245924,18
5246548,12
5247176,10
5247796,10
5248424,22
5249052,58
5249672,52
5250300,29
5250920,14
5251552,19
5252180,14
5252800,33
5253428,29
5254052,17
5254676,15
5255304,36
5255920,72
5256548,101
5257228,79
5257848,67
5258476,48
5259100,29
5259728,15
5260360,27
5260976,38
5261604,25
5262228,21
5262852,25
5263484,16
5264104,11
5264732,17
5265356,44
5265980,22
5266608,12
5267224,12
5267852,15
5268476,21
5269104,29
5269732,34
5270356,43
5270988,33
5271620,12
5272240,15
5272868,11
5273492,12
5274120,18
5274748,49
5275368,64
5275996,56
5276620,24
5277244,23
5277876,48
5278496,33
5279124,28
5279756,22
5280376,29
5281004,27
5281628,12
5282256,38
5282884,38
5283504,25
5284132,28
5284756,34
5285380,62
5286012,91
5286632,38
5287260,10
5287884,16
5288508,45
5289136,41
5289752,44
5290380,48
5291004,74
5291632,32
5292260,12
5292884,15
5293512,14
5294140,38
5294760,41
5295388,43
5296012,48
5296640,47
5297272,37
5297888,33
5298516,12
5299140,28
5299768,38
5300396,29
5301016,17
5301644,50
5302268,38
5302896,11
5303524,31
5304148,53
5304780,52
5305408,45
5306032,49
5306660,38
5307284,40
5307908,57
5308540,44
5309160,51
5309792,49
5310416,21
5311040,16
5311668,43
5312288,62
5312916,71
5313548,66
5314168,64
5314796,54
5315424,40
5316052,20
5316680,17
5317304,16
5317932,22
5318560,37
5319184,41
5319812,43
5320432,23
5321060,11
5321684,23
5322308,11
5322940,28
5323560,51
5324192,59
5324820,64
5325436,45
5326068,18
5326692,17
5327320,28
5327948,31
5328568,26
5329196,12
5329820,11
5330444,40
5331072,31
5331688,13
5332320,12
5332940,11
5333564,55
5334196,68
5334816,108
5335496,140
5336176,65
5336800,17
5337428,11
5338052,21
5338676,17
5339304,18
5339928,49
5340556,87
5341180,110
5341860,90
5342484,69
5343108,44
5343740,14
5344372,26
5344992,29
5345620,15
5346244,15
5346868,11
5347496,36
5348116,54
5348744,51
5349368,32
5349992,25
5350624,17
5351244,13
5351876,17
5352504,42
5353128,67
5353756,56
5354380,45
5355012,12
5355644,12
5356264,34
5356892,57
5357516,69
5358140,60
5358772,34
5359392,15
5360020,28
5360652,22
5361272,15
5361900,29
5362528,39
5363156,35
5363788,20
5364408,11
5365036,15
5365660,10
5366288,11
5366916,16
5367536,20
5368164,40
5368788,41
5369412,19
5370044,18
5370664,13
5371292,18
5371924,32
5372544,48
5373176,74
5373800,84
5374428,84
5375060,58
5375680,24
5376312,24
5376932,32
5377556,12
5378184,32
5378808,34
5379436,35
5380060,35
5380684,26
5381312,21
5381928,19
5382560,16
5383188,12
5383808,13
5384436,14
5385060,31
5385692,38
5386320,47
5386936,67
5387568,79
5388192,51
5388816,16
5389444,20
5390064,13
5390692,15
5391316,35
5391944,34
5392572,14
5393192,16
5393820,21
5394452,32
5395072,35
5395704,31
5396328,21
5396956,11
5397588,10
5398208,27
5398840,56
5399464,65
5400088,44
5400716,19
5401336,29
5401968,42
5402588,58
5403212,71
5403844,38
5404464,11
5405092,13
5405724,27
5406344,39
5406976,45
5407600,85
5408228,68
5408856,26
5409480,23
5410108,41
5410732,36
5411356,34
5411988,36
5412608,29
5413236,19
5413860,13
5414484,11
5415116,10
5415736,11
5416364,13
5416996,20
5417616,13
5418244,17
5418868,14
5419500,12
5420128,22
5420752,19
5421384,14
5422008,15
5422632,24
5423260,49
5423880,60
5424512,61
5425136,60
5425760,60
5426388,51
5427016,28
5427644,16
5428276,12
5428896,17
5429524,21
5430148,71
5430780,61
5431408,34
5432028,70
5432656,137
5433332,134
5434004,74
5434628,33
5435252,20
5435884,18
5436516,42
5437136,25
5437768,13
5438388,13
5439016,14
5439644,23
5440264,46
5440892,59
5441516,41
5442140,20
5442768,31
5443388,48
5444016,47
5444644,14
5445264,21
5445892,32
5446516,28
5447144,23
5447776,32
5448392,48
5449024,32
5449648,12
5450268,17
5450896,28
5451520,33
5452148,22
5452772,18
5453396,29
5454028,38
5454648,61
5455276,61
5455908,54
5456528,12
5457156,24
5457780,12
5458412,16
5459040,31
5459660,37
5460288,17
5460912,14
5461536,13
5462164,26
5462784,35
5463416,27
5464036,20
5464660,33
5465292,62
5465912,65
5466540,33
5467172,12
5467792,22
5468424,30
5469048,35
5469676,38
5470308,32
5470928,33
5471556,13
5472184,11
5472808,28
5473436,52
5474056,69
5474684,37
5475312,15
5475936,17
5476564,13
5477188,13
5477820,10
5478452,16
5479072,29
5479700,38
5480324,67
5480956,62
5481584,36
5482204,118
5482888,93
5483504,105
5484180,67
5484804,17
5485428,25
5486060,14
5486692,26
5487312,30
5487944,41
5488568,29
5489192,12
5489820,10
5490440,34
5491068,42
5491696,34
5492316,19
5492948,14
5493572,14
5494204,11
5494836,11
5495456,16
5496084,17
5496708,22
5497340,21
5497972,14
5498592,17
5499224,12
5499848,23
5500472,41
5501100,24
5501720,21
5502352,22
5502984,54
5503600,41
5504232,29
5504856,24
5505484,16
5506116,12
5506736,24
5507364,13
5507988,19
5508616,11
5509244,33
5509864,44
5510492,19
5511116,51
5511744,67
5512372,58
5512992,31
5513620,16
5514252,16
5514872,17
5515504,9
5516076,16
5516712,36
5517344,19
5517960,14
5518592,17
5519216,35
5519848,43
5520476,40
5521096,61
5521728,90
5522352,79
5522976,89
5523604,47
5524224,36
5524856,25
5525480,24
5526104,45
5526736,49
5527352,41
5527984,60
5528616,54
5529236,40
5529864,33
5530488,37
5531120,43
5531748,46
5532368,34
5532996,13
5533620,13
5534244,19
5534876,36
5535496,75
5536128,99
5536748,77
5537372,59
5538004,52
5538628,31
5539256,22
5539888,51
5540504,18
5541132,34
5541756,25
5542388,22
5543020,14
5543640,26
5544272,41
5544896,27
5545520,33
5546152,42
5546768,45
5547400,21
5548024,11
5548648,13
5549280,11
5549904,21
5550536,38
5551164,17
5551784,18
5552416,32
5553040,30
5553668,15
5554300,20
5554920,33
5555552,46
5556176,85
5556800,94
5557428,97
5558048,54
5558680,22
5559312,13
5559928,45
5560560,67
5561184,15
5561816,38
5562448,72
5563064,74
5563696,60
5564320,20
5564944,13
5565576,52
5566196,46
5566824,26
5567452,17
5568076,14
5568708,19
5569328,11
5569960,19
5570588,28
5571208,46
5571836,17
5572460,26
5573092,57
5573724,89
5574344,94
5574976,83
5575600,75
5576224,39
5576852,16
5577472,49
5578104,33
5578728,56
5579352,49
5579984,12
5580600,33
5581232,11
5581864,31
5582480,26
5583112,35
5583736,30
5584368,13
5584996,13
5585616,20
5586244,39
5586868,29
5587496,14
5588124,10
5588744,25
5589376,43
5590000,54
5590624,36
5591256,18
5591880,13
5592508,15
5593140,13
5593760,13
5594388,10
5595016,11
5595644,21
5596276,24
5596896,11
5597524,22
5598152,15
5598776,38
5599408,22
5600028,22
5600656,23
5601284,18
5601904,16
5602532,21
5603156,22
5603788,19
5604420,20
5605040,32
5605672,52
5606296,58
5606920,37
5607548,45
5608168,41
5608796,16
5609420,36
5610048,32
5610676,10
5611296,16
5611928,48
5612556,78
5613176,51
5613804,33
5614428,31
5615060,22
5615692,14
5616312,47
5616944,41
5617568,16
5618192,51
5618820,48
5619440,25
5620068,33
5620692,39
5621320,9
5621896,27
5622520,71
5623152,80
5623776,85
5624400,70
5625028,22
5625648,32
5626276,80
5626908,82
5627528,84
5628156,60
5628784,20
5629416,10
5630048,17
5630664,33
5631296,31
5631924,12
5632548,13
5633180,13
5633800,17
5634428,29
5635052,39
5635676,13
5636304,22
5636928,28
5637560,42
5638188,34
5638808,29
5639436,57
5640060,79
5640692,100
5641372,121
5642044,120
5642720,43
5643348,18
5643968,13
5644596,85
5645224,113
5645896,97
5646528,62
5647144,61
5647776,33
5648404,28
5649024,35
5649652,24
5650276,12
5650908,13
5651536,20
5652160,19
5652788,10
5653412,14
5654036,14
5654668,16
5655288,89
5655916,147
5656600,106
5657268,96
5657896,53
5658520,28
5659144,98
5659772,79
5660392,36
5661024,16
5661648,11
5662272,20
5662900,31
5663520,31
5664152,13
5664780,14
5665400,13
5666028,11
5666652,24
5667284,30
5667912,23
5668536,35
5669164,14
5669788,40
5670416,55
5671044,50
5671664,31
5672296,16
5672920,13
5673544,23
5674176,30
5674792,43
5675424,28
5676052,14
5676672,21
5677304,15
5677928,11
5678560,12
5679188,20
5679808,27
5680440,41
5681064,43
5681688,28
5682316,16
5682936,13
5683568,35
5684192,22
5684816,15
5685444,28
5686064,35
5686692,13
5687324,18
5687944,26
5688576,11
5689200,19
5689828,37
5690460,54
5691080,65
5691712,49
5692336,43
5692960,46
5693588,27
5694208,20
5694836,15
5695464,41
5696088,43
5696716,68
5697336,94
5697964,65
5698596,37
5699216,17
5699844,18
5700468,12
5701100,14
5701732,24
5702352,15
5702984,13
5703608,24
5704232,41
5704864,17
5705480,27
5706112,12
5706736,31
5707360,48
5707992,52
5708616,45
5709248,34
5709876,19
5710496,14
5711128,11
5711752,11
5712384,17
5713016,18
5713632,16
5714264,17
5714888,16
5715512,34
5716144,22
5716764,38
5717392,18
5718024,17
5718644,26
5719276,24
5719900,26
5720532,93
5721164,76
5721784,21
5722416,41
5723040,53
5723664,52
5724296,57
5724912,51
5725544,37
5726168,26
5726792,25
5727424,14
5728044,14
5728672,17
5729304,19
5729920,34
5730552,31
5731176,50
5731808,57
5732440,51
5733060,44
5733692,71
5734316,80
5734944,89
5735572,57
5736192,41
5736820,13
5737444,11
5738068,11
5738700,18
5739320,47
5739948,54
5740580,65
5741200,64
5741828,48
5742452,59
5743084,71
5743716,50
5744336,13
5744964,41
5745588,56
5746212,74
5746844,86
5747464,67
5748092,36
5748716,23
5749340,43
5749972,57
5750596,16
5751228,16
5751860,15
5752480,25
5753108,38
5753736,57
5754364,56
5754996,38
5755616,26
5756248,43
5756872,54
5757496,54
5758124,55
5758744,35
5759376,43
5760004,35
5760620,13
5761252,27
5761872,34
5762504,32
5763132,24
5763752,33
5764380,22
5765004,14
5765636,12
5766264,41
5766880,64
5767512,71
5768136,69
5768760,42
5769388,11
5770008,36
5770636,53
5771260,52
5771888,49
5772516,61
5773144,66
5773772,75
5774404,70
5775024,43
5775652,21
5776280,15
5776900,15
5777532,11
5778152,26
5778780,33
5779404,11
5780028,10
5780660,10
5781280,12
5781908,31
5782540,76
5783160,43
5783788,13
5784416,14
5785044,33
5785676,39
5786296,52
5786924,80
5787548,75
5788172,15
5788800,22
5789416,49
5790048,45
5790672,16
5791296,15
5791924,12
5792544,19
5793172,23
5793804,12
5794424,22
5795052,23
5795680,29
5796308,39
5796940,44
5797560,26
5798188,17
5798816,13
5799440,17
5800068,25
5800688,27
5801316,23
5801940,14
5802564,16
5803196,34
5803816,12
5804448,27
5805076,46
5805696,49
5806328,30
5806952,44
5807580,73
5808212,78
5808832,72
5809460,77
5810088,49
5810708,21
5811340,87
5811960,102
5812640,100
5813320,61
5813944,38
5814576,36
5815200,27
5815824,27
5816456,22
5817072,15
5817700,16
5818324,18
5818948,24
5819580,28
5820200,23
5820828,21
5821460,23
5822080,24
5822708,38
5823336,40
5823968,51
5824600,48
5825216,40
5825844,49
5826472,62
5827096,66
5827724,65
5828344,42
5828972,11
5829596,44
5830224,77
5830856,55
5831472,42
5832104,28
5832732,12
5833352,17
5833984,45
5834608,35
5835240,17
5835868,12
5836488,64
5837120,74
5837744,88
5838368,57
5838996,43
5839616,19
5840248,53
5840868,81
5841492,66
5842124,50
5842744,43
5843372,15
5844004,26
5844624,29
5845252,28
5845876,17
5846508,10
5847140,11
5847760,15
5848388,14
5849012,12
5849640,15
5850268,12
5850888,25
5851516,18
5852144,25
5852768,25
5853400,24
5854024,11
5854656,12
5855284,30
5855904,44
5856536,51
5857160,59
5857792,45
5858420,25
5859040,15
5859668,14
5860296,14
5860920,15
5861548,17
5862168,23
5862800,15
5863424,10
5864048,21
5864676,23
5865300,32
5865932,44
5866564,30
5867184,61
5867816,78
5868440,35
5869064,17
5869692,30
5870312,26
5870944,21
5871568,31
5872192,37
5872824,51
5873440,66
5874072,67
5874700,35
5875320,15
5875952,14
5876576,26
5877208,24
5877836,18
5878456,40
5879088,23
5879712,11
5880336,24
5880968,41
5881584,91
5882216,94
5882840,69
5883464,51
5884096,35
5884712,18
5885344,14
5885976,18
5886600,18
5887232,19
5887860,25
5888492,41
5889120,65
5889744,75
5890372,74
5891000,64
5891624,53
5892256,46
5892872,40
5893504,25
5894128,18
5894752,41
5895384,40
5896008,14
5896636,21
5897268,19
5897888,11
5898520,29
5899144,17
5899772,20
5900404,29
5901024,19
5901652,88
5902276,93
5902900,55
5903532,34
5904152,17
5904780,21
5905404,12
5906032,25
5906660,65
5907284,87
5907916,79
5908548,54
5909168,55
5909796,45
5910424,65
5911048,41
5911676,13
5912296,36
5912928,96
5913552,113
5914228,73
5914856,51
5915480,29
5916108,15
5916740,16
5917360,15
5917992,18
5918616,17
5919240,14
5919872,20
5920488,36
5921120,32
5921744,41
5922368,46
5922996,29
5923616,33
5924244,33
5924876,30
5925496,24
5926128,19
5926752,14
5927380,13
5928012,16
5928632,17
5929264,12
5929888,27
5930512,13
5931140,32
5931760,40
5932392,49
5933016,62
5933640,33
5934272,19
5934888,27
5935520,11
5936152,21
5936768,31
5937400,23
5938024,21
5938656,27
5939284,42
5939904,50
5940532,53
5941156,39
5941780,23
5942408,15
5943024,15
5943656,11
5944280,15
5944904,19
5945532,19
5946152,13
5946784,15
5947412,16
5948032,25
5948660,28
5949288,13
5949916,34
5950548,36
5951168,51
5951800,37
5952424,22
5953048,54
5953676,29
5954296,17
5954924,12
5955552,47
5956176,119
5956856,110
5957524,121
5958200,62
5958824,43
5959444,86
5960072,66
5960696,61
5961320,36
5961952,14
5962576,25
5963204,46
5963836,55
5964456,62
5965088,78
5965712,65
5966344,48
5966972,16
5967592,25
5968224,35
5968848,39
5969472,49
5970100,48
5970720,32
5971352,25
5971980,18
5972600,46
5973228,69
5973856,80
5974488,63
5975116,40
5975736,22
5976368,17
5976992,18
5977616,11
5978244,16
5978864,27
5979496,24
5980120,22
5980744,19
5981376,19
5981996,19
5982624,22
5983256,23
5983876,19
5984508,13
5985132,14
5985764,13
5986392,14
5987016,13
5987648,21
5988272,37
5988896,79
5989528,80
5990144,55
5990776,46
5991400,21
5992028,13
5992656,25
5993276,34
5993904,22
5994536,45
5995156,60
5995788,51
5996412,39
5997044,32
5997676,26
5998296,22
5998928,19
5999552,14
6000176,14
6000808,29
6001424,58
6002056,75
6002680,75
6003304,57
6003932,13
6004556,39
6005188,36
6005820,25
6006440,18
6007068,51
6007696,99
6008324,107
6009008,64
6009624,34
6010252,17
6010880,80
6011504,85
6012136,54
6012760,51
6013392,43
6014024,34
6014644,34
6015276,24
6015900,17
6016528,20
6017156,14
6017776,17
6018404,13
6019032,21
6019656,13
6020288,34
6020904,42
6021536,42
6022164,34
6022784,43
6023412,70
6024040,73
6024668,46
6025300,34
6025920,47
6026548,13
6027176,10
6027800,28
6028432,21
6029048,12
6029680,17
6030304,77
6030928,76
6031560,84
6032180,63
6032808,41
6033440,19
6034056,18
6034688,13
6035316,15
6035944,18
6036576,35
6037196,34
6037828,15
6038452,13
6039080,30
6039708,52
6040328,53
6040960,42
6041584,33
6042212,38
6042840,57
6043464,61
6044096,60
6044724,68
6045344,26
6045976,62
6046600,92
6047232,107
6047912,100
6048588,108
6049268,78
6049896,37
6050512,16
6051144,14
6051772,15
6052396,17
6053028,27
6053648,37
6054280,38
6054904,40
6055528,53
6056160,67
6056784,68
6057416,53
6058048,28
6058664,38
6059296,55
6059924,57
6060552,35
6061184,12
6061804,16
6062436,71
6063060,91
6063684,86
6064316,67
6064936,50
6065568,45
6066196,37
6066816,40
6067448,35
6068072,21
6068700,13
6069332,21
6069952,35
6070584,32
6071208,34
6071832,48
6072464,70
6073084,85
6073712,96
6074340,76
6074964,45
6075596,22
6076216,17
6076848,13
6077480,11
6078096,11
6078728,15
6079352,11
6079984,15
6080616,19
6081236,39
6081864,34
6082488,53
6083116,66
6083744,31
6084364,27
6084992,28
6085616,17
6086240,11
6086872,20
6087496,23
6088128,29
6088756,31
6089376,34
6090008,39
6090632,51
6091264,40
6091892,28
6092512,37
6093144,48
6093768,43
6094392,21
6095024,26
6095640,46
6096272,33
6096904,39
6097520,46
6098152,26
6098776,15
6099408,37
6100036,27
6100656,22
6101288,38
6101912,23
6102536,10
6103168,20
6103788,21
6104420,14
6105044,26
6105668,51
6106300,85
6106920,114
6107604,104
6108284,32
6108904,38
6109536,64
6110160,77
6110784,54
6111416,71
6112036,65
6112668,50
6113296,30
6113920,24
6114552,23
6115176,28
6115808,29
6116440,22
6117060,14
6117692,14
6118316,26
6118944,47
6119572,50
6120192,47
6120824,37
6121448,23
6122072,19
6122704,26
6123324,48
6123956,47
6124584,33
6125208,26
6125840,23
6126464,13
6127096,11
6127728,14
6128344,26
6128976,25
6129600,15
6130224,11
6130856,16
6131476,35
6132108,33
6132732,42
6133360,26
6133992,13
6134620,27
6135252,45
6135884,48
6136504,31
6137136,17
6137764,11
6138388,19
6139020,10
6139640,15
6140272,45
6140900,46
6141524,35
6142160,23
6142780,19
6143412,18
6144044,11
6144660,49
6145292,69
6145912,51
6146544,41
6147172,29
6147792,11
6148420,25
6149044,32
6149668,15
6150300,21
6150920,31
6151548,29
6152176,26
6152796,11
6153428,23
6154052,38
6154684,39
6155316,40
6155936,51
6156568,20
6157192,11
6157820,15
6158452,17
6159072,27
6159704,66
6160328,65
6160952,45
6161580,10
6162200,11
6162828,21
6163452,32
6164080,55
6164708,55
6165332,47
6165964,39
6166592,34
6167216,23
6167844,17
6168468,13
6169096,13
6169724,11
6170344,12
6170972,21
6171596,30
6172224,43
6172852,57
6173472,60
6174104,56
6174732,37
6175352,25
6175984,13
6176608,19
6177236,20
6177868,12
6178488,25
6179116,32
6179744,27
6180368,19
6180996,12
6181616,65
6182248,85
6182872,67
6183496,40
6184128,18
6184744,14
6185376,16
6186004,32
6186624,46
6187256,43
6187880,36
6188508,51
6189140,40
6189760,25
6190388,39
6191016,55
6191640,72
6192272,67
6192888,66
6193520,18
6194144,43
6194768,42
6195400,52
6196016,29
6196644,20
6197276,10
6197896,13
6198528,17
6199152,74
6199784,132
6200464,112
6201140,52
6201768,19
6202396,68
6203016,85
6203648,105
6204324,104
6204996,16
6205624,41
6206240,26
6206872,29
6207500,19
6208120,22
6208752,17
6209376,13
6210004,15
6210636,10
6211256,13
6211884,21
6212512,27
6213136,25
6213764,17
6214384,15
6215016,20
6215640,17
6216268,15
6216896,12
6217520,14
6218152,13
6218784,11
6219400,11
6220032,13
6220660,20
6221292,23
6221920,31
6222544,50
6223176,63
6223800,75
6224428,72
6225056,58
6225680,40
6226312,19
6226936,11
6227560,19
6228188,48
6228812,50
6229444,37
6230076,20
6230696,12
6231328,11
6231952,17
6232584,15
6233212,14
6233832,22
6234464,17
6235088,58
6235712,91
6236344,67
6236964,41
6237592,46
6238224,51
6238844,92
6239472,46
6240100,13
6240728,19
6241356,21
6241976,21
6242604,19
6243228,15
6243852,12
6244484,12
6245104,11
6245736,13
6246360,18
6246984,20
6247616,25
6248232,21
6248864,16
6249492,14
6250112,13
6250740,13
6251368,16
6251996,22
6252628,33
6253248,35
6253880,25
6254504,25
6255128,28
6255756,26
6256376,25
6257008,32
6257632,39
6258256,49
6258884,56
6259504,32
6260136,15
6260764,15
6261384,40
6262016,72
