tempo_arduino_micro_s,valor_ADC
500,45
1004,42
1504,36
2000,68
2508,104
3004,83
3500,65
4000,59
4508,49
5000,33
5500,18
6000,15
6500,14
7000,19
7500,27
8000,24
8500,10
9000,10
9500,20
10000,30
10508,36
11028,54
11556,67
12076,61
12604,43
13124,23
13652,16
14172,20
14700,26
15220,37
15748,46
16268,48
16796,51
17316,34
17836,30
18356,39
18876,49
19396,41
19916,13
20436,17
20956,12
21476,16
21996,26
22516,19
23036,14
23564,41
24084,69
24612,92
25132,104
25712,84
26228,36
26756,11
27276,13
27804,13
28324,14
28852,14
29372,23
29900,54
30420,46
30948,21
31468,94
31996,106
32572,68
33100,38
33620,22
34148,10
34668,17
35196,33
35720,64
36244,57
36764,39
37284,35
37804,31
38324,32
38848,18
39364,15
39884,31
40404,54
40924,62
41444,52
41964,39
42484,22
43004,10
43532,13
44060,11
44580,10
45108,20
45628,18
46156,14
46676,14
47204,18
47724,18
48252,19
48772,20
49300,15
49820,10
50348,19
50868,35
51396,53
51916,67
52444,57
52964,34
53492,11
54012,12
54540,14
55060,14
55588,16
56108,15
56636,16
57156,17
57684,10
58204,10
58732,10
59252,11
59780,11
60300,10
60828,10
61348,12
61872,14
62388,36
62912,71
63428,77
63952,67
64472,50
64988,33
65508,59
66028,115
66608,154
67176,156
67760,102
68328,56
68860,35
69380,20
69908,103
70484,145
71064,159
71636,152
72212,98
72740,53
73260,37
73788,32
74308,29
74836,19
75356,10
75884,10
76404,10
76932,22
77452,31
77980,39
78504,49
79028,62
79552,56
80076,39
80596,16
81124,33
81644,32
82172,20
82692,20
83220,15
83740,10
84268,16
84788,31
85316,38
85836,17
86364,11
86884,10
87412,12
87932,13
88460,12
88980,15
89500,63
90024,124
90592,71
91116,12
91640,27
92156,26
92688,25
93212,31
93732,37
94260,39
94780,30
95308,10
95832,27
96356,61
96876,74
97404,32
97924,22
98452,43
98972,43
99500,25
100024,13
100592,56
101160,74
101744,28
102316,29
102892,52
103472,30
104040,20
104616,53
105184,39
105760,15
106328,25
106904,23
107472,21
108040,45
108624,56
109192,42
109776,19
110344,18
110928,40
111496,41
112080,20
112656,14
113224,15
113800,27
114368,57
114952,59
115524,18
116104,17
116672,23
117248,24
117832,11
118400,15
118984,15
119552,14
120136,13
120704,11
121288,30
121864,66
122432,93
123016,63
123584,26
124168,11
124736,13
125312,10
125880,10
126456,17
127040,22
127608,31
128192,42
128760,37
129336,37
129904,37
130480,31
131048,19
131624,18
132208,14
132776,33
133352,40
133920,41
134504,33
135072,17
135648,10
136232,18
136800,34
137384,57
137952,82
138536,55
139104,38
139688,26
140256,15
140832,17
141416,22
141984,43
142568,49
143136,24
143720,19
144288,51
144864,50
145448,41
146016,38
146600,32
147168,15
147752,15
148324,27
148904,19
149472,14
150048,11
150632,28
151204,61
151784,85
152356,77
152936,59
153508,36
154084,14
154664,22
155232,19
155816,15
156388,23
156968,51
157536,72
158120,80
158692,90
159268,64
159848,54
160420,65
161000,42
161568,16
162152,30
162720,14
163296,15
163880,23
164448,29
165024,16
165592,80
166168,90
166736,94
167320,95
167888,87
168464,61
169040,27
169608,17
170184,36
170752,39
171336,29
171904,14
172488,40
173064,64
173632,60
174216,62
174784,65
175368,49
175936,50
176520,65
177088,67
177664,64
178248,47
178816,34
179400,42
179968,59
180544,40
181112,17
181696,16
182264,21
182840,38
183424,44
183992,62
184576,88
185152,60
185736,35
186304,43
186880,64
187464,67
188036,30
188616,26
189188,94
189768,167
190388,176
191012,155
191640,127
192264,95
192840,46
193408,19
193992,97
194568,91
195136,54
195720,22
196288,15
196872,41
197440,58
198024,51
198596,48
199168,16
199752,27
200324,44
200904,69
201476,107
202108,118
202732,81
203300,57
203880,26
204452,14
205032,15
205600,63
206176,53
206744,19
207312,18
207888,27
208456,27
209040,38
209608,38
210184,32
210752,26
211336,23
211904,26
212480,42
213064,66
213632,70
214216,70
214788,47
215368,45
215936,40
216520,17
217096,29
217664,68
218248,82
218816,86
219392,79
219964,63
220544,31
221116,14
221692,21
222272,22
222844,15
223424,24
223996,27
224576,22
225152,15
225736,16
226312,18
226880,11
227464,45
228032,102
228668,139
229288,133
229908,111
230540,100
231156,87
231732,82
232304,66
232888,29
233456,51
234036,105
234668,132
235288,122
235916,118
236536,85
237108,47
237688,22
238256,15
238840,30
239412,46
239992,63
240564,87
241136,96
241720,97
242288,104
242924,89
243492,74
244072,31
244644,11
245216,55
245800,103
246420,129
247048,71
247616,29
248200,16
248768,14
249344,11
249928,18
250496,26
251080,29
251652,24
252232,29
252804,59
253384,57
253960,30
254532,14
255112,30
255684,41
256264,27
256832,16
257408,46
257976,63
258544,34
259128,13
259696,33
260280,66
260848,91
261432,101
262052,85
262624,85
263200,73
263768,61
264352,48
264920,37
265504,27
266076,11
266656,41
267224,58
267800,45
268384,40
268952,35
269536,33
270104,37
270688,29
271256,28
271836,17
272416,15
272984,15
273568,16
274140,10
274720,11
275288,11
275872,19
276444,16
277020,19
277600,46
278168,58
278752,63
279324,45
279904,15
280476,26
281052,17
281632,42
282200,63
282776,47
283348,46
283928,44
284500,37
285080,22
285652,10
286228,20
286808,63
287376,110
288012,123
288632,81
289208,29
289776,19
290352,35
290936,32
291508,36
292088,24
292656,11
293240,19
293808,34
294388,57
294968,63
295540,47
296120,34
296692,38
297272,49
297844,70
298424,89
298992,70
299572,24
300152,22
300724,44
301304,60
301884,75
302464,87
303044,104
303672,105
304300,74
304868,46
305448,16
306020,20
306600,32
307172,52
307748,53
308328,40
308896,14
309480,10
310052,16
310632,16
311204,30
311780,40
312360,26
312928,16
313512,16
314084,14
314664,24
315236,22
315816,23
316388,29
316964,12
317544,10
318116,20
318696,38
319268,37
319848,22
320428,14
321000,25
321576,24
322148,15
322728,17
323296,17
323880,57
324448,62
325032,25
325604,18
326176,30
326760,18
327328,11
327912,15
328480,15
329064,32
329632,41
330208,28
330784,23
331352,15
331936,16
332504,11
333088,9
333604,9
334132,12
334704,32
335288,57
335856,56
336432,56
337016,56
337584,58
338168,41
338736,27
339320,105
339940,97
340512,43
341088,11
341656,15
342240,16
342812,32
343392,44
343964,39
344540,35
345120,53
345692,50
346272,27
346840,20
347424,28
347996,26
348576,49
349144,69
349724,73
350304,57
350876,27
351456,13
352028,16
352608,17
353176,38
353756,41
354336,48
354908,48
355488,27
356060,17
356640,29
357212,14
357792,13
358364,11
358940,23
359520,26
360088,29
360672,35
361244,54
361824,63
362392,86
362972,103
363604,74
364172,42
364752,19
365324,15
365904,11
366476,16
367056,15
367632,19
368204,23
368784,11
369352,11
369936,45
370504,64
371088,55
371660,54
372236,62
372816,82
373384,47
373968,11
374536,41
375120,65
375692,84
376272,89
376848,79
377420,54
378000,51
378572,56
379152,76
379724,63
380304,27
380876,14
381452,15
382032,16
382604,10
383184,12
383756,10
384340,19
384912,17
385488,13
386072,25
386644,43
387224,32
387792,15
388376,27
388948,47
389528,49
390096,50
390676,53
391256,51
391828,26
392408,69
392976,45
393560,45
394132,51
394708,29
395288,24
395860,11
396440,18
397012,14
397592,21
398164,20
398744,15
399316,16
399892,27
400472,26
401044,11
401624,15
402192,12
402776,12
403348,14
403924,27
404504,20
405072,14
405656,18
406228,20
406808,20
407380,13
407960,26
408532,40
409108,16
409688,21
410260,41
410840,37
411408,34
411992,51
412564,70
413136,68
413720,58
414288,43
414872,32
415440,13
416024,29
416592,36
417168,35
417736,37
418312,40
418896,41
419464,35
420048,20
420616,13
421192,29
421760,60
422344,61
422920,50
423488,43
424072,51
424640,28
425224,27
425792,72
426376,60
426948,26
427520,24
428104,38
428676,42
429256,34
429828,18
430408,15
430976,16
431560,15
432136,14
432704,10
433288,21
433856,33
434440,43
435012,28
435592,13
436168,34
436744,48
437328,43
437900,29
438480,17
439048,21
439632,40
440204,36
440784,15
441360,10
441932,15
442512,24
443084,11
443664,18
444236,11
444816,24
445384,40
445964,49
446544,42
447116,32
447696,15
448276,18
448856,13
449424,10
450004,10
450584,16
451152,32
451736,39
452308,25
452888,13
453456,18
454040,23
454612,27
455184,32
455768,29
456336,23
456920,17
457492,11
458072,9
458592,16
459168,56
459740,89
460316,100
460948,131
461564,168
462192,175
462816,94
463388,50
463968,125
464592,93
465168,70
465740,75
466320,92
466892,93
467468,86
468048,73
468620,42
469200,13
469772,13
470352,9
470872,11
471448,16
472028,30
472604,55
473184,58
473756,54
474336,44
474908,34
475488,15
476060,14
476636,18
477216,39
477788,45
478368,38
478940,34
479520,35
480100,26
480680,17
481248,32
481828,27
482408,16
482976,11
483560,10
484132,12
484712,9
485232,15
485808,41
486380,38
486956,37
487536,41
488108,35
488688,26
489256,17
489840,25
490412,47
490988,33
491568,21
492136,13
492720,28
493292,37
493872,52
494444,65
495024,49
495596,43
496172,35
496752,20
497320,17
497904,21
498476,22
499056,10
499628,33
500204,99
500784,121
501408,83
501984,53
502556,40
503136,35
503708,15
504284,22
504864,33
505436,49
506016,38
506588,17
507168,17
507740,50
508320,57
508900,47
509476,11
510056,11
510628,36
511208,47
511788,19
512372,10
512944,13
513512,16
514096,19
514664,32
515248,40
515816,42
516400,48
516968,32
517552,15
518124,12
518696,15
519280,16
519848,50
520432,60
521000,63
521584,53
522156,51
522732,39
523312,35
523884,38
524464,24
525036,11
525616,10
526184,16
526768,37
527340,68
527916,97
528496,109
529120,109
529748,82
530316,47
530896,21
531472,15
532044,63
532624,121
533244,116
533872,92
534444,61
535016,34
535600,11
536172,23
536752,24
537324,22
537904,19
538472,16
539056,15
539628,16
540204,23
540784,40
541356,45
541936,44
542516,37
543096,32
543668,38
544244,23
544824,16
545392,18
545976,16
546548,22
547128,33
547700,34
548280,19
548860,11
549436,10
550016,11
550588,11
551168,12
551740,30
552320,28
552900,13
553476,30
554056,27
554628,24
555208,42
555780,59
556360,64
556932,46
557512,21
558088,14
558660,11
559240,12
559812,10
560392,14
560972,52
561552,90
562124,109
562752,91
563328,64
563896,43
564480,39
565048,40
565632,19
566204,16
566780,38
567360,50
567932,49
568512,63
569084,69
569664,65
570232,54
570816,15
571400,23
571972,39
572552,39
573128,22
573704,12
574276,18
574856,39
575428,28
576004,11
576584,12
577152,11
577736,38
578308,66
578888,69
579456,58
580040,49
580616,56
581188,44
581768,27
582340,14
582920,11
583500,12
584080,17
584656,11
585236,12
585816,18
586388,59
586968,61
587540,24
588120,23
588692,35
589268,19
589848,27
590420,39
591000,27
591572,23
592152,12
592732,11
593312,14
593884,16
594460,31
595040,34
595612,57
596192,57
596764,52
597344,71
597924,66
598500,39
599080,11
599652,43
600232,92
600804,108
601436,91
602008,65
602580,56
603160,43
603732,39
604312,41
604884,24
605464,22
606036,68
606616,82
607196,78
607772,52
608352,18
608924,10
609504,9
610024,10
610600,13
611172,11
611756,32
612332,29
612908,18
613488,15
614064,15
614644,16
615216,16
615800,9
616320,12
616896,25
617468,22
618044,19
618624,23
619196,30
619776,42
620356,46
620936,61
621508,73
622084,79
622664,80
623236,66
623816,19
624388,49
624968,81
625536,126
626172,141
626800,73
627372,14
627952,27
628524,42
629104,37
629676,18
630252,18
630832,14
631404,15
631984,15
632560,19
633136,18
633716,10
634296,33
634876,61
635456,58
636032,40
636604,38
637184,40
637764,29
638344,15
638924,17
639500,19
640084,22
640652,43
641232,52
641804,51
642384,46
642956,51
643536,57
644112,59
644684,53
645264,27
645832,11
646416,16
646984,19
647568,27
648140,37
648712,33
649296,24
649868,12
650448,18
651016,31
651600,37
652180,11
652756,13
653336,12
653908,16
654488,14
655060,15
655640,22
656216,45
656800,90
657368,91
657936,71
658520,26
659088,11
659672,10
660244,12
660824,24
661392,45
661968,48
662544,48
663112,59
663696,72
664268,66
664848,55
665416,40
666000,25
666568,11
667136,21
667712,24
668280,15
668864,24
669432,61
670016,60
670588,46
671168,35
671740,43
672316,43
672896,26
673464,91
674048,84
674616,55
675200,41
675768,30
676348,30
676928,34
677496,20
678080,14
678648,30
679232,44
679800,44
680384,36
680952,33
681532,28
682112,23
682684,30
683264,35
683836,38
684416,34
684988,24
685560,19
686144,48
686712,96
687296,126
687920,107
688548,78
689120,54
689692,35
690272,15
690844,41
691424,49
691996,48
692576,45
693148,45
693724,43
694304,42
694876,42
695456,37
696028,43
696608,27
697176,17
697760,16
698328,19
698908,11
699488,16
700060,13
700640,12
701212,11
701792,15
702372,16
702948,12
703528,10
704100,10
704680,17
705248,16
705832,15
706404,15
706984,13
707556,17
708132,22
708712,26
709284,20
709864,28
710436,31
711016,36
711588,18
712164,17
712744,34
713316,28
713896,15
714468,19
715048,26
715628,31
716208,42
716788,40
717364,30
717944,22
718516,11
719096,25
719668,29
720248,28
720816,47
721392,77
721976,62
722548,50
723128,30
723700,11
724280,13
724852,24
725432,31
726004,42
726580,46
727160,43
727732,35
728312,31
728892,33
729472,29
730044,22
730620,27
731200,28
731772,31
732352,25
732924,17
733504,11
734076,33
734656,45
735240,24
735812,17
736396,28
736968,30
737544,16
738116,15
738696,14
739268,18
739844,30
740424,45
740996,47
741576,22
742148,10
742728,21
743304,38
743888,25
744464,25
745036,47
745616,56
746184,71
746768,60
747348,44
747928,24
748508,16
749084,29
749664,47
750236,54
750816,44
751396,32
751976,25
752556,18
753132,15
753712,21
754284,20
754864,13
755436,23
756016,42
756596,28
757176,11
757756,22
758336,11
758912,29
759484,26
760064,17
760644,12
761224,10
761796,41
762372,68
762952,58
763524,18
764104,24
764676,31
765256,29
765836,18
766416,10
767000,14
767576,14
768156,24
768724,33
769304,33
769872,29
770456,21
771028,18
771604,14
772184,16
772756,25
773336,26
773916,19
774496,12
775076,10
775652,12
776232,26
776804,40
777384,47
777956,41
778536,38
779116,45
779696,49
780276,37
780852,20
781432,16
782004,11
782584,11
783156,15
783736,24
784316,22
784892,27
785472,28
786044,24
786624,36
787196,57
787780,55
788356,41
788936,28
789520,17
790092,20
790672,32
791248,37
791824,26
792404,27
792984,32
793556,42
794132,52
794712,53
795288,44
795864,21
796436,15
797016,14
797596,18
798172,15
798752,17
799324,10
799904,24
800480,52
801056,82
801628,88
802208,60
802780,27
803356,14
803936,56
804508,112
805140,120
805764,92
806340,59
806920,21
807492,18
808072,29
808644,32
809224,32
809796,30
810376,39
810948,57
811524,51
812104,35
812676,15
813256,23
813828,15
814408,15
814988,19
815568,19
816152,28
816724,39
817304,39
817876,17
818456,11
819036,10
819620,13
820192,25
820760,29
821336,25
821904,16
822488,15
823056,19
823632,17
824200,21
824784,33
825360,45
825928,46
826512,42
827080,40
827664,36
828236,32
828816,37
829384,37
829964,29
830544,25
831116,20
831696,14
832268,16
832848,30
833416,44
834000,49
834576,43
835144,46
835728,45
836296,43
836880,30
837448,18
838032,18
838604,37
839180,54
839760,63
840332,66
840912,52
841484,29
842064,11
842632,22
843216,37
843792,20
844364,17
844944,19
845512,15
846096,20
846664,23
847248,37
847820,69
848396,111
849028,114
849648,85
850224,45
850796,15
851376,44
851944,113
852576,131
853204,114
853824,81
854400,54
854968,43
855548,27
856128,16
856700,34
857280,61
857852,73
858432,45
859004,19
859584,27
860156,16
860732,14
861312,41
861884,39
862464,40
863036,49
863616,65
864196,52
864772,30
865352,14
865920,46
866504,72
867076,89
867656,110
868280,114
868900,80
869480,42
870052,17
870632,24
871208,55
871792,67
872364,47
872936,35
873520,38
874092,43
874672,36
875244,25
875824,11
876396,13
876976,24
877556,43
878132,46
878712,54
879284,55
879864,54
880444,28
881024,16
881592,20
882172,22
882752,16
883324,13
883904,37
884476,56
885056,49
885628,44
886208,37
886780,38
887356,26
887936,15
888508,15
889088,15
889660,15
890240,14
890812,12
891388,10
891968,17
892540,19
893120,19
893692,23
894272,54
894844,96
895424,100
896060,69
896624,64
897208,53
897780,35
898360,17
898932,18
899512,44
900084,55
900660,34
901240,23
901812,23
902392,25
902964,30
903544,28
904116,13
904692,16
905272,51
905844,83
906424,63
906996,24
907576,11
908148,13
908728,18
909308,25
909884,33
910464,48
911036,61
911616,70
912196,63
912776,54
913348,41
913924,22
914504,14
915076,15
915656,16
916228,17
916808,12
917376,10
917960,16
918544,23
919116,33
919696,21
920272,23
920848,37
921428,44
922012,37
922584,29
923160,40
923744,41
924316,47
924896,12
925464,32
926048,37
926620,46
927196,71
927776,94
928352,105
928980,80
929548,51
930128,48
930708,43
931284,24
931864,14
932436,24
933016,39
933588,44
934168,47
934748,60
935328,61
935900,39
936476,22
937056,13
937628,14
938208,13
938780,19
939360,25
939940,30
940516,36
941096,41
941672,44
942248,52
942820,50
943400,33
943972,24
944556,15
945132,19
945708,27
946288,22
946860,15
947440,22
948020,18
948600,15
949172,18
949748,15
950328,17
950904,15
951480,14
952056,26
952632,20
953212,20
953792,37
954376,44
954948,39
955528,25
956100,27
956680,91
957260,98
957844,46
958420,10
958996,10
959580,10
960152,11
960728,21
961296,25
961880,24
962452,23
963028,24
963608,37
964180,37
964760,31
965332,19
965912,28
966484,18
967064,16
967636,61
968212,83
968792,94
969364,80
969944,52
970516,24
971096,14
971676,15
972252,18
972832,15
973404,34
973984,37
974556,36
975136,28
975716,23
976296,28
976876,48
977452,77
978032,85
978604,75
979184,59
979764,49
980344,41
980924,41
981500,38
982084,14
982656,27
983232,39
983804,32
984384,26
984952,24
985536,45
986108,68
986684,57
987264,42
987836,35
988416,25
988996,19
989576,21
990148,18
990724,10
991304,11
991876,15
992456,28
993028,36
993608,46
994184,66
994768,65
995344,64
995916,56
996496,34
997068,23
997648,17
998228,15
998808,10
999388,18
999964,38
1000544,51
1001160,53
1001792,40
1002412,25
1003036,16
1003664,12
1004288,15
1004916,14
1005540,15
1006160,15
1006792,15
1007408,24
1008036,45
1008664,44
1009284,40
1009916,33
1010540,29
1011168,27
1011796,42
1012416,56
1013044,48
1013668,35
1014292,28
1014924,18
1015544,12
1016172,21
1016796,46
1017420,43
1018052,42
1018672,44
1019300,47
1019932,40
1020552,28
1021180,17
1021808,15
1022436,22
1023068,35
1023688,56
1024320,54
1024940,27
1025560,21
1026188,50
1026804,57
1027432,42
1028052,12
1028676,13
1029304,32
1029920,50
1030548,54
1031176,38
1031792,19
1032420,12
1033044,11
1033672,15
1034300,16
1034916,19
1035548,19
1036168,12
1036796,25
1037424,61
1038048,79
1038676,70
1039300,63
1039920,55
1040552,51
1041168,39
1041796,13
1042416,17
1043040,62
1043668,101
1044344,111
1045016,89
1045644,80
1046260,82
1046892,74
1047512,58
1048136,35
1048764,16
1049384,11
1050012,13
1050640,14
1051256,23
1051884,26
1052508,31
1053136,50
1053764,56
1054384,51
1055012,30
1055636,17
1056260,17
1056888,14
1057508,10
1058140,29
1058760,42
1059384,37
1060012,32
1060628,36
1061260,46
1061884,51
1062504,48
1063136,29
1063756,19
1064388,15
1065016,17
1065632,41
1066260,51
1066880,46
1067512,31
1068140,21
1068760,13
1069388,10
1070012,10
1070636,10
1071264,20
1071880,23
1072512,29
1073132,32
1073756,33
1074388,46
1075012,49
1075640,37
1076268,27
1076884,42
1077516,63
1078140,61
1078768,24
1079396,20
1080016,29
1080644,29
1081264,68
1081888,107
1082568,89
1083184,68
1083812,64
1084440,59
1085064,49
1085692,13
1086316,10
1086944,15
1087572,37
1088192,51
1088820,39
1089440,16
1090064,26
1090692,12
1091312,12
1091940,27
1092564,40
1093184,23
1093812,22
1094432,81
1095060,116
1095740,89
1096360,56
1096988,46
1097612,39
1098240,21
1098868,10
1099488,20
1100116,31
1100740,31
1101368,16
1101996,12
1102616,15
1103244,20
1103868,24
1104496,25
1105124,17
1105748,16
1106380,17
1107008,14
1107624,25
1108256,39
1108876,43
1109508,50
1110136,58
1110760,71
1111388,33
1112012,11
1112636,14
1113268,15
1113888,16
1114516,18
1115148,40
1115768,75
1116396,77
1117020,53
1117652,37
1118280,27
1118904,15
1119532,15
1120156,23
1120780,20
1121408,14
1122032,20
1122660,16
1123284,34
1123908,48
1124536,46
1125152,53
1125780,53
1126412,60
1127028,77
1127660,95
1128280,89
1128912,43
1129540,30
1130160,50
1130788,56
1131412,45
1132036,32
1132668,22
1133288,17
1133916,17
1134540,21
1135164,21
1135792,16
1136416,15
1137044,17
1137676,20
1138296,21
1138924,19
1139548,15
1140176,13
1140808,27
1141424,43
1142052,35
1142676,22
1143300,21
1143932,42
1144552,67
1145180,97
1145808,126
1146480,94
1147108,53
1147732,45
1148364,42
1148992,13
1149608,90
1150236,188
1150912,178
1151580,110
1152260,60
1152876,40
1153508,25
1154136,28
1154752,29
1155380,15
1156004,19
1156624,27
1157256,35
1157872,23
1158500,17
1159124,22
1159748,12
1160376,13
1160992,68
1161620,125
1162300,134
1162972,59
1163596,20
1164220,15
1164844,17
1165472,31
1166088,29
1166716,27
1167340,36
1167964,27
1168596,17
1169216,12
1169848,17
1170476,10
1171096,30
1171724,43
1172348,22
1172980,24
1173608,28
1174224,25
1174856,29
1175480,39
1176104,49
1176732,26
1177352,16
1177984,33
1178604,54
1179228,65
1179856,38
1180480,19
1181108,25
1181736,20
1182360,24
1182988,29
1183612,43
1184244,56
1184872,56
1185496,38
1186124,17
1186748,11
1187372,14
1188000,14
1188620,16
1189252,20
1189876,20
1190500,18
1191128,56
1191752,62
1192380,47
1193012,10
1193632,37
1194260,94
1194884,127
1195564,124
1196240,117
1196916,112
1197592,112
1198276,94
1198896,38
1199524,29
1200156,76
1200776,120
1201456,132
1202124,92
1202744,46
1203372,14
1203992,17
1204620,17
1205244,22
1205872,19
1206500,15
1207124,26
1207752,37
1208384,52
1209000,55
1209632,54
1210252,44
1210884,31
1211512,11
1212128,16
1212760,15
1213384,15
1214008,19
1214636,14
1215256,11
1215888,16
1216516,29
1217136,33
1217764,26
1218388,15
1219020,16
1219648,25
1220268,16
1220896,16
1221520,15
1222148,16
1222780,16
1223400,16
1224028,15
1224652,17
1225276,17
1225908,14
1226528,23
1227156,38
1227788,43
1228408,41
1229036,40
1229660,26
1230288,21
1230916,15
1231536,18
1232164,21
1232788,31
1233412,38
1234044,30
1234664,25
1235292,12
1235916,11
1236536,34
1237168,29
1237784,15
1238412,28
1239036,56
1239664,65
1240292,75
1240916,88
1241544,73
1242176,33
1242792,14
1243420,13
1244044,15
1244676,18
1245304,13
1245920,13
1246552,13
1247176,17
1247800,24
1248428,15
1249048,10
1249676,10
1250300,10
1250928,25
1251556,29
1252180,33
1252808,22
1253440,24
1254056,15
1254684,15
1255308,16
1255940,21
1256568,25
1257184,12
1257816,11
1258440,13
1259060,15
1259692,10
1260312,13
1260940,13
1261564,11
1262192,19
1262820,32
1263444,41
1264076,31
1264704,22
1265328,11
1265956,10
1266580,10
1267208,25
1267836,46
1268456,46
1269084,36
1269712,33
1270336,36
1270964,45
1271584,28
1272216,18
1272844,16
1273464,12
1274092,22
1274716,41
1275348,46
1275980,48
1276600,49
1277232,53
1277856,52
1278480,72
1279112,71
1279728,29
1280360,14
1280984,16
1281604,24
1282232,18
1282848,10
1283476,14
1284104,13
1284720,25
1285348,26
1285972,26
1286600,12
1287228,22
1287848,35
1288476,35
1289096,41
1289728,45
1290356,25
1290976,12
1291604,39
1292224,66
1292848,77
1293476,62
1294096,53
1294724,54
1295344,50
1295968,34
1296596,23
1297220,18
1297848,15
1298476,20
1299096,13
1299724,13
1300348,17
1300980,10
1301608,26
1302224,43
1302852,66
1303476,106
1304152,119
1304828,87
1305448,46
1306076,16
1306708,18
1307328,32
1307956,35
1308580,30
1309204,20
1309836,20
1310456,33
1311084,41
1311708,44
1312332,36
1312960,15
1313572,15
1314204,15
1314832,22
1315448,35
1316076,38
1316700,30
1317328,17
1317956,11
1318576,11
1319204,32
1319824,63
1320452,55
1321080,28
1321700,15
1322328,16
1322952,15
1323576,19
1324204,39
1324824,54
1325452,40
1326072,19
1326696,17
1327324,32
1327948,52
1328580,46
1329208,39
1329824,52
1330452,42
1331076,16
1331708,15
1332336,10
1332952,14
1333580,63
1334200,81
1334824,71
1335452,58
1336072,16
1336700,20
1337320,24
1337944,42
1338572,27
1339192,16
1339820,16
1340448,67
1341072,95
1341700,57
1342324,31
1342952,15
1343580,13
1344200,37
1344828,43
1345448,64
1346068,68
1346700,55
1347320,32
1347948,17
1348568,11
1349192,10
1349820,11
1350440,12
1351068,14
1351696,12
1352312,10
1352940,11
1353564,12
1354192,21
1354820,25
1355440,26
1356068,23
1356692,15
1357316,31
1357948,34
1358568,46
1359196,75
1359820,77
1360444,63
1361072,57
1361688,14
1362316,56
1362940,54
1363568,25
1364196,15
1364816,17
1365444,12
1366072,10
1366696,17
1367324,12
1367948,21
1368576,18
1369208,51
1369824,51
1370452,28
1371076,15
1371700,15
1372328,16
1372944,16
1373572,11
1374196,18
1374820,37
1375448,53
1376072,69
1376700,64
1377332,62
1377952,59
1378580,57
1379204,73
1379832,52
1380460,23
1381080,16
1381708,16
1382332,39
1382956,59
1383588,87
1384208,82
1384836,65
1385460,37
1386084,23
1386712,20
1387336,25
1387964,23
1388596,14
1389216,24
1389844,22
1390468,22
1391096,31
1391728,27
1392348,24
1392976,21
1393596,31
1394220,51
1394852,60
1395472,57
1396100,48
1396724,48
1397348,51
1397976,31
1398600,19
1399228,10
1399856,12
1400476,44
1401104,84
1401728,107
1402408,54
1403032,11
1403648,12
1404276,15
1404900,57
1405524,101
1406204,126
1406876,108
1407548,63
1408176,42
1408788,31
1409420,52
1410040,86
1410664,108
1411344,76
1411960,34
1412592,19
1413220,22
1413840,40
1414468,17
1415088,19
1415712,13
1416340,18
1416960,25
1417588,13
1418212,10
1418836,11
1419464,10
1420088,14
1420716,33
1421348,44
1421968,30
1422596,16
1423220,22
1423852,21
1424480,36
1425096,67
1425728,65
1426352,63
1426976,62
1427604,75
1428224,91
1428852,96
1429476,30
1430100,21
1430728,16
1431352,16
1431984,23
1432612,38
1433232,29
1433864,19
1434484,10
1435112,11
1435740,16
1436360,12
1436988,10
1437612,19
1438236,44
1438864,73
1439484,75
1440112,65
1440732,37
1441356,12
1441984,21
1442600,23
1443228,20
1443856,18
1444472,45
1445100,43
1445724,18
1446352,30
1446980,32
1447600,16
1448228,51
1448852,66
1449476,45
1450108,44
1450728,53
1451356,42
1451980,23
1452604,11
1453232,13
1453856,26
1454484,33
1455116,43
1455736,63
1456364,38
1456988,25
1457616,72
1458244,90
1458864,89
1459492,50
1460116,29
1460740,17
1461372,43
1461992,56
1462620,59
1463244,25
1463868,15
1464496,14
1465120,12
1465748,11
1466376,21
1467000,21
1467628,13
1468252,40
1468884,76
1469512,98
1470128,90
1470760,45
1471384,19
1472008,43
1472636,51
1473256,32
1473884,62
1474508,80
1475132,35
1475764,24
1476384,16
1477012,62
1477640,84
1478264,22
1478892,64
1479516,83
1480144,71
1480772,44
1481392,37
1482020,27
1482644,11
1483268,13
1483900,15
1484520,25
1485148,45
1485772,21
1486392,10
1487024,12
1487640,15
1488272,23
1488892,18
1489520,17
1490148,11
1490772,42
1491400,60
1492028,21
1492648,45
1493276,118
1493952,93
1494568,57
1495196,24
1495816,15
1496444,15
1497068,15
1497692,38
1498320,92
1498936,109
1499620,87
1500244,82
1500864,64
1501492,14
1502116,40
1502740,35
1503368,21
1503992,66
1504624,89
1505248,45
1505872,33
1506500,18
1507120,13
1507748,58
1508380,66
1509000,17
1509628,45
1510252,32
1510884,48
1511516,62
1512136,52
1512764,43
1513388,67
1514012,185
1514696,151
1515364,98
1515992,42
1516620,25
1517240,15
1517868,11
1518492,27
1519116,71
1519748,25
1520368,25
1520996,58
1521620,96
1522244,120
1522924,114
1523596,74
1524220,36
1524852,10
1525472,17
1526100,25
1526724,50
1527348,49
1527980,14
1528600,62
1529228,110
1529912,116
1530580,128
1531256,111
1531936,64
1532560,22
1533192,54
1533816,53
1534444,17
1535076,88
1535696,99
1536328,119
1537000,156
1537676,156
1538352,55
1538968,29
1539592,17
1540220,17
1540840,54
1541468,41
1542092,14
1542712,43
1543344,42
1543960,39
1544592,49
1545216,53
1545840,34
1546468,35
1547092,70
1547724,52
1548352,30
1548968,35
1549596,63
1550220,57
1550852,35
1551480,10
1552104,17
1552732,30
1553356,17
1553980,36
1554612,22
1555232,17
1555860,31
1556492,54
1557112,12
1557740,58
1558364,63
1558996,51
1559624,17
1560244,25
1560872,73
1561496,103
1562172,102
1562848,80
1563464,51
1564092,77
1564724,46
1565344,86
1565972,111
1566648,21
1567272,105
1567952,87
1568576,51
1569204,11
1569836,11
1570456,23
1571084,60
1571708,103
1572392,135
1573068,79
1573688,46
1574316,24
1574948,32
1575568,28
1576196,58
1576820,68
1577452,51
1578080,44
1578704,37
1579332,18
1579956,49
1580584,124
1581264,86
1581880,16
1582508,20
1583140,26
1583760,11
1584388,12
1585016,10
1585644,9
1586224,17
1586848,34
1587480,50
1588100,33
1588732,26
1589360,64
1589980,75
1590608,56
1591232,57
1591856,62
1592488,38
1593104,36
1593736,67
1594360,112
1595036,95
1595664,37
1596288,15
1596916,27
1597548,24
1598168,29
1598796,26
1599420,32
1600048,15
1600672,20
1601292,26
1601920,12
1602544,18
1603168,12
1603796,12
1604420,15
1605048,15
1605676,16
1606296,24
1606924,51
1607548,17
1608176,11
1608804,16
1609424,11
1610052,17
1610676,13
1611300,15
1611928,45
1612544,44
1613176,37
1613800,19
1614420,49
1615052,39
1615672,13
1616300,10
1616932,12
1617552,38
1618180,52
1618804,54
1619432,12
1620064,11
1620680,24
1621308,52
1621932,77
1622556,112
1623236,107
1623908,103
1624584,102
1625264,93
1625888,87
1626516,13
1627148,12
1627768,32
1628396,25
1629020,16
1629652,71
1630280,119
1630952,99
1631576,61
1632200,60
1632824,98
1633452,102
1634124,76
1634748,47
1635380,20
1636000,15
1636628,25
1637252,27
1637884,24
1638512,20
1639132,36
1639760,48
1640384,66
1641004,68
1641632,54
1642248,29
1642876,12
1643496,15
1644120,38
1644748,50
1645368,41
1645996,24
1646624,16
1647240,15
1647868,17
1648492,11
1649120,25
1649748,28
1650364,20
1650996,20
1651616,33
1652240,56
1652868,67
1653484,35
1654116,35
1654736,93
1655356,106
1656040,56
1656656,57
1657284,137
1657964,137
1658636,76
1659260,30
1659884,56
1660508,25
1661136,129
1661804,255
1662480,193
1663156,60
1663776,16
1664404,23
1665032,31
1665648,20
1666276,39
1666896,53
1667524,46
1668152,62
1668768,76
1669400,87
1670020,71
1670648,46
1671276,16
1671896,21
1672524,34
1673144,52
1673768,65
1674396,94
1675016,123
1675696,99
1676316,83
1676936,83
1677564,83
1678188,70
1678816,55
1679444,43
1680060,35
1680688,18
1681312,22
1681932,36
1682560,41
1683176,46
1683804,61
1684428,62
1685048,57
1685680,43
1686296,13
1686924,62
1687548,123
1688220,160
1688896,186
1689564,141
1690236,18
1690860,114
1691536,121
1692208,86
1692828,71
1693448,75
1694076,21
1694696,15
1695320,49
1695948,107
1696620,83
1697244,37
1697872,45
1698496,68
1699124,78
1699748,72
1700372,39
1701000,36
1701616,68
1702244,94
1702868,89
1703488,88
1704120,81
1704736,66
1705364,36
1705992,40
1706616,53
1707244,37
1707868,16
1708496,31
1709124,61
1709744,60
1710372,40
1710996,66
1711624,103
1712304,110
1712972,54
1713596,47
1714228,63
1714848,35
1715476,35
1716100,111
1716780,133
1717456,79
1718080,37
1718708,56
1719340,66
1719960,36
1720592,22
1721212,13
1721840,15
1722472,20
1723088,50
1723716,51
1724340,36
1724964,38
1725592,61
1726208,13
1726840,57
1727464,19
1728084,20
1728712,26
1729336,17
1729964,27
1730592,15
1731208,34
1731836,28
1732460,11
1733088,24
1733720,39
1734336,32
1734964,23
1735588,24
1736212,15
1736844,34
1737464,17
1738092,33
1738716,38
1739340,28
1739972,40
1740592,56
1741224,60
1741852,46
1742472,25
1743100,17
1743724,34
1744352,15
1744980,49
1745600,70
1746228,80
1746848,69
1747472,59
1748104,22
1748720,10
1749348,22
1749972,10
1750596,63
1751228,88
1751848,78
1752476,61
1753108,32
1753728,13
1754356,37
1754980,57
1755608,73
1756240,46
1756856,16
1757484,15
1758108,38
1758732,51
1759360,56
1759984,42
1760616,61
1761240,71
1761860,59
1762488,50
1763112,32
1763740,22
1764368,22
1764992,22
1765620,33
1766244,26
1766872,10
1767500,11
1768120,19
1768748,35
1769372,29
1769996,11
1770624,20
1771240,16
1771868,17
1772492,28
1773116,49
1773744,37
1774364,40
1774992,23
1775620,27
1776240,17
1776868,23
1777492,51
1778120,70
1778752,95
1779368,110
1780052,95
1780672,93
1781296,65
1781924,12
1782544,22
1783172,12
1783796,27
1784420,57
1785052,119
1785724,145
1786400,160
1787080,177
1787748,121
1788424,20
1789052,61
1789672,103
1790352,157
1791036,160
1791708,66
1792336,57
1792956,37
1793580,22
1794208,28
1794832,27
1795460,34
1796084,18
1796708,24
1797336,42
1797960,48
1798588,28
1799216,21
1799840,28
1800468,11
1801092,64
1801720,108
1802404,113
1803072,74
1803700,34
1804328,15
1804952,27
1805580,31
1806200,43
1806832,17
1807460,45
1808080,59
1808708,61
1809328,56
1809952,29
1810580,40
1811200,102
1811880,91
1812500,67
1813120,47
1813748,18
1814372,15
1815000,11
1815632,14
1816248,25
1816876,15
1817500,17
1818124,16
1818756,24
1819376,27
1820004,36
1820628,37
1821252,35
1821880,24
1822504,18
1823132,26
1823764,34
1824384,24
1825012,25
1825636,67
1826264,81
1826892,105
1827564,121
1828240,143
1828920,122
1829588,64
1830212,35
1830840,17
1831460,22
1832092,28
1832712,25
1833340,39
1833964,50
1834588,55
1835220,39
1835844,19
1836472,11
1837100,15
1837720,23
1838348,34
1838976,48
1839604,36
1840236,16
1840856,17
1841484,31
1842108,18
1842732,10
1843364,22
1843980,56
1844612,57
1845232,57
1845856,47
1846484,48
1847108,44
1847736,37
1848364,30
1848984,35
1849612,18
1850232,16
1850864,37
1851492,32
1852112,28
1852740,91
1853364,135
1854040,129
1854720,108
1855396,42
1856016,35
1856644,22
1857260,25
1857892,77
1858516,87
1859140,68
1859768,36
1860384,40
1861016,60
1861644,48
1862264,15
1862892,15
1863516,26
1864148,36
1864776,54
1865392,28
1866024,12
1866648,48
1867268,31
1867900,30
1868520,59
1869148,77
1869772,64
1870396,46
1871028,35
1871648,32
1872276,26
1872908,18
1873528,13
1874156,26
1874780,39
1875412,59
1876040,59
1876656,48
1877288,49
1877912,62
1878536,73
1879168,75
1879784,72
1880416,61
1881036,41
1881660,39
1882292,10
1882912,29
1883540,55
1884172,79
1884792,113
1885472,77
1886088,53
1886720,27
1887348,16
1887968,14
1888600,24
1889220,22
1889844,15
1890476,16
1891096,21
1891724,38
1892352,20
1892976,13
1893604,15
1894228,61
1894860,59
1895488,22
1896112,21
1896740,25
1897364,24
1897988,16
1898620,16
1899240,25
1899868,18
1900492,19
1901116,15
1901748,14
1902368,27
1903000,35
1903628,32
1904248,17
1904876,19
1905500,21
1906132,27
1906760,20
1907384,14
1908012,17
1908636,15
1909260,10
1909892,11
1910512,11
1911140,24
1911768,34
1912392,29
1913024,24
1913640,22
1914268,16
1914900,20
1915520,31
1916148,31
1916776,23
1917408,24
1918036,18
1918656,14
1919288,11
1919912,12
1920536,15
1921168,25
1921784,43
1922412,52
1923036,49
1923660,12
1924288,30
1924912,27
1925540,37
1926172,14
1926792,13
1927420,26
1928044,40
1928672,53
1929300,71
1929920,93
1930548,81
1931172,54
1931796,46
1932428,30
1933048,24
1933676,113
1934360,136
1935028,58
1935656,43
1936276,83
1936900,75
1937532,18
1938152,27
1938780,30
1939404,18
1940028,24
1940660,30
1941280,25
1941908,19
1942540,62
1943160,88
1943788,90
1944416,73
1945044,65
1945676,68
1946296,58
1946924,31
1947548,17
1948168,15
1948800,14
1949416,11
1950044,11
1950668,12
1951292,19
1951924,10
1952544,84
1953172,152
1953856,133
1954524,68
1955152,37
1955776,17
1956400,24
1957028,38
1957648,55
1958276,48
1958904,33
1959524,28
1960156,72
1960780,106
1961460,54
1962084,46
1962704,35
1963336,25
1963960,16
1964584,16
1965212,10
1965832,19
1966464,28
1967084,42
1967708,61
1968336,50
1968960,14
1969588,34
1970216,12
1970836,17
1971464,17
1972088,30
1972716,16
1973344,19
1973964,21
1974592,11
1975216,27
1975836,59
1976468,27
1977088,12
1977716,11
1978340,38
1978964,61
1979592,53
1980208,52
1980840,47
1981468,14
1982088,21
1982716,46
1983340,57
1983972,33
1984604,42
1985224,41
1985852,22
1986476,25
1987100,21
1987728,22
1988352,28
1988980,29
1989604,23
1990228,10
1990856,24
1991480,67
1992108,111
1992792,118
1993460,90
1994084,100
1994768,100
1995436,66
1996064,27
1996688,16
1997316,35
1997948,40
1998568,63
1999196,55
1999820,62
2000444,75
2001076,62
2001696,49
2002324,31
2002952,25
2003576,25
2004204,31
2004828,26
2005456,17
2006084,14
2006704,14
2007332,37
2007956,76
2008584,116
2009264,96
2009880,80
2010508,83
2011132,79
2011760,49
2012388,19
2013012,33
2013644,16
2014272,17
2014888,25
2015520,43
2016144,35
2016772,58
2017404,48
2018024,58
2018652,40
2019276,21
2019900,13
2020528,31
2021148,22
2021776,22
2022404,36
2023024,62
2023652,43
2024276,15
2024908,51
2025536,102
2026208,126
2026880,114
2027560,68
2028184,74
2028812,31
2029436,54
2030064,78
2030696,89
2031312,97
2031944,70
2032568,79
2033192,88
2033820,102
2034492,78
2035120,36
2035748,12
2036368,21
2036996,27
2037620,46
2038252,56
2038884,22
2039504,39
2040136,65
2040760,71
2041384,24
2042012,49
2042632,72
2043264,17
2043888,34
2044512,19
2045140,13
2045764,16
2046396,25
2047028,30
2047648,29
2048280,17
2048900,32
2049528,71
2050156,63
2050776,97
2051404,103
2052076,20
2052692,86
2053324,94
2053940,87
2054572,65
2055200,39
2055816,35
2056444,23
2057064,14
2057692,11
2058320,37
2058936,45
2059564,31
2060188,23
2060808,46
2061436,70
2062056,72
2062684,23
2063308,15
2063928,15
2064560,16
2065176,11
2065804,36
2066428,42
2067056,44
2067684,44
2068308,31
2068936,34
2069564,63
2070184,85
2070812,60
2071436,30
2072064,17
2072692,20
2073312,61
2073940,79
2074564,61
2075184,44
2075816,30
2076432,11
2077060,13
2077684,14
2078308,20
2078936,62
2079560,75
2080188,61
2080816,30
2081432,13
2082060,18
2082684,35
2083312,122
2083992,134
2084660,88
2085284,85
2085912,55
2086536,24
2087164,15
2087788,25
2088416,45
2089044,34
2089660,31
2090292,48
2090912,64
2091536,81
2092164,100
2092832,56
2093460,16
2094088,10
2094704,11
2095332,21
2095956,29
2096588,25
2097216,17
2097832,16
2098464,30
2099088,57
2099716,71
2100344,54
2100960,33
2101592,33
2102212,29
2102836,27
2103468,14
2104088,33
2104716,64
2105340,39
2105964,17
2106592,11
2107216,10
2107844,25
2108472,30
2109092,32
2109720,21
2110344,33
2110972,59
2111604,56
2112224,31
2112852,14
2113476,19
2114096,16
2114728,13
2115344,12
2115972,13
2116596,10
2117220,13
2117848,10
2118472,13
2119104,14
2119732,21
2120352,28
2120980,23
2121604,15
2122232,17
2122860,23
2123480,37
2124108,48
2124732,43
2125356,12
2125988,17
2126608,14
2127236,25
2127860,25
2128484,61
2129112,61
2129736,27
2130368,19
2130996,14
2131616,24
2132244,51
2132868,66
2133496,46
2134124,13
2134744,12
2135372,17
2135996,13
2136620,13
2137248,18
2137872,21
2138500,25
2139124,17
2139748,28
2140376,74
2141000,89
2141632,65
2142260,34
2142880,25
2143508,23
2144132,27
2144764,14
2145392,18
2146008,21
2146636,21
2147260,17
2147884,22
2148512,30
2149132,45
2149760,53
2150384,32
2151008,29
2151636,74
2152260,81
2152888,66
2153520,47
2154136,25
2154764,21
2155388,35
2156020,33
2156648,24
2157264,54
2157896,62
2158520,55
2159144,45
2159772,29
2160392,35
2161020,65
2161644,83
2162268,73
2162896,47
2163512,21
2164144,28
2164772,58
2165392,56
2166020,37
2166644,27
2167272,26
2167904,30
2168524,29
2169152,14
2169776,19
2170400,27
2171028,30
2171648,41
2172276,37
2172900,21
2173524,12
2174152,14
2174772,11
2175400,13
2176028,44
2176644,77
2177272,81
2177896,79
2178524,57
2179156,26
2179776,20
2180404,33
2181028,58
2181652,59
2182280,59
2182904,70
2183532,31
2184156,9
2184728,13
2185356,16
2185976,12
2186604,10
2187228,15
2187852,20
2188480,24
2189104,32
2189732,29
2190364,18
2190984,10
2191612,32
2192236,40
2192868,55
2193496,78
2194116,80
2194744,77
2195368,31
2195992,25
2196620,18
2197240,16
2197868,27
2198492,34
2199116,30
2199748,56
2200368,50
2200996,35
2201628,37
2202248,55
2202876,46
2203500,36
2204128,28
2204760,24
2205376,15
2206004,41
2206628,64
2207252,63
2207884,40
2208504,11
2209132,19
2209756,20
2210380,47
2211012,58
2211632,64
2212264,53
2212892,40
2213512,25
2214140,16
2214764,58
2215396,44
2216024,15
2216640,14
2217272,25
2217896,22
2218520,60
2219148,78
2219768,44
2220396,14
2221024,24
2221644,16
2222276,15
2222896,16
2223524,9
2224096,10
2224728,13
2225356,16
2225976,24
2226604,33
2227236,42
2227856,46
2228484,36
2229108,18
2229740,15
2230368,17
2230992,15
2231624,9
2232196,16
2232832,21
2233460,18
2234080,12
2234708,11
2235332,19
2235960,25
2236588,31
2237208,26
2237836,38
2238464,30
2239088,26
2239720,22
2240344,18
2240972,13
2241600,12
2242224,15
2242852,10
2243476,45
2244100,77
2244732,92
2245352,71
2245980,39
2246604,28
2247228,17
2247860,32
2248480,100
2249160,89
2249784,51
2250400,24
2251032,18
2251656,25
2252284,29
2252916,31
2253536,17
2254164,12
2254784,24
2255408,18
2256036,16
2256656,16
2257284,28
2257904,46
2258528,49
2259156,13
2259780,97
2260412,61
2261040,44
2261664,106
2262344,89
2262968,61
2263592,33
2264220,16
2264840,72
2265468,96
2266092,58
2266716,47
2267348,48
2267972,63
2268600,66
2269228,52
2269848,42
2270476,27
2271100,14
2271732,17
2272364,31
2272984,38
2273612,31
2274236,36
2274860,62
2275492,72
2276112,84
2276740,94
2277364,87
2277988,75
2278620,67
2279244,64
2279872,58
2280504,47
2281120,52
2281748,34
2282372,14
2283004,17
2283636,39
2284256,57
2284884,87
2285508,83
2286132,77
2286764,54
2287384,45
2288012,40
2288636,16
2289264,24
2289892,27
2290520,29
2291148,54
2291780,12
2292400,22
2293028,25
2293656,28
2294280,40
2294908,48
2295528,51
2296156,53
2296780,43
2297404,30
2298036,16
2298656,19
2299284,38
2299916,34
2300536,34
2301164,47
2301792,52
2302420,38
2303052,18
2303672,16
2304304,16
2304928,22
2305548,25
2306176,72
2306800,108
2307480,61
2308100,32
2308720,36
2309348,33
2309972,33
2310604,12
2311232,24
2311848,14
2312480,15
2313100,18
2313732,15
2314364,15
2314984,10
2315612,10
2316236,18
2316860,22
2317488,27
2318108,31
2318736,31
2319364,18
2319984,14
2320612,15
2321236,15
2321868,16
2322496,15
2323116,41
2323744,48
2324368,12
2325000,42
2325628,83
2326248,111
2326928,122
2327608,117
2328284,64
2328908,41
2329532,34
2330160,21
2330788,18
2331408,19
2332036,11
2332660,11
2333284,33
2333916,38
2334540,18
2335172,19
2335800,69
2336420,71
2337048,70
2337672,57
2338300,36
2338932,26
2339552,21
2340180,21
2340804,32
2341428,39
2342060,14
2342680,42
2343308,93
2343932,110
2344612,105
2345288,73
2345912,59
2346536,59
2347168,25
2347784,35
2348412,52
2349040,66
2349664,62
2350292,45
2350916,27
2351548,16
2352180,28
2352800,39
2353428,16
2354056,21
2354684,36
2355316,24
2355936,19
2356564,20
2357188,15
2357812,11
2358444,13
2359064,11
2359692,11
2360316,16
2360944,29
2361572,50
2362200,45
2362828,25
2363460,18
2364080,17
2364708,21
2365336,20
2365960,16
2366588,10
2367208,22
2367836,23
2368464,16
2369088,13
2369716,14
2370336,40
2370964,53
2371596,29
2372216,18
2372844,15
2373468,18
2374100,13
2374732,50
2375352,63
2375984,41
2376608,19
2377232,17
2377860,38
2378480,47
2379108,31
2379732,17
2380360,21
2380988,18
2381608,15
2382236,22
2382868,14
2383488,16
2384116,18
2384740,24
2385372,60
2386000,20
2386624,14
2387252,24
2387876,15
2388500,21
2389132,16
2389752,11
2390384,17
2391008,47
2391632,50
2392264,15
2392880,30
2393512,65
2394144,71
2394764,62
2395392,51
2396020,37
2396648,27
2397276,19
2397896,31
2398528,37
2399152,18
2399776,10
2400408,13
2401024,22
2401652,39
2402276,33
2402900,37
2403532,43
2404152,43
2404780,36
2405412,20
2406032,16
2406664,24
2407284,17
2407916,15
2408544,20
2409168,17
2409796,11
2410420,27
2411044,18
2411676,18
2412296,27
2412924,19
2413548,17
2414172,19
2414804,22
2415428,21
2416060,23
2416688,26
2417304,34
2417932,28
2418556,21
2419188,41
2419820,12
2420440,15
2421068,21
2421692,18
2422316,16
2422948,27
2423568,12
2424196,28
2424824,67
2425448,44
2426076,27
2426700,24
2427332,33
2427964,44
2428584,31
2429216,15
2429840,21
2430468,15
2431100,20
2431720,30
2432352,20
2432976,12
2433600,22
2434228,19
2434848,11
2435476,28
2436108,32
2436728,20
2437360,40
2437980,23
2438612,18
2439244,16
2439864,11
2440492,10
2441116,12
2441740,12
2442372,18
2442992,73
2443624,84
2444244,32
2444872,36
2445500,71
2446120,100
2446800,88
2447428,58
2448048,41
2448676,27
2449300,28
2449928,20
2450556,34
2451176,28
2451808,12
2452432,41
2453056,55
2453688,40
2454304,42
2454936,86
2455568,62
2456188,20
2456816,72
2457444,68
2458076,27
2458704,27
2459320,41
2459948,48
2460572,49
2461196,37
2461824,41
2462440,43
2463072,53
2463696,29
2464320,20
2464948,26
2465568,43
2466196,51
2466828,44
2467448,43
2468076,71
2468700,86
2469328,59
2469960,14
2470576,48
2471204,53
2471828,29
2472456,30
2473084,58
2473704,67
2474332,50
2474956,30
2475580,30
2476212,50
2476832,60
2477460,76
2478092,82
2478712,57
2479340,17
2479968,16
2480596,16
2481228,48
2481848,44
2482476,55
2483100,29
2483724,25
2484356,25
2484976,55
2485604,118
2486284,159
2486956,146
2487632,61
2488256,17
2488880,41
2489508,70
2490128,77
2490756,50
2491384,11
2492004,12
2492636,15
2493260,12
2493892,21
2494520,32
2495140,37
2495772,44
2496396,53
2497024,39
2497652,30
2498272,24
2498900,21
2499524,10
2500148,35
2500780,39
2501400,29
2502028,12
2502652,12
2503280,11
2503908,17
2504532,17
2505164,18
2505792,20
2506416,35
2507044,49
2507668,46
2508296,25
2508924,10
2509544,14
2510172,12
2510796,20
2511420,47
2512052,36
2512672,16
2513300,15
2513932,16
2514552,13
2515184,11
2515808,18
2516436,38
2517068,46
2517688,25
2518320,22
2518944,38
2519568,30
2520200,22
2520816,16
2521444,34
2522068,47
2522692,32
2523324,22
2523944,14
2524576,10
2525204,9
2525772,11
2526404,21
2527024,51
2527656,62
2528288,67
2528904,58
2529532,50
2530156,25
2530788,27
2531420,38
2532040,47
2532668,44
2533296,43
2533920,55
2534552,55
2535168,44
2535800,52
2536424,49
2537048,26
2537676,19
2538296,27
2538928,89
2539556,115
2540228,82
2540852,51
2541476,48
2542100,43
2542732,21
2543352,15
2543984,20
2544608,11
2545232,19
2545864,27
2546480,19
2547108,16
2547740,14
2548360,19
2548992,17
2549616,10
2550244,32
2550876,51
2551496,59
2552128,53
2552752,39
2553376,24
2554008,15
2554624,19
2555256,16
2555884,15
2556508,20
2557140,18
2557764,11
2558396,33
2559028,80
2559648,63
2560284,21
2560904,28
2561532,64
2562160,63
2562776,51
2563404,19
2564028,17
2564648,39
2565276,48
2565896,42
2566524,52
2567148,55
2567768,30
2568396,10
2569016,16
2569644,45
2570272,78
2570888,70
2571516,26
2572140,36
2572768,53
2573400,68
2574016,77
2574644,57
2575268,54
2575892,27
2576520,11
2577144,32
2577772,76
2578396,60
2579020,49
2579648,17
2580264,16
2580896,27
2581524,36
2582144,36
2582772,29
2583396,24
2584024,33
2584656,46
2585272,56
2585900,53
2586524,17
2587148,68
2587776,83
2588396,70
2589024,35
2589648,11
2590268,11
2590900,14
2591520,17
2592148,10
2592776,10
2593400,29
2594028,55
2594652,67
2595280,68
2595912,53
2596528,33
2597156,17
2597780,21
2598404,17
2599036,28
2599656,28
2600284,14
2600908,14
2601532,10
2602164,18
2602784,30
2603412,40
2604044,30
2604664,38
2605292,41
2605916,25
2606548,21
2607176,45
2607796,53
2608428,43
2609048,46
2609672,50
2610304,56
2610920,37
2611552,11
2612176,30
2612800,21
2613428,16
2614048,30
2614676,27
2615308,22
2615928,37
2616560,40
2617180,19
2617812,23
2618440,20
2619064,11
2619692,11
2620316,17
2620944,16
2621572,15
2622192,16
2622820,13
2623444,14
2624064,15
2624692,15
2625308,14
2625936,23
2626564,44
2627180,47
2627812,62
2628432,71
2629064,62
2629692,49
2630312,34
2630940,23
2631564,11
2632192,23
2632820,33
2633440,35
2634068,21
2634692,17
2635312,11
2635944,17
2636560,23
2637192,20
2637812,17
2638436,27
2639064,17
2639688,11
2640316,15
2640944,31
2641568,35
2642196,25
2642820,19
2643448,36
2644076,52
2644696,33
2645324,37
2645944,62
2646568,43
2647196,20
2647816,12
2648444,16
2649068,28
2649692,16
2650320,12
2650936,10
2651564,21
2652192,34
2652816,40
2653444,22
2654064,19
2654696,24
2655324,26
2655944,25
2656572,14
2657196,41
2657820,59
2658452,56
2659072,51
2659700,55
2660324,51
2660948,21
2661576,15
2662200,26
2662828,17
2663456,15
2664080,18
2664704,21
2665328,19
2665956,12
2666584,18
2667200,44
2667828,55
2668452,43
2669076,11
2669704,32
2670328,24
2670956,17
2671580,19
2672204,17
2672832,18
2673448,24
2674076,18
2674704,10
2675328,26
2675956,14
2676580,42
2677208,61
2677836,71
2678456,27
2679084,28
2679708,24
2680332,18
2680960,15
2681576,11
2682204,21
2682828,34
2683452,38
2684084,41
2684704,37
2685332,34
2685964,22
2686584,24
2687212,30
2687836,31
2688468,19
2689096,48
2689712,91
2690340,96
2690964,83
2691588,59
2692220,68
2692840,57
2693468,13
2694092,40
2694712,49
2695340,18
2695960,17
2696588,25
2697212,20
2697840,16
2698468,15
2699092,19
2699720,43
2700352,31
2700968,14
2701600,13
2702220,39
2702852,67
2703480,60
2704104,35
2704732,31
2705352,20
2705976,17
2706604,21
2707224,18
2707852,21
2708476,20
2709100,17
2709728,15
2710352,23
2710980,39
2711612,54
2712232,40
2712860,21
2713484,16
2714116,22
2714744,38
2715364,57
2715992,68
2716616,67
2717240,67
2717868,77
2718488,49
2719116,22
2719740,75
2720368,94
2720996,88
2721620,94
2722248,90
2722876,54
2723496,26
2724124,13
2724748,10
2725376,21
2726004,33
2726624,51
2727252,69
2727876,90
2728496,71
2729128,44
2729744,31
2730372,25
2730996,19
2731620,38
2732248,51
2732872,36
2733504,29
2734132,18
2734752,23
2735380,31
2736004,21
2736632,16
2737260,24
2737880,31
2738508,17
2739132,16
2739760,11
2740388,21
2741008,19
2741636,10
2742260,14
2742884,21
2743516,41
2744140,55
2744768,70
2745400,54
2746016,23
2746644,17
2747268,18
2747896,13
2748528,14
2749144,14
2749772,10
2750396,16
2751024,20
2751652,14
2752272,12
2752900,15
2753524,15
2754148,17
2754776,18
2755400,26
2756032,49
2756660,46
2757280,23
2757908,12
2758532,16
2759164,30
2759792,20
2760416,20
2761044,15
2761668,13
2762292,15
2762924,15
2763544,21
2764172,22
2764796,17
2765424,15
2766056,19
2766680,19
2767308,10
2767936,16
2768560,52
2769188,74
2769812,46
2770436,15
2771068,30
2771688,43
2772316,39
2772940,39
2773564,45
2774196,51
2774816,52
2775444,52
2776076,48
2776696,72
2777324,84
2777948,66
2778580,47
2779208,19
2779828,34
2780456,52
2781080,43
2781704,27
2782336,19
2782956,55
2783584,80
2784212,68
2784832,57
2785464,69
2786080,70
2786708,82
2787336,55
2787960,27
2788588,21
2789212,38
2789844,56
2790472,58
2791088,47
2791716,39
2792340,35
2792964,32
2793596,42
2794216,70
2794848,75
2795472,50
2796096,38
2796724,25
2797344,17
2797972,13
2798604,10
2799224,32
2799856,57
2800480,42
2801108,11
2801740,11
2802360,16
2802988,28
2803612,29
2804236,34
2804868,71
2805488,85
2806116,46
2806740,15
2807364,16
2807992,24
2808616,43
2809244,64
2809876,87
2810496,96
2811124,84
2811748,74
2812380,61
2813012,42
2813632,27
2814260,19
2814884,46
2815512,69
2816144,65
2816756,36
2817388,11
2818008,16
2818632,17
2819260,32
2819880,80
2820508,86
2821136,35
2821752,19
2822384,35
2823008,22
2823636,35
2824268,50
2824888,34
2825516,22
2826140,22
2826764,11
2827392,40
2828016,81
2828644,85
2829268,56
2829892,15
2830520,16
2831144,19
2831772,20
2832404,13
2833024,33
2833652,78
2834276,85
2834908,75
2835536,50
2836156,29
2836784,22
2837408,39
2838032,35
2838660,37
2839280,41
2839908,11
2840532,11
2841160,20
2841788,12
2842408,12
2843036,35
2843668,52
2844288,60
2844916,55
2845540,42
2846172,32
2846800,15
2847424,22
2848052,19
2848676,13
2849300,14
2849928,14
2850544,11
2851172,10
2851800,12
2852424,15
2853052,49
2853672,44
2854300,23
2854932,14
2855552,17
2856184,15
2856808,22
2857436,28
2858068,34
2858688,32
2859320,34
2859944,49
2860568,52
2861196,21
2861816,21
2862448,38
2863072,30
2863696,15
2864324,37
2864944,58
2865576,58
2866204,51
2866824,42
2867456,39
2868076,33
2868708,21
2869336,11
2869952,19
2870580,38
2871204,41
2871828,29
2872456,26
2873080,19
2873708,20
2874332,15
2874956,10
2875584,12
2876208,21
2876836,26
2877468,26
2878088,42
2878716,34
2879340,37
2879972,48
2880604,62
2881224,63
2881852,43
2882472,30
2883096,11
2883724,28
2884344,33
2884972,46
2885596,66
2886220,42
2886848,26
2887464,13
2888096,33
2888724,20
2889344,21
2889972,25
2890596,27
2891224,48
2891852,47
2892472,33
2893100,20
2893724,28
2894348,58
2894976,62
2895600,32
2896228,15
2896852,24
2897476,23
2898104,12
2898720,25
2899352,37
2899980,34
2900600,40
2901228,39
2901852,21
2902484,11
2903112,23
2903732,31
2904360,44
2904984,36
2905608,50
2906236,80
2906856,81
2907484,57
2908112,19
2908736,33
2909364,40
2909984,43
2910612,24
2911244,12
2911864,16
2912496,15
2913116,29
2913748,33
2914376,54
2915000,58
2915628,15
2916252,36
2916880,61
2917508,38
2918128,22
2918760,12
2919380,18
2920004,19
2920632,18
2921256,15
2921884,16
2922516,18
2923136,11
2923768,15
2924388,22
2925020,26
2925648,38
2926272,46
2926900,50
2927524,57
2928148,59
2928780,48
2929400,25
2930028,21
2930652,39
2931276,21
2931908,10
2932528,10
2933156,10
2933788,16
2934408,23
2935036,18
2935660,11
2936292,14
2936924,14
2937544,19
2938176,18
2938800,29
2939424,39
2940056,37
2940672,23
2941304,18
2941928,22
2942552,42
2943184,42
2943804,54
2944436,37
2945064,20
2945680,15
2946312,15
2946936,16
2947564,15
2948196,10
2948816,11
2949444,13
2950068,23
2950692,22
2951320,10
2951944,11
2952572,11
2953196,12
2953820,17
2954452,19
2955072,16
2955704,16
2956332,14
2956952,15
2957580,10
2958204,19
2958836,20
2959464,36
2960088,62
2960716,60
2961340,46
2961964,50
2962592,49
2963208,53
2963840,58
2964460,32
2965084,10
2965716,34
2966340,52
2966972,50
2967600,56
2968224,61
2968852,49
2969476,37
2970108,25
2970736,20
2971360,15
2971988,20
2972612,28
2973236,26
2973868,32
2974488,35
2975116,49
2975740,80
2976368,111
2977048,118
2977716,94
2978336,65
2978964,27
2979584,24
2980212,42
2980836,63
2981460,101
2982140,82
2982760,65
2983388,44
2984020,36
2984640,46
2985268,48
2985892,42
2986516,40
2987148,16
2987768,20
2988396,21
2989024,21
2989648,47
2990276,46
2990896,37
2991524,45
2992156,76
2992776,92
2993404,67
2994028,36
2994660,29
2995288,18
2995912,16
2996540,20
2997164,19
2997788,11
2998420,10
2999040,10
2999668,27
3000296,37
3000920,38
3001548,27
3002168,48
3002796,93
3003428,85
3004048,47
3004676,17
3005304,17
3005932,16
3006564,16
3007184,11
3007816,11
3008440,27
3009064,51
3009692,74
3010312,66
3010944,58
3011568,55
3012192,29
3012820,22
3013444,21
3014076,15
3014704,23
3015328,30
3015960,24
3016584,13
3017212,10
3017844,12
3018464,11
3019092,25
3019720,25
3020344,15
3020976,26
3021592,18
3022224,20
3022848,16
3023472,13
3024104,15
3024724,40
3025356,71
3025988,76
3026608,77
3027240,87
3027860,93
3028488,63
3029116,17
3029736,52
3030368,66
3030996,57
3031620,37
3032252,53
3032872,69
3033504,49
3034132,36
3034752,32
3035384,28
3036008,27
3036636,19
3037268,18
3037888,17
3038520,15
3039144,19
3039768,16
3040400,15
3041016,25
3041644,25
3042268,23
3042892,39
3043524,48
3044144,55
3044772,55
3045404,65
3046024,52
3046656,15
3047280,22
3047908,21
3048540,18
3049160,27
3049788,21
3050412,15
3051040,29
3051668,22
3052288,13
3052916,13
3053540,31
3054168,74
3054796,48
3055416,18
3056048,44
3056676,32
3057296,16
3057924,26
3058552,44
3059180,19
3059812,12
3060432,24
3061064,25
3061688,21
3062312,16
3062944,38
3063564,32
3064192,16
3064820,10
3065444,10
3066076,11
3066700,10
3067332,12
3067964,10
3068584,15
3069216,26
3069840,29
3070472,17
3071104,16
3071724,16
3072356,18
3072976,17
3073600,12
3074228,16
3074848,19
3075476,10
3076108,10
3076728,12
3077356,21
3077980,40
3078612,41
3079240,33
3079856,26
3080488,19
3081108,19
3081736,20
3082364,12
3082984,15
3083612,15
3084236,15
3084860,15
3085488,12
3086108,16
3086736,25
3087364,43
3087984,57
3088612,34
3089240,13
3089868,29
3090496,24
3091120,15
3091752,13
3092376,25
3093000,59
3093628,80
3094248,78
3094876,43
3095504,15
3096128,24
3096756,24
3097376,23
3098008,31
3098636,38
3099256,49
3099884,46
3100508,31
3101140,17
3101772,10
3102392,12
3103024,11
3103648,15
3104272,17
3104900,29
3105520,40
3106148,35
3106776,23
3107400,21
3108028,25
3108648,14
3109276,26
3109908,15
3110528,17
3111156,32
3111784,39
3112416,37
3113044,40
3113664,30
3114292,14
3114916,10
3115540,17
3116172,40
3116792,43
3117424,41
3118048,37
3118672,28
3119304,12
3119920,20
3120552,16
3121184,15
3121800,16
3122428,15
3123056,18
3123684,35
3124316,47
3124936,45
3125564,29
3126188,19
3126812,23
3127444,43
3128064,58
3128692,27
3129316,23
3129940,28
3130572,26
3131192,16
3131824,37
3132456,43
3133072,55
3133704,65
3134328,36
3134956,10
3135588,16
3136208,32
3136836,37
3137460,45
3138084,39
3138712,25
3139336,13
3139964,39
3140592,46
3141216,44
3141844,37
3142468,16
3143100,28
3143728,52
3144352,60
3144980,52
3145604,36
3146236,19
3146868,14
3147488,21
3148120,32
3148744,23
3149368,16
3149996,14
3150616,12
3151248,12
3151876,16
3152496,18
3153128,19
3153752,13
3154384,16
3155012,18
3155632,21
3156260,11
3156888,22
3157512,47
3158140,51
3158760,45
3159392,35
3160016,37
3160640,48
3161268,44
3161888,18
3162516,26
3163148,26
3163768,16
3164400,11
3165024,10
3165652,14
3166284,21
3166904,29
3167536,46
3168160,45
3168784,26
3169416,11
3170032,19
3170664,21
3171288,19
3171912,17
3172544,15
3173164,24
3173792,32
3174424,24
3175048,12
3175676,11
3176304,16
3176932,22
3177564,45
3178184,51
3178816,57
3179440,54
3180064,35
3180696,26
3181312,20
3181944,19
3182568,14
3183192,65
3183824,65
3184444,55
3185076,43
3185704,41
3186324,36
3186956,22
3187580,15
3188212,19
3188844,26
3189464,27
3190096,19
3190720,13
3191344,18
3191976,30
3192596,17
3193228,21
3193852,43
3194480,61
3195112,46
3195736,32
3196368,36
3196996,54
3197616,51
3198248,11
3198872,17
3199496,19
3200128,20
3200748,21
3201376,22
3202000,20
3202620,28
3203252,32
3203872,18
3204500,17
3205128,25
3205744,25
3206372,10
3206996,10
3207628,12
3208256,34
3208872,45
3209500,24
3210124,13
3210756,13
3211384,25
3212004,31
3212632,22
3213256,17
3213880,29
3214508,34
3215128,17
3215756,10
3216380,10
3217008,13
3217636,14
3218260,15
3218888,17
3219520,18
3220136,24
3220764,17
3221388,15
3222020,15
3222648,15
3223272,10
3223900,34
3224528,52
3225152,53
3225780,33
3226400,22
3227028,22
3227656,34
3228280,43
3228908,31
3229532,17
3230164,15
3230792,22
3231412,24
3232040,10
3232664,27
3233288,33
3233916,26
3234536,42
3235168,75
3235792,81
3236416,68
3237044,53
3237664,28
3238292,21
3238924,14
3239544,15
3240172,11
3240796,28
3241428,28
3242056,21
3242676,23
3243304,37
3243928,54
3244552,68
3245184,74
3245800,80
3246428,68
3247052,53
3247676,44
3248308,28
3248928,19
3249556,10
3250188,16
3250808,17
3251436,15
3252064,18
3252692,38
3253324,54
3253944,48
3254572,36
3255200,25
3255824,22
3256452,20
3257072,12
3257700,16
3258324,11
3258948,24
3259580,39
3260200,35
3260828,43
3261460,40
3262080,25
3262708,17
3263336,15
3263964,15
3264600,23
3265216,36
3265848,35
3266472,30
3267096,12
3267724,15
3268344,30
3268972,35
3269596,44
3270224,47
3270856,56
3271472,49
3272104,17
3272732,58
3273352,61
3273984,41
3274608,43
3275240,33
3275868,33
3276488,19
3277120,22
3277740,52
3278364,53
3278992,33
3279608,17
3280236,15
3280856,12
3281480,16
3282108,10
3282724,13
3283352,14
3283984,10
3284600,10
3285228,10
3285848,11
3286476,19
3287104,19
3287728,15
3288356,19
3288976,32
3289604,52
3290232,72
3290848,79
3291476,73
3292100,59
3292724,39
3293352,36
3293968,34
3294600,16
3295220,19
3295844,25
3296476,30
3297096,17
3297724,10
3298356,10
3298976,20
3299604,25
3300228,24
3300856,13
3301484,10
3302104,50
3302732,77
3303356,66
3303980,42
3304608,31
3305224,20
3305852,17
3306476,15
3307100,11
3307728,14
3308352,18
3308980,68
3309608,92
3310232,84
3310860,82
3311484,66
3312112,28
3312744,16
3313360,18
3313988,25
3314612,19
3315236,11
3315864,30
3316488,35
3317116,47
3317740,48
3318364,31
3318996,17
3319616,19
3320248,49
3320876,44
3321496,28
3322124,20
3322748,32
3323380,18
3324008,12
3324624,27
3325252,19
3325876,12
3326500,25
3327132,43
3327752,52
3328384,33
3329004,20
3329628,46
3330256,35
3330872,20
3331500,31
3332128,29
3332752,14
3333380,10
3334004,12
3334632,21
3335260,64
3335880,73
3336508,51
3337132,45
3337756,50
3338384,46
3339000,27
3339632,15
3340256,15
3340876,11
3341508,22
3342128,21
3342756,19
3343384,32
3344008,71
3344636,83
3345260,64
3345888,61
3346516,76
3347136,71
3347764,45
3348388,13
3349012,10
3349644,23
3350264,35
3350892,25
3351516,20
3352140,19
3352772,22
3353392,19
3354024,20
3354652,16
3355272,19
3355900,15
3356524,11
3357156,11
3357784,20
3358408,39
3359036,38
3359660,57
3360284,102
3360964,107
3361632,72
3362260,20
3362888,20
3363504,28
3364136,54
3364760,91
3365380,89
3366012,66
3366632,41
3367260,37
3367884,19
3368504,14
3369136,23
3369752,22
3370380,15
3371004,14
3371632,16
3372260,17
3372884,10
3373512,26
3374140,40
3374760,29
3375388,12
3376012,15
3376640,38
3377268,50
3377888,49
3378516,35
3379144,23
3379768,21
3380396,22
3381016,15
3381644,10
3382268,10
3382896,11
3383524,18
3384148,29
3384776,34
3385404,22
3386024,11
3386652,17
3387276,14
3387904,18
3388532,35
3389152,31
3389780,12
3390404,45
3391028,43
3391656,23
3392280,17
3392908,39
3393532,52
3394160,45
3394788,20
3395412,49
3396040,41
3396672,31
3397288,24
3397916,23
3398540,18
3399172,12
3399800,13
3400424,11
3401052,10
3401676,13
3402300,15
3402928,27
3403544,17
3404172,22
3404796,26
3405424,20
3406052,11
3406676,11
3407308,12
3407936,15
3408556,26
3409184,24
3409808,14
3410436,14
3411068,30
3411688,34
3412316,45
3412940,54
3413564,47
3414196,40
3414816,23
3415444,11
3416076,23
3416696,47
3417324,43
3417948,33
3418580,26
3419208,42
3419832,64
3420464,52
3421084,27
3421708,15
3422340,22
3422960,43
3423588,45
3424216,45
3424836,51
3425468,52
3426088,66
3426716,69
3427348,40
3427968,20
3428596,22
3429220,24
3429852,19
3430484,21
3431104,14
3431732,10
3432356,12
3432980,14
3433608,21
3434232,23
3434860,36
3435488,45
3436112,38
3436740,14
3437360,15
3437988,31
3438620,48
3439240,47
3439872,36
3440496,19
3441124,11
3441756,24
3442376,36
3443004,35
3443628,40
3444252,56
3444880,51
3445504,37
3446132,27
3446756,18
3447380,14
3448008,21
3448632,11
3449260,12
3449892,10
3450512,11
3451140,20
3451764,32
3452396,32
3453028,17
3453648,21
3454276,16
3454900,16
3455528,22
3456156,49
3456776,84
3457404,76
3458028,30
3458652,10
3459280,21
3459896,38
3460524,63
3461156,70
3461776,78
3462404,94
3463028,81
3463656,59
3464284,29
3464904,17
3465532,88
3466156,118
3466832,85
3467460,40
3468080,15
3468708,9
3469284,15
3469912,18
3470540,18
3471160,16
3471792,22
3472420,12
3473040,18
3473668,21
3474292,15
3474924,15
3475552,21
3476176,29
3476804,33
3477428,24
3478052,25
3478684,47
3479304,65
3479936,54
3480560,41
3481184,17
3481816,12
3482436,27
3483064,30
3483696,17
3484312,11
3484940,10
3485564,24
3486192,31
3486824,30
3487440,21
3488068,19
3488692,26
3489316,25
3489944,17
3490560,10
3491192,11
3491816,16
3492440,25
3493068,52
3493688,62
3494316,74
3494948,68
3495568,42
3496196,19
3496820,17
3497452,18
3498080,17
3498700,27
3499328,45
3499952,42
3500576,16
3501208,10
3501824,46
3502456,62
3503080,33
3503704,17
3504332,14
3504952,23
3505580,22
3506212,22
3506832,36
3507464,20
3508084,10
3508716,22
3509348,50
3509968,72
3510600,49
3511224,31
3511848,22
3512476,21
3513096,20
3513728,15
3514352,13
3514976,19
3515604,20
3516228,36
3516860,46
3517492,31
3518112,12
3518744,13
3519368,11
3520000,28
3520628,48
3521248,52
3521876,23
3522500,29
3523128,56
3523756,71
3524376,78
3525004,68
3525628,57
3526256,67
3526884,49
3527508,60
3528140,44
3528768,17
3529384,15
3530016,18
3530640,23
3531268,19
3531900,18
3532520,24
3533148,27
3533772,29
3534396,25
3535028,14
3535648,11
3536276,15
3536908,22
3537528,29
3538156,19
3538780,15
3539412,14
3540040,27
3540664,24
3541292,14
3541916,10
3542540,16
3543172,16
3543792,20
3544420,27
3545044,39
3545668,49
3546300,52
3546920,43
3547548,22
3548180,10
3548800,13
3549428,25
3550052,20
3550684,21
3551316,22
3551936,11
3552568,16
3553192,22
3553816,19
3554444,43
3555064,43
3555696,19
3556320,11
3556944,12
3557572,15
3558192,15
3558824,11
3559456,26
3560072,56
3560704,70
3561328,61
3561960,33
3562588,29
3563208,45
3563836,22
3564464,9
3565036,11
3565668,16
3566288,17
3566916,12
3567544,35
3568168,27
3568796,29
3569416,51
3570048,65
3570672,42
3571296,17
3571924,26
3572548,38
3573180,42
3573812,44
3574432,39
3575060,29
3575688,13
3576316,13
3576948,19
3577568,37
3578200,38
3578824,66
3579448,59
3580080,38
3580696,12
3581328,40
3581960,64
3582580,81
3583208,70
3583836,51
3584468,35
3585096,22
3585712,19
3586344,18
3586968,16
3587592,15
3588220,16
3588840,20
3589468,12
3590092,13
3590716,28
3591348,36
3591968,46
3592596,66
3593228,84
3593848,89
3594476,74
3595100,23
3595732,15
3596364,14
3596984,17
3597612,10
3598236,13
3598860,21
3599492,15
3600112,11
3600740,15
3601364,21
3601988,49
3602620,92
3603240,124
3603920,78
3604544,33
3605160,20
3605788,12
3606412,35
3607040,47
3607672,41
3608288,33
3608916,33
3609540,51
3610164,47
3610796,23
3611416,20
3612044,37
3612668,26
3613296,15
3613924,21
3614548,37
3615180,35
3615808,23
3616432,10
3617060,12
3617684,11
3618308,19
3618940,17
3619560,33
3620188,53
3620812,48
3621436,19
3622068,21
3622688,32
3623316,35
3623948,41
3624568,35
3625196,36
3625820,36
3626452,47
3627080,69
3627696,78
3628328,75
3628952,77
3629576,69
3630204,56
3630824,23
3631452,33
3632080,91
3632700,121
3633384,126
3634052,82
3634676,39
3635308,17
3635928,11
3636556,17
3637180,15
3637804,31
3638432,40
3639056,40
3639684,26
3640308,22
3640932,19
3641564,16
3642188,11
3642820,11
3643448,13
3644072,24
3644704,29
3645328,38
3645956,32
3646588,16
3647208,14
3647836,13
3648464,17
3649084,17
3649716,22
3650336,28
3650964,26
3651596,23
3652216,23
3652844,24
3653468,20
3654100,18
3654728,30
3655352,18
3655984,48
3656608,64
3657232,59
3657860,47
3658480,63
3659108,91
3659732,92
3660360,71
3660988,86
3661608,79
3662236,50
3662868,41
3663488,63
3664116,65
3664744,80
3665372,118
3666056,110
3666724,87
3667348,73
3667980,56
3668600,54
3669228,53
3669852,29
3670484,17
3671112,61
3671736,92
3672368,107
3673044,117
3673716,90
3674344,67
3674968,67
3675596,72
3676228,58
3676848,21
3677476,30
3678104,33
3678728,19
3679356,18
3679976,33
3680612,33
3681236,28
3681860,31
3682488,36
3683112,13
3683744,21
3684372,10
3684992,13
3685624,13
3686248,19
3686876,29
3687508,48
3688128,43
3688756,19
3689380,22
3690000,39
3690632,40
3691248,12
3691876,22
3692500,11
3693124,18
3693752,40
3694372,74
3695000,51
3695632,26
3696248,15
3696880,26
3697500,25
3698132,29
3698760,18
3699384,19
3700012,11
3700636,10
3701260,9
3701840,10
3702464,13
3703092,19
3703716,17
3704340,15
3704972,15
3705592,17
3706224,29
3706848,26
3707472,27
3708100,33
3708720,34
3709352,35
3709980,42
3710600,65
3711232,65
3711856,53
3712488,33
3713116,16
3713736,23
3714364,41
3714988,65
3715616,78
3716244,65
3716864,22
3717492,20
3718116,12
3718740,49
3719372,60
3719992,57
3720624,37
3721252,16
3721872,33
3722500,49
3723124,58
3723756,56
3724388,52
3725008,54
3725636,53
3726260,55
3726888,58
3727516,56
3728136,66
3728764,61
3729388,38
3730012,37
3730644,18
3731268,35
3731896,63
3732524,71
3733144,54
3733772,43
3734396,55
3735028,47
3735660,24
3736280,15
3736912,17
3737536,20
3738160,21
3738788,16
3739408,13
3740036,10
3740660,17
3741288,11
3741916,28
3742540,89
3743172,123
3743856,63
3744472,14
3745100,13
3745728,22
3746352,15
3746980,41
3747600,79
3748232,84
3748852,81
3749476,90
3750108,92
3750732,79
3751364,61
3751992,22
3752616,26
3753248,53
3753872,69
3754504,77
3755132,75
3755752,48
3756384,26
3757008,19
3757632,22
3758264,23
3758880,10
3759512,17
3760144,19
3760760,31
3761392,23
3762016,31
3762644,35
3763276,24
3763896,12
3764524,23
3765148,14
3765776,13
3766404,26
3767024,30
3767656,30
3768280,22
3768904,10
3769532,56
3770152,79
3770784,44
3771412,16
3772032,16
3772660,11
3773288,16
3773916,15
3774548,32
3775168,50
3775800,51
3776424,75
3777048,84
3777676,82
3778296,53
3778928,45
3779548,39
3780176,24
3780804,25
3781424,61
3782056,68
3782684,56
3783304,70
3783936,70
3784560,53
3785188,40
3785820,27
3786440,23
3787068,18
3787696,21
3788320,21
3788952,11
3789568,24
3790196,29
3790820,37
3791444,50
3792076,52
3792696,52
3793324,45
3793956,26
3794576,17
3795204,19
3795828,18
3796460,21
3797092,24
3797712,36
3798344,41
3798968,29
3799592,11
3800224,25
3800840,37
3801472,38
3802096,35
3802720,41
3803348,48
3803976,42
3804604,21
3805236,26
3805856,21
3806488,20
3807112,41
3807744,49
3808376,39
3808992,31
3809624,17
3810248,30
3810872,19
3811504,35
3812120,38
3812752,22
3813384,15
3814000,16
3814632,43
3815256,48
3815884,41
3816516,23
3817136,11
3817768,14
3818392,22
3819016,29
3819648,29
3820264,16
3820896,22
3821520,15
3822144,28
3822776,22
3823392,20
3824024,32
3824656,24
3825272,11
3825904,11
3826528,19
3827160,29
3827792,24
3828412,19
3829044,18
3829668,18
3830292,19
3830924,13
3831544,18
3832176,45
3832800,55
3833424,56
3834056,46
3834676,26
3835308,20
3835936,16
3836560,14
3837192,21
3837820,29
3838452,30
3839084,30
3839704,50
3840340,73
3840960,69
3841584,41
3842212,30
3842832,37
3843460,44
3844084,45
3844708,28
3845336,17
3845960,23
3846592,19
3847220,46
3847840,47
3848468,47
3849092,40
3849724,29
3850352,12
3850976,73
3851604,101
3852280,74
3852896,33
3853524,19
3854148,15
3854780,17
3855408,32
3856032,27
3856660,10
3857284,14
3857912,14
3858544,23
3859160,33
3859792,19
3860416,63
3861044,78
3861672,78
3862292,69
3862920,35
3863544,21
3864168,11
3864796,14
3865424,44
3866052,65
3866684,64
3867304,48
3867932,20
3868560,12
3869188,10
3869820,14
3870440,15
3871068,17
3871696,29
3872320,12
3872948,12
3873568,21
3874196,38
3874828,49
3875448,58
3876080,57
3876700,37
3877332,36
3877964,46
3878584,51
3879212,17
3879836,38
3880464,46
3881092,57
3881712,57
3882340,60
3882964,67
3883592,51
3884220,15
3884840,14
3885468,15
3886100,21
3886720,28
3887348,39
3887976,60
3888608,41
3889240,10
3889856,10
3890488,25
3891112,21
3891736,10
3892368,11
3892984,10
3893616,28
3894240,40
3894864,29
3895492,16
3896112,17
3896740,21
3897372,16
3897992,9
3898568,13
3899200,11
3899828,11
3900460,14
3901080,32
3901712,21
3902336,11
3902968,16
3903596,22
3904216,25
3904848,21
3905472,14
3906096,25
3906724,14
3907344,11
3907972,21
3908600,29
3909224,49
3909852,77
3910480,84
3911108,71
3911740,30
3912360,21
3912988,15
3913612,17
3914244,28
3914872,27
3915496,41
3916128,38
3916752,31
3917376,47
3918008,36
3918628,24
3919260,12
3919888,16
3920512,16
3921144,16
3921768,15
3922396,27
3923028,44
3923648,51
3924276,44
3924904,18
3925528,10
3926156,41
3926776,80
3927408,93
3928032,75
3928656,50
3929288,17
3929904,35
3930536,105
3931216,152
3931892,104
3932572,37
3933196,10
3933816,39
3934444,59
3935068,50
3935700,29
3936328,22
3936952,31
3937580,17
3938204,19
3938828,18
3939460,11
3940080,31
3940708,53
3941332,56
3941960,46
3942588,24
3943208,18
3943836,44
3944464,47
3945088,43
3945716,31
3946340,20
3946972,16
3947600,30
3948220,79
3948848,85
3949472,79
3950096,61
3950724,31
3951344,15
3951976,11
3952600,28
3953224,24
3953852,15
3954472,20
3955100,23
3955732,27
3956352,35
3956984,39
3957608,27
3958236,29
3958868,46
3959488,70
3960120,66
3960744,64
3961368,85
3961996,76
3962616,29
3963248,29
3963872,48
3964496,31
3965124,20
3965744,38
3966376,56
3967008,44
3967624,26
3968256,23
3968880,27
3969508,26
3970140,24
3970760,19
3971388,15
3972012,19
3972640,32
3973268,41
3973888,37
3974516,29
3975140,23
3975764,25
3976396,41
3977016,63
3977644,40
3978276,14
3978896,15
3979524,15
3980148,15
3980780,19
3981412,22
3982032,39
3982664,38
3983288,30
3983912,15
3984544,10
3985160,15
3985792,15
3986416,15
3987040,18
3987672,15
3988296,21
3988924,29
3989556,26
3990176,20
3990808,23
3991432,36
3992064,33
3992692,30
3993312,34
3993944,42
3994568,51
3995192,47
3995824,41
3996440,42
3997072,31
3997704,17
3998320,32
3998952,37
3999576,11
4000208,11
4000836,16
4001456,24
4002084,44
4002708,57
4003336,128
4004016,138
4004684,68
4005308,16
4005940,22
4006560,28
4007188,27
4007812,59
4008444,65
4009072,53
4009688,45
4010316,45
4010940,32
4011568,16
4012196,22
4012816,21
4013444,17
4014068,14
4014692,15
4015324,17
4015948,19
4016580,19
4017208,19
4017824,13
4018456,11
4019080,29
4019708,53
4020340,62
4020960,47
4021588,23
4022212,17
4022836,10
4023468,22
4024088,19
4024716,19
4025340,14
4025968,26
4026596,15
4027220,13
4027852,15
4028480,19
4029100,27
4029728,49
4030352,52
4030984,41
4031612,24
4032232,11
4032860,39
4033484,66
4034108,72
4034740,69
4035360,65
4035988,54
4036620,32
4037240,21
4037868,17
4038492,31
4039124,50
4039752,67
4040376,65
4041004,53
4041628,54
4042252,34
4042884,64
4043504,59
4044136,47
4044760,53
4045384,49
4046012,16
4046632,56
4047260,91
4047892,99
4048512,102
4049192,77
4049816,46
4050440,19
4051068,10
4051688,15
4052316,24
4052944,30
4053568,23
4054196,24
4054816,42
4055448,56
4056076,65
4056696,66
4057324,51
4057952,43
4058580,42
4059212,54
4059832,68
4060464,75
4061088,75
4061712,56
4062344,16
4062960,15
4063592,39
4064216,41
4064840,26
4065468,30
4066088,52
4066716,60
4067348,43
4067968,35
4068600,28
4069224,39
4069852,54
4070484,50
4071104,29
4071732,15
4072360,24
4072984,29
4073612,36
4074232,35
4074864,39
4075488,18
4076112,12
4076744,70
4077360,116
4078044,100
4078724,59
4079344,24
4079976,15
4080600,26
4081224,83
4081856,123
4082528,103
4083204,74
4083828,41
4084448,12
4085080,33
4085704,47
4086328,26
4086960,44
4087576,72
4088208,66
4088840,25
4089456,10
4090088,11
4090712,33
4091344,31
4091976,11
4092596,10
4093228,13
4093852,19
4094476,21
4095108,26
4095728,15
4096364,22
4096984,30
4097604,17
4098232,14
4098848,12
4099476,13
4100104,20
4100720,11
4101348,15
4101972,48
4102600,53
4103228,32
4103848,25
4104476,21
4105096,16
4105724,18
4106356,19
4106976,22
4107604,25
4108224,25
4108848,27
4109476,32
4110096,41
4110724,48
4111344,39
4111968,31
4112600,34
4113224,29
4113852,11
4114480,26
4115104,47
4115732,52
4116356,37
4116988,24
4117616,16
4118232,11
4118860,13
4119484,16
4120108,15
4120736,17
4121352,21
4121984,16
4122608,30
4123228,31
4123856,13
4124480,13
4125108,11
4125736,17
4126360,37
4126988,63
4127612,91
4128244,94
4128872,88
4129488,89
4130116,73
4130740,34
4131364,10
4131992,23
4132608,23
4133240,12
4133860,15
4134484,27
4135116,10
4135736,34
4136364,112
4137048,124
4137716,60
4138340,16
4138964,38
4139588,70
4140216,80
4140832,69
4141464,42
4142092,12
4142712,18
4143340,11
4143964,21
4144596,76
4145228,72
4145848,38
4146476,17
4147100,13
4147728,19
4148356,27
4148976,37
4149604,45
4150228,40
4150852,11
4151480,42
4152104,49
4152732,30
4153364,14
4153984,22
4154612,26
4155236,15
4155868,11
4156496,12
4157120,12
4157748,21
4158372,52
4159000,67
4159628,53
4160248,85
4160876,117
4161556,96
4162176,79
4162804,53
4163428,30
4164056,11
4164684,23
4165304,53
4165932,100
4166608,113
4167276,62
4167900,45
4168524,29
4169152,18
4169784,16
4170400,27
4171028,37
4171652,37
4172284,34
4172912,20
4173528,17
4174156,46
4174780,52
4175404,44
4176032,62
4176656,57
4177284,59
4177908,43
4178532,17
4179160,15
4179784,33
4180412,27
4181040,20
4181664,22
4182292,51
4182916,46
4183548,23
4184176,17
4184792,31
4185424,12
4186048,32
4186672,59
4187300,30
4187920,53
4188548,47
4189172,25
4189796,82
4190424,99
4191048,96
4191676,84
4192308,66
4192928,37
4193556,45
4194180,28
4194808,19
4195440,15
4196056,22
4196688,30
4197312,53
4197936,63
4198564,64
4199184,18
4199812,12
4200436,13
4201056,10
4201688,13
4202308,18
4202936,18
4203568,15
4204184,51
4204812,59
4205436,33
4206064,10
4206696,21
4207312,38
4207944,31
4208568,28
4209188,58
4209820,78
4210440,85
4211068,80
4211692,47
4212316,19
4212948,26
4213572,38
4214200,31
4214828,16
4215448,15
4216076,15
4216700,10
4217332,19
4217960,22
4218584,32
4219212,20
4219836,21
4220460,28
4221092,20
4221712,32
4222340,28
4222968,27
4223592,54
4224224,65
4224844,53
4225472,14
4226100,23
4226720,37
4227348,12
4227972,15
4228600,35
4229228,72
4229848,60
4230476,27
4231100,18
4231724,49
4232352,54
4232972,33
4233600,36
4234224,51
4234848,55
4235476,33
4236100,13
4236732,14
4237364,38
4237984,22
4238612,56
4239240,82
4239868,92
4240500,112
4241172,109
4241848,95
4242476,54
4243096,49
4243724,72
4244348,51
4244980,21
4245608,37
4246228,24
4246856,15
4247480,35
4248104,61
4248732,66
4249352,61
4249984,27
4250604,11
4251228,38
4251860,109
4252536,146
4253208,149
4253888,101
4254564,36
4255188,24
4255820,108
4256492,220
4257168,284
4257848,192
4258524,51
4259152,42
4259776,79
4260400,94
4261028,111
4261700,95
4262324,44
4262956,26
4263576,42
4264204,37
4264828,53
4265456,26
4266088,15
4266704,23
4267332,22
4267956,11
4268580,32
4269212,55
4269832,41
4270460,32
4271084,15
4271708,16
4272340,22
4272960,43
4273592,39
4274224,33
4274840,45
4275468,37
4276092,27
4276724,25
4277352,28
4277972,41
4278600,53
4279224,64
4279848,60
4280476,28
4281096,13
4281724,37
4282348,13
4282972,34
4283600,14
4284224,83
4284852,104
4285536,41
4286152,37
4286784,60
4287404,66
4288032,68
4288660,62
4289280,19
4289908,41
4290532,27
4291156,12
4291788,40
4292408,63
4293036,78
4293668,72
4294288,101
4294972,102
4295644,24
4296264,123
4296944,125
4297620,87
4298244,74
4298872,76
4299492,58
4300124,17
4300748,27
4301372,30
4302004,11
4302624,15
4303252,15
4303884,18
4304504,16
4305132,19
4305756,11
4306388,13
4307016,13
4307636,10
4308264,21
4308888,19
4309512,24
4310140,40
4310760,49
4311388,20
4312012,18
4312636,25
4313268,34
4313888,31
4314516,12
4315148,20
4315768,15
4316396,15
4317024,21
4317652,17
4318284,16
4318904,59
4319536,79
4320160,81
4320780,75
4321412,26
4322032,17
4322660,77
4323284,41
4323908,28
4324536,69
4325156,84
4325784,75
4326412,17
4327032,22
4327660,39
4328284,37
4328916,41
4329544,28
4330168,16
4330796,60
4331424,211
4332100,225
4332780,100
4333452,14
4334076,43
4334708,18
4335328,48
4335960,25
4336584,20
4337208,37
4337836,32
4338456,15
4339084,20
4339716,34
4340336,30
4340968,20
4341588,18
4342220,63
4342852,102
4343524,78
4344152,48
4344776,33
4345400,33
4346028,104
4346700,112
4347380,72
4348008,50
4348624,21
4349256,11
4349880,11
4350504,19
4351136,10
4351752,12
4352384,14
4353008,30
4353632,22
4354260,18
4354884,18
4355512,11
4356140,32
4356760,85
4357388,112
4358064,57
4358688,38
4359316,66
4359936,73
4360568,84
4361188,67
4361812,31
4362444,23
4363064,19
4363692,10
4364324,19
4364944,29
4365572,40
4366196,22
4366828,13
4367456,11
4368076,25
4368704,25
4369328,27
4369952,41
4370580,36
4371200,19
4371828,21
4372452,34
4373080,43
4373708,20
4374328,25
4374960,52
4375588,49
4376208,14
4376836,49
4377464,58
4378092,20
4378724,18
4379344,27
4379972,26
4380600,11
4381224,11
4381852,11
4382472,12
4383104,39
4383728,74
4384352,78
4384980,50
4385604,39
4386236,24
4386864,15
4387484,27
4388112,52
4388736,31
4389368,17
4389996,38
4390616,37
4391244,12
4391868,25
4392496,45
4393124,37
4393744,33
4394372,34
4395000,24
4395624,17
4396252,15
4396880,21
4397508,11
4398140,10
4398760,15
4399392,24
4400016,36
4400644,41
4401276,14
4401896,12
4402528,20
4403152,25
4403776,34
4404404,45
4405024,51
4405652,24
4406284,11
4406904,15
4407532,18
4408156,18
4408788,25
4409420,26
4410040,23
4410668,12
4411292,16
4411916,16
4412548,16
4413168,26
4413800,29
4414424,26
4415048,37
4415676,46
4416296,22
4416924,31
4417556,84
4418176,88
4418804,85
4419428,107
4420112,35
4420736,15
4421356,20
4421984,28
4422608,32
4423232,14
4423864,47
4424480,41
4425108,14
4425740,70
4426360,118
4427040,107
4427716,64
4428336,30
4428964,16
4429584,44
4430212,57
4430836,49
4431460,33
4432092,26
4432716,23
4433344,15
4433972,14
4434592,20
4435220,13
4435844,24
4436476,22
4437104,17
4437728,16
4438360,24
4438984,16
4439608,20
4440240,24
4440856,35
4441484,52
4442112,66
4442736,79
4443368,72
4443992,66
4444624,41
4445252,18
4445872,16
4446500,15
4447128,12
4447752,19
4448384,23
4449000,40
4449628,70
4450252,89
4450876,63
4451508,34
4452128,31
4452760,21
4453388,24
4454008,26
4454640,23
4455264,12
4455892,12
4456524,10
4457144,26
4457772,39
4458400,33
4459024,12
4459652,39
4460272,82
4460904,79
4461528,52
4462152,34
4462784,34
4463400,29
4464032,19
4464660,11
4465280,16
4465908,20
4466536,17
4467164,17
4467796,24
4468416,32
4469048,39
4469672,33
4470296,27
4470928,23
4471544,15
4472176,16
4472800,20
4473424,29
4474056,30
4474676,40
4475304,37
4475936,20
4476560,43
4477192,78
4477816,101
4478500,89
4479128,43
4479748,15
4480380,17
4481004,22
4481628,30
4482256,41
4482872,45
4483504,36
4484132,26
4484752,13
4485384,21
4486004,30
4486636,35
4487264,24
4487884,27
4488512,35
4489136,89
4489760,51
4490388,16
4491008,51
4491636,50
4492260,27
4492888,17
4493516,31
4494136,28
4494764,14
4495396,19
4496016,46
4496644,24
4497268,10
4497900,14
4498528,25
4499152,35
4499784,105
4500460,68
4501080,13
4501712,24
4502328,22
4502960,22
4503592,19
4504212,15
4504840,17
4505464,28
4506096,24
4506728,14
4507344,15
4507972,18
4508596,13
4509220,16
4509852,27
4510472,39
4511100,45
4511724,37
4512352,24
4512980,15
4513604,16
4514232,28
4514860,38
4515480,20
4516108,15
4516732,33
4517364,35
4517992,29
4518616,25
4519244,16
4519868,52
4520492,65
4521124,48
4521744,36
4522372,21
4522996,11
4523620,30
4524252,55
4524876,52
4525508,42
4526136,48
4526752,69
4527384,75
4528008,51
4528636,32
4529268,30
4529888,21
4530516,11
4531144,17
4531768,25
4532396,16
4533016,21
4533644,10
4534268,19
4534896,39
4535528,50
4536152,55
4536780,55
4537412,28
4538032,16
4538660,24
4539288,32
4539912,26
4540540,10
4541160,19
4541792,14
4542416,21
4543040,15
4543672,16
4544288,22
4544920,22
4545548,16
4546168,15
4546796,16
4547424,27
4548052,21
4548684,14
4549304,25
4549932,28
4550556,24
4551184,17
4551812,16
4552432,16
4553060,15
4553688,16
4554312,19
4554940,19
4555560,21
4556192,32
4556820,48
4557440,63
4558068,69
4558692,58
4559324,36
4559956,53
4560576,81
4561208,67
4561832,43
4562456,35
4563084,21
4563704,16
4564332,70
4564960,75
4565584,36
4566212,17
4566832,16
4567464,17
4568092,41
4568712,55
4569344,48
4569968,26
4570596,15
4571228,19
4571848,33
4572480,29
4573100,11
4573728,13
4574360,10
4574976,18
4575608,46
4576232,51
4576856,57
4577488,46
4578104,34
4578736,22
4579364,14
4579984,14
4580616,11
4581240,23
4581872,41
4582500,54
4583120,61
4583752,72
4584376,63
4585000,37
4585632,25
4586248,16
4586880,22
4587504,17
4588128,15
4588756,15
4589380,23
4590012,29
4590644,36
4591264,51
4591896,67
4592520,84
4593148,113
4593832,125
4594500,102
4595180,44
4595808,16
4596424,27
4597056,61
4597680,84
4598304,71
4598936,96
4599552,85
4600184,27
4600808,11
4601432,11
4602064,18
4602680,41
4603312,22
4603944,23
4604560,15
4605192,21
4605816,31
4606448,33
4607076,42
4607696,52
4608328,65
4608952,62
4609576,33
4610204,23
4610824,25
4611452,30
4612076,15
4612700,52
4613328,58
4613952,55
4614580,34
4615212,24
4615832,21
4616460,17
4617084,27
4617716,57
4618344,63
4618968,52
4619596,47
4620220,43
4620844,30
4621476,94
4622096,92
4622724,81
4623348,51
4623972,41
4624604,14
4625228,48
4625860,80
4626488,86
4627108,84
4627736,68
4628364,63
4628992,33
4629624,17
4630240,15
4630868,17
4631496,11
4632120,74
4632748,114
4633420,75
4634048,15
4634676,16
4635296,26
4635924,40
4636548,41
4637180,19
4637812,30
4638432,47
4639060,29
4639688,11
4640312,15
4640940,16
4641560,23
4642188,39
4642812,36
4643440,39
4644068,63
4644692,81
4645324,74
4645952,68
4646572,17
4647200,35
4647824,52
4648452,44
4649084,20
4649704,21
4650332,38
4650956,30
4651580,14
4652212,15
4652832,16
4653460,44
4654092,74
4654712,49
4655344,33
4655968,26
4656600,10
4657228,18
4657848,35
4658480,52
4659104,72
4659728,70
4660356,76
4660976,70
4661604,51
4662228,36
4662852,20
4663484,14
4664104,17
4664732,19
4665364,24
4665984,35
4666616,42
4667240,53
4667868,55
4668500,40
4669120,26
4669752,19
4670376,16
4671000,16
4671628,26
4672248,42
4672876,56
4673500,42
4674124,20
4674756,32
4675376,53
4676004,68
4676636,77
4677256,81
4677884,73
4678512,53
4679140,16
4679772,34
4680392,35
4681020,47
4681644,47
4682268,31
4682900,32
4683520,26
4684148,15
4684776,11
4685400,17
4686028,46
4686648,81
4687276,75
4687908,52
4688528,26
4689156,17
4689784,11
4690412,16
4691044,24
4691664,18
4692292,24
4692920,41
4693544,69
4694172,102
4694844,100
4695524,76
4696152,59
4696768,71
4697400,47
4698024,47
4698648,69
4699280,50
4699896,23
4700528,15
4701152,11
4701776,28
4702408,25
4703024,15
4703656,18
4704288,18
4704904,25
4705536,37
4706160,33
4706792,27
4707420,19
4708040,75
4708672,72
4709296,35
4709924,24
4710552,21
4711176,33
4711808,22
4712428,18
4713052,17
4713684,13
4714308,12
4714940,15
4715568,23
4716188,26
4716816,11
4717440,14
4718072,11
4718704,10
4719324,22
4719952,16
4720580,19
4721204,19
4721836,47
4722456,30
4723088,13
4723716,26
4724336,13
4724964,61
4725592,99
4726220,96
4726852,77
4727472,63
4728104,47
4728728,39
4729352,31
4729984,11
4730600,16
4731232,31
4731856,52
4732480,42
4733108,15
4733728,10
4734360,14
4734992,39
4735608,22
4736240,18
4736864,28
4737496,19
4738124,14
4738744,11
4739372,11
4740000,29
4740624,38
4741252,12
4741872,51
4742504,88
4743128,106
4743804,68
4744432,25
4745056,15
4745684,16
4746316,46
4746936,40
4747568,13
4748192,16
4748816,49
4749444,114
4750116,165
4750796,108
4751476,45
4752096,31
4752724,47
4753348,51
4753972,22
4754604,21
4755224,35
4755852,43
4756476,58
4757104,44
4757736,24
4758360,18
4758992,38
4759624,33
4760240,35
4760872,25
4761496,19
4762120,16
4762752,15
4763368,15
4764000,21
4764624,27
4765248,38
4765880,49
4766496,39
4767128,23
4767756,14
4768376,17
4769004,36
4769632,42
4770260,54
4770892,62
4771512,42
4772144,25
4772768,18
4773392,21
4774024,23
4774640,27
4775272,29
4775896,26
4776520,23
4777152,24
4777768,19
4778396,24
4779028,15
4779648,17
4780280,25
4780904,42
4781536,47
4782164,46
4782784,47
4783416,55
4784040,45
4784664,30
4785296,17
4785912,58
4786544,57
4787168,19
4787796,18
4788428,32
4789048,21
4789680,11
4790312,11
4790932,14
4791564,16
4792188,12
4792820,11
4793452,16
4794072,14
4794704,25
4795328,59
4795956,66
4796588,34
4797208,10
4797840,13
4798472,37
4799092,107
4799772,106
4800444,73
4801064,41
4801692,26
4802312,36
4802944,148
4803624,115
4804292,96
4804916,105
4805592,82
4806216,28
4806848,40
4807464,72
4808096,66
4808724,62
4809344,64
4809976,79
4810600,93
4811228,109
4811912,106
4812580,26
4813208,61
4813836,102
4814508,92
4815132,88
4815760,73
4816388,47
4817016,20
4817640,35
4818268,36
4818892,27
4819516,23
4820148,20
4820768,17
4821396,19
4822028,12
4822648,49
4823276,77
4823904,49
4824532,26
4825164,27
4825784,27
4826412,20
4827036,36
4827664,47
4828292,47
4828912,31
4829540,16
4830168,27
4830792,34
4831424,13
4832040,53
4832672,61
4833300,51
4833920,30
4834548,11
4835172,26
4835804,50
4836436,30
4837056,17
4837688,16
4838312,21
4838936,26
4839564,25
4840184,55
4840812,80
4841436,91
4842064,85
4842692,76
4843312,40
4843944,14
4844572,41
4845192,87
4845820,69
4846448,22
4847076,18
4847708,64
4848328,72
4848960,50
4849580,36
4850208,38
4850836,33
4851456,29
4852088,21
4852712,18
4853336,19
4853968,20
4854584,18
4855216,24
4855844,29
4856464,33
4857096,28
4857720,21
4858348,12
4858980,14
4859600,25
4860232,55
4860856,64
4861480,39
4862112,18
4862732,27
4863360,42
4863988,43
4864612,39
4865244,48
4865868,61
4866496,40
4867124,23
4867744,34
4868376,38
4869000,76
4869628,129
4870312,99
4870928,50
4871560,22
4872184,16
4872808,30
4873440,22
4874064,18
4874692,30
4875324,62
4875944,99
4876576,117
4877252,104
4877924,76
4878552,42
4879176,20
4879808,15
4880436,19
4881056,28
4881684,56
4882308,88
4882940,75
4883572,60
4884192,52
4884824,54
4885444,38
4886068,26
4886700,16
4887320,17
4887952,25
4888580,22
4889200,13
4889832,11
4890456,9
4891032,15
4891672,39
4892288,58
4892920,72
4893544,67
4894176,45
4894808,28
4895424,24
4896056,25
4896676,11
4897300,11
4897932,21
4898552,31
4899184,33
4899808,35
4900432,45
4901064,49
4901680,36
4902312,27
4902944,22
4903568,19
4904200,17
4904824,33
4905456,35
4906088,24
4906704,37
4907336,55
4907960,82
4908588,125
4909268,117
4909940,77
4910568,68
4911200,61
4911820,47
4912452,23
4913076,13
4913700,32
4914332,51
4914952,77
4915588,77
4916208,108
4916884,110
4917560,72
4918176,42
4918800,31
4919432,17
4920048,24
4920676,15
4921300,16
4921924,20
4922552,31
4923172,37
4923800,13
4924432,10
4925048,10
4925680,24
4926304,52
4926932,80
4927564,67
4928184,51
4928812,20
4929436,15
4930060,15
4930688,19
4931304,47
4931936,63
4932560,50
4933184,33
4933812,16
4934432,11
4935060,14
4935692,16
4936312,23
4936940,24
4937564,35
4938196,37
4938828,30
4939448,40
4940076,51
4940704,95
4941328,111
4942008,117
4942684,107
4943360,98
4943988,47
4944608,54
4945236,111
4945916,84
4946536,65
4947164,77
4947792,87
4948420,71
4949052,50
4949672,37
4950304,39
4950928,54
4951560,47
4952188,26
4952808,15
4953436,15
4954064,15
4954688,15
4955320,10
4955936,10
4956568,12
4957196,20
4957816,20
4958444,25
4959072,48
4959700,73
4960332,94
4960952,90
4961580,65
4962204,48
4962828,36
4963460,16
4964080,17
4964708,39
4965332,38
4965960,25
4966588,36
4967208,33
4967836,21
4968464,28
4969088,27
4969716,16
4970340,15
4970972,18
4971600,16
4972220,16
4972848,11
4973472,10
4974096,11
4974724,16
4975344,30
4975976,43
4976600,41
4977224,31
4977852,30
4978472,29
4979104,23
4979732,16
4980352,12
4980980,11
4981608,12
4982236,22
4982868,20
4983488,20
4984120,17
4984744,19
4985368,19
4986000,16
4986616,25
4987248,17
4987872,34
4988496,49
4989124,26
4989744,15
4990376,10
4991008,13
4991628,26
4992260,40
4992880,43
4993512,37
4994144,27
4994760,16
4995388,20
4996016,16
4996640,14
4997268,16
4997888,16
4998516,17
4999140,11
4999764,9
5000344,10
5000968,14
5001596,20
5002224,25
5002848,19
5003476,15
5004104,45
5004732,71
5005364,76
5005984,74
5006616,72
5007240,49
5007872,27
5008500,21
5009120,45
5009748,37
5010376,18
5011000,17
5011632,33
5012252,33
5012880,33
5013512,57
5014132,76
5014764,77
5015388,62
5016020,36
5016648,17
5017268,10
5017900,11
5018524,11
5019148,16
5019776,19
5020400,32
5021028,59
5021656,68
5022280,51
5022908,44
5023528,37
5024160,31
5024788,24
5025408,21
5026036,26
5026664,35
5027292,22
5027924,28
5028544,61
5029176,43
5029800,18
5030424,13
5031052,10
5031672,15
5032304,17
5032928,74
5033552,101
5034236,79
5034856,51
5035488,18
5036120,15
5036740,16
5037372,20
5037996,21
5038624,29
5039256,33
5039872,23
5040504,11
5041128,13
5041756,22
5042384,45
5043008,71
5043640,55
5044268,18
5044888,38
5045516,59
5046144,73
5046776,58
5047404,25
5048024,11
5048656,41
5049280,73
5049904,106
5050584,147
5051260,111
5051940,72
5052568,57
5053188,24
5053816,16
5054444,15
5055068,11
5055700,14
5056328,34
5056956,75
5057588,88
5058208,85
5058840,88
5059464,93
5060096,93
5060724,66
5061344,26
5061976,74
5062600,76
5063224,48
5063856,44
5064472,64
5065104,62
5065736,34
5066356,26
5066984,23
5067612,24
5068244,18
5068876,16
5069496,35
5070128,49
5070752,56
5071376,49
5072008,40
5072624,22
5073256,11
5073880,10
5074504,15
5075136,22
5075756,23
5076388,40
5077020,51
5077640,58
5078272,41
5078900,31
5079532,32
5080164,19
5080784,11
5081416,17
5082040,17
5082664,11
5083296,16
5083912,19
5084544,16
5085168,11
5085792,14
5086424,24
5087048,26
5087680,29
5088312,41
5088928,43
5089560,26
5090184,19
5090816,23
5091444,10
5092064,39
5092696,43
5093320,33
5093944,31
5094576,23
5095200,20
5095832,17
5096460,11
5097080,19
5097712,33
5098336,41
5098968,22
5099600,11
5100216,18
5100848,11
5101472,16
5102096,33
5102728,29
5103344,16
5103980,15
5104604,15
5105232,11
5105860,11
5106480,16
5107112,26
5107748,26
5108368,18
5109000,12
5109628,44
5110260,63
5110892,48
5111512,31
5112148,25
5112772,19
5113400,11
5114032,10
5114652,9
5115232,9
5115804,11
5116432,10
5117068,28
5117692,58
5118324,55
5118948,40
5119576,34
5120208,17
5120828,21
5121456,78
5122084,99
5122704,43
5123332,12
5123952,31
5124584,37
5125212,14
5125832,17
5126460,40
5127084,46
5127704,48
5128336,60
5128952,43
5129580,17
5130204,32
5130828,30
5131460,20
5132080,29
5132708,39
5133340,38
5133960,27
5134588,11
5135212,18
5135844,35
5136472,62
5137092,68
5137720,67
5138344,61
5138968,55
5139596,36
5140216,21
5140844,40
5141468,61
5142092,21
5142720,11
5143344,21
5143972,35
5144604,38
5145224,25
5145852,15
5146476,13
5147108,11
5147736,10
5148360,11
5148988,10
5149612,10
5150236,9
5150816,11
5151440,62
5152068,92
5152692,63
5153316,39
5153944,24
5154568,15
5155196,17
5155824,19
5156448,21
5157076,15
5157700,14
5158332,14
5158964,48
5159584,72
5160216,80
5160840,72
5161468,54
5162100,30
5162720,16
5163348,31
5163972,39
5164596,43
5165228,49
5165848,44
5166476,23
5167100,10
5167728,18
5168356,21
5168980,23
5169612,17
5170240,16
5170864,16
5171496,12
5172120,26
5172740,39
5173372,18
5173992,16
5174620,33
5175244,57
5175868,85
5176500,80
5177120,43
5177748,26
5178380,44
5179000,63
5179628,39
5180252,11
5180884,23
5181516,38
5182136,47
5182764,27
5183392,32
5184016,36
5184644,46
5185264,61
5185892,74
5186516,63
5187140,33
5187772,18
5188392,24
5189020,41
5189652,44
5190272,40
5190904,17
5191528,14
5192160,40
5192788,60
5193408,63
5194040,38
5194664,28
5195288,16
5195916,15
5196536,16
5197168,19
5197792,19
5198416,11
5199044,15
5199664,15
5200296,10
5200924,12
5201544,11
5202176,14
5202796,21
5203428,33
5204056,23
5204680,16
5205308,40
5205932,63
5206556,70
5207188,54
5207808,35
5208440,15
5209060,73
5209688,43
5210316,14
5210936,16
5211564,15
5212196,21
5212816,33
5213444,48
5214068,59
5214700,49
5215332,18
5215952,23
5216584,49
5217208,52
5217832,50
5218464,37
5219080,32
5219712,43
5220336,21
5220960,18
5221588,11
5222216,30
5222848,49
5223476,30
5224096,47
5224724,39
5225348,16
5225980,63
5226608,63
5227232,46
5227860,51
5228484,44
5229108,34
5229740,18
5230360,21
5230992,11
5231620,22
5232240,34
5232872,29
5233492,20
5234124,22
5234756,34
5235376,47
5236004,69
5236628,66
5237256,33
5237888,28
5238504,55
5239136,61
5239760,56
5240384,46
5241016,38
5241632,43
5242264,33
5242896,33
5243512,39
5244140,45
5244764,53
5245396,53
5246024,35
5246640,13
5247272,13
5247896,37
5248520,66
5249148,62
5249768,57
5250396,62
5251020,50
5251640,33
5252272,26
5252888,20
5253516,16
5254140,17
5254768,20
5255396,35
5256020,57
5256648,81
5257276,100
5257948,93
5258572,77
5259196,66
5259820,70
5260452,44
5261072,28
5261700,67
5262324,66
5262948,56
5263580,56
5264204,39
5264832,11
5265460,16
5266080,10
5266708,19
5267332,17
5267960,14
5268592,14
5269208,15
5269836,43
5270460,26
5271084,21
5271716,38
5272336,22
5272964,20
5273588,14
5274216,44
5274844,99
5275468,129
5276148,142
5276824,132
5277500,71
5278128,16
5278756,88
5279376,123
5280056,117
5280728,56
5281352,16
5281980,12
5282600,11
5283228,37
5283856,34
5284480,49
5285108,55
5285732,31
5286360,20
5286988,15
5287608,21
5288236,16
5288860,11
5289480,35
5290112,61
5290728,73
5291356,78
5291980,89
5292604,95
5293236,102
5293908,80
5294532,48
5295164,34
5295784,24
5296412,11
5297036,26
5297668,46
5298296,48
5298912,44
5299544,65
5300168,71
5300792,77
5301420,73
5302040,55
5302668,21
5303292,16
5303920,44
5304552,33
5305176,33
5305804,71
5306436,95
5307056,92
5307684,69
5308308,55
5308936,33
5309564,27
5310184,29
5310812,15
5311440,16
5312064,17
5312692,28
5313312,29
5313940,21
5314572,29
5315192,20
5315824,20
5316448,22
5317076,23
5317708,18
5318328,18
5318960,46
5319584,43
5320208,36
5320836,22
5321456,11
5322084,13
5322712,17
5323336,12
5323964,22
5324584,25
5325216,12
5325844,16
5326464,32
5327092,40
5327716,28
5328344,31
5328972,36
5329592,39
5330220,38
5330844,51
5331468,32
5332096,14
5332712,17
5333344,15
5333968,58
5334592,109
5335272,138
5335940,82
5336564,32
5337196,26
5337816,26
5338444,32
5339068,14
5339692,67
5340320,87
5340944,80
5341572,59
5342196,67
5342820,56
5343452,40
5344076,14
5344704,17
5345332,18
5345952,24
5346580,19
5347204,26
5347832,24
5348460,26
5349080,21
5349708,21
5350332,14
5350960,20
5351588,18
5352208,16
5352836,19
5353460,28
5354084,21
5354716,27
5355340,45
5355972,37
5356600,30
5357224,11
5357852,23
5358476,57
5359108,75
5359740,62
5360360,31
5360988,25
5361612,40
5362236,30
5362868,40
5363488,80
5364116,100
5364800,102
5365468,65
5366096,20
5366716,26
5367340,51
5367972,46
5368592,16
5369220,24
5369844,18
5370468,15
5371100,27
5371724,78
5372356,80
5372984,27
5373604,10
5374232,11
5374856,24
5375488,33
5376120,11
5376732,23
5377364,34
5377984,21
5378608,19
5379236,49
5379856,73
5380484,69
5381108,36
5381732,10
5382360,13
5382984,33
5383616,46
5384244,50
5384864,69
5385492,81
5386116,71
5386748,61
5387376,50
5388000,17
5388628,30
5389252,61
5389876,85
5390508,101
5391180,132
5391860,150
5392540,140
5393212,98
5393836,62
5394468,20
5395088,15
5395720,29
5396344,61
5396972,65
5397604,43
5398224,31
5398856,27
5399480,38
5400104,41
5400732,41
5401352,40
5401984,64
5402608,63
5403232,47
5403860,41
5404484,29
5405116,15
5405744,42
5406368,59
5407000,53
5407624,15
5408252,33
5408880,39
5409504,16
5410132,47
5410756,56
5411380,25
5412008,15
5412632,25
5413260,39
5413884,30
5414512,32
5415140,35
5415764,51
5416396,35
5417024,14
5417648,13
5418276,29
5418900,14
5419528,21
5420156,20
5420776,26
5421408,35
5422032,22
5422656,13
5423284,13
5423904,52
5424536,76
5425164,97
5425784,93
5426416,67
5427040,63
5427668,47
5428300,30
5428920,18
5429548,12
5430172,23
5430796,41
5431428,64
5432048,87
5432676,74
5433300,38
5433924,15
5434556,16
5435176,25
5435808,25
5436436,34
5437056,23
5437688,15
5438312,13
5438940,36
5439572,18
5440192,10
5440820,12
5441444,15
5442064,20
5442696,29
5443312,36
5443940,29
5444564,16
5445188,44
5445816,47
5446440,21
5447068,15
5447700,19
5448320,11
5448948,25
5449572,12
5450200,13
5450828,27
5451448,23
5452076,24
5452700,45
5453328,64
5453956,66
5454576,69
5455204,54
5455828,31
5456452,19
5457084,51
5457704,85
5458332,62
5458964,14
5459584,27
5460212,20
5460836,33
5461468,21
5462096,17
5462716,40
5463344,43
5463968,15
5464592,27
5465220,59
5465840,49
5466468,33
5467092,25
5467716,17
5468348,26
5468968,53
5469596,53
5470228,55
5470848,51
5471476,65
5472104,66
5472732,46
5473364,28
5473984,17
5474612,10
5475236,34
5475860,40
5476492,36
5477112,37
5477744,25
5478368,17
5478992,23
5479624,33
5480240,44
5480872,65
5481500,61
5482120,19
5482748,10
5483372,16
5484004,11
5484636,13
5485256,14
5485884,15
5486512,16
5487136,17
5487764,19
5488384,11
5489012,27
5489636,73
5490260,63
5490892,15
5491512,51
5492140,67
5492772,100
5493444,120
5494120,103
5494800,33
5495424,50
5496056,55
5496680,15
5497308,13
5497940,18
5498560,23
5499188,24
5499816,32
5500440,26
5501072,29
5501688,53
5502320,62
5502944,36
5503568,18
5504200,16
5504816,23
5505444,29
5506076,24
5506696,69
5507324,62
5507948,42
5508580,12
5509212,44
5509832,51
5510460,48
5511084,28
5511708,18
5512340,18
5512960,34
5513588,28
5514216,11
5514840,11
5515472,13
5516088,25
5516720,16
5517352,11
5517968,10
5518600,15
5519224,21
5519856,25
5520488,35
5521104,36
5521736,30
5522360,33
5522984,11
5523616,37
5524232,78
5524864,102
5525544,85
5526160,77
5526792,75
5527416,69
5528048,51
5528676,40
5529296,34
5529928,28
5530548,20
5531172,41
5531804,12
5532424,83
5533052,67
5533676,48
5534304,73
5534932,88
5535556,51
5536188,22
5536816,15
5537440,20
5538068,45
5538692,46
5539324,18
5539956,14
5540576,11
5541204,11
5541828,31
5542456,91
5543084,120
5543756,85
5544384,47
5545012,25
5545632,17
5546260,9
5546832,10
5547472,9
5548052,12
5548676,37
5549308,61
5549932,57
5550564,62
5551196,52
5551816,36
5552448,23
5553072,15
5553696,31
5554328,68
5554944,87
5555576,79
5556200,48
5556824,14
5557452,46
5558072,47
5558704,11
5559336,16
5559952,28
5560584,15
5561212,27
5561840,23
5562468,33
5563088,11
5563720,24
5564344,18
5564968,22
5565600,28
5566216,33
5566848,38
5567472,14
5568096,40
5568728,66
5569352,104
5570036,46
5570664,15
5571280,12
5571908,11
5572532,19
5573156,39
5573788,14
5574408,16
5575036,18
5575660,33
5576288,25
5576916,16
5577540,16
5578172,31
5578804,22
5579424,11
5580056,11
5580680,15
5581312,55
5581940,118
5582612,96
5583240,71
5583864,48
5584488,25
5585116,17
5585744,35
5586372,51
5587004,92
5587624,125
5588304,136
5588980,157
5589652,135
5590332,84
5590952,67
5591580,14
5592208,32
5592832,26
5593464,13
5594088,39
5594712,46
5595344,74
5595964,59
5596592,12
5597224,16
5597844,67
5598476,110
5599152,96
5599772,66
5600404,67
5601024,77
5601652,78
5602276,35
5602900,33
5603532,60
5604152,60
5604784,40
5605412,67
5606032,99
5606664,69
5607284,19
5607916,25
5608548,15
5609168,31
5609796,52
5610420,68
5611044,19
5611676,84
5612296,150
5612976,127
5613656,74
5614280,54
5614908,14
5615532,25
5616160,17
5616788,14
5617408,11
5618036,14
5618664,24
5619288,56
5619916,80
5620536,78
5621168,64
5621796,46
5622416,28
5623044,13
5623668,21
5624300,21
5624932,39
5625552,39
5626184,42
5626808,48
5627432,29
5628064,15
5628680,34
5629312,53
5629936,89
5630564,93
5631192,43
5631820,12
5632452,10
5633080,24
5633704,12
5634332,31
5634956,31
5635584,13
5636216,50
5636832,92
5637464,113
5638136,98
5638760,90
5639388,52
5640012,31
5640640,14
5641272,67
5641888,77
5642520,68
5643144,66
5643772,41
5644404,16
5645024,16
5645652,17
5646276,28
5646900,42
5647532,34
5648152,32
5648780,39
5649404,58
5650032,73
5650664,76
5651288,50
5651916,15
5652548,28
5653168,80
5653796,125
5654472,92
5655088,16
5655716,19
5656336,19
5656964,12
5657588,16
5658216,18
5658844,20
5659468,32
5660100,19
5660728,30
5661352,21
5661984,32
5662608,26
5663236,25
5663868,14
5664488,52
5665116,64
5665740,68
5666364,28
5666996,22
5667616,63
5668244,107
5668928,148
5669596,116
5670276,62
5670896,88
5671520,90
5672152,97
5672776,31
5673404,47
5674036,15
5674656,34
5675288,21
5675912,23
5676540,14
5677172,62
5677792,119
5678476,91
5679096,67
5679720,81
5680352,98
5680976,65
5681604,43
5682236,14
5682856,18
5683488,12
5684112,12
5684740,18
5685372,14
5685992,43
5686624,88
5687248,83
5687868,16
5688500,87
5689120,127
5689800,88
5690428,37
5691048,33
5691680,42
5692304,45
5692932,49
5693564,28
5694184,15
5694816,14
5695440,15
5696064,16
5696692,28
5697312,22
5697940,13
5698572,34
5699192,73
5699824,96
5700448,106
5701128,117
5701812,69
5702432,36
5703060,16
5703692,53
5704312,105
5704996,155
5705668,102
5706340,15
5706968,35
5707592,64
5708224,140
5708904,199
5709580,178
5710260,88
5710888,33
5711504,94
5712136,182
5712812,176
5713484,151
5714164,129
5714836,85
5715460,62
5716092,39
5716712,47
5717344,46
5717968,37
5718592,16
5719224,58
5719840,111
5720524,120
5721204,97
5721824,67
5722456,55
5723080,65
5723704,67
5724336,25
5724952,19
5725584,45
5726216,55
5726836,29
5727464,21
5728092,24
5728720,15
5729352,12
5729972,38
5730604,36
5731228,18
5731852,18
5732484,37
5733104,83
5733736,60
5734364,12
5734988,22
5735620,20
5736240,54
5736868,17
5737500,24
5738120,44
5738748,60
5739372,37
5740004,11
5740636,13
5741256,12
5741884,32
5742512,70
5743136,87
5743764,58
5744384,42
5745012,18
5745636,61
5746260,92
5746892,87
5747512,86
5748140,40
5748772,35
5749392,80
5750024,80
5750648,17
5751276,43
5751908,30
5752528,15
5753160,15
5753784,21
5754408,18
5755036,34
5755656,93
5756288,98
5756912,72
5757536,39
5758168,37
5758792,32
5759424,35
5760056,61
5760672,77
5761300,19
5761920,47
5762552,57
5763180,42
5763800,24
5764428,16
5765052,21
5765676,19
5766304,28
5766928,27
5767556,43
5768180,24
5768804,24
5769432,42
5770060,61
5770688,73
5771316,24
5771936,44
5772564,47
5773192,21
5773820,14
5774452,22
5775072,39
5775704,81
5776328,56
5776948,38
5777580,37
5778200,16
5778828,15
5779452,42
5780080,53
5780708,38
5781332,17
5781964,78
5782592,78
5783216,72
5783844,98
5784472,114
5785148,95
5785776,20
5786392,102
5787072,92
5787700,16
5788320,49
5788948,43
5789572,45
5790204,39
5790836,33
5791456,80
5792084,122
5792760,116
5793428,35
5794052,24
5794676,119
5795360,102
5796036,21
5796656,10
5797284,10
5797916,30
5798536,226
5799216,344
5799892,188
5800564,100
5801240,132
5801916,140
5802588,139
5803268,69
5803888,38
5804516,38
5805148,19
5805768,24
5806396,54
5807024,119
5807700,188
5808380,206
5809052,187
5809724,182
5810404,141
5811076,70
5811704,16
5812332,21
5812952,13
5813584,28
5814208,62
5814832,77
5815464,58
5816080,46
5816712,37
5817336,36
5817960,15
5818588,54
5819212,82
5819844,80
5820472,83
5821096,67
5821728,43
5822352,11
5822984,15
5823612,10
5824232,25
5824860,17
5825484,37
5826108,61
5826740,39
5827360,40
5827988,17
5828620,57
5829240,51
5829868,28
5830492,11
5831124,35
5831756,39
5832376,111
5833060,104
5833740,130
5834412,174
5835092,176
5835764,163
5836436,100
5837116,48
5837736,14
5838360,33
5838992,75
5839608,63
5840240,24
5840860,35
5841484,67
5842116,80
5842736,77
5843364,35
5843996,33
5844616,107
5845296,121
5845972,97
5846592,41
5847220,11
5847840,11
5848468,41
5849100,81
5849720,54
5850348,33
5850976,34
5851604,33
5852236,32
5852856,100
5853536,114
5854220,48
5854840,35
5855472,12
5856096,13
5856724,12
5857356,12
5857976,29
5858604,75
5859232,121
5859904,120
5860588,89
5861208,100
5861888,127
5862572,47
5863192,35
5863824,55
5864452,64
5865072,111
5865756,207
5866428,238
5867100,224
5867780,163
5868452,116
5869124,58
5869752,19
5870368,33
5871000,86
5871632,106
5872304,84
5872928,31
5873552,13
5874184,29
5874816,95
5875432,144
5876116,134
5876796,91
5877416,55
5878048,42
5878676,22
5879304,26
5879936,44
5880556,47
5881184,20
5881812,11
5882436,15
5883068,19
5883688,27
5884320,89
5884948,128
5885620,30
5886248,16
5886872,16
5887496,19
5888128,11
5888752,20
5889380,32
5890004,42
5890628,13
5891260,59
5891880,85
5892508,126
5893192,138
5893860,94
5894488,45
5895112,17
5895736,17
5896368,24
5896984,20
5897616,16
5898244,23
5898864,49
5899492,18
5900116,77
5900748,108
5901432,90
5902048,74
5902680,98
5903304,136
5903980,115
5904660,102
5905332,26
5905952,17
5906580,31
5907200,40
5907828,53
5908456,62
5909080,54
5909708,45
5910328,32
5910960,37
5911588,39
5912208,39
5912840,18
5913464,12
5914096,47
5914724,17
5915344,28
5915976,31
5916600,12
5917224,18
5917856,12
5918472,23
5919104,16
5919728,23
5920352,26
5920980,60
5921604,117
5922284,98
5922908,54
5923528,45
5924156,25
5924780,42
5925408,71
5926036,62
5926656,31
5927284,21
5927908,26
5928536,34
5929164,58
5929784,81
5930412,50
5931044,12
5931664,51
5932296,33
5932920,13
5933548,26
5934180,10
5934800,40
5935428,45
5936056,35
5936680,51
5937308,79
5937928,75
5938560,61
5939184,81
5939808,108
5940492,26
5941112,73
5941740,76
5942372,87
5942992,111
5943676,74
5944296,17
5944920,50
5945548,59
5946168,49
5946796,29
5947428,18
5948048,21
5948676,13
5949304,23
5949932,22
5950564,13
5951184,16
5951816,39
5952440,18
5953064,52
5953692,56
5954312,59
5954944,21
5955568,27
5956192,73
5956820,84
5957444,53
5958076,20
5958708,24
5959328,24
5959960,17
5960584,45
5961212,42
5961844,14
5962464,24
5963092,20
5963720,15
5964344,12
5964976,20
5965592,23
5966224,26
5966852,15
5967472,14
5968104,18
5968728,13
5969356,26
5969988,30
5970608,22
5971236,14
5971860,31
5972488,52
5973116,38
5973736,42
5974368,55
5974992,28
5975620,15
5976248,63
5976872,59
5977504,87
5978136,82
5978752,86
5979384,54
5980012,33
5980640,128
5981324,191
5981996,174
5982676,151
5983356,131
5984028,124
5984704,100
5985388,104
5986060,80
5986688,17
5987312,91
5987936,153
5988620,134
5989292,97
5989912,83
5990544,66
5991160,90
5991792,103
5992476,98
5993096,59
5993728,31
5994352,17
5994980,20
5995612,26
5996232,21
5996864,22
5997488,43
5998112,73
5998744,54
5999360,12
5999992,52
6000620,31
6001244,16
6001872,32
6002496,30
6003128,27
6003756,48
6004376,33
6005008,13
6005632,33
6006260,35
6006892,42
6007512,81
6008144,100
6008820,78
6009440,47
6010072,48
6010696,58
6011328,69
6011960,52
6012576,20
6013208,11
6013832,35
6014464,46
6015096,11
6015712,22
6016344,30
6016972,12
6017592,58
6018224,44
6018848,41
6019476,130
6020160,138
6020836,119
6021516,118
6022196,59
6022816,12
6023444,29
6024072,39
6024700,49
6025332,70
6025952,107
6026636,108
6027316,64
6027936,55
6028568,71
6029192,57
6029824,15
6030452,18
6031072,10
6031704,13
6032328,15
6032952,19
6033584,33
6034204,100
6034884,74
6035512,16
6036132,18
6036760,32
6037388,21
6038020,19
6038652,18
6039272,31
6039904,37
6040528,11
6041156,60
6041788,84
6042408,74
6043036,66
6043668,67
6044288,32
6044916,17
6045544,45
6046172,27
6046804,62
6047424,123
6048108,132
6048784,83
6049408,40
6050040,13
6050664,45
6051296,71
6051924,51
6052544,16
6053176,15
6053800,17
6054424,14
6055052,11
6055672,17
6056304,13
6056928,20
6057552,47
6058184,25
6058804,41
6059436,72
6060068,56
6060688,51
6061320,48
6061948,43
6062580,59
6063208,52
6063828,46
6064460,42
6065084,25
6065708,17
6066340,28
6066960,29
6067592,39
6068216,63
6068840,61
6069468,40
6070096,35
6070724,12
6071356,12
6071976,15
6072608,13
6073236,13
6073864,13
6074496,16
6075112,44
6075744,71
6076372,74
6076996,55
6077628,16
6078248,16
6078880,18
6079508,10
6080132,14
6080760,18
6081384,29
6082012,38
6082644,51
6083264,21
6083892,15
6084516,32
6085144,35
6085772,34
6086392,49
6087024,76
6087648,24
6088272,30
6088904,47
6089520,62
6090152,76
6090784,87
6091400,87
6092032,99
6092656,103
6093340,79
6093968,35
6094584,16
6095212,27
6095840,19
6096464,36
6097096,58
6097712,38
6098344,11
6098976,9
6099540,20
6100176,12
6100792,25
6101424,41
6102056,39
6102676,29
6103308,19
6103932,13
6104564,29
6105192,63
6105816,81
6106448,79
6107072,24
6107696,32
6108328,90
6108944,109
6109628,31
6110256,73
6110876,71
6111508,28
6112132,16
6112764,28
6113396,82
6114016,105
6114700,69
6115320,25
6115948,11
6116576,36
6117204,12
6117836,22
6118468,22
6119088,17
6119720,14
6120344,18
6120968,19
6121596,55
6122220,64
6122852,24
6123476,11
6124100,24
6124732,33
6125352,31
6125984,58
6126616,62
6127240,48
6127872,29
6128496,37
6129128,22
6129760,21
6130380,15
6131012,21
6131636,26
6132264,58
6132892,80
6133512,70
6134148,17
6134772,45
6135396,47
6136028,52
6136656,91
6137288,69
6137920,30
6138540,19
6139172,34
6139796,67
6140424,75
6141056,62
6141676,78
6142308,60
6142936,23
6143560,41
6144196,52
6144816,19
6145444,22
6146072,10
6146692,11
6147320,17
6147944,21
6148572,68
6149204,122
6149876,61
6150500,17
6151124,41
6151748,27
6152380,18
6153000,37
6153628,57
6154260,57
6154880,56
6155508,35
6156132,16
6156764,15
6157396,16
6158016,27
6158644,48
6159272,48
6159896,63
6160528,94
6161144,55
6161772,15
6162396,11
6163024,33
6163656,63
6164272,131
6164952,142
6165632,89
6166256,41
6166884,47
6167508,48
6168136,28
6168764,34
6169384,22
6170016,16
6170644,14
6171264,56
6171892,88
6172520,92
6173148,99
6173780,102
6174452,114
6175132,93
6175760,77
6176376,69
6177008,59
6177632,51
6178260,16
6178892,45
6179512,62
6180144,75
6180768,60
6181392,72
6182024,37
6182640,19
6183272,39
6183896,21
6184520,46
6185152,86
6185768,69
6186396,62
6187028,24
6187648,20
6188276,29
6188904,20
6189532,11
6190164,16
6190784,11
6191416,18
6192040,27
6192664,29
6193292,18
6193912,15
6194544,55
6195168,135
6195848,190
6196520,226
6197196,200
6197868,124
6198544,68
6199168,214
6199852,223
6200532,184
6201204,107
6201884,90
6202512,21
6203128,51
6203760,51
6204384,24
6205008,15
6205640,20
6206256,18
6206888,39
6207516,34
6208136,81
6208768,108
6209444,130
6210116,72
6210744,16
6211360,31
6211992,34
6212620,16
6213240,71
6213872,139
6214548,202
6215224,169
6215900,125
6216572,73
6217200,28
6217828,19
6218448,50
6219080,68
6219704,66
6220328,31
6220960,11
6221576,22
6222208,54
6222832,66
6223456,68
6224088,75
6224712,65
6225344,71
6225976,75
6226592,88
6227220,108
6227896,102
6228572,49
6229196,17
6229816,81
6230448,121
6231128,130
6231796,108
6232476,49
6233104,13
6233720,12
6234352,17
6234976,103
6235660,123
6236340,98
6236960,56
6237588,37
6238220,16
6238840,109
6239524,135
6240196,56
6240816,13
6241444,31
6242064,46
6242692,21
6243316,19
6243944,17
6244572,19
6245196,15
6245828,10
6246460,22
6247080,13
6247708,49
6248332,89
6248960,51
6249592,22
6250208,11
6250840,13
6251464,59
6252088,106
6252768,80
6253392,65
6254024,48
6254652,21
6255272,12
6255904,15
6256528,10
6257160,13
6257788,16
6258408,35
6259036,46
6259664,76
6260288,97
6260920,99
6261536,86
