tempo_arduino_micro_s,valor_ADC
500,110
1056,164
1556,174
2084,165
2588,122
3112,52
3580,191
4092,166
4612,104
5140,101
5644,94
6112,40
6588,16
7056,23
7528,23
8000,11
8500,15
9000,12
9500,16
10000,70
10508,94
11028,133
11608,139
12176,66
12700,29
13220,21
13740,109
14312,43
14836,114
15416,90
15932,37
16460,11
16980,119
17560,279
18128,134
18708,47
19228,33
19756,18
20276,16
20804,16
21324,33
21852,27
22372,9
22840,15
23364,14
23892,11
24412,27
24940,40
25460,71
25988,108
26560,117
27136,105
27712,36
28228,15
28756,28
29276,44
29804,37
30324,23
30852,13
31372,13
31900,14
32424,55
32948,87
33468,54
33996,21
34516,48
35044,51
35564,42
36092,89
36612,67
37140,19
37660,26
38188,16
38708,10
39236,22
39756,11
40284,14
40804,92
41332,159
41908,177
42480,157
43064,115
43632,18
44156,103
44732,138
45312,111
45884,94
46412,105
46984,45
47516,13
48036,31
48556,60
49076,136
49652,163
50232,109
50804,69
51332,20
51852,134
52432,84
52948,35
53476,58
53996,87
54524,69
55044,44
55572,21
56092,33
56620,11
57140,11
57668,41
58188,44
58716,57
59240,74
59764,64
60284,55
60812,33
61332,21
61856,28
62372,25
62892,31
63412,23
63932,17
64456,16
64972,33
65492,54
66012,69
66532,54
67052,28
67572,11
68092,35
68620,87
69140,117
69720,65
70236,26
70764,18
71284,26
71812,119
72388,141
72968,83
73484,20
74012,128
74588,253
75168,201
75740,182
76316,37
76844,251
77416,262
78000,48
78516,38
79044,49
79564,37
80092,87
80612,82
81140,15
81660,15
82188,10
82708,83
83236,177
83808,130
84392,72
84908,78
85428,55
85948,23
86468,14
86988,16
87508,23
88028,31
88548,38
89068,33
89588,18
90112,44
90636,52
91164,78
91688,93
92212,100
92784,35
93316,17
93836,11
94364,22
94888,17
95412,15
95932,14
96460,15
96980,12
97508,17
98028,28
98556,28
99080,19
99604,11
100124,12
100696,72
101268,65
101840,49
102424,63
102992,49
103568,39
104136,137
104764,164
105384,160
106004,77
106580,34
107148,101
107780,124
108400,63
108976,19
109552,13
110120,30
110704,36
111272,50
111856,58
112428,51
113008,37
113576,56
114156,45
114736,26
115304,18
115888,55
116456,56
117040,42
117608,22
118192,20
118760,18
119336,18
119920,21
120492,16
121072,33
121644,43
122224,13
122796,58
123372,32
123952,63
124524,43
125104,26
125672,15
126256,76
126828,138
127460,135
128088,74
128652,37
129232,26
129800,96
130384,114
131004,119
131628,97
132204,66
132772,34
133352,15
133920,10
134504,16
135072,21
135640,28
136224,37
136792,30
137376,19
137944,24
138528,19
139096,24
139680,34
140248,31
140824,37
141408,40
141976,64
142560,106
143180,87
143760,91
144328,94
144904,67
145488,20
146056,78
146640,47
147208,11
147792,10
148364,33
148944,37
149520,66
150092,37
150672,40
151244,56
151824,41
152396,20
152976,15
153544,43
154124,67
154704,19
155272,11
155856,73
156428,164
157060,144
157680,47
158252,17
158832,25
159404,22
159984,25
160556,46
161136,43
161704,46
162280,39
162864,34
163432,11
164016,11
164584,9
165108,16
165680,23
166264,21
166832,22
167408,36
167984,88
168552,110
169188,109
169804,66
170380,26
170952,49
171528,16
172112,20
172680,32
173264,84
173832,187
174468,138
175088,43
175660,19
176240,28
176808,40
177392,36
177960,22
178544,23
179116,31
179692,26
180272,14
180840,11
181424,12
181992,11
182576,10
183144,13
183728,10
184296,13
184872,13
185456,23
186024,20
186608,39
187176,27
187760,32
188328,66
188904,55
189488,27
190056,11
190640,22
191212,35
191792,31
192364,42
192944,61
193512,88
194088,115
194724,82
195288,59
195872,39
196440,24
197024,73
197596,132
198224,120
198852,56
199420,28
200000,28
200568,41
201144,49
201712,42
202288,19
202872,18
203444,49
204024,63
204596,75
205176,83
205752,14
206320,11
206904,30
207472,47
208056,27
208624,33
209200,40
209768,15
210344,11
210912,43
211488,73
212072,49
212640,18
213224,21
213792,39
214376,95
214948,88
215520,101
216156,58
216724,38
217304,13
217872,14
218456,11
219024,27
219600,76
220184,123
220804,132
221432,117
222048,132
222676,21
223256,84
223824,92
224408,85
224980,112
225612,42
226180,67
226760,79
227336,22
227904,103
228540,124
229156,82
229736,25
230308,65
230884,91
231464,118
232088,86
232660,30
233232,11
233816,10
234384,14
234964,14
235544,26
236112,14
236696,16
237268,19
237848,18
238416,12
239000,13
239572,27
240148,44
240728,38
241296,27
241880,21
242448,47
243032,98
243604,111
244228,97
244808,59
245376,16
245952,51
246520,40
247104,33
247672,40
248256,39
248824,28
249400,23
249984,13
250552,12
251136,16
251708,11
252288,13
252856,14
253432,25
254016,29
254588,19
255168,37
255740,67
256320,50
256896,49
257472,38
258040,17
258616,65
259192,26
259760,100
260396,90
260964,34
261544,23
262112,27
262688,39
263272,21
263840,46
264424,141
265044,147
265672,61
266248,22
266816,25
267392,23
267960,18
268544,36
269116,43
269696,29
270264,19
270840,30
271424,54
271992,50
272576,13
273144,45
273728,40
274300,11
274880,20
275448,18
276024,30
276608,65
277176,42
277760,24
278328,17
278912,32
279484,43
280060,27
280640,14
281208,25
281792,29
282360,26
282944,23
283512,59
284096,60
284668,35
285244,70
285824,59
286396,32
286976,22
287552,15
288136,20
288704,33
289272,42
289856,51
290424,52
291008,54
291580,62
292160,77
292728,75
293312,74
293884,51
294460,35
295040,48
295608,63
296192,44
296764,16
297344,12
297916,15
298492,19
299072,68
299644,83
300224,23
300796,49
301376,137
302008,125
302628,66
303208,18
303780,31
304360,56
304940,79
305520,101
306152,145
306776,124
307404,90
307968,39
308552,20
309124,72
309704,69
310280,27
310852,14
311432,14
312004,19
312584,47
313156,32
313736,35
314316,18
314892,36
315472,16
316044,28
316624,11
317196,12
317776,100
318408,101
319028,114
319660,92
320228,67
320808,36
321376,15
321960,20
322528,38
323108,61
323688,64
324256,59
324840,73
325408,86
325992,93
326564,88
327136,26
327720,13
328288,13
328864,26
329432,17
330008,43
330576,72
331160,84
331732,49
332304,17
332888,118
333508,165
334136,24
334704,95
335288,101
335916,106
336536,140
337164,45
337732,118
338364,163
338992,185
339608,203
340236,126
340856,34
341432,21
342004,53
342576,35
343160,48
343728,67
344312,62
344884,26
345464,38
346036,69
346608,40
347192,35
347764,11
348344,32
348912,53
349496,17
350064,19
350648,12
351220,29
351796,48
352376,53
352944,42
353528,27
354096,16
354680,26
355252,78
355828,68
356408,41
356980,50
357560,50
358132,13
358712,15
359288,73
359872,105
360500,82
361064,55
361648,28
362216,22
362800,19
363368,42
363952,68
364524,68
365100,13
365680,22
366248,18
366832,22
367404,91
367984,173
368608,157
369232,67
369808,16
370376,38
370960,48
371532,83
372112,99
372684,139
373312,79
373888,15
374456,64
375040,105
375660,120
376292,108
376920,98
377484,83
378064,51
378636,18
379216,15
379792,17
380372,19
380952,27
381524,43
382104,69
382676,83
383256,136
383888,114
384516,41
385092,22
385664,47
386240,65
386808,75
387392,69
387964,48
388544,31
389116,51
389692,47
390272,73
390844,136
391476,167
392100,140
392720,34
393296,11
393868,70
394448,79
395020,40
395600,41
396172,18
396752,161
397380,102
398000,34
398576,47
399148,40
399728,94
400308,113
400932,41
401512,25
402080,14
402664,13
403236,18
403816,24
404388,41
404964,12
405544,23
406116,28
406696,35
407268,30
407848,13
408420,14
409000,10
409572,42
410148,74
410728,116
411348,131
411976,101
412596,54
413168,23
413744,62
414312,73
414896,91
415464,75
416048,36
416616,17
417192,16
417760,21
418336,25
418912,71
419484,59
420064,50
420632,40
421216,29
421784,14
422360,30
422944,22
423512,19
424096,31
424664,39
425248,45
425816,58
426400,65
426968,60
427544,47
428128,25
428700,16
429280,29
429848,51
430432,53
431000,50
431580,66
432160,14
432728,11
433312,47
433880,73
434464,105
435088,119
435716,71
436292,46
436864,62
437440,62
438012,47
438592,32
439164,12
439744,29
440316,32
440892,39
441472,58
442044,69
442624,82
443196,135
443828,141
444460,126
445080,119
445708,45
446276,20
446856,21
447428,61
448004,74
448584,23
449152,57
449736,67
450308,36
450888,121
451508,152
452132,175
452760,123
453376,42
453952,15
454524,16
455104,30
455676,34
456252,16
456832,42
457400,19
457984,27
458556,34
459136,32
459708,38
460284,45
460864,35
461432,27
462016,15
462588,14
463168,11
463740,14
464320,10
464888,24
465464,22
466048,22
466616,31
467200,29
467768,17
468352,17
468924,22
469500,42
470080,49
470652,42
471232,17
471804,15
472384,16
472956,31
473536,28
474120,24
474692,12
475272,30
475844,40
476424,66
476996,106
477628,65
478200,46
478772,42
479352,19
479924,49
480504,40
481080,11
481664,27
482232,20
482812,40
483392,35
483964,28
484544,66
485116,81
485696,108
486328,81
486900,18
487480,35
488052,49
488632,15
489204,15
489784,43
490356,46
490936,49
491508,15
492084,22
492664,46
493236,31
493816,100
494436,55
495016,14
495588,19
496164,17
496744,84
497312,83
497896,33
498468,47
499048,42
499620,22
500192,13
500776,11
501348,19
501928,13
502500,18
503080,13
503652,21
504232,16
504804,29
505380,42
505960,34
506532,27
507112,38
507692,53
508272,75
508844,96
509420,89
510000,63
510576,34
511152,20
511728,14
512308,27
512880,24
513456,27
514024,33
514600,32
515184,18
515756,15
516336,23
516904,15
517488,11
518056,11
518632,37
519216,44
519784,35
520368,38
520936,95
521520,83
522092,13
522672,22
523240,10
523816,11
524400,13
524968,21
525552,19
526120,32
526704,53
527276,67
527852,58
528432,33
529000,54
529584,53
530156,42
530736,43
531308,43
531888,37
532460,56
533036,67
533616,68
534188,43
534768,76
535340,78
535920,47
536500,14
537076,29
537656,43
538224,56
538808,54
539376,11
539960,37
540532,81
541112,79
541684,31
542260,13
542840,72
543412,79
543992,32
544564,23
545144,21
545716,14
546292,21
546872,84
547444,71
548024,35
548592,27
549176,26
549748,32
550328,19
550908,10
551484,20
552064,24
552636,26
553216,19
553796,35
554376,81
554948,122
555576,91
556152,30
556724,43
557304,19
557884,24
558464,35
559044,30
559620,21
560200,13
560772,23
561352,30
561924,37
562504,17
563076,12
563656,11
564240,10
564808,24
565392,65
565964,63
566544,43
567116,27
567696,26
568276,17
568852,18
569432,19
570004,17
570584,45
571156,67
571736,67
572316,64
572892,20
573472,82
574044,51
574624,32
575196,95
575776,85
576356,73
576936,77
577508,58
578084,16
578664,14
579232,24
579816,81
580388,113
581020,75
581592,35
582164,74
582744,57
583316,53
583896,69
584476,15
585056,29
585628,28
586200,15
586784,54
587356,60
587936,31
588508,46
589088,31
589668,48
590248,87
590820,55
591396,15
591976,24
592548,38
593128,32
593700,16
594280,17
594860,14
595436,14
596016,20
596588,12
597168,11
597740,16
598320,17
598900,10
599480,14
600060,13
600636,21
601216,12
601788,12
602368,17
602940,18
603520,19
604100,22
604676,32
605256,51
605828,77
606408,65
606980,55
607560,39
608140,31
608720,23
609296,56
609868,110
610500,116
611120,24
611696,24
612276,28
612852,14
613432,36
614008,67
614588,78
615156,52
615736,76
616308,94
616888,97
617460,63
618036,20
618616,12
619188,19
619768,18
620348,15
620928,15
621500,24
622076,46
622656,33
623228,17
623808,51
624384,47
624960,45
625528,74
626112,64
626696,14
627268,13
627848,21
628420,16
629000,14
629572,15
630152,11
630732,12
631308,10
631888,13
632464,11
633040,24
633620,12
634200,19
634772,15
635348,13
635928,27
636500,37
637080,23
637652,16
638232,15
638812,13
639392,50
639972,33
640548,13
641128,14
641696,10
642280,19
642848,25
643432,61
644004,50
644576,16
645160,40
645728,50
646312,35
646884,32
647464,36
648036,29
648616,10
649188,18
649764,10
650344,26
650916,30
651496,13
652068,26
652648,39
653220,46
653796,16
654376,67
654948,53
655528,15
656100,41
656680,62
657248,50
657824,64
658396,51
658972,25
659552,73
660124,89
660704,70
661276,96
661856,90
662428,49
663000,24
663584,62
664156,67
664736,50
665308,48
665888,12
666456,9
666980,19
667552,42
668128,40
668712,45
669284,76
669864,34
670436,24
671016,27
671588,13
672168,10
672736,25
673304,42
673888,51
674460,16
675040,11
675612,61
676192,57
676760,39
677340,35
677920,40
678492,16
679072,42
679644,48
680224,49
680792,60
681376,39
681948,14
682520,22
683104,24
683676,11
684256,37
684828,26
685408,13
685980,19
686556,18
687136,20
687708,62
688288,83
688856,102
689492,115
690116,40
690684,62
691264,22
691832,34
692416,10
692988,12
693568,27
694140,56
694720,31
695292,18
695868,39
696448,40
697020,29
697600,16
698168,40
698752,33
699324,44
699900,18
700480,11
701052,11
701632,12
702204,62
702784,38
703364,18
703944,13
704520,14
705092,10
705672,40
706244,75
706824,61
707396,35
707976,41
708548,41
709124,14
709704,20
710276,46
710856,84
711428,60
712008,32
712584,15
713168,41
713744,49
714316,45
714896,81
715468,113
716100,29
716672,22
717256,26
717840,21
718412,15
718992,20
719564,31
720144,21
720712,18
721296,29
721864,16
722444,23
723024,22
723596,11
724176,10
724744,16
725328,13
725900,14
726480,15
727064,15
727636,34
728216,19
728788,26
729368,28
729948,15
730528,16
731100,14
731676,10
732256,10
732828,10
733408,9
733928,17
734504,15
735084,42
735664,16
736244,35
736820,35
737400,30
737972,24
738552,41
739124,40
739704,36
740276,31
740852,41
741432,58
742004,14
742584,57
743152,63
743736,52
744308,70
744888,110
745524,108
746144,75
746720,44
747292,47
747872,35
748444,87
749020,67
749600,39
750172,36
750752,11
751324,15
751904,24
752484,15
753064,38
753636,33
754212,14
754792,17
755364,19
755944,10
756516,48
757096,110
757728,43
758300,21
758880,49
759452,63
760032,82
760612,101
761244,103
761876,90
762444,59
763024,32
763596,12
764176,114
764808,145
765436,83
766012,58
766588,40
767168,26
767744,11
768324,28
768896,54
769480,54
770056,62
770628,55
771208,46
771776,18
772360,41
772932,12
773512,53
774092,38
774668,21
775248,11
775820,23
776400,40
776980,26
777560,57
778132,94
778708,110
779340,80
779908,12
780488,25
781060,76
781640,165
782260,133
782884,39
783460,39
784032,71
784616,89
785188,90
785768,67
786348,59
786924,157
787556,118
788176,73
788752,57
789324,26
789904,17
790476,27
791052,35
791632,57
792204,88
792784,99
793364,95
793944,78
794524,67
795100,17
795680,51
796256,25
796832,21
797404,28
797984,15
798564,14
799144,26
799724,24
800300,29
800880,14
801448,20
802032,14
802604,26
803184,15
803756,50
804332,42
804912,59
805484,73
806064,47
806636,59
807216,83
807788,41
808368,16
808940,11
809516,32
810096,29
810668,19
811248,53
811820,38
812400,15
812980,15
813556,11
814136,15
814708,12
815288,17
815860,18
816440,26
817020,40
817600,24
818184,67
818756,57
819336,58
819908,40
820488,23
821056,23
821632,11
822200,11
822776,22
823360,44
823928,71
824512,103
825132,115
825760,131
826388,104
827008,33
827584,19
828152,65
828736,69
829308,51
829888,48
830456,36
831036,23
831616,13
832188,41
832768,25
833336,28
833920,52
834488,71
835068,87
835648,76
836220,26
836800,27
837368,37
837952,61
838524,72
839104,50
839676,35
840252,14
840832,47
841400,43
841984,30
842556,30
843136,18
843708,21
844284,14
844864,19
845432,27
846008,47
846576,67
847160,53
847732,30
848312,25
848884,17
849456,14
850040,23
850608,19
851192,23
851764,11
852344,33
852916,71
853492,48
854072,47
854644,69
855224,25
855792,80
856376,20
856948,14
857528,11
858100,31
858676,47
859256,36
859828,15
860408,27
860984,14
861568,42
862140,45
862716,29
863296,33
863868,25
864448,14
865020,18
865600,24
866168,36
866752,61
867324,73
867900,65
868480,42
869048,17
869632,81
870204,118
870836,70
871408,23
871976,72
872560,85
873132,20
873712,56
874284,83
874864,89
875436,67
876012,16
876592,39
877164,41
877744,15
878316,20
878896,17
879476,15
880056,30
880636,38
881212,16
881792,15
882364,11
882944,15
883516,10
884096,27
884664,34
885244,47
885824,16
886396,31
886976,19
887548,17
888128,9
888648,16
889224,30
889796,55
890372,34
890952,11
891524,51
892104,47
892676,14
893256,28
893836,33
894416,61
895000,32
895572,15
896156,15
896724,28
897304,47
897872,26
898456,11
899028,12
899604,33
900184,42
900756,31
901336,19
901916,26
902496,30
903064,27
903640,32
904224,30
904796,11
905376,11
905948,37
906528,88
907100,107
907732,75
908312,62
908884,66
909464,13
910036,40
910616,81
911196,71
911780,45
912356,34
912932,20
913512,11
914084,10
914664,16
915236,24
915816,20
916388,19
916964,10
917544,10
918116,19
918696,23
919268,59
919848,63
920428,35
921008,16
921588,11
922164,24
922744,32
923316,27
923896,16
924468,14
925048,12
925620,57
926196,91
926776,97
927348,92
927928,53
928504,22
929080,56
929652,83
930232,119
930860,54
931428,14
932008,22
932580,42
933160,32
933732,42
934312,56
934892,14
935468,69
936048,64
936620,15
937200,14
937780,25
938360,31
938932,27
939508,12
940092,11
940664,17
941240,28
941812,24
942392,15
942972,48
943552,55
944124,24
944700,15
945280,23
945852,29
946432,12
947012,15
947596,14
948172,15
948748,13
949328,12
949900,19
950480,36
951060,43
951640,14
952220,15
952796,26
953376,47
953952,30
954528,16
955104,37
955684,46
956260,37
956840,56
957420,89
957996,54
958580,27
959152,11
959732,11
960308,20
960888,16
961456,35
962036,43
962616,27
963188,11
963768,25
964340,20
964920,17
965492,12
966072,9
966592,10
967164,11
967744,14
968316,11
968896,16
969468,23
970048,43
970628,30
971208,12
971792,36
972364,60
972944,29
973516,19
974096,35
974668,12
975248,19
975820,31
976396,42
976976,47
977548,54
978128,46
978708,40
979288,63
979868,19
980444,32
981024,69
981596,74
982180,49
982752,34
983328,50
983908,29
984488,29
985056,55
985636,32
986216,18
986788,32
987368,31
987940,78
988520,54
989100,14
989676,14
990256,34
990828,66
991408,81
991980,80
992564,88
993140,75
993720,64
994300,53
994876,46
995456,18
996028,66
996608,44
997180,16
997760,11
998332,12
998908,15
999488,43
1000060,23
1000684,12
1001308,14
1001936,15
1002564,14
1003184,32
1003812,50
1004436,36
1005060,11
1005692,36
1006312,41
1006940,15
1007564,38
1008188,11
1008816,19
1009432,13
1010060,34
1010684,44
1011312,28
1011940,23
1012564,27
1013192,32
1013824,61
1014440,72
1015068,43
1015692,11
1016320,11
1016948,36
1017568,79
1018200,47
1018820,65
1019444,85
1020076,42
1020696,43
1021324,15
1021952,108
1022628,63
1023256,16
1023880,17
1024512,23
1025140,46
1025756,78
1026384,93
1027008,43
1027628,14
1028256,23
1028876,53
1029504,18
1030128,29
1030748,104
1031432,58
1032048,25
1032676,12
1033304,23
1033920,22
1034548,23
1035168,23
1035792,15
1036424,28
1037040,16
1037668,15
1038292,14
1038912,11
1039540,16
1040160,13
1040784,35
1041416,41
1042032,42
1042660,53
1043280,38
1043908,34
1044540,15
1045156,27
1045788,14
1046408,46
1047036,105
1047716,117
1048388,51
1049012,11
1049640,22
1050256,59
1050884,29
1051504,47
1052136,54
1052764,22
1053384,15
1054012,60
1054636,184
1055312,121
1055984,45
1056608,34
1057236,34
1057864,49
1058488,54
1059116,30
1059740,12
1060364,46
1060992,20
1061608,17
1062236,29
1062860,37
1063484,22
1064112,14
1064728,15
1065360,15
1065980,17
1066608,29
1067236,24
1067856,33
1068488,28
1069116,17
1069736,17
1070364,16
1070988,31
1071616,46
1072244,24
1072864,17
1073492,37
1074116,71
1074736,46
1075368,54
1075984,69
1076612,43
1077236,27
1077856,38
1078488,21
1079108,15
1079736,34
1080368,30
1080984,11
1081612,26
1082232,64
1082864,71
1083492,36
1084112,51
1084740,95
1085364,117
1086040,58
1086664,26
1087280,42
1087908,89
1088540,96
1089160,80
1089788,27
1090408,30
1091036,45
1091664,59
1092288,63
1092916,15
1093540,21
1094160,20
1094792,34
1095408,27
1096036,14
1096660,47
1097284,33
1097912,28
1098528,45
1099156,35
1099788,40
1100408,25
1101036,57
1101660,82
1102288,25
1102920,13
1103536,14
1104164,15
1104788,17
1105412,28
1106044,22
1106664,18
1107292,38
1107912,16
1108536,14
1109168,27
1109784,22
1110412,14
1111036,19
1111664,31
1112292,36
1112916,48
1113548,41
1114176,16
1114800,15
1115428,14
1116052,23
1116680,11
1117308,42
1117928,19
1118556,26
1119180,31
1119808,35
1120436,18
1121056,45
1121684,26
1122312,25
1122932,23
1123560,19
1124184,31
1124812,40
1125440,14
1126064,20
1126692,44
1127316,35
1127940,16
1128572,16
1129192,19
1129820,15
1130444,12
1131064,10
1131696,10
1132312,30
1132940,72
1133564,29
1134192,15
1134820,30
1135444,16
1136072,18
1136704,17
1137320,19
1137948,14
1138572,22
1139200,19
1139828,10
1140448,11
1141076,10
1141700,11
1142324,28
1142956,14
1143576,15
1144204,33
1144828,64
1145456,80
1146084,72
1146708,45
1147340,13
1147968,10
1148592,23
1149220,20
1149844,23
1150468,99
1151100,134
1151772,42
1152400,14
1153020,54
1153648,125
1154328,135
1154996,96
1155616,64
1156244,60
1156864,64
1157492,26
1158116,19
1158736,14
1159368,24
1159984,60
1160612,43
1161244,24
1161864,14
1162492,18
1163116,39
1163744,72
1164376,48
1164992,35
1165620,29
1166244,19
1166868,14
1167496,17
1168112,22
1168744,23
1169364,16
1169988,18
1170616,16
1171232,11
1171864,21
1172492,46
1173112,61
1173740,81
1174364,57
1174996,36
1175624,44
1176248,17
1176876,60
1177500,65
1178128,48
1178756,40
1179376,25
1180004,30
1180628,69
1181252,66
1181880,74
1182504,96
1183132,69
1183764,32
1184384,17
1185012,17
1185636,39
1186264,14
1186896,17
1187512,15
1188144,111
1188820,115
1189492,46
1190116,13
1190740,16
1191372,11
1192000,19
1192616,33
1193248,28
1193872,59
1194500,101
1195184,50
1195800,26
1196428,15
1197056,33
1197680,47
1198308,24
1198932,38
1199564,53
1200192,24
1200816,21
1201444,40
1202068,19
1202692,16
1203324,14
1203944,15
1204572,10
1205196,11
1205820,13
1206448,28
1207064,52
1207696,63
1208324,64
1208944,42
1209572,22
1210196,45
1210824,54
1211456,29
1212072,18
1212704,105
1213380,101
1214052,44
1214680,45
1215304,51
1215932,20
1216564,32
1217184,47
1217812,46
1218436,41
1219068,22
1219696,15
1220316,15
1220944,18
1221568,14
1222192,45
1222820,50
1223440,23
1224068,11
1224692,22
1225316,39
1225948,40
1226572,37
1227200,62
1227832,71
1228448,106
1229132,103
1229800,24
1230424,51
1231052,57
1231672,61
1232300,15
1232928,59
1233544,14
1234176,17
1234796,22
1235428,113
1236108,189
1236780,111
1237456,18
1238084,27
1238704,52
1239332,55
1239956,57
1240584,16
1241212,36
1241832,69
1242460,14
1243084,26
1243704,17
1244336,14
1244952,15
1245580,25
1246204,48
1246832,49
1247460,51
1248084,31
1248712,31
1249344,46
1249960,19
1250588,22
1251212,39
1251840,51
1252468,50
1253088,68
1253716,69
1254340,50
1254968,31
1255596,79
1256216,31
1256844,19
1257468,66
1258096,97
1258724,109
1259400,116
1260076,72
1260700,18
1261320,85
1261948,133
1262632,126
1263300,114
1263980,112
1264660,48
1265280,15
1265908,9
1266480,28
1267108,11
1267740,50
1268360,50
1268988,53
1269612,52
1270244,15
1270872,18
1271496,11
1272124,17
1272748,19
1273372,26
1274004,20
1274624,16
1275252,13
1275880,31
1276504,31
1277132,15
1277752,21
1278384,32
1279012,31
1279632,27
1280264,37
1280884,42
1281512,22
1282140,13
1282756,43
1283388,34
1284008,19
1284628,11
1285260,15
1285876,13
1286508,14
1287128,14
1287748,19
1288380,24
1288996,23
1289628,22
1290256,11
1290872,27
1291500,51
1292124,29
1292752,14
1293380,17
1294000,24
1294628,18
1295252,31
1295876,73
1296508,108
1297180,93
1297804,54
1298428,49
1299056,160
1299736,131
1300404,13
1301024,31
1301652,64
1302272,24
1302900,68
1303524,68
1304148,42
1304780,48
1305400,22
1306028,15
1306660,13
1307280,17
1307908,49
1308532,43
1309160,19
1309792,17
1310408,30
1311036,59
1311660,75
1312284,68
1312912,21
1313528,65
1314156,85
1314780,82
1315400,43
1316028,30
1316644,34
1317272,28
1317904,17
1318520,18
1319148,14
1319772,14
1320400,15
1321028,12
1321644,11
1322272,25
1322896,35
1323524,39
1324152,49
1324768,36
1325400,45
1326020,40
1326644,33
1327272,21
1327896,28
1328524,35
1329148,18
1329776,15
1330404,14
1331028,23
1331656,20
1332284,10
1332900,15
1333528,22
1334152,46
1334780,21
1335408,28
1336024,22
1336652,20
1337276,22
1337900,12
1338528,24
1339144,35
1339772,61
1340396,65
1341020,23
1341648,11
1342264,61
1342892,25
1343520,32
1344144,44
1344772,24
1345392,39
1346020,49
1346652,57
1347268,47
1347900,40
1348520,59
1349144,60
1349772,32
1350392,11
1351020,25
1351644,33
1352268,16
1352896,39
1353512,41
1354144,36
1354772,20
1355392,12
1356020,35
1356644,93
1357272,128
1357952,123
1358620,104
1359296,21
1359920,52
1360536,27
1361164,24
1361788,48
1362416,27
1363044,10
1363664,10
1364292,18
1364912,11
1365536,16
1366164,11
1366784,10
1367412,30
1368036,28
1368656,14
1369288,20
1369904,23
1370532,15
1371160,15
1371784,18
1372412,16
1373036,11
1373664,29
1374292,28
1374912,17
1375540,15
1376164,21
1376788,31
1377416,34
1378032,20
1378660,15
1379284,26
1379908,31
1380536,27
1381152,67
1381780,91
1382412,103
1383080,65
1383708,91
1384332,146
1385012,142
1385688,105
1386352,66
1386980,44
1387612,16
1388232,24
1388860,26
1389484,35
1390108,42
1390736,50
1391352,51
1391984,57
1392608,61
1393232,19
1393860,14
1394480,37
1395108,15
1395736,23
1396360,41
1396988,37
1397612,26
1398240,16
1398868,16
1399488,13
1400116,18
1400740,41
1401364,41
1401992,22
1402612,18
1403240,69
1403864,60
1404488,14
1405116,91
1405736,124
1406416,116
1407096,71
1407720,15
1408348,96
1408972,75
1409596,60
1410224,16
1410840,55
1411468,30
1412092,20
1412720,15
1413348,40
1413972,88
1414600,29
1415228,22
1415848,18
1416476,11
1417100,11
1417728,32
1418356,20
1418976,31
1419604,31
1420228,42
1420852,51
1421480,11
1422096,78
1422728,40
1423348,49
1423976,62
1424604,52
1425228,63
1425856,37
1426488,26
1427104,16
1427736,15
1428360,27
1428988,44
1429616,40
1430240,41
1430868,26
1431496,16
1432120,17
1432748,22
1433368,28
1434000,12
1434620,68
1435248,51
1435876,14
1436500,20
1437128,16
1437756,15
1438376,13
1439004,20
1439628,10
1440260,30
1440888,24
1441504,11
1442132,12
1442756,23
1443376,34
1444008,32
1444624,32
1445252,16
1445876,15
1446496,12
1447124,23
1447748,24
1448376,12
1449004,10
1449620,12
1450252,16
1450872,28
1451500,47
1452132,47
1452752,16
1453380,38
1454004,23
1454628,28
1455260,16
1455880,24
1456508,47
1457132,35
1457756,12
1458384,32
1459008,34
1459636,12
1460268,20
1460888,26
1461516,15
1462140,20
1462768,41
1463396,32
1464016,31
1464644,34
1465268,13
1465892,58
1466520,14
1467136,14
1467768,17
1468392,27
1469016,16
1469644,16
1470264,39
1470892,33
1471524,10
1472144,12
1472772,36
1473396,24
1474028,11
1474656,22
1475272,44
1475900,43
1476524,32
1477148,20
1477776,27
1478392,81
1479020,96
1479644,65
1480268,61
1480900,42
1481520,105
1482200,193
1482876,80
1483496,28
1484124,11
1484748,35
1485372,52
1486004,42
1486624,66
1487252,38
1487880,27
1488496,35
1489128,21
1489748,11
1490380,22
1491008,43
1491628,55
1492256,45
1492880,28
1493508,17
1494136,33
1494760,30
1495388,15
1496012,14
1496636,10
1497264,15
1497884,10
1498512,14
1499140,21
1499760,27
1500388,12
1501012,12
1501644,41
1502272,25
1502892,14
1503520,24
1504144,34
1504772,42
1505404,32
1506024,30
1506652,30
1507276,17
1507900,22
1508532,34
1509152,123
1509832,146
1510516,93
1511136,47
1511764,31
1512388,122
1513064,81
1513688,38
1514312,55
1514940,36
1515572,29
1516192,31
1516820,20
1517444,41
1518072,61
1518704,63
1519324,50
1519952,26
1520580,14
1521204,12
1521832,27
1522452,46
1523080,69
1523704,95
1524328,88
1524956,48
1525580,14
1526212,18
1526844,18
1527464,16
1528092,15
1528716,17
1529348,13
1529976,10
1530600,11
1531228,10
1531852,17
1532480,19
1533108,16
1533728,35
1534360,25
1534988,28
1535608,40
1536240,30
1536860,122
1537540,103
1538216,54
1538832,18
1539460,82
1540084,137
1540756,58
1541380,29
1542004,37
1542632,36
1543264,34
1543880,57
1544508,26
1545132,26
1545756,28
1546384,10
1547008,18
1547636,19
1548260,13
1548884,21
1549512,11
1550132,49
1550760,95
1551388,81
1552008,47
1552636,15
1553260,20
1553892,37
1554520,80
1555140,138
1555820,129
1556496,93
1557120,22
1557748,72
1558372,52
1559000,12
1559632,12
1560252,40
1560880,29
1561504,17
1562128,25
1562756,17
1563376,11
1564004,11
1564628,10
1565252,21
1565880,33
1566504,35
1567132,11
1567764,72
1568384,63
1569012,16
1569636,31
1570264,35
1570896,28
1571512,31
1572144,19
1572764,15
1573388,12
1574020,20
1574640,40
1575268,47
1575892,49
1576516,49
1577148,19
1577768,73
1578396,54
1579028,35
1579648,27
1580276,14
1580900,13
1581532,19
1582160,11
1582784,13
1583412,29
1584036,29
1584660,10
1585292,14
1585912,15
1586544,15
1587168,25
1587792,63
1588420,92
1589040,71
1589668,23
1590300,50
1590920,43
1591548,20
1592176,54
1592804,49
1593436,20
1594056,34
1594684,36
1595312,71
1595936,32
1596564,11
1597184,15
1597816,31
1598440,73
1599064,80
1599692,35
1600312,19
1600940,17
1601568,88
1602184,46
1602812,22
1603436,44
1604064,71
1604692,36
1605312,21
1605940,11
1606564,19
1607184,22
1607816,10
1608432,13
1609060,14
1609684,22
1610304,23
1610936,20
1611552,19
1612180,17
1612812,22
1613428,36
1614060,39
1614684,55
1615312,78
1615944,70
1616560,43
1617188,37
1617812,28
1618436,146
1619120,120
1619788,18
1620412,50
1621044,47
1621664,27
1622292,93
1622916,43
1623548,11
1624176,19
1624792,52
1625424,61
1626048,52
1626672,69
1627300,57
1627920,16
1628548,41
1629172,21
1629796,19
1630428,39
1631052,19
1631680,11
1632308,23
1632928,18
1633556,33
1634180,12
1634812,24
1635440,32
1636064,50
1636692,57
1637316,22
1637944,16
1638572,14
1639188,34
1639816,54
1640440,52
1641060,19
1641688,15
1642308,20
1642936,12
1643564,20
1644180,14
1644808,38
1645432,50
1646060,38
1646688,28
1647304,12
1647932,36
1648556,59
1649180,61
1649808,41
1650424,11
1651052,12
1651672,14
1652296,15
1652924,24
1653540,19
1654172,32
1654800,21
1655416,17
1656044,11
1656668,53
1657296,31
1657924,16
1658544,30
1659172,37
1659796,29
1660420,28
1661048,29
1661672,28
1662300,33
1662924,29
1663544,14
1664176,10
1664792,10
1665420,21
1666040,22
1666660,11
1667288,13
1667912,22
1668540,21
1669168,15
1669784,14
1670412,14
1671032,10
1671664,11
1672292,21
1672912,53
1673540,79
1674164,97
1674784,90
1675416,55
1676032,11
1676660,21
1677284,13
1677908,49
1678536,68
1679152,38
1679780,18
1680408,10
1681028,34
1681656,48
1682280,15
1682908,16
1683536,21
1684152,13
1684780,32
1685404,36
1686024,22
1686652,21
1687272,36
1687900,36
1688524,31
1689144,13
1689776,13
1690392,16
1691020,11
1691640,14
1692264,24
1692892,31
1693516,31
1694144,41
1694772,69
1695392,77
1696020,60
1696640,46
1697268,17
1697896,50
1698520,29
1699148,43
1699772,50
1700396,49
1701024,71
1701640,104
1702320,63
1702944,34
1703560,16
1704188,12
1704812,13
1705440,37
1706068,50
1706688,48
1707316,41
1707940,30
1708564,31
1709192,28
1709816,47
1710444,55
1711068,85
1711692,86
1712320,19
1712940,21
1713568,21
1714196,135
1714868,134
1715544,31
1716168,10
1716788,11
1717420,14
1718040,13
1718668,15
1719292,13
1719920,15
1720548,19
1721172,16
1721800,52
1722432,94
1723048,104
1723728,69
1724344,34
1724968,21
1725596,78
1726216,68
1726844,16
1727468,40
1728092,34
1728720,15
1729336,18
1729964,29
1730592,35
1731216,15
1731844,16
1732464,10
1733096,17
1733724,13
1734344,29
1734972,35
1735596,20
1736220,14
1736852,14
1737472,13
1738100,11
1738724,14
1739348,19
1739980,13
1740600,10
1741228,19
1741860,50
1742480,64
1743108,61
1743732,46
1744360,24
1744988,37
1745608,26
1746236,11
1746860,15
1747480,45
1748112,50
1748728,48
1749356,41
1749980,13
1750604,24
1751232,15
1751856,23
1752484,21
1753116,14
1753736,18
1754364,15
1754988,11
1755620,10
1756248,10
1756864,21
1757492,34
1758116,12
1758740,17
1759372,85
1759992,136
1760676,114
1761352,59
1761968,18
1762596,43
1763216,78
1763844,52
1764472,32
1765096,20
1765724,19
1766348,17
1766972,12
1767600,20
1768216,19
1768848,27
1769468,30
1770096,31
1770724,88
1771348,58
1771976,25
1772608,11
1773224,23
1773852,46
1774476,49
1775104,54
1775736,57
1776356,33
1776984,13
1777608,14
1778228,34
1778860,15
1779480,12
1780108,10
1780732,15
1781360,17
1781988,11
1782612,9
1783192,13
1783820,22
1784440,27
1785068,26
1785692,16
1786320,14
1786952,14
1787568,17
1788196,19
1788820,19
1789444,29
1790076,32
1790696,28
1791328,35
1791952,44
1792576,11
1793204,23
1793824,47
1794452,42
1795080,48
1795696,60
1796328,27
1796952,28
1797580,40
1798212,44
1798832,61
1799460,37
1800084,18
1800708,40
1801340,31
1801960,25
1802588,20
1803212,15
1803832,18
1804464,18
1805080,13
1805708,11
1806332,21
1806952,35
1807584,44
1808208,54
1808836,67
1809464,62
1810080,22
1810708,23
1811332,30
1811960,27
1812592,18
1813208,11
1813836,23
1814460,49
1815084,67
1815712,40
1816328,12
1816960,16
1817580,12
1818208,13
1818836,14
1819460,14
1820088,14
1820720,15
1821336,16
1821964,15
1822588,17
1823220,22
1823848,28
1824468,24
1825096,25
1825720,36
1826340,43
1826972,35
1827592,31
1828220,21
1828844,16
1829468,10
1830096,41
1830716,89
1831344,94
1831972,72
1832592,49
1833220,52
1833844,197
1834528,171
1835200,85
1835824,35
1836452,14
1837084,16
1837704,22
1838332,14
1838960,15
1839588,30
1840220,38
1840840,53
1841468,95
1842092,102
1842768,108
1843444,103
1844112,24
1844736,15
1845364,18
1845984,112
1846664,111
1847336,41
1847960,20
1848588,44
1849212,13
1849840,47
1850468,52
1851088,50
1851716,16
1852340,21
1852964,21
1853592,27
1854212,13
1854840,13
1855464,23
1856088,13
1856716,15
1857336,25
1857964,45
1858592,58
1859208,52
1859836,38
1860464,32
1861092,17
1861720,14
1862344,14
1862972,12
1863596,11
1864224,24
1864852,18
1865472,11
1866100,14
1866724,13
1867348,16
1867976,14
1868600,15
1869228,15
1869860,30
1870480,17
1871108,11
1871732,10
1872364,24
1872992,12
1873608,11
1874240,17
1874864,27
1875488,29
1876116,50
1876736,70
1877364,81
1877988,126
1878664,148
1879344,94
1879968,27
1880592,91
1881220,201
1881892,186
1882568,111
1883248,43
1883872,16
1884500,13
1885124,17
1885748,22
1886376,38
1887000,31
1887628,15
1888252,10
1888880,11
1889508,17
1890132,30
1890760,20
1891392,24
1892008,33
1892636,70
1893260,93
1893892,84
1894520,26
1895144,15
1895772,13
1896396,10
1897020,13
1897648,10
1898272,10
1898900,10
1899528,16
1900152,27
1900780,11
1901408,15
1902036,27
1902668,90
1903288,99
1903920,59
1904544,28
1905168,22
1905796,16
1906416,13
1907044,41
1907672,47
1908296,36
1908924,31
1909544,43
1910176,45
1910804,38
1911424,32
1912056,35
1912680,43
1913308,47
1913940,28
1914560,17
1915188,12
1915816,28
1916440,22
1917072,11
1917688,11
1918320,15
1918944,16
1919568,40
1920200,50
1920816,27
1921444,12
1922072,16
1922688,25
1923320,33
1923940,37
1924572,38
1925200,44
1925824,43
1926452,26
1927072,14
1927696,21
1928324,14
1928944,18
1929572,13
1930196,20
1930820,21
1931448,34
1932072,47
1932700,50
1933332,14
1933952,95
1934580,85
1935204,79
1935836,31
1936464,14
1937088,16
1937716,38
1938340,55
1938964,13
1939596,24
1940216,27
1940844,43
1941468,15
1942092,25
1942724,51
1943344,45
1943972,47
1944604,50
1945224,29
1945856,14
1946476,31
1947108,35
1947736,31
1948356,26
1948984,13
1949608,13
1950228,30
1950860,22
1951480,28
1952108,26
1952732,14
1953356,36
1953988,26
1954608,13
1955236,34
1955868,35
1956488,33
1957116,43
1957740,40
1958372,23
1959004,16
1959624,49
1960252,33
1960876,14
1961500,15
1962132,14
1962752,16
1963384,46
1964008,48
1964632,39
1965260,31
1965880,48
1966512,112
1967192,81
1967808,71
1968436,59
1969060,42
1969684,27
1970312,15
1970928,23
1971560,33
1972180,62
1972804,75
1973432,75
1974056,87
1974684,148
1975368,147
1976036,156
1976712,65
1977336,75
1977960,78
1978588,65
1979212,83
1979840,73
1980468,27
1981088,23
1981716,77
1982340,88
1982972,53
1983604,27
1984224,14
1984852,15
1985476,18
1986100,15
1986728,18
1987344,19
1987972,12
1988596,26
1989220,68
1989848,59
1990472,23
1991104,16
1991732,14
1992352,13
1992980,34
1993604,47
1994232,44
1994864,37
1995484,28
1996112,14
1996736,15
1997360,10
1997988,13
1998608,35
1999236,45
1999860,28
2000484,18
2001112,41
2001736,131
2002420,84
2003044,43
2003664,36
2004292,12
2004916,16
2005540,21
2006168,13
2006792,20
2007420,10
2008044,19
2008668,21
2009296,19
2009912,23
2010544,21
2011172,17
2011792,19
2012420,45
2013044,68
2013676,58
2014304,48
2014924,32
2015552,12
2016176,17
2016800,53
2017428,70
2018048,54
2018676,25
2019300,16
2019924,15
2020552,21
2021176,29
2021804,27
2022436,22
2023056,21
2023684,36
2024308,76
2024936,119
2025620,99
2026240,28
2026868,43
2027492,24
2028116,49
2028748,68
2029368,57
2029996,45
2030628,23
2031248,11
2031876,18
2032504,23
2033132,24
2033764,19
2034384,11
2035016,18
2035640,17
2036264,19
2036892,42
2037512,41
2038144,33
2038768,51
2039392,32
2040024,11
2040644,41
2041276,26
2041908,30
2042528,21
2043160,22
2043784,29
2044412,27
2045044,21
2045664,24
2046292,32
2046920,26
2047544,15
2048176,14
2048788,12
2049416,21
2050040,12
2050660,23
2051288,29
2051908,14
2052536,14
2053164,34
2053780,29
2054408,21
2055032,45
2055660,45
2056288,24
2056908,56
2057540,85
2058160,105
2058836,72
2059460,26
2060080,16
2060708,30
2061336,41
2061952,22
2062580,50
2063204,49
2063832,41
2064460,89
2065076,92
2065708,55
2066328,19
2066952,12
2067580,14
2068200,17
2068828,18
2069448,17
2070072,17
2070700,13
2071320,12
2071948,11
2072572,10
2073200,16
2073828,49
2074452,59
2075080,92
2075708,128
2076380,115
2077056,39
2077672,23
2078296,22
2078924,25
2079544,48
2080172,73
2080800,43
2081416,50
2082044,40
2082668,15
2083296,37
2083924,63
2084544,37
2085172,21
2085792,15
2086416,18
2087044,16
2087664,14
2088292,31
2088916,32
2089540,40
2090168,33
2090784,20
2091412,33
2092044,56
2092664,88
2093292,77
2093916,46
2094544,47
2095172,33
2095792,56
2096420,66
2097044,43
2097668,44
2098296,34
2098920,16
2099548,9
2100120,16
2100744,20
2101372,15
2101992,15
2102620,15
2103244,24
2103864,15
2104496,14
2105112,19
2105740,17
2106364,16
2106992,23
2107620,25
2108244,34
2108872,46
2109500,54
2110120,53
2110748,41
2111372,21
2112000,33
2112628,34
2113248,14
2113876,53
2114500,74
2115124,46
2115752,28
2116372,11
2117000,11
2117624,28
2118248,28
2118876,31
2119500,46
2120132,65
2120760,56
2121376,17
2122008,71
2122628,43
2123260,24
2123888,18
2124508,28
2125136,74
2125760,82
2126380,73
2127012,14
2127632,44
2128260,18
2128884,46
2129508,73
2130140,51
2130760,31
2131392,21
2132020,38
2132640,56
2133268,27
2133892,31
2134520,45
2135148,26
2135768,17
2136396,14
2137020,63
2137644,81
2138272,30
2138888,14
2139516,21
2140144,11
2140768,11
2141396,11
2142020,13
2142652,15
2143280,46
2143900,66
2144528,68
2145152,60
2145780,46
2146412,22
2147032,21
2147660,25
2148284,12
2148908,18
2149540,29
2150160,13
2150788,44
2151412,35
2152036,15
2152664,17
2153288,15
2153916,23
2154544,46
2155168,65
2155796,39
2156420,28
2157052,28
2157680,12
2158300,29
2158928,19
2159552,30
2160176,45
2160804,28
2161420,17
2162052,16
2162676,12
2163296,13
2163928,12
2164552,19
2165180,47
2165808,16
2166432,31
2167060,39
2167684,12
2168312,32
2168944,18
2169560,61
2170192,67
2170816,29
2171440,11
2172068,14
2172688,22
2173316,37
2173940,75
2174568,77
2175196,77
2175820,87
2176452,53
2177080,57
2177696,73
2178328,40
2178948,20
2179580,20
2180208,31
2180824,32
2181456,11
2182076,25
2182700,39
2183332,70
2183952,65
2184580,28
2185204,13
2185828,23
2186456,26
2187080,26
2187708,12
2188340,14
2188960,18
2189588,11
2190212,27
2190844,43
2191472,54
2192088,60
2192720,61
2193340,37
2193964,13
2194596,14
2195216,14
2195844,14
2196468,11
2197092,12
2197724,24
2198348,24
2198976,30
2199608,48
2200228,46
2200856,22
2201480,15
2202112,17
2202740,15
2203360,25
2203988,30
2204612,23
2205236,10
2205868,10
2206488,11
2207116,37
2207744,90
2208368,125
2209048,140
2209716,96
2210336,29
2210964,116
2211636,128
2212316,79
2212940,50
2213560,21
2214188,15
2214812,11
2215436,18
2216068,26
2216688,38
2217316,72
2217940,69
2218564,48
2219192,31
2219812,22
2220440,14
2221072,42
2221692,67
2222320,71
2222944,78
2223576,74
2224204,84
2224824,106
2225504,118
2226176,103
2226852,22
2227480,15
2228100,21
2228732,75
2229364,105
2230036,59
2230664,39
2231288,18
2231912,45
2232544,65
2233168,15
2233796,11
2234428,11
2235048,34
2235676,15
2236300,25
2236932,23
2237564,58
2238184,44
2238816,44
2239440,31
2240064,12
2240692,18
2241312,15
2241940,24
2242568,42
2243192,33
2243820,16
2244444,19
2245076,35
2245704,11
2246328,35
2246956,29
2247580,11
2248204,24
2248836,10
2249456,11
2250084,21
2250708,11
2251332,37
2251964,35
2252584,14
2253216,23
2253844,26
2254464,31
2255092,48
2255716,62
2256344,22
2256972,17
2257592,31
2258220,11
2258844,24
2259468,42
2260096,31
2260712,19
2261344,23
2261968,26
2262592,16
2263220,13
2263840,28
2264468,27
2265100,19
2265720,43
2266348,37
2266972,38
2267600,35
2268232,31
2268848,83
2269476,138
2270152,90
2270776,19
2271404,12
2272024,14
2272652,10
2273276,32
2273904,26
2274532,12
2275156,49
2275788,70
2276420,79
2277040,61
2277668,35
2278296,25
2278920,15
2279548,26
2280168,27
2280796,18
2281420,17
2282044,10
2282676,12
2283296,17
2283924,72
2284556,98
2285176,76
2285804,57
2286428,25
2287060,127
2287740,80
2288360,62
2288988,34
2289612,16
2290236,18
2290868,18
2291488,13
2292116,20
2292748,34
2293368,36
2294000,27
2294620,14
2295252,15
2295880,11
2296496,15
2297128,19
2297752,11
2298376,14
2299004,10
2299624,12
2300252,52
2300876,18
2301500,13
2302132,12
2302752,15
2303384,16
2304012,14
2304628,17
2305260,30
2305880,13
2306512,19
2307140,27
2307760,50
2308388,43
2309012,33
2309640,16
2310268,24
2310888,50
2311516,51
2312140,25
2312764,62
2313396,111
2314068,70
2314696,23
2315324,10
2315944,11
2316572,11
2317196,11
2317828,14
2318456,23
2319080,25
2319708,25
2320332,31
2320956,26
2321584,30
2322208,24
2322836,11
2323468,14
2324088,32
2324716,58
2325340,87
2325972,111
2326652,99
2327272,91
2327900,55
2328524,26
2329148,12
2329780,14
2330400,39
2331028,33
2331660,24
2332280,15
2332908,11
2333532,12
2334164,19
2334792,37
2335416,40
2336044,17
2336668,16
2337292,14
2337920,25
2338536,17
2339168,19
2339792,33
2340416,32
2341044,40
2341664,65
2342292,52
2342924,21
2343544,19
2344172,17
2344796,20
2345428,20
2346056,26
2346680,13
2347308,14
2347936,11
2348560,11
2349188,14
2349808,11
2350436,14
2351064,24
2351688,17
2352316,40
2352936,36
2353568,37
2354196,93
2354816,66
2355448,89
2356068,74
2356700,78
2357328,87
2357952,38
2358580,31
2359204,65
2359828,76
2360460,80
2361080,51
2361708,16
2362332,18
2362956,11
2363588,18
2364208,23
2364836,41
2365468,36
2366088,22
2366716,11
2367344,16
2367972,27
2368604,19
2369224,35
2369852,33
2370476,13
2371100,11
2371732,10
2372352,14
2372980,11
2373608,16
2374232,35
2374860,70
2375480,57
2376112,49
2376740,14
2377360,37
2377988,33
2378612,15
2379244,25
2379872,18
2380496,23
2381124,12
2381748,38
2382372,21
2383004,14
2383624,13
2384252,11
2384876,13
2385500,13
2386132,17
2386756,14
2387388,28
2388016,34
2388632,21
2389264,11
2389888,25
2390520,21
2391148,11
2391768,30
2392400,35
2393024,42
2393648,30
2394276,15
2394896,15
2395524,16
2396152,29
2396776,31
2397408,28
2398032,18
2398664,16
2399292,12
2399912,17
2400544,20
2401168,14
2401796,13
2402428,14
2403048,16
2403676,42
2404300,44
2404924,17
2405556,15
2406176,13
2406808,15
2407436,12
2408056,29
2408684,46
2409308,32
2409936,14
2410568,37
2411184,31
2411816,17
2412440,15
2413064,17
2413692,70
2414312,69
2414944,12
2415568,16
2416192,12
2416820,13
2417440,11
2418068,26
2418696,36
2419320,19
2419948,14
2420572,11
2421204,27
2421832,14
2422452,20
2423080,28
2423704,29
2424328,38
2424956,24
2425576,17
2426208,36
2426832,57
2427456,69
2428084,62
2428704,38
2429336,31
2429964,32
2430584,26
2431216,30
2431840,30
2432472,11
2433100,18
2433720,21
2434348,41
2434972,58
2435596,44
2436228,21
2436848,17
2437476,29
2438100,33
2438724,11
2439356,10
2439976,17
2440608,11
2441236,10
2441856,11
2442484,17
2443108,38
2443740,73
2444372,86
2444992,45
2445620,24
2446244,11
2446868,75
2447500,77
2448120,24
2448748,10
2449372,20
2449996,62
2450628,87
2451248,52
2451876,30
2452508,80
2453128,147
2453808,135
2454484,58
2455104,15
2455736,26
2456352,42
2456984,42
2457616,50
2458232,72
2458860,67
2459484,45
2460112,27
2460740,27
2461360,21
2461988,15
2462612,11
2463236,12
2463868,18
2464488,50
2465116,41
2465740,38
2466364,13
2466992,57
2467612,70
2468240,49
2468864,16
2469488,18
2470116,34
2470740,37
2471368,33
2472000,26
2472616,16
2473244,37
2473868,21
2474500,53
2475128,68
2475748,60
2476376,18
2477000,18
2477624,16
2478252,50
2478872,29
2479500,15
2480124,34
2480752,13
2481380,22
2482004,20
2482632,37
2483264,33
2483880,49
2484508,34
2485132,18
2485760,23
2486392,15
2487008,14
2487640,21
2488264,23
2488888,30
2489516,75
2490136,68
2490764,45
2491388,26
2492016,46
2492644,15
2493268,11
2493900,13
2494532,14
2495152,16
2495784,12
2496408,10
2497032,11
2497660,10
2498280,11
2498908,11
2499532,34
2500156,46
2500784,28
2501408,17
2502036,30
2502668,74
2503288,48
2503916,14
2504540,10
2505172,16
2505800,21
2506424,24
2507052,19
2507676,13
2508304,15
2508932,10
2509552,13
2510180,13
2510804,18
2511428,17
2512060,12
2512680,13
2513308,21
2513940,118
2514612,208
2515288,211
2515964,156
2516644,42
2517268,145
2517948,149
2518620,107
2519300,111
2519972,98
2520592,66
2521224,51
2521840,28
2522468,11
2523092,28
2523716,53
2524348,57
2524968,51
2525596,49
2526228,50
2526848,59
2527480,75
2528104,73
2528732,63
2529364,43
2529984,37
2530612,63
2531236,53
2531864,31
2532492,19
2533112,43
2533744,56
2534368,31
2534992,12
2535624,16
2536244,16
2536872,16
2537504,29
2538120,31
2538752,35
2539376,37
2540008,20
2540636,32
2541256,15
2541884,39
2542512,46
2543136,37
2543764,23
2544384,15
2545012,30
2545640,32
2546264,19
2546892,18
2547512,26
2548144,28
2548772,22
2549392,14
2550024,13
2550648,11
2551280,19
2551908,16
2552528,14
2553160,14
2553784,11
2554408,11
2555040,11
2555656,23
2556288,36
2556912,39
2557536,37
2558168,35
2558792,38
2559424,27
2560056,35
2560672,34
2561300,55
2561920,63
2562548,61
2563176,30
2563792,20
2564424,24
2565044,60
2565668,41
2566296,14
2566912,11
2567544,17
2568164,61
2568788,67
2569416,49
2570036,27
2570664,16
2571292,28
2571912,23
2572540,11
2573164,38
2573792,49
2574424,15
2575040,18
2575668,29
2576292,34
2576916,26
2577544,23
2578160,28
2578792,24
2579416,14
2580040,10
2580668,11
2581288,11
2581916,19
2582544,20
2583164,23
2583792,41
2584416,48
2585044,17
2585672,15
2586292,25
2586924,25
2587548,47
2588168,56
2588796,35
2589416,30
2590044,13
2590668,54
2591292,80
2591924,74
2592544,55
2593172,45
2593804,18
2594424,81
2595052,88
2595676,33
2596308,18
2596936,14
2597552,22
2598184,13
2598808,19
2599432,41
2600060,63
2600680,49
2601308,21
2601932,22
2602556,22
2603184,44
2603808,43
2604436,27
2605068,14
2605688,53
2606316,64
2606940,55
2607572,36
2608200,16
2608824,24
2609452,26
2610076,14
2610700,18
2611332,14
2611952,17
2612580,11
2613204,12
2613828,9
2614404,9
2614976,11
2615612,11
2616236,10
2616864,23
2617492,32
2618112,17
2618740,19
2619364,16
2619988,15
2620620,32
2621240,19
2621868,12
2622500,28
2623120,28
2623748,13
2624372,19
2625000,34
2625628,18
2626244,16
2626872,55
2627496,75
2628120,69
2628748,18
2629368,35
2629996,48
2630620,57
2631240,46
2631872,19
2632488,16
2633116,11
2633744,11
2634360,25
2634992,65
2635616,47
2636244,21
2636872,17
2637488,11
2638116,19
2638740,39
2639364,71
2639996,110
2640668,117
2641344,59
2641964,48
2642580,21
2643212,25
2643832,15
2644460,13
2645088,13
2645712,13
2646340,11
2646964,10
2647588,17
2648216,10
2648832,19
2649464,22
2650084,10
2650708,19
2651336,52
2651960,46
2652588,31
2653220,14
2653840,17
2654468,18
2655092,12
2655720,9
2656300,25
2656924,27
2657552,13
2658176,27
2658804,41
2659432,36
2660056,33
2660684,27
2661308,14
2661932,14
2662564,10
2663180,26
2663808,11
2664432,19
2665052,13
2665684,10
2666304,10
2666932,12
2667560,17
2668176,15
2668804,15
2669428,22
2670056,47
2670684,13
2671304,18
2671932,41
2672556,30
2673180,19
2673808,40
2674432,29
2675060,12
2675684,11
2676308,19
2676936,28
2677552,28
2678180,21
2678812,10
2679432,14
2680060,13
2680684,10
2681312,27
2681940,23
2682560,11
2683188,15
2683812,13
2684436,28
2685064,20
2685680,14
2686312,15
2686936,17
2687556,29
2688188,14
2688804,14
2689432,27
2690060,34
2690680,21
2691308,15
2691932,28
2692560,33
2693188,30
2693808,35
2694436,34
2695060,28
2695684,11
2696316,17
2696936,16
2697564,11
2698188,15
2698812,15
2699440,12
2700064,11
2700692,10
2701324,14
2701944,15
2702572,14
2703196,15
2703828,18
2704456,25
2705080,12
2705708,18
2706332,22
2706956,18
2707584,10
2708200,36
2708832,69
2709452,68
2710076,78
2710708,80
2711328,65
2711956,17
2712588,35
2713208,13
2713836,22
2714460,119
2715144,102
2715816,47
2716440,21
2717068,23
2717692,28
2718320,17
2718948,21
2719572,27
2720204,24
2720832,26
2721448,20
2722076,11
2722700,13
2723328,12
2723956,16
2724576,37
2725204,52
2725828,46
2726448,32
2727076,36
2727696,31
2728324,16
2728944,20
2729568,27
2730200,27
2730824,29
2731452,20
2732084,22
2732704,19
2733332,30
2733956,15
2734588,15
2735216,16
2735840,16
2736468,22
2737092,19
2737716,11
2738348,18
2738968,28
2739596,38
2740220,38
2740848,45
2741476,65
2742100,32
2742728,19
2743360,15
2743976,33
2744608,17
2745228,22
2745860,27
2746488,24
2747108,27
2747736,49
2748360,34
2748984,16
2749612,39
2750232,13
2750860,15
2751484,36
2752112,22
2752740,15
2753364,17
2753992,11
2754624,18
2755240,11
2755868,13
2756492,12
2757120,19
2757752,37
2758368,42
2759000,48
2759624,43
2760248,42
2760876,20
2761496,15
2762124,14
2762748,17
2763376,13
2764004,11
2764628,12
2765260,16
2765888,28
2766512,34
2767140,31
2767764,20
2768388,14
2769020,21
2769640,17
2770268,15
2770892,13
2771516,10
2772144,18
2772768,12
2773396,13
2774028,35
2774648,52
2775276,54
2775900,42
2776532,25
2777160,32
2777784,26
2778412,14
2779036,15
2779660,13
2780292,62
2780912,48
2781540,17
2782164,35
2782792,61
2783420,67
2784040,53
2784668,18
2785300,80
2785920,117
2786600,37
2787216,12
2787844,25
2788472,78
2789096,95
2789724,71
2790352,30
2790976,25
2791604,100
2792276,56
2792900,31
2793532,14
2794152,23
2794780,15
2795404,10
2796036,11
2796668,10
2797288,35
2797916,11
2798544,24
2799168,45
2799796,32
2800416,15
2801044,31
2801676,47
2802296,29
2802924,26
2803548,18
2804180,53
2804808,76
2805424,30
2806056,25
2806680,22
2807300,65
2807932,14
2808552,44
2809180,35
2809804,13
2810428,26
2811060,23
2811680,17
2812308,17
2812940,52
2813560,49
2814188,29
2814816,24
2815444,20
2816076,14
2816692,19
2817324,21
2817944,22
2818568,15
2819196,16
2819816,29
2820444,31
2821068,44
2821692,64
2822320,18
2822944,11
2823572,42
2824204,64
2824824,31
2825452,11
2826076,15
2826708,28
2827336,21
2827952,32
2828584,52
2829208,38
2829828,11
2830460,41
2831080,65
2831708,31
2832332,15
2832956,50
2833584,44
2834208,16
2834836,27
2835468,39
2836088,45
2836716,34
2837340,33
2837972,26
2838600,36
2839224,40
2839852,16
2840476,21
2841100,40
2841732,50
2842352,63
2842980,59
2843604,49
2844228,36
2844856,29
2845480,12
2846108,13
2846740,26
2847360,40
2847988,35
2848612,37
2849244,38
2849872,35
2850496,21
2851124,14
2851748,23
2852376,25
2853004,18
2853624,18
2854252,38
2854880,57
2855500,62
2856132,40
2856752,19
2857384,25
2858012,11
2858632,11
2859264,15
2859888,22
2860516,19
2861148,18
2861768,32
2862396,21
2863024,11
2863648,22
2864280,36
2864896,32
2865524,31
2866152,20
2866776,36
2867408,30
2868024,52
2868652,83
2869280,43
2869896,15
2870528,11
2871148,20
2871780,50
2872408,36
2873032,20
2873660,62
2874284,76
2874908,84
2875536,85
2876152,61
2876784,67
2877408,80
2878032,78
2878664,19
2879280,38
2879908,80
2880540,87
2881160,61
2881788,46
2882408,26
2883040,14
2883668,22
2884288,17
2884916,26
2885540,17
2886164,75
2886792,59
2887408,16
2888036,11
2888660,12
2889284,23
2889912,38
2890528,42
2891156,46
2891788,42
2892408,35
2893036,21
2893660,27
2894288,40
2894916,40
2895536,30
2896164,12
2896788,63
2897412,26
2898044,12
2898664,35
2899292,18
2899916,21
2900540,21
2901168,13
2901784,14
2902412,15
2903036,14
2903664,22
2904292,12
2904916,16
2905548,23
2906180,30
2906800,27
2907428,36
2908052,61
2908680,83
2909308,89
2909928,61
2910556,17
2911180,57
2911808,19
2912436,20
2913056,58
2913684,62
2914316,30
2914936,47
2915564,32
2916192,19
2916820,18
2917448,20
2918072,28
2918704,30
2919328,14
2919948,15
2920580,26
2921200,70
2921828,63
2922452,48
2923076,46
2923708,50
2924328,50
2924956,26
2925588,22
2926208,19
2926836,14
2927460,21
2928092,37
2928720,33
2929344,20
2929972,20
2930596,19
2931220,13
2931848,36
2932472,23
2933100,14
2933728,16
2934352,24
2934984,18
2935600,15
2936232,13
2936860,11
2937480,19
2938112,31
2938736,25
2939364,11
2939996,10
2940616,21
2941248,34
2941872,39
2942496,37
2943128,37
2943744,42
2944376,39
2945000,17
2945624,29
2946252,24
2946872,21
2947500,13
2948132,11
2948752,26
2949384,29
2950004,29
2950636,31
2951264,37
2951884,34
2952512,19
2953136,18
2953760,36
2954388,38
2955008,29
2955636,39
2956260,11
2956884,30
2957512,47
2958136,41
2958764,40
2959396,41
2960016,29
2960644,16
2961268,16
2961896,13
2962524,10
2963144,15
2963772,24
2964396,42
2965024,36
2965652,15
2966272,13
2966900,21
2967524,22
2968148,24
2968780,18
2969400,15
2970032,33
2970660,66
2971280,77
2971908,83
2972532,93
2973160,27
2973792,67
2974408,65
2975036,67
2975660,50
2976284,15
2976916,40
2977536,36
2978164,28
2978788,15
2979412,17
2980040,34
2980664,38
2981292,34
2981920,27
2982544,11
2983172,28
2983796,46
2984428,63
2985056,56
2985680,36
2986308,15
2986932,30
2987556,30
2988188,14
2988808,46
2989436,67
2990060,28
2990688,15
2991316,10
2991940,12
2992572,36
2993204,32
2993824,27
2994452,22
2995080,16
2995708,25
2996340,40
2996960,30
2997588,11
2998212,11
2998840,11
2999468,16
3000088,38
3000716,45
3001340,26
3001968,20
3002596,19
3003220,20
3003852,44
3004484,34
3005104,16
3005736,19
3006360,12
3006984,30
3007616,45
3008232,43
3008864,32
3009488,24
3010112,27
3010744,15
3011360,29
3011988,57
3012620,26
3013240,12
3013868,49
3014492,71
3015124,77
3015756,57
3016376,14
3017004,100
3017684,71
3018304,29
3018936,15
3019552,17
3020184,47
3020816,58
3021432,41
3022060,19
3022688,11
3023316,10
3023948,24
3024568,69
3025200,89
3025824,77
3026448,43
3027076,16
3027696,56
3028328,62
3028952,26
3029576,11
3030208,13
3030828,24
3031456,25
3032088,12
3032704,14
3033336,25
3033960,23
3034588,16
3035220,14
3035840,17
3036472,53
3037096,93
3037720,90
3038352,64
3038972,28
3039600,28
3040228,101
3040904,55
3041528,18
3042148,17
3042780,27
3043412,28
3044032,15
3044660,21
3045284,29
3045908,27
3046540,18
3047160,19
3047788,16
3048412,10
3049036,14
3049668,18
3050288,11
3050916,13
3051548,12
3052168,16
3052796,18
3053424,13
3054052,20
3054684,23
3055304,22
3055936,36
3056560,54
3057184,26
3057816,14
3058432,28
3059064,25
3059688,19
3060312,19
3060944,31
3061560,32
3062192,11
3062824,26
3063444,39
3064072,62
3064700,52
3065332,15
3065960,34
3066584,51
3067216,39
3067840,31
3068464,19
3069096,39
3069716,15
3070344,16
3070972,15
3071600,14
3072236,17
3072856,17
3073488,18
3074116,25
3074736,43
3075364,44
3075988,15
3076616,15
3077244,14
3077864,18
3078492,39
3079116,40
3079740,21
3080368,11
3080992,10
3081620,23
3082248,43
3082872,20
3083500,13
3084124,21
3084756,19
3085384,60
3086008,24
3086636,15
3087260,10
3087888,44
3088516,28
3089136,12
3089764,14
3090388,45
3091012,14
3091644,45
3092264,42
3092892,15
3093524,18
3094144,15
3094772,14
3095400,10
3096028,20
3096660,38
3097280,36
3097912,33
3098536,27
3099160,13
3099788,39
3100408,45
3101036,35
3101664,19
3102288,17
3102916,67
3103536,43
3104168,13
3104796,10
3105416,22
3106044,32
3106672,27
3107300,18
3107932,34
3108552,41
3109184,14
3109808,19
3110432,51
3111060,58
3111680,69
3112312,63
3112936,14
3113560,55
3114192,43
3114808,58
3115440,31
3116068,11
3116688,23
3117320,44
3117944,19
3118572,42
3119204,24
3119824,20
3120456,21
3121080,12
3121704,35
3122332,48
3122952,46
3123584,50
3124208,33
3124828,13
3125460,11
3126084,14
3126712,17
3127340,24
3127960,20
3128592,13
3129216,10
3129844,9
3130424,34
3131048,33
3131680,12
3132304,42
3132932,61
3133564,54
3134184,55
3134816,26
3135440,63
3136064,61
3136692,50
3137312,41
3137940,23
3138572,24
3139192,55
3139824,55
3140448,28
3141076,39
3141708,54
3142328,14
3142960,16
3143584,27
3144208,50
3144836,20
3145456,11
3146088,9
3146660,19
3147288,22
3147920,28
3148536,41
3149168,41
3149792,46
3150416,37
3151044,19
3151664,17
3152296,18
3152924,13
3153544,27
3154176,41
3154800,42
3155428,44
3156060,38
3156680,33
3157312,28
3157936,19
3158560,17
3159188,29
3159808,37
3160440,48
3161064,51
3161688,27
3162316,38
3162936,89
3163568,78
3164196,38
3164816,21
3165444,13
3166068,25
3166700,18
3167332,17
3167952,21
3168584,17
3169212,22
3169836,23
3170464,10
3171088,11
3171720,16
3172344,23
3172968,13
3173600,18
3174224,33
3174856,49
3175484,52
3176104,33
3176732,17
3177360,16
3177988,13
3178620,10
3179240,11
3179872,10
3180496,14
3181120,27
3181748,35
3182368,26
3183000,17
3183632,11
3184252,14
3184880,14
3185504,16
3186136,34
3186768,31
3187388,13
3188016,33
3188644,44
3189268,30
3189900,36
3190520,12
3191152,11
3191776,27
3192400,22
3193032,46
3193652,16
3194284,39
3194916,50
3195536,13
3196168,18
3196792,34
3197424,49
3198056,47
3198672,17
3199304,29
3199932,47
3200560,30
3201188,20
3201808,16
3202436,13
3203060,15
3203680,10
3204312,22
3204936,29
3205564,24
3206192,18
3206816,19
3207444,28
3208068,40
3208696,43
3209324,30
3209944,35
3210572,33
3211196,31
3211820,22
3212452,12
3213072,49
3213700,28
3214324,12
3214948,10
3215580,10
3216204,11
3216832,11
3217460,19
3218080,21
3218708,17
3219332,16
3219960,15
3220592,15
3221208,25
3221836,25
3222460,21
3223084,13
3223712,14
3224336,23
3224964,15
3225588,12
3226216,13
3226844,14
3227468,26
3228096,38
3228728,41
3229344,44
3229972,42
3230600,36
3231228,47
3231860,31
3232480,29
3233108,15
3233732,11
3234356,17
3234988,14
3235608,22
3236236,26
3236860,30
3237488,15
3238116,34
3238740,13
3239372,31
3240000,14
3240616,23
3241244,47
3241868,51
3242500,26
3243128,34
3243748,26
3244376,22
3245000,37
3245624,47
3246252,20
3246872,13
3247500,20
3248124,24
3248752,20
3249380,26
3250004,21
3250636,14
3251264,12
3251888,14
3252516,19
3253140,31
3253768,47
3254396,66
3255016,23
3255648,11
3256272,48
3256896,69
3257524,74
3258144,42
3258772,16
3259404,28
3260024,15
3260652,15
3261280,18
3261908,15
3262540,77
3263160,67
3263792,41
3264416,39
3265040,31
3265668,10
3266288,33
3266916,49
3267540,49
3268164,40
3268796,34
3269416,18
3270048,32
3270676,35
3271296,35
3271928,30
3272552,15
3273184,10
3273812,12
3274432,17
3275064,31
3275688,49
3276312,45
3276944,31
3277560,26
3278188,19
3278808,10
3279432,11
3280060,16
3280676,22
3281304,21
3281932,20
3282548,14
3283176,11
3283800,17
3284428,17
3285056,14
3285672,14
3286300,25
3286924,11
3287552,11
3288180,17
3288796,15
3289428,31
3290048,61
3290672,65
3291300,48
3291920,44
3292548,19
3293172,27
3293792,19
3294424,65
3295044,83
3295676,71
3296304,29
3296928,53
3297556,74
3298180,38
3298808,19
3299436,14
3300056,19
3300684,42
3301308,42
3301928,24
3302560,14
3303176,21
3303804,11
3304428,29
3305048,14
3305680,33
3306296,73
3306924,72
3307552,70
3308176,73
3308804,14
3309424,45
3310056,57
3310684,22
3311304,18
3311932,11
3312556,10
3313180,14
3313812,10
3314432,14
3315060,23
3315684,54
3316308,20
3316940,18
3317560,15
3318188,15
3318820,20
3319440,17
3320068,13
3320692,21
3321320,40
3321948,57
3322568,55
3323196,53
3323820,42
3324444,25
3325072,28
3325696,15
3326324,15
3326948,26
3327572,21
3328204,21
3328820,19
3329448,20
3330076,26
3330696,21
3331324,10
3331944,14
3332576,15
3333204,12
3333824,17
3334452,15
3335072,14
3335696,14
3336324,15
3336944,11
3337572,10
3338196,13
3338820,23
3339448,54
3340072,51
3340700,39
3341332,12
3341952,35
3342580,33
3343204,21
3343832,18
3344460,19
3345080,11
3345708,38
3346332,38
3346956,22
3347584,22
3348208,36
3348836,33
3349460,45
3350084,43
3350712,20
3351332,54
3351960,57
3352592,71
3353208,76
3353840,34
3354460,11
3355092,27
3355720,50
3356340,52
3356968,43
3357592,20
3358216,51
3358848,68
3359464,23
3360092,25
3360712,15
3361336,15
3361964,10
3362580,34
3363212,32
3363832,14
3364456,10
3365084,14
3365708,12
3366336,10
3366964,11
3367584,27
3368212,33
3368836,32
3369464,19
3370092,22
3370712,30
3371340,33
3371964,39
3372588,35
3373220,39
3373840,40
3374468,27
3375092,41
3375716,95
3376348,120
3377020,102
3377696,75
3378324,32
3378944,146
3379624,116
3380304,16
3380920,13
3381548,16
3382172,14
3382792,102
3383476,105
3384148,72
3384772,42
3385404,32
3386024,17
3386652,14
3387276,10
3387904,11
3388532,10
3389152,21
3389780,29
3390404,51
3391028,66
3391656,55
3392280,54
3392908,46
3393532,32
3394160,15
3394788,14
3395412,10
3396040,19
3396672,37
3397288,40
3397916,24
3398540,18
3399172,31
3399800,15
3400416,41
3401048,31
3401668,22
3402292,36
3402920,17
3403540,16
3404168,18
3404792,25
3405416,43
3406044,13
3406668,42
3407296,14
3407924,27
3408544,24
3409172,17
3409796,14
3410428,14
3411056,15
3411676,12
3412304,10
3412928,11
3413552,10
3414180,10
3414800,16
3415428,13
3416052,12
3416676,35
3417308,43
3417932,17
3418560,15
3419188,14
3419808,17
3420436,20
3421060,24
3421692,20
3422320,29
3422944,29
3423572,42
3424200,65
3424820,66
3425452,26
3426072,15
3426700,17
3427324,30
3427952,22
3428580,11
3429204,19
3429836,11
3430468,11
3431088,11
3431716,16
3432340,14
3432964,21
3433596,68
3434216,74
3434848,59
3435472,94
3436096,58
3436724,13
3437344,59
3437976,47
3438604,52
3439224,88
3439856,76
3440480,46
3441108,72
3441740,114
3442412,77
3443036,59
3443660,34
3444284,38
3444912,118
3445588,92
3446216,48
3446844,32
3447464,22
3448092,16
3448716,10
3449344,11
3449976,15
3450596,17
3451224,14
3451848,15
3452472,13
3453100,16
3453720,19
3454348,15
3454976,12
3455600,30
3456232,43
3456852,69
3457480,46
3458112,12
3458728,22
3459356,19
3459980,31
3460612,39
3461240,43
3461856,50
3462488,17
3463108,40
3463732,54
3464364,104
3465036,74
3465660,37
3466292,11
3466912,19
3467540,38
3468164,49
3468796,29
3469424,19
3470048,12
3470676,39
3471304,49
3471928,27
3472556,12
3473176,75
3473808,74
3474436,50
3475056,32
3475688,17
3476308,15
3476940,23
3477572,28
3478192,37
3478824,39
3479448,23
3480072,14
3480700,9
3481268,22
3481904,16
3482524,11
3483148,17
3483780,14
3484400,15
3485028,15
3485652,24
3486276,46
3486904,66
3487520,63
3488152,25
3488780,10
3489400,20
3490028,22
3490652,11
3491280,27
3491912,12
3492528,15
3493156,14
3493780,15
3494408,17
3495036,14
3495656,12
3496284,12
3496908,14
3497532,10
3498164,14
3498784,20
3499416,30
3500044,25
3500664,14
3501296,14
3501920,37
3502548,77
3503180,110
3503852,131
3504532,34
3505160,22
3505776,11
3506404,46
3507028,49
3507660,59
3508292,57
3508912,83
3509540,44
3510168,16
3510792,16
3511420,14
3512040,23
3512672,17
3513296,12
3513920,11
3514548,10
3515168,20
3515800,24
3516428,24
3517048,11
3517680,18
3518304,29
3518936,20
3519564,17
3520184,10
3520816,11
3521436,10
3522060,13
3522692,34
3523312,39
3523940,36
3524564,22
3525188,15
3525816,14
3526432,14
3527064,14
3527692,14
3528312,13
3528940,13
3529564,10
3530196,10
3530824,9
3531396,10
3532028,16
3532656,49
3533284,57
3533916,41
3534536,18
3535164,23
3535788,24
3536412,19
3537044,23
3537664,14
3538292,35
3538916,64
3539540,64
3540172,52
3540792,19
3541420,17
3542052,31
3542672,15
3543300,34
3543924,36
3544556,22
3545188,10
3545808,15
3546436,10
3547060,20
3547684,35
3548316,38
3548936,33
3549564,18
3550188,42
3550816,20
3551444,24
3552068,14
3552700,18
3553328,18
3553952,11
3554580,38
3555204,69
3555836,97
3556468,98
3557088,90
3557720,18
3558344,13
3558968,54
3559596,88
3560216,44
3560844,17
3561468,18
3562096,23
3562724,36
3563352,16
3563980,11
3564612,10
3565232,19
3565860,21
3566484,13
3567108,16
3567740,22
3568360,35
3568988,16
3569612,17
3570236,11
3570868,10
3571488,11
3572116,15
3572748,10
3573368,11
3574000,32
3574624,69
3575252,79
3575884,66
3576504,55
3577136,30
3577760,21
3578384,17
3579016,20
3579632,56
3580264,102
3580948,61
3581568,27
3582200,20
3582824,12
3583456,10
3584088,17
3584704,38
3585332,44
3585956,56
3586580,55
3587208,24
3587824,13
3588452,19
3589076,27
3589700,43
3590332,54
3590952,26
3591580,33
3592212,105
3592884,106
3593560,30
3594184,19
3594808,34
3595436,102
3596108,148
3596788,60
3597416,62
3598032,39
3598664,11
3599288,19
3599912,30
3600544,23
3601160,46
3601788,32
3602412,14
3603036,16
3603668,36
3604292,22
3604924,20
3605552,24
3606168,36
3606800,21
3607420,23
3608052,31
3608680,78
3609296,65
3609928,41
3610548,29
3611172,21
3611804,36
3612424,77
3613052,69
3613676,33
3614300,24
3614928,26
3615552,11
3616184,18
3616812,40
3617432,32
3618060,19
3618684,14
3619312,24
3619940,26
3620560,13
3621188,10
3621812,12
3622436,17
3623064,16
3623688,37
3624316,15
3624940,27
3625564,47
3626196,65
3626820,75
3627448,50
3628080,32
3628696,14
3629324,23
3629948,62
3630580,55
3631212,33
3631832,33
3632464,31
3633088,16
3633712,23
3634340,14
3634960,33
3635592,38
3636216,43
3636836,50
3637468,16
3638092,11
3638720,12
3639348,10
3639968,11
3640600,32
3641224,53
3641852,22
3642484,54
3643104,25
3643732,20
3644360,26
3644984,25
3645612,30
3646232,19
3646860,17
3647484,10
3648112,10
3648740,11
3649364,10
3649992,13
3650620,15
3651240,37
3651868,16
3652492,15
3653120,11
3653752,15
3654368,63
3655000,32
3655624,33
3656248,94
3656876,93
3657496,95
3658128,96
3658756,40
3659376,14
3660008,17
3660632,25
3661260,31
3661892,20
3662512,29
3663140,22
3663768,13
3664392,24
3665020,25
3665640,61
3666268,35
3666892,19
3667516,14
3668148,38
3668768,15
3669396,40
3670028,40
3670648,42
3671280,15
3671904,13
3672532,11
3673164,12
3673784,24
3674412,19
3675036,21
3675664,20
3676292,14
3676912,21
3677540,15
3678168,35
3678792,46
3679424,29
3680044,43
3680672,69
3681300,18
3681920,12
3682548,33
3683172,77
3683804,82
3684436,64
3685056,43
3685688,29
3686312,25
3686936,45
3687564,48
3688184,25
3688812,12
3689436,35
3690056,29
3690688,12
3691304,49
3691932,83
3692564,86
3693184,75
3693812,53
3694436,21
3695064,65
3695696,50
3696312,20
3696944,13
3697568,18
3698192,12
3698820,50
3699440,29
3700068,16
3700692,37
3701316,49
3701948,28
3702568,17
3703196,27
3703828,98
3704448,100
3705128,18
3705752,35
3706376,47
3707008,50
3707624,20
3708252,15
3708876,48
3709500,65
3710132,72
3710752,52
3711384,20
3712012,25
3712628,13
3713260,89
3713884,97
3714512,60
3715144,39
3715764,28
3716392,24
3717016,35
3717640,37
3718268,26
3718888,16
3719516,18
3720140,28
3720764,45
3721396,62
3722016,70
3722644,99
3723276,122
3723948,71
3724576,28
3725200,35
3725828,43
3726460,34
3727080,32
3727712,49
3728336,12
3728956,21
3729588,24
3730208,24
3730836,11
3731468,29
3732088,22
3732716,19
3733344,21
3733972,15
3734604,14
3735224,18
3735852,19
3736480,12
3737104,29
3737736,42
3738352,54
3738980,74
3739604,75
3740228,52
3740860,36
3741480,16
3742108,16
3742740,32
3743360,17
3743988,54
3744616,66
3745248,60
3745876,52
3746496,53
3747128,41
3747752,35
3748376,17
3749004,62
3749624,92
3750252,101
3750936,130
3751604,62
3752232,51
3752856,35
3753480,12
3754112,33
3754728,69
3755360,84
3755984,68
3756608,37
3757240,15
3757856,12
3758488,12
3759120,14
3759740,14
3760372,18
3760996,48
3761624,64
3762256,50
3762876,51
3763508,29
3764132,40
3764756,11
3765388,14
3766008,49
3766636,49
3767264,33
3767888,14
3768520,58
3769136,55
3769764,16
3770396,22
3771016,22
3771644,11
3772272,11
3772900,30
3773532,22
3774152,48
3774784,61
3775408,25
3776032,19
3776660,15
3777280,29
3777908,53
3778532,46
3779160,41
3779788,10
3780408,11
3781036,35
3781668,67
3782288,86
3782920,39
3783544,33
3784176,22
3784804,22
3785424,64
3786056,52
3786680,23
3787304,15
3787936,40
3788552,55
3789188,74
3789812,107
3790484,136
3791160,101
3791836,42
3792456,14
3793084,44
3793704,67
3794336,30
3794964,29
3795584,46
3796212,55
3796840,31
3797468,13
3798100,10
3798720,11
3799352,16
3799976,20
3800600,19
3801228,14
3801848,13
3802476,14
3803100,12
3803728,12
3804356,17
3804976,17
3805604,15
3806236,54
3806856,83
3807488,88
3808112,96
3808744,31
3809372,16
3809992,44
3810620,25
3811244,15
3811868,11
3812500,12
3813120,17
3813752,27
3814376,24
3815000,20
3815632,19
3816252,11
3816880,13
3817512,13
3818132,15
3818764,14
3819388,46
3820020,107
3820700,139
3821372,96
3822000,48
3822628,49
3823248,91
3823880,83
3824504,41
3825136,29
3825764,29
3826384,35
3827016,22
3827640,14
3828264,13
3828896,11
3829520,9
3830100,11
3830728,13
3831352,12
3831984,22
3832604,20
3833236,21
3833868,51
3834488,34
3835120,51
3835744,54
3836376,27
3837008,10
3837628,21
3838256,50
3838884,54
3839508,27
3840144,31
3840760,50
3841388,24
3842012,13
3842632,14
3843264,36
3843880,53
3844508,24
3845140,12
3845760,26
3846388,48
3847012,44
3847644,19
3848276,12
3848896,11
3849524,13
3850152,21
3850776,27
3851404,16
3852024,14
3852652,14
3853276,13
3853900,15
3854532,24
3855152,56
3855784,63
3856412,52
3857032,60
3857660,33
3858284,67
3858916,45
3859544,22
3860168,17
3860796,25
3861420,24
3862044,34
3862676,29
3863296,11
3863924,19
3864552,23
3865176,22
3865804,15
3866424,25
3867052,21
3867684,15
3868304,16
3868932,26
3869556,37
3870188,40
3870820,35
3871440,37
3872072,41
3872692,37
3873316,34
3873948,19
3874568,11
3875196,37
3875824,59
3876448,33
3877076,16
3877704,17
3878332,17
3878964,18
3879584,27
3880216,17
3880840,14
3881468,15
3882100,30
3882720,28
3883352,59
3883976,71
3884600,43
3885232,13
3885848,14
3886480,51
3887108,50
3887728,13
3888360,10
3888984,21
3889612,27
3890244,30
3890864,41
3891496,72
3892120,48
3892740,13
3893372,46
3893992,69
3894624,52
3895248,16
3895868,35
3896500,96
3897120,107
3897800,86
3898428,55
3899048,42
3899676,53
3900304,17
3900932,22
3901564,20
3902184,31
3902816,22
3903440,37
3904064,32
3904692,30
3905312,40
3905940,10
3906572,20
3907192,65
3907824,93
3908448,83
3909080,67
3909708,31
3910328,19
3910960,25
3911584,22
3912208,12
3912840,30
3913456,29
3914088,48
3914712,20
3915336,19
3915968,19
3916588,44
3917216,18
3917848,16
3918468,18
3919096,35
3919720,45
3920352,48
3920980,34
3921600,26
3922228,39
3922856,12
3923480,13
3924108,11
3924728,15
3925360,18
3925984,17
3926608,23
3927240,21
3927856,15
3928488,15
3929116,19
3929736,44
3930368,35
3930992,12
3931624,24
3932252,12
3932872,39
3933500,33
3934124,16
3934748,34
3935376,16
3936000,33
3936628,11
3937252,35
3937876,11
3938508,10
3939128,11
3939756,28
3940388,36
3941008,22
3941636,20
3942264,17
3942892,14
3943524,14
3944144,15
3944772,10
3945396,13
3946020,13
3946652,10
3947272,13
3947900,10
3948528,16
3949152,11
3949780,23
3950404,27
3951036,27
3951668,30
3952288,18
3952916,13
3953540,15
3954172,30
3954804,38
3955424,33
3956052,34
3956676,35
3957300,45
3957932,54
3958552,45
3959180,47
3959808,43
3960432,37
3961060,38
3961688,20
3962316,17
3962948,37
3963568,37
3964196,21
3964820,57
3965448,40
3966076,51
3966696,96
3967328,125
3968012,143
3968684,114
3969360,52
3969976,16
3970600,11
3971232,26
3971848,34
3972476,36
3973104,40
3973728,51
3974356,36
3974984,40
3975612,44
3976244,40
3976864,31
3977492,17
3978116,11
3978748,17
3979380,11
3980000,10
3980628,16
3981256,39
3981880,39
3982508,31
3983128,28
3983760,22
3984388,14
3985008,22
3985636,26
3986260,33
3986892,72
3987524,72
3988144,59
3988776,66
3989400,87
3990024,35
3990656,41
3991272,32
3991904,48
3992532,38
3993156,14
3993788,17
3994408,30
3995036,22
3995668,10
3996288,15
3996916,28
3997540,12
3998172,34
3998804,45
3999424,43
4000056,33
4000676,16
4001300,24
4001928,20
4002552,15
4003180,19
4003804,12
4004428,29
4005060,21
4005680,12
4006308,27
4006940,36
4007560,40
4008188,35
4008812,26
4009444,23
4010072,20
4010688,16
4011320,12
4011944,11
4012568,18
4013196,10
4013816,21
4014448,41
4015068,31
4015692,14
4016324,10
4016944,16
4017572,48
4018204,59
4018824,47
4019452,34
4020076,19
4020708,11
4021336,10
4021956,10
4022584,15
4023208,23
4023832,46
4024460,56
4025080,69
4025708,96
4026332,82
4026956,56
4027584,30
4028208,41
4028836,75
4029468,83
4030088,67
4030716,33
4031344,11
4031976,16
4032608,35
4033224,26
4033852,17
4034476,16
4035104,34
4035732,16
4036352,21
4036980,21
4037604,44
4038228,29
4038860,21
4039480,65
4040112,77
4040740,59
4041360,51
4041988,28
4042612,26
4043244,53
4043876,40
4044496,16
4045128,32
4045748,43
4046372,28
4047004,19
4047624,28
4048252,14
4048876,48
4049500,22
4050132,14
4050756,27
4051384,54
4052016,43
4052632,31
4053264,26
4053888,48
4054520,12
4055148,43
4055768,40
4056396,24
4057020,17
4057648,21
4058276,11
4058896,22
4059524,33
4060148,50
4060776,71
4061404,65
4062032,29
4062660,15
4063292,66
4063912,85
4064544,59
4065168,43
4065800,42
4066428,45
4067048,17
4067680,26
4068304,39
4068928,34
4069556,46
4070176,66
4070808,74
4071436,62
4072056,12
4072684,15
4073312,18
4073940,17
4074572,74
4075192,116
4075876,36
4076496,16
4077120,27
4077748,46
4078368,89
4079000,65
4079632,59
4080248,55
4080880,51
4081504,41
4082132,12
4082764,29
4083384,13
4084012,21
4084636,14
4085264,15
4085892,15
4086512,20
4087140,23
4087768,20
4088392,19
4089024,11
4089640,10
4090272,17
4090904,31
4091520,60
4092152,93
4092776,75
4093408,64
4094040,63
4094664,17
4095296,40
4095924,21
4096552,42
4097180,30
4097796,15
4098424,38
4099048,34
4099668,63
4100296,90
4100920,69
4101548,46
4102176,32
4102792,26
4103420,12
4104044,13
4104672,30
4105300,38
4105920,39
4106548,32
4107172,46
4107792,56
4108424,99
4109040,70
4109668,47
4110288,14
4110912,22
4111540,20
4112160,58
4112788,69
4113416,51
4114032,39
4114664,39
4115288,68
4115916,46
4116544,53
4117160,53
4117792,69
4118412,64
4119044,27
4119672,23
4120288,38
4120920,74
4121544,96
4122164,85
4122796,78
4123416,56
4124044,16
4124668,98
4125296,95
4125924,28
4126548,17
4127176,22
4127808,24
4128424,14
4129052,10
4129676,15
4130304,27
4130932,27
4131552,20
4132180,41
4132804,37
4133428,13
4134056,22
4134680,15
4135308,20
4135932,28
4136560,20
4137188,29
4137812,30
4138440,11
4139072,16
4139688,21
4140316,29
4140940,47
4141568,65
4142200,79
4142816,82
4143448,69
4144068,21
4144692,51
4145324,62
4145944,34
4146572,17
4147196,14
4147824,17
4148452,24
4149076,27
4149704,29
4150336,18
4150952,16
4151584,19
4152208,18
4152836,35
4153468,20
4154088,11
4154716,44
4155340,60
4155964,14
4156596,16
4157216,68
4157848,40
4158476,13
4159096,14
4159724,35
4160352,59
4160980,59
4161608,25
4162224,24
4162852,22
4163476,11
4164100,19
4164728,13
4165352,11
4165980,10
4166604,31
4167228,57
4167856,26
4168472,16
4169100,23
4169724,18
4170352,18
4170980,40
4171604,87
4172232,90
4172860,81
4173476,73
4174108,44
4174732,12
4175360,19
4175988,16
4176608,14
4177236,19
4177860,46
4178484,28
4179112,22
4179736,19
4180364,20
4180988,40
4181616,58
4182244,86
4182868,55
4183496,29
4184128,19
4184744,28
4185372,29
4185996,23
4186624,11
4187256,13
4187872,15
4188500,17
4189124,13
4189748,15
4190380,26
4191000,50
4191628,49
4192256,50
4192880,60
4193508,68
4194132,70
4194760,69
4195392,54
4196008,35
4196640,14
4197260,19
4197892,11
4198524,12
4199144,47
4199772,64
4200396,57
4201020,31
4201648,35
4202264,34
4202892,14
4203516,36
4204140,25
4204768,26
4205392,15
4206024,22
4206652,33
4207272,41
4207900,38
4208528,42
4209156,55
4209784,49
4210404,30
4211032,29
4211656,23
4212280,12
4212908,14
4213528,27
4214156,34
4214780,28
4215408,83
4216036,53
4216660,40
4217292,43
4217920,30
4218544,19
4219172,15
4219800,13
4220420,17
4221052,24
4221672,11
4222300,10
4222924,19
4223548,19
4224180,60
4224800,71
4225428,68
4226056,51
4226672,29
4227300,15
4227924,18
4228552,20
4229184,14
4229800,15
4230428,24
4231052,43
4231680,14
4232312,13
4232928,32
4233556,62
4234184,81
4234808,55
4235436,15
4236056,20
4236684,29
4237312,43
4237936,47
4238564,17
4239188,16
4239820,35
4240452,40
4241072,13
4241700,24
4242324,76
4242952,61
4243580,18
4244200,15
4244828,11
4245452,51
4246076,52
4246704,33
4247328,25
4247956,18
4248588,24
4249208,29
4249836,12
4250460,13
4251092,14
4251720,16
4252340,17
4252968,29
4253592,36
4254216,12
4254844,59
4255464,87
4256092,111
4256776,102
4257444,66
4258068,12
4258692,18
4259324,14
4259952,14
4260576,17
4261204,21
4261828,48
4262452,76
4263080,50
4263696,46
4264324,24
4264948,19
4265572,11
4266200,32
4266824,59
4267452,69
4268084,70
4268704,46
4269332,36
4269956,52
4270588,22
4271216,19
4271840,63
4272468,51
4273092,12
4273716,42
4274348,50
4274968,51
4275596,40
4276220,62
4276848,59
4277476,30
4278100,34
4278732,109
4279412,126
4280084,48
4280708,17
4281332,10
4281956,19
4282584,32
4283208,36
4283840,43
4284468,50
4285088,47
4285716,44
4286340,44
4286972,32
4287604,10
4288224,12
4288852,26
4289476,34
4290100,27
4290728,28
4291352,11
4291980,15
4292604,14
4293232,14
4293860,13
4294484,14
4295116,19
4295744,16
4296368,11
4296996,12
4297620,13
4298244,12
4298876,12
4299496,12
4300128,15
4300752,33
4301376,43
4302008,43
4302624,59
4303252,67
4303884,18
4304504,15
4305132,24
4305756,12
4306388,11
4307016,27
4307636,25
4308264,33
4308888,38
4309512,17
4310140,15
4310760,19
4311388,48
4312016,66
4312636,28
4313268,10
4313888,17
4314516,111
4315200,100
4315868,19
4316496,45
4317120,31
4317744,29
4318372,18
4318992,41
4319624,29
4320248,31
4320872,45
4321500,31
4322124,17
4322752,10
4323384,26
4324000,62
4324628,27
4325252,13
4325884,18
4326512,34
4327132,38
4327760,49
4328384,53
4329008,35
4329636,11
4330256,32
4330884,61
4331508,51
4332136,23
4332764,11
4333388,15
4334020,27
4334652,14
4335272,35
4335904,27
4336528,26
4337156,27
4337788,12
4338408,33
4339036,27
4339664,12
4340288,30
4340916,42
4341536,41
4342168,40
4342796,34
4343416,24
4344044,16
4344668,11
4345300,11
4345928,18
4346552,24
4347184,26
4347808,27
4348432,21
4349060,11
4349680,13
4350308,30
4350936,33
4351560,25
4352192,18
4352808,38
4353436,42
4354064,68
4354688,95
4355316,65
4355940,41
4356572,51
4357200,13
4357816,61
4358448,79
4359072,52
4359696,77
4360324,116
4360996,94
4361620,52
4362252,22
4362872,25
4363500,11
4364124,33
4364756,49
4365384,69
4366008,65
4366636,31
4367260,29
4367884,33
4368516,18
4369136,15
4369764,15
4370388,18
4371012,10
4371644,10
4372264,19
4372892,24
4373524,28
4374144,33
4374776,45
4375400,47
4376028,75
4376660,80
4377280,89
4377908,82
4378536,66
4379160,16
4379788,38
4380408,59
4381036,61
4381664,108
4382340,88
4382968,51
4383592,28
4384220,33
4384852,30
4385472,18
4386100,16
4386724,35
4387348,22
4387980,10
4388600,21
4389228,33
4389852,38
4390480,46
4391108,50
4391728,47
4392360,49
4392988,39
4393608,34
4394236,19
4394860,22
4395492,35
4396124,14
4396744,23
4397376,23
4398000,13
4398624,12
4399256,14
4399872,23
4400504,133
4401184,75
4401808,18
4402440,19
4403064,11
4403692,36
4404324,24
4404944,11
4405572,10
4406196,16
4406820,29
4407452,36
4408072,40
4408700,41
4409324,27
4409948,28
4410580,38
4411204,41
4411832,24
4412464,10
4413084,49
4413712,28
4414340,17
4414968,33
4415600,21
4416220,14
4416848,15
4417472,25
4418096,20
4418724,18
4419344,24
4419972,28
4420596,43
4421224,13
4421852,24
4422476,13
4423108,31
4423740,11
4424360,19
4424988,17
4425612,16
4426240,15
4426872,16
4427488,20
4428116,19
4428744,19
4429368,13
4429996,10
4430616,12
4431244,18
4431872,16
4432496,19
4433124,22
4433748,18
4434380,14
4435008,14
4435632,14
4436260,13
4436884,10
4437508,11
4438140,20
4438760,58
4439392,91
4440016,101
4440692,93
4441320,83
4441944,25
4442572,35
4443204,30
4443824,17
4444456,15
4445080,25
4445704,33
4446332,74
4446952,65
4447584,21
4448208,13
4448832,11
4449460,15
4450080,15
4450708,49
4451340,56
4451960,29
4452592,15
4453216,29
4453844,47
4454476,39
4455096,30
4455724,32
4456348,24
4456972,17
4457604,16
4458224,43
4458856,56
4459480,68
4460104,73
4460736,45
4461352,11
4461984,22
4462616,20
4463232,10
4463864,17
4464488,17
4465116,25
4465748,65
4466368,74
4467000,58
4467624,48
4468248,25
4468876,16
4469496,12
4470128,27
4470752,35
4471376,44
4472008,46
4472624,55
4473256,67
4473888,38
4474504,62
4475136,89
4475760,75
4476392,20
4477020,37
4477640,48
4478272,33
4478896,10
4479524,23
4480156,40
4480776,12
4481404,46
4482028,37
4482652,28
4483280,55
4483896,83
4484524,59
4485156,24
4485776,15
4486404,28
4487028,36
4487656,14
4488288,12
4488904,10
4489536,15
4490160,55
4490784,119
4491468,75
4492088,23
4492716,22
4493348,16
4493968,23
4494596,24
4495224,16
4495852,21
4496484,10
4497104,13
4497732,23
4498356,25
4498984,32
4499612,23
4500232,17
4500864,48
4501488,30
4502112,18
4502744,12
4503368,11
4503996,12
4504628,45
4505248,74
4505880,92
4506504,110
4507184,66
4507808,16
4508424,14
4509052,23
4509676,24
4510300,53
4510932,101
4511608,84
4512232,72
4512860,42
4513480,17
4514108,13
4514732,11
4515356,10
4515988,14
4516608,23
4517236,21
4517860,14
4518484,16
4519116,16
4519736,17
4520364,21
4520996,18
4521616,14
4522244,23
4522868,54
4523496,75
4524128,56
4524748,59
4525380,59
4526004,15
4526628,29
4527256,25
4527876,24
4528504,30
4529128,35
4529752,36
4530384,39
4531004,34
4531632,17
4532264,13
4532880,25
4533512,14
4534136,18
4534768,15
4535396,28
4536016,53
4536644,71
4537268,48
4537892,35
4538524,13
4539144,10
4539776,25
4540400,12
4541024,22
4541656,16
4542280,37
4542908,39
4543540,32
4544160,14
4544792,12
4545416,25
4546044,10
4546676,20
4547296,32
4547924,51
4548548,29
4549172,52
4549804,35
4550424,43
4551052,78
4551680,24
4552304,15
4552936,11
4553560,11
4554192,29
4554824,11
4555440,16
4556072,46
4556696,61
4557320,63
4557952,13
4558572,19
4559200,17
4559824,31
4560448,34
4561076,16
4561696,20
4562324,37
4562956,24
4563576,16
4564204,14
4564828,12
4565460,14
4566092,14
4566712,15
4567344,15
4567968,15
4568592,14
4569224,15
4569840,19
4570468,23
4571092,32
4571720,16
4572348,10
4572968,11
4573596,21
4574228,42
4574848,32
4575480,14
4576104,21
4576732,23
4577364,15
4577984,17
4578612,15
4579240,17
4579864,37
4580492,36
4581112,38
4581744,48
4582368,59
4582992,21
4583624,18
4584244,30
4584872,38
4585504,54
4586124,76
4586756,82
4587380,43
4588012,23
4588640,32
4589264,36
4589892,45
4590516,40
4591144,13
4591772,15
4592392,14
4593024,29
4593648,16
4594272,13
4594900,11
4595524,17
4596156,15
4596784,24
4597408,21
4598040,14
4598664,12
4599292,9
4599872,19
4600496,22
4601124,13
4601748,15
4602376,16
4603004,17
4603624,12
4604252,45
4604880,101
4605556,162
4606236,134
4606908,102
4607580,40
4608208,40
4608824,115
4609504,126
4610176,127
4610852,80
4611476,42
4612108,10
4612728,14
4613356,29
4613980,12
4614612,13
4615240,38
4615856,39
4616488,15
4617112,17
4617736,20
4618364,32
4618984,74
4619612,56
4620236,13
4620860,13
4621492,16
4622112,25
4622740,11
4623372,10
4623992,15
4624624,29
4625248,35
4625876,50
4626508,55
4627128,42
4627760,22
4628384,23
4629008,37
4629636,19
4630256,14
4630884,12
4631512,10
4632136,15
4632764,23
4633384,26
4634016,17
4634644,42
4635264,59
4635892,61
4636520,59
4637148,28
4637780,34
4638400,36
4639028,15
4639656,14
4640280,37
4640908,51
4641528,61
4642156,49
4642780,28
4643404,14
4644032,23
4644656,52
4645284,80
4645916,51
4646536,38
4647164,35
4647788,13
4648420,13
4649048,16
4649672,22
4650300,22
4650924,23
4651548,62
4652176,45
4652800,30
4653428,26
4654052,13
4654676,15
4655308,15
4655928,24
4656560,23
4657188,10
4657808,16
4658436,46
4659064,50
4659696,26
4660324,20
4660944,16
4661572,20
4662196,17
4662824,11
4663452,25
4664072,24
4664700,35
4665328,54
4665952,12
4666580,63
4667204,43
4667836,40
4668468,70
4669088,72
4669720,44
4670344,93
4670972,53
4671604,14
4672224,31
4672852,11
4673476,11
4674100,18
4674728,31
4675352,21
4675980,15
4676604,22
4677232,71
4677860,42
4678484,24
4679116,46
4679748,37
4680368,53
4680996,31
4681620,13
4682244,15
4682876,48
4683496,49
4684128,26
4684752,22
4685376,17
4686004,42
4686624,47
4687252,33
4687884,28
4688504,26
4689132,34
4689760,49
4690388,41
4691020,32
4691640,27
4692268,15
4692892,27
4693516,21
4694148,14
4694768,11
4695400,20
4696024,16
4696648,12
4697276,20
4697896,16
4698528,15
4699160,20
4699776,13
4700408,25
4701032,21
4701664,17
4702296,25
4702912,28
4703544,25
4704168,10
4704792,38
4705424,28
4706044,20
4706676,18
4707300,15
4707924,16
4708556,14
4709176,14
4709808,16
4710440,19
4711056,28
4711684,23
4712308,35
4712940,63
4713572,44
4714192,12
4714824,15
4715448,91
4716072,149
4716756,61
4717376,18
4718008,43
4718640,30
4719256,19
4719888,13
4720512,15
4721144,11
4721772,12
4722392,14
4723024,36
4723648,62
4724272,82
4724900,74
4725520,52
4726152,33
4726776,21
4727400,25
4728032,21
4728656,13
4729284,11
4729916,16
4730536,28
4731168,48
4731792,42
4732424,28
4733052,15
4733672,15
4734304,25
4734928,28
4735552,15
4736184,37
4736800,26
4737428,11
4738060,18
4738680,36
4739308,50
4739936,59
4740564,47
4741196,42
4741816,15
4742444,20
4743068,24
4743696,32
4744324,42
4744944,14
4745576,11
4746200,17
4746824,19
4747456,53
4748072,52
4748704,55
4749336,65
4749956,52
4750588,22
4751212,14
4751844,26
4752472,39
4753096,40
4753728,20
4754352,16
4754976,17
4755608,42
4756224,43
4756856,57
4757480,67
4758104,19
4758732,12
4759352,18
4759984,14
4760616,13
4761232,12
4761864,10
4762488,11
4763116,22
4763748,36
4764368,41
4764996,24
4765624,11
4766248,19
4766876,20
4767496,15
4768128,17
4768752,15
4769376,28
4770004,17
4770628,10
4771260,11
4771892,18
4772512,16
4773140,21
4773768,32
4774396,29
4775028,26
4775648,19
4776280,15
4776904,15
4777528,12
4778160,16
4778776,17
4779408,10
4780040,10
4780660,11
4781292,13
4781916,15
4782548,13
4783180,26
4783800,15
4784432,22
4785056,25
4785680,20
4786312,18
4786932,21
4787560,16
4788188,20
4788812,63
4789440,92
4790064,77
4790696,52
4791328,19
4791948,39
4792580,49
4793204,47
4793836,28
4794468,16
4795088,14
4795720,33
4796344,61
4796968,35
4797600,12
4798216,10
4798848,10
4799476,11
4800100,19
4800728,15
4801352,18
4801984,21
4802612,26
4803232,13
4803860,29
4804484,16
4805112,12
4805744,14
4806364,18
4806992,21
4807620,33
4808244,28
4808872,13
4809492,16
4810120,14
4810744,13
4811372,11
4812000,26
4812628,22
4813256,16
4813888,14
4814504,11
4815136,35
4815760,51
4816388,33
4817020,28
4817640,19
4818268,19
4818892,40
4819516,48
4820148,26
4820768,17
4821396,16
4822028,11
4822648,27
4823276,30
4823904,17
4824532,42
4825164,29
4825784,24
4826412,35
4827036,45
4827660,29
4828292,24
4828912,32
4829540,13
4830168,12
4830792,11
4831424,22
4832040,73
4832672,93
4833304,16
4833920,14
4834548,88
4835172,128
4835856,60
4836480,68
4837096,87
4837728,34
4838352,24
4838976,64
4839608,75
4840224,72
4840856,51
4841484,14
4842104,16
4842732,14
4843360,15
4843988,22
4844620,12
4845240,10
4845868,13
4846496,39
4847120,47
4847748,16
4848368,11
4848996,28
4849620,91
4850244,77
4850876,44
4851496,41
4852128,30
4852756,15
4853376,15
4854008,41
4854632,40
4855260,15
4855892,10
4856512,15
4857144,23
4857768,45
4858392,56
4859024,52
4859644,53
4860272,44
4860900,47
4861524,33
4862156,20
4862776,14
4863408,14
4864040,50
4864656,65
4865284,52
4865908,34
4866540,19
4867168,17
4867792,18
4868424,13
4869048,14
4869672,11
4870300,10
4870920,19
4871552,13
4872176,17
4872800,23
4873428,14
4874056,26
4874688,26
4875316,38
4875936,32
4876568,20
4877192,18
4877820,11
4878452,13
4879072,15
4879704,12
4880328,16
4880952,22
4881580,36
4882200,31
4882828,12
4883456,39
4884080,49
4884708,31
4885336,20
4885964,14
4886596,46
4887216,15
4887844,41
4888472,63
4889096,61
4889728,20
4890344,10
4890972,31
4891600,51
4892224,15
4892852,20
4893472,42
4894104,37
4894732,28
4895352,25
4895984,22
4896608,34
4897240,42
4897868,34
4898488,23
4899120,18
4899744,15
4900368,20
4901000,28
4901616,18
4902248,36
4902872,47
4903496,30
4904128,26
4904744,14
4905376,36
4906008,30
4906632,12
4907264,54
4907888,72
4908520,56
4909152,27
4909768,19
4910400,14
4911024,19
4911648,14
4912280,20
4912904,26
4913536,21
4914160,13
4914788,13
4915420,11
4916044,15
4916672,16
4917300,13
4917920,21
4918548,32
4919172,32
4919804,23
4920432,26
4921048,16
4921676,16
4922300,12
4922924,43
4923552,58
4924176,67
4924804,73
4925428,61
4926052,21
4926684,16
4927308,31
4927936,26
4928568,38
4929184,29
4929816,45
4930440,47
4931068,48
4931700,36
4932320,21
4932948,29
4933572,45
4934196,47
4934828,21
4935448,15
4936076,25
4936700,35
4937328,24
4937956,10
4938580,14
4939212,36
4939840,50
4940464,61
4941096,70
4941720,81
4942344,69
4942972,54
4943592,29
4944224,27
4944844,66
4945468,55
4946100,50
4946720,38
4947348,22
4947980,14
4948600,11
4949228,17
4949852,14
4950484,13
4951116,14
4951736,22
4952368,35
4952992,24
4953616,11
4954244,34
4954864,43
4955496,43
4956120,59
4956744,71
4957376,48
4957992,30
4958624,37
4959252,27
4959872,41
4960504,51
4961128,28
4961756,11
4962388,10
4963008,10
4963636,17
4964264,21
4964888,43
4965516,48
4966136,25
4966768,20
4967388,18
4968012,14
4968644,14
4969264,17
4969892,27
4970524,28
4971144,31
4971776,33
4972400,35
4973028,42
4973660,23
4974280,36
4974912,27
4975536,15
4976160,29
4976788,44
4977408,27
4978036,12
4978660,16
4979288,52
4979916,44
4980536,17
4981164,20
4981796,24
4982416,29
4983044,17
4983668,34
4984300,36
4984932,14
4985552,34
4986184,50
4986808,35
4987432,11
4988064,16
4988680,15
4989312,22
4989936,28
4990560,37
4991192,49
4991816,36
4992448,27
4993076,20
4993696,20
4994324,16
4994948,14
4995580,10
4996212,16
4996832,29
4997464,35
4998088,46
4998708,36
4999340,22
4999960,25
5000592,19
5001216,16
5001840,14
5002468,14
5003092,16
5003724,14
5004356,20
5004976,21
5005604,17
5006228,22
5006856,33
5007484,44
5008104,32
5008732,21
5009356,39
5009980,48
5010612,46
5011232,22
5011860,14
5012492,58
5013112,71
5013744,50
5014368,22
5015000,13
5015632,16
5016252,28
5016880,16
5017508,41
5018132,53
5018764,55
5019384,67
5020012,19
5020636,101
5021316,60
5021944,22
5022568,11
5023200,21
5023828,32
5024448,40
5025080,54
5025704,77
5026328,60
5026960,39
5027576,12
5028208,24
5028832,127
5029508,114
5030188,43
5030808,16
5031432,17
5032064,31
5032684,43
5033312,14
5033940,38
5034564,65
5035196,90
5035816,80
5036448,58
5037080,52
5037704,47
5038336,12
5038960,41
5039592,31
5040224,11
5040840,32
5041472,29
5042096,17
5042720,15
5043352,14
5043968,13
5044596,16
5045224,17
5045848,19
5046476,11
5047096,14
5047728,10
5048356,10
5048976,14
5049604,20
5050228,20
5050860,15
5051492,14
5052112,14
5052744,12
5053368,23
5053996,28
5054628,19
5055248,14
5055880,11
5056504,27
5057132,33
5057760,28
5058384,22
5059016,15
5059648,14
5060272,29
5060904,39
5061528,53
5062152,38
5062784,26
5063400,10
5064032,29
5064656,21
5065284,10
5065912,16
5066536,35
5067168,58
5067800,63
5068420,35
5069052,17
5069676,10
5070308,15
5070940,21
5071560,38
5072192,59
5072816,77
5073440,77
5074072,66
5074692,49
5075320,14
5075948,17
5076572,16
5077204,29
5077828,19
5078460,50
5079092,53
5079712,41
5080344,17
5080968,23
5081596,14
5082228,40
5082848,89
5083480,37
5084104,28
5084728,19
5085360,26
5085976,97
5086608,75
5087240,31
5087860,21
5088492,25
5089116,14
5089748,19
5090376,19
5091000,39
5091632,58
5092256,57
5092880,44
5093512,18
5094132,58
5094764,77
5095388,35
5096012,25
5096644,28
5097264,34
5097896,19
5098528,29
5099144,45
5099780,73
5100404,89
5101036,41
5101668,27
5102288,13
5102920,29
5103544,17
5104168,19
5104800,10
5105420,29
5106052,50
5106676,23
5107304,31
5107932,20
5108560,39
5109192,37
5109824,34
5110444,17
5111076,10
5111700,40
5112328,27
5112960,11
5113580,30
5114212,25
5114836,11
5115464,10
5116096,36
5116716,38
5117348,29
5117984,18
5118604,15
5119236,12
5119864,25
5120496,30
5121124,32
5121744,56
5122372,51
5122996,14
5123616,30
5124248,45
5124864,20
5125492,25
5126116,24
5126736,15
5127368,28
5127984,19
5128612,12
5129244,10
5129864,11
5130492,12
5131116,22
5131744,52
5132376,56
5132992,37
5133624,20
5134244,14
5134868,15
5135500,14
5136120,15
5136748,15
5137372,19
5137996,40
5138624,48
5139248,54
5139876,56
5140508,51
5141128,43
5141756,28
5142380,20
5143012,18
5143640,21
5144264,14
5144892,10
5145516,13
5146144,21
5146772,32
5147392,28
5148020,21
5148644,15
5149268,13
5149900,13
5150520,22
5151148,17
5151780,23
5152400,13
5153028,11
5153652,18
5154280,21
5154912,10
5155532,14
5156160,17
5156784,48
5157408,76
5158040,78
5158656,74
5159288,37
5159912,16
5160536,42
5161164,63
5161784,48
5162412,51
5163044,54
5163664,45
5164292,30
5164916,19
5165548,17
5166176,21
5166796,23
5167424,23
5168048,17
5168672,15
5169300,18
5169920,23
5170548,29
5171176,34
5171800,26
5172428,25
5173048,43
5173676,51
5174308,52
5174928,35
5175556,22
5176184,19
5176812,15
5177444,10
5178064,11
5178692,10
5179320,36
5179944,60
5180572,16
5181192,27
5181824,27
5182448,30
5183072,21
5183700,24
5184324,15
5184956,70
5185584,81
5186208,28
5186836,25
5187460,29
5188092,13
5188720,38
5189344,31
5189976,34
5190600,12
5191224,33
5191852,34
5192472,36
5193100,37
5193728,16
5194352,11
5194984,12
5195608,15
5196236,10
5196868,30
5197488,33
5198116,16
5198740,14
5199368,12
5199996,16
5200616,23
5201248,17
5201872,15
5202496,19
5203124,27
5203744,26
5204372,17
5205004,18
5205624,14
5206252,27
5206880,46
5207508,50
5208140,52
5208760,45
5209388,50
5210016,38
5210640,17
5211268,19
5211888,39
5212520,39
5213144,36
5213768,23
5214396,18
5215016,32
5215648,21
5216280,13
5216896,33
5217524,45
5218152,56
5218780,99
5219412,98
5220032,41
5220660,80
5221288,83
5221912,71
5222544,39
5223160,12
5223788,33
5224412,46
5225036,33
5225668,16
5226288,15
5226916,15
5227548,14
5228168,20
5228796,19
5229424,22
5230052,11
5230684,22
5231304,32
5231936,33
5232560,39
5233184,23
5233816,42
5234432,79
5235064,56
5235688,18
5236312,18
5236944,36
5237560,30
5238192,11
5238824,10
5239440,12
5240072,12
5240696,17
5241328,20
5241956,20
5242576,23
5243208,25
5243828,24
5244452,11
5245080,14
5245704,11
5246332,10
5246956,13
5247580,12
5248212,12
5248832,22
5249460,30
5250088,35
5250704,29
5251332,18
5251956,14
5252584,12
5253212,19
5253832,27
5254460,25
5255080,29
5255704,29
5256332,29
5256952,37
5257580,43
5258204,32
5258828,28
5259456,23
5260080,23
5260708,15
5261340,16
5261960,14
5262588,21
5263212,16
5263844,40
5264472,29
5265088,17
5265720,28
5266340,23
5266964,18
5267596,76
5268216,83
5268844,20
5269468,19
5270092,18
5270720,10
5271344,23
5271972,40
5272604,42
5273224,49
5273856,53
5274476,48
5275108,34
5275736,18
5276352,14
5276984,17
5277608,12
5278228,14
5278860,12
5279480,12
5280108,11
5280732,10
5281356,10
5281984,11
5282600,19
5283228,33
5283856,14
5284480,17
5285108,18
5285728,16
5286360,18
5286988,32
5287608,22
5288236,17
5288860,64
5289484,78
5290112,87
5290728,114
5291412,59
5292036,22
5292656,15
5293284,16
5293908,29
5294540,23
5295168,37
5295788,52
5296416,71
5297040,33
5297668,40
5298296,59
5298920,103
5299600,63
5300228,18
5300848,18
5301476,23
5302100,31
5302732,31
5303360,22
5303984,27
5304616,26
5305240,17
5305864,17
5306492,33
5307112,51
5307740,44
5308368,33
5308992,29
5309620,24
5310240,24
5310868,17
5311500,12
5312120,22
5312748,26
5313372,42
5314004,21
5314632,12
5315248,10
5315880,11
5316504,22
5317128,23
5317756,20
5318376,23
5319008,12
5319632,12
5320256,11
5320884,11
5321504,15
5322136,23
5322764,37
5323384,51
5324016,59
5324640,44
5325268,42
5325900,52
5326520,47
5327148,36
5327772,19
5328396,22
5329024,44
5329640,59
5330268,51
5330892,16
5331516,11
5332144,10
5332764,13
5333392,15
5334020,14
5334640,22
5335268,56
5335892,93
5336524,90
5337152,28
5337768,47
5338400,72
5339024,51
5339652,31
5340280,18
5340904,29
5341532,29
5342156,31
5342780,16
5343412,20
5344032,14
5344660,11
5345288,13
5345912,11
5346540,23
5347164,33
5347796,21
5348424,32
5349048,35
5349676,72
5350300,73
5350928,29
5351556,37
5352176,32
5352804,12
5353428,11
5354052,10
5354684,11
5355304,16
5355932,21
5356564,32
5357184,45
5357812,48
5358440,27
5359068,19
5359700,16
5360320,15
5360948,17
5361572,10
5362196,10
5362828,10
5363448,11
5364076,12
5364700,32
5365324,41
5365956,53
5366576,18
5367204,24
5367836,29
5368456,23
5369084,24
5369708,10
5370340,11
5370968,21
5371588,34
5372216,43
5372840,45
5373464,34
5374092,22
5374712,19
5375344,28
5375968,54
5376592,44
5377220,22
5377840,21
5378468,69
5379096,89
5379720,75
5380348,43
5380972,19
5381604,13
5382232,14
5382848,16
5383480,41
5384104,32
5384728,16
5385356,16
5385976,19
5386604,36
5387228,38
5387852,26
5388484,19
5389104,15
5389732,11
5390364,31
5390984,49
5391612,50
5392240,40
5392868,23
5393496,13
5394116,11
5394744,18
5395368,23
5395992,13
5396624,10
5397244,10
5397872,27
5398496,49
5399120,50
5399748,35
5400368,31
5400996,27
5401628,14
5402248,13
5402876,14
5403500,11
5404132,25
5404760,50
5405384,63
5406016,69
5406640,61
5407264,13
5407892,32
5408512,33
5409140,14
5409764,20
5410388,21
5411016,12
5411640,10
5412268,11
5412900,10
5413520,10
5414148,9
5414724,16
5415356,35
5415988,59
5416608,32
5417236,18
5417860,19
5418492,14
5419120,54
5419744,92
5420376,109
5421052,61
5421672,24
5422300,59
5422928,55
5423556,57
5424188,42
5424808,44
5425436,49
5426060,25
5426692,15
5427324,20
5427944,29
5428572,10
5429196,11
5429820,10
5430448,10
5431072,11
5431700,10
5432332,10
5432952,15
5433580,13
5434208,14
5434836,14
5435468,14
5436088,13
5436716,22
5437344,37
5437968,34
5438600,42
5439216,59
5439848,48
5440472,26
5441092,16
5441724,16
5442344,15
5442972,15
5443604,14
5444224,11
5444852,12
5445476,19
5446104,25
5446736,27
5447352,24
5447984,17
5448608,11
5449232,11
5449860,22
5450480,25
5451108,14
5451732,17
5452356,21
5452988,24
5453608,26
5454236,21
5454864,21
5455488,21
5456116,25
5456740,22
5457368,18
5458000,29
5458616,46
5459244,47
5459868,46
5460492,46
5461120,13
5461736,69
5462368,80
5462992,71
5463620,41
5464248,29
5464868,22
5465496,20
5466128,16
5466744,14
5467372,14
5468000,15
5468628,14
5469260,20
5469880,25
5470508,31
5471136,47
5471760,59
5472388,57
5473008,67
5473636,59
5474260,13
5474884,30
5475516,14
5476136,20
5476764,22
5477396,10
5478016,16
5478648,18
5479272,11
5479900,10
5480532,22
5481152,40
5481780,26
5482404,31
5483028,42
5483660,20
5484280,20
5484908,29
5485532,39
5486160,52
5486788,82
5487408,84
5488036,38
5488668,60
5489288,83
5489916,58
5490540,14
5491172,28
5491800,28
5492424,25
5493052,28
5493676,18
5494304,17
5494932,10
5495552,25
5496184,55
5496808,38
5497432,25
5498060,19
5498680,13
5499312,15
5499940,14
5500560,14
5501192,15
5501816,16
5502444,14
5503076,12
5503696,19
5504328,27
5504952,50
5505576,83
5506204,141
5506876,148
5507556,96
5508184,19
5508800,84
5509428,91
5510056,86
5510680,52
5511308,22
5511928,11
5512560,19
5513184,42
5513808,25
5514436,10
5515056,11
5515688,19
5516316,47
5516936,44
5517568,39
5518192,27
5518824,13
5519452,19
5520072,16
5520700,22
5521324,22
5521948,25
5522580,20
5523200,27
5523828,58
5524456,86
5525080,101
5525764,88
5526384,58
5527016,16
5527648,78
5528264,124
5528948,95
5529568,78
5530196,48
5530824,15
5531444,16
5532072,15
5532700,14
5533320,19
5533948,16
5534576,26
5535204,35
5535836,14
5536456,11
5537084,23
5537708,15
5538332,21
5538964,11
5539584,18
5540216,33
5540840,39
5541460,29
5542092,18
5542712,15
5543340,18
5543972,22
5544592,19
5545224,18
5545848,26
5546476,16
5547108,10
5547728,15
5548360,25
5548984,27
5549608,24
5550236,20
5550856,20
5551488,16
5552112,11
5552736,19
5553364,25
5553992,23
5554620,17
5555252,27
5555872,37
5556504,40
5557128,40
5557756,30
5558388,35
5559008,31
5559640,24
5560268,20
5560892,15
5561524,12
5562144,35
5562776,31
5563404,22
5564024,28
5564656,28
5565280,19
5565912,21
5566544,23
5567160,23
5567792,25
5568420,25
5569044,12
5569676,10
5570296,14
5570928,20
5571552,11
5572176,32
5572804,46
5573424,48
5574052,46
5574684,24
5575304,16
5575936,15
5576560,15
5577188,11
5577820,11
5578440,11
5579068,13
5579696,10
5580320,14
5580952,10
5581568,11
5582196,41
5582824,24
5583448,13
5584076,14
5584696,25
5585324,25
5585956,23
5586576,50
5587204,56
5587828,53
5588460,58
5589092,68
5589712,28
5590344,18
5590968,28
5591592,15
5592224,30
5592840,30
5593472,15
5594096,15
5594720,37
5595352,40
5595976,55
5596608,59
5597240,42
5597856,27
5598488,31
5599112,37
5599744,51
5600376,67
5600992,48
5601620,15
5602244,23
5602868,35
5603500,57
5604120,67
5604748,58
5605376,42
5606000,30
5606632,33
5607256,44
5607884,48
5608516,38
5609136,27
5609764,20
5610388,17
5611016,14
5611648,11
5612264,10
5612892,13
5613516,15
5614140,17
5614772,14
5615392,11
5616020,14
5616652,16
5617272,15
5617900,15
5618528,18
5619156,28
5619788,42
5620408,55
5621036,46
5621664,12
5622288,35
5622920,37
5623536,20
5624168,13
5624792,15
5625416,15
5626048,17
5626664,14
5627296,16
5627924,15
5628544,11
5629176,10
5629800,12
5630432,23
5631060,22
5631680,21
5632312,32
5632936,24
5633560,21
5634188,14
5634808,15
5635436,15
5636060,12
5636684,11
5637312,14
5637936,16
5638564,23
5639196,35
5639816,44
5640444,57
5641068,57
5641700,50
5642328,44
5642944,30
5643576,19
5644200,17
5644824,11
5645452,10
5646072,12
5646700,29
5647324,52
5647952,35
5648584,11
5649200,17
5649828,23
5650460,19
5651080,29
5651712,29
5652336,57
5652968,30
5653596,18
5654216,11
5654844,19
5655468,31
5656096,52
5656724,64
5657344,62
5657976,15
5658596,23
5659220,13
5659852,16
5660472,12
5661100,25
5661732,44
5662352,41
5662984,11
5663608,24
5664236,59
5664868,28
5665488,17
5666116,15
5666740,13
5667364,17
5667996,24
5668616,57
5669244,47
5669872,22
5670496,11
5671124,17
5671748,30
5672380,43
5673012,40
5673632,44
5674260,59
5674884,23
5675516,19
5676148,22
5676768,20
5677400,11
5678024,14
5678648,18
5679276,13
5679896,9
5680476,10
5681104,11
5681728,14
5682360,18
5682976,20
5683608,29
5684236,24
5684856,21
5685484,22
5686108,25
5686740,87
5687368,98
5687992,124
5688676,131
5689356,81
5689976,14
5690604,39
5691232,59
5691860,91
5692492,68
5693112,57
5693744,69
5694368,87
5694992,75
5695624,39
5696240,16
5696872,31
5697496,55
5698120,24
5698748,14
5699368,14
5699996,13
5700628,14
5701248,19
5701876,17
5702504,11
5703132,29
5703764,30
5704384,32
5705012,32
5705640,39
5706264,51
5706892,85
5707512,79
5708144,47
5708768,31
5709392,15
5710024,47
5710644,50
5711276,29
5711904,12
5712528,9
5713108,10
5713736,11
5714368,15
5714996,19
5715616,31
5716248,24
5716872,15
5717504,27
5718136,26
5718752,32
5719384,34
5720012,21
5720636,13
5721264,28
5721888,35
5722520,41
5723152,59
5723772,64
5724404,34
5725028,17
5725660,24
5726288,16
5726912,14
5727544,12
5728168,12
5728792,29
5729424,33
5730044,25
5730676,16
5731300,11
5731924,16
5732556,36
5733176,41
5733808,34
5734440,25
5735064,15
5735692,17
5736316,13
5736944,10
5737576,16
5738192,33
5738824,41
5739448,43
5740072,44
5740700,45
5741320,37
5741948,23
5742572,18
5743200,17
5743828,11
5744452,10
5745084,10
5745716,10
5746336,17
5746964,16
5747592,10
5748220,20
5748852,66
5749472,95
5750104,84
5750728,60
5751352,43
5751980,27
5752600,82
5753232,95
5753864,75
5754480,51
5755112,37
5755736,13
5756368,17
5756996,30
5757616,22
5758248,25
5758872,27
5759496,15
5760128,15
5760744,11
5761372,16
5761996,55
5762620,44
5763248,40
5763864,40
5764492,28
5765116,11
5765744,23
5766372,33
5766996,49
5767628,33
5768256,24
5768880,11
5769508,17
5770132,11
5770760,13
5771388,21
5772008,23
5772636,13
5773264,13
5773888,34
5774516,28
5775136,23
5775768,17
5776396,14
5777016,12
5777644,9
5778216,12
5778844,19
5779476,18
5780096,17
5780724,25
5781348,25
5781980,19
5782608,17
5783232,26
5783860,30
5784488,25
5785108,19
5785740,10
5786360,17
5786988,19
5787612,29
5788236,48
5788864,73
5789488,86
5790116,81
5790748,66
5791368,35
5791996,22
5792624,17
5793252,28
5793884,48
5794504,32
5795136,33
5795760,42
5796384,33
5797012,95
5797632,88
5798260,19
5798888,36
5799512,49
5800140,64
5800760,69
5801388,17
5802020,93
5802640,75
5803272,22
5803896,13
5804524,13
5805156,19
5805776,48
5806404,41
5807028,39
5807656,14
5808284,14
5808904,24
5809532,22
5810160,28
5810784,17
5811416,17
5812040,29
5812668,31
5813300,50
5813920,43
5814552,28
5815176,11
5815804,17
5816436,17
5817056,16
5817684,20
5818308,13
5818932,13
5819564,12
5820184,20
5820812,50
5821436,74
5822064,68
5822696,52
5823320,43
5823952,11
5824584,21
5825200,19
5825828,17
5826456,16
5827080,13
5827708,21
5828328,18
5828956,10
5829584,17
5830208,11
5830840,19
5831456,19
5832088,31
5832716,81
5833336,54
5833968,24
5834592,17
5835224,12
5835852,13
5836472,24
5837104,32
5837728,37
5838352,24
5838984,23
5839600,47
5840228,61
5840852,65
5841476,83
5842108,67
5842728,43
5843356,19
5843988,28
5844608,70
5845236,63
5845864,14
5846492,68
5847124,84
5847744,56
5848376,29
5849000,57
5849624,135
5850304,133
5850972,37
5851600,17
5852228,10
5852848,16
5853476,14
5854104,51
5854728,67
5855360,33
5855976,13
5856608,31
5857232,41
5857856,43
5858484,56
5859104,59
5859736,49
5860364,36
5860984,28
5861612,12
5862240,45
5862868,29
5863500,13
5864120,10
5864748,14
5865376,32
5866000,38
5866628,15
5867248,21
5867880,20
5868504,17
5869128,14
5869756,14
5870376,15
5871008,15
5871640,13
5872256,23
5872888,12
5873512,17
5874144,29
5874776,32
5875396,23
5876024,25
5876652,24
5877276,20
5877908,12
5878528,12
5879160,12
5879784,14
5880408,35
5881036,43
5881656,23
5882288,13
5882916,14
5883536,14
5884168,25
5884792,31
5885424,17
5886056,13
5886676,28
5887308,24
5887932,13
5888560,11
5889188,26
5889808,65
5890436,109
5891120,138
5891788,133
5892468,106
5893148,17
5893768,71
5894400,79
5895020,71
5895652,92
5896284,91
5896904,69
5897536,60
5898160,25
5898784,11
5899412,18
5900032,24
5900660,25
5901288,25
5901908,13
5902540,10
5903160,16
5903792,27
5904420,16
5905040,12
5905668,24
5906292,56
5906924,79
5907556,82
5908176,70
5908808,36
5909428,14
5910052,30
5910684,55
5911304,40
5911936,25
5912560,11
5913184,13
5913816,23
5914440,36
5915068,25
5915700,18
5916320,14
5916948,14
5917576,25
5918208,24
5918836,29
5919456,16
5920088,11
5920708,10
5921332,13
5921964,10
5922584,18
5923212,22
5923836,18
5924464,14
5925092,16
5925720,25
5926348,31
5926980,15
5927600,13
5928232,15
5928856,27
5929480,21
5930108,17
5930728,19
5931360,12
5931984,11
5932608,17
5933240,18
5933856,17
5934488,16
5935116,13
5935736,20
5936368,22
5936992,32
5937624,41
5938252,22
5938872,25
5939504,21
5940128,21
5940752,27
5941380,21
5942000,27
5942628,27
5943252,39
5943876,42
5944508,16
5945128,15
5945756,10
5946388,35
5947008,49
5947636,40
5948264,34
5948892,31
5949524,22
5950144,19
5950776,14
5951400,18
5952024,19
5952652,16
5953272,16
5953904,49
5954528,65
5955152,75
5955784,76
5956400,46
5957032,13
5957664,17
5958280,14
5958912,17
5959536,54
5960168,64
5960796,55
5961416,42
5962048,29
5962672,18
5963296,17
5963924,18
5964544,18
5965176,13
5965800,15
5966424,13
5967052,15
5967672,20
5968304,31
5968932,27
5969552,14
5970184,25
5970808,31
5971440,41
5972068,35
5972688,37
5973320,34
5973944,20
5974568,14
5975200,15
5975816,14
5976448,17
5977072,20
5977696,15
5978324,11
5978952,17
5979580,20
5980212,15
5980832,10
5981460,19
5982084,53
5982716,43
5983348,14
5983968,16
5984600,14
5985224,10
5985852,10
5986480,19
5987100,45
5987732,83
5988360,95
5988984,96
5989616,92
5990240,55
5990872,13
5991500,23
5992120,20
5992748,14
5993376,21
5994000,67
5994632,94
5995248,66
5995880,40
5996504,51
5997128,56
5997760,29
5998376,13
5999008,14
5999640,40
6000260,53
6000888,47
6001512,52
6002144,49
6002772,37
6003392,56
6004020,12
6004644,33
6005268,66
6005900,64
6006520,39
6007148,17
6007776,35
6008400,28
6009028,15
6009648,14
6010276,11
6010908,10
6011528,18
6012160,27
6012784,29
6013416,16
6014048,11
6014664,23
6015296,13
6015924,18
6016552,20
6017180,15
6017800,14
6018428,15
6019056,13
6019680,17
6020308,32
6020936,45
6021568,42
6022196,44
6022816,44
6023444,48
6024072,42
6024700,17
6025332,30
6025952,37
6026584,28
6027208,28
6027832,26
6028464,27
6029080,23
6029712,15
6030344,10
6030964,11
6031592,11
6032220,25
6032848,38
6033480,38
6034100,28
6034728,26
6035356,22
6035980,34
6036612,58
6037232,35
6037864,16
6038488,39
6039112,46
6039744,44
6040364,41
6040992,13
6041624,14
6042248,16
6042876,15
6043500,22
6044132,18
6044764,12
6045384,17
6046016,11
6046640,25
6047264,61
6047896,46
6048516,25
6049144,18
6049768,14
6050392,15
6051024,14
6051644,17
6052272,28
6052904,28
6053524,28
6054156,39
6054780,25
6055412,15
6056044,42
6056664,29
6057296,40
6057920,33
6058544,15
6059176,14
6059796,14
6060428,12
6061052,23
6061680,16
6062312,10
6062936,11
6063568,10
6064196,10
6064816,15
6065444,27
6066072,29
6066696,19
6067328,20
6067944,28
6068576,14
6069200,40
6069824,23
6070452,12
6071072,19
6071704,53
6072336,48
6072952,11
6073584,29
6074208,35
6074840,27
6075472,19
6076088,16
6076720,12
6077348,16
6077972,27
6078604,33
6079224,30
6079856,22
6080484,22
6081108,21
6081736,14
6082360,15
6082992,20
6083620,34
6084240,37
6084868,31
6085492,22
6086124,11
6086756,22
6087376,18
6088008,17
6088628,13
6089256,51
6089888,84
6090504,81
6091136,70
6091760,70
6092384,77
6093016,27
6093640,42
6094268,40
6094900,11
6095520,11
6096152,17
6096776,25
6097404,45
6098036,51
6098656,33
6099288,34
6099912,23
6100536,24
6101168,23
6101784,11
6102416,14
6103048,15
6103664,10
6104296,17
6104920,14
6105552,18
6106184,57
6106800,94
6107432,105
6108108,86
6108728,35
6109360,31
6109980,53
6110612,49
6111240,39
6111864,31
6112496,17
6113124,10
6113756,10
6114384,20
6115008,43
6115640,35
6116264,30
6116892,56
6117520,45
6118144,25
6118776,64
6119404,72
6120028,90
6120660,45
6121284,13
6121916,18
6122548,23
6123168,22
6123800,34
6124428,37
6125060,35
6125688,24
6126312,16
6126944,10
6127568,11
6128192,10
6128824,13
6129444,15
6130076,15
6130708,14
6131328,15
6131960,11
6132584,13
6133216,14
6133848,17
6134468,14
6135096,10
6135724,11
6136348,16
6136980,19
6137600,19
6138232,29
6138860,31
6139484,27
6140116,17
6140744,24
6141376,34
6142008,34
6142628,40
6143260,53
6143888,53
6144520,27
6145152,19
6145768,62
6146396,100
6147080,79
6147696,65
6148324,41
6148948,23
6149580,18
6150208,15
6150828,15
6151456,18
6152080,25
6152708,50
6153340,48
6153960,27
6154588,24
6155212,14
6155836,15
6156468,12
6157088,17
6157716,23
6158348,60
6158968,93
6159600,81
6160224,53
6160852,40
6161484,22
6162104,131
6162784,117
6163468,54
6164088,52
6164716,31
6165340,29
6165972,83
6166604,98
6167224,93
6167852,31
6168480,76
6169100,129
6169784,126
6170452,60
6171076,17
6171708,10
6172328,23
6172956,51
6173584,56
6174212,62
6174844,70
6175464,73
6176096,65
6176720,13
6177340,18
6177972,14
6178592,24
6179220,31
6179852,26
6180472,21
6181104,19
6181728,22
6182360,25
6182992,19
6183608,24
6184240,20
6184864,15
6185488,17
6186116,31
6186736,59
6187368,72
6187992,83
6188616,75
6189248,71
6189864,65
6190496,41
6191124,18
6191744,39
6192376,31
6193000,15
6193632,25
6194260,21
6194880,13
6195512,27
6196136,33
6196760,80
6197392,87
6198008,58
6198640,22
6199264,16
6199888,15
6200520,14
6201136,15
6201768,11
6202396,13
6203016,19
6203648,15
6204272,15
6204904,27
6205532,25
6206152,16
6206784,25
6207408,34
6208032,24
6208660,19
6209280,21
6209908,25
6210532,25
6211160,17
6211792,10
6212408,25
6213040,36
6213672,22
6214288,20
6214920,22
6215548,13
6216180,19
6216808,21
6217428,16
6218060,16
6218684,17
6219308,18
6219940,12
6220560,10
6221192,10
6221820,12
6222444,30
6223076,48
6223700,62
6224332,63
6224964,55
6225584,46
6226216,33
6226840,18
6227464,37
6228092,60
6228712,34
6229344,35
6229968,70
6230592,26
6231224,70
6231840,94
6232472,90
6233100,96
6233720,27
6234352,107
6235028,110
6235704,55
6236328,39
6236952,63
6237584,57
6238212,26
6238832,14
6239464,40
6240088,57
6240716,47
6241348,36
6241968,33
6242596,30
6243224,31
6243848,21
6244476,11
6245096,11
6245728,25
6246352,34
6246976,27
6247608,22
6248224,11
6248852,21
6249484,14
6250104,15
6250732,15
6251360,15
6251988,13
6252620,17
6253240,13
6253868,25
6254496,44
6255120,46
6255748,47
6256368,41
6256996,13
6257620,47
6258248,35
6258876,16
6259496,14
6260128,12
6260756,15
6261376,28
