tempo_arduino_micro_s,valor_ADC
500,35
1004,32
1504,26
2000,20
2504,9
3000,16
3508,31
4000,42
4508,45
5000,47
5500,48
6000,47
6500,42
7004,39
7500,39
8000,39
8500,30
9000,16
9500,15
10000,15
10516,18
11036,25
11564,14
12084,16
12612,22
13132,20
13660,28
14180,34
14708,20
15228,10
15756,11
16276,13
16796,14
17316,15
17836,18
18356,18
18876,11
19396,10
19916,12
20436,17
20956,21
21476,20
21996,13
22516,20
23036,32
23564,35
24084,32
24612,33
25132,31
25660,21
26180,21
26708,21
27228,16
27756,19
28276,12
28804,11
29324,14
29852,23
30372,22
30900,23
31420,22
31948,28
32472,23
32996,19
33516,20
34044,18
34564,15
35092,14
35612,10
36140,10
36660,10
37188,18
37708,28
38236,30
38760,33
39284,44
39804,52
40332,55
40852,52
41372,39
41892,23
42412,15
42932,20
43452,22
43972,15
44492,14
45012,14
45532,21
46052,30
46572,30
47092,20
47612,15
48140,10
48660,11
49188,15
49708,20
50236,15
50756,16
51284,19
51804,19
52332,11
52852,13
53380,21
53900,23
54428,29
54948,33
55476,35
55996,39
56524,36
57044,36
57572,32
58096,27
58620,27
59140,26
59668,22
60188,16
60716,10
61240,10
61764,10
62284,12
62812,26
63332,36
63860,35
64384,30
64908,25
65428,26
65948,30
66468,32
66988,25
67508,16
68028,15
68548,23
69068,33
69588,32
70108,35
70628,34
71148,31
71672,26
72192,21
72716,28
73236,42
73764,47
74284,36
74812,26
75332,23
75860,18
76380,14
76908,17
77428,18
77956,11
78476,10
79004,13
79528,15
80052,15
80572,29
81100,39
81620,33
82148,33
82668,41
83196,33
83720,16
84244,15
84764,15
85292,12
85812,15
86340,29
86860,30
87388,26
87908,26
88436,27
88956,30
89484,29
90004,29
90524,33
91044,26
91564,19
92084,20
92604,26
93124,29
93644,25
94164,14
94684,10
95204,20
95724,29
96248,28
96764,23
97292,23
97812,28
98340,31
98860,28
99388,24
99908,23
100436,26
101000,23
101584,19
102156,14
102736,12
103304,19
103880,11
104456,35
105024,60
105600,64
106168,59
106744,51
107312,30
107896,19
108464,30
109040,30
109624,24
110192,25
110776,33
111344,22
111928,9
112448,13
113024,20
113592,27
114172,27
114752,26
115320,34
115904,38
116472,33
117056,25
117624,18
118208,14
118776,14
119352,15
119936,15
120508,12
121088,11
121656,19
122240,34
122808,39
123388,38
123968,41
124536,46
125120,32
125688,19
126272,13
126840,14
127424,9
127944,10
128516,13
129096,24
129664,23
130240,23
130808,19
131384,14
131952,19
132528,26
133096,22
133676,19
134256,15
134824,14
135408,15
135976,18
136560,21
137128,30
137704,30
138288,24
138856,28
139432,31
140004,30
140584,29
141152,25
141736,20
142308,15
142884,15
143464,15
144032,13
144616,15
145184,10
145768,12
146336,18
146912,17
147496,15
148064,17
148648,16
149216,12
149800,13
150368,14
150952,13
151524,14
152100,14
152680,19
153252,14
153832,11
154400,11
154984,9
155500,12
156080,25
156648,37
157228,42
157808,34
158380,27
158960,18
159536,14
160120,15
160688,19
161256,20
161832,24
162400,25
162984,13
163552,10
164136,11
164704,11
165280,13
165848,22
166416,23
166988,22
167560,15
168136,16
168704,21
169280,28
169848,28
170424,21
170992,17
171560,16
172144,20
172712,30
173296,25
173864,26
174448,30
175016,33
175592,22
176176,14
176744,15
177328,14
177896,15
178480,18
179048,30
179632,32
180200,27
180776,25
181352,30
181924,40
182504,29
183072,18
183656,13
184228,15
184800,19
185384,35
185952,43
186536,42
187104,37
187688,29
188256,27
188840,31
189408,39
189988,36
190568,30
191140,25
191720,24
192292,24
192872,21
193440,17
194016,10
194600,15
195168,29
195744,38
196312,40
196896,34
197464,33
198048,28
198620,31
199192,40
199776,40
200344,21
200928,26
201500,40
202080,36
202648,26
203224,18
203808,18
204380,30
204960,34
205528,32
206104,34
206672,27
207248,18
207816,18
208392,18
208976,16
209544,15
210120,14
210688,11
211272,10
211840,10
212424,14
213000,13
213568,11
214152,16
214724,18
215304,21
215872,35
216456,27
217024,15
217600,14
218184,15
218752,13
219328,16
219896,11
220480,10
221048,20
221632,35
222200,45
222780,48
223360,55
223932,62
224512,44
225088,30
225672,20
226240,17
226816,15
227400,12
227968,15
228552,19
229124,23
229704,21
230276,19
230856,21
231432,21
232004,27
232584,27
233152,20
233736,19
234308,19
234888,16
235456,11
236036,15
236616,14
237188,15
237768,16
238336,18
238920,26
239492,43
240072,52
240648,49
241216,37
241792,30
242364,22
242944,16
243516,13
244096,23
244664,18
245244,22
245824,28
246392,23
246976,23
247544,26
248128,16
248696,14
249280,15
249848,14
250424,15
251008,15
251576,19
252160,22
252728,20
253312,18
253884,19
254460,14
255040,15
255612,19
256192,13
256764,15
257344,24
257912,24
258488,29
259056,29
259624,15
260208,11
260776,16
261360,9
261876,10
262456,9
262972,10
263552,17
264124,16
264696,16
265280,18
265848,22
266432,20
267000,21
267584,21
268152,16
268736,12
269308,14
269880,13
270464,22
271032,29
271616,27
272184,23
272768,23
273336,30
273916,30
274496,30
275068,32
275648,25
276216,25
276800,13
277368,17
277944,15
278512,10
279088,10
279672,18
280244,22
280824,21
281392,22
281976,23
282544,21
283120,14
283704,14
284272,16
284856,15
285424,10
286008,11
286580,16
287160,17
287728,24
288304,35
288888,42
289456,35
290040,32
290608,33
291192,19
291764,15
292340,14
292920,16
293492,14
294072,11
294644,11
295224,16
295792,14
296376,13
296948,20
297524,22
298104,17
298676,15
299256,16
299828,17
300408,17
300980,18
301556,16
302136,13
302708,10
303288,18
303860,29
304440,33
305020,24
305600,26
306172,28
306748,33
307328,30
307900,23
308480,28
309048,30
309632,20
310204,11
310780,12
311360,19
311932,39
312512,51
313084,35
313664,21
314232,18
314816,15
315400,11
315972,15
316552,13
317124,13
317704,13
318276,15
318856,20
319428,19
320004,19
320584,19
321152,22
321736,23
322304,29
322888,36
323456,40
324040,34
324616,22
325188,19
325768,18
326336,18
326920,9
327440,14
328016,18
328584,21
329160,15
329736,18
330304,29
330888,33
331456,28
332040,28
332608,28
333192,17
333760,16
334336,25
334920,24
335488,17
336072,13
336640,13
337216,13
337784,11
338368,18
338936,34
339512,44
340096,49
340664,40
341248,23
341816,18
342400,15
342968,16
343544,12
344128,10
344696,15
345280,20
345848,31
346432,26
347000,12
347584,12
348156,11
348732,14
349312,16
349884,17
350464,20
351036,20
351616,14
352188,12
352760,17
353344,16
353912,18
354496,18
355068,22
355648,35
356220,45
356800,49
357368,44
357948,33
358528,18
359100,14
359680,15
360248,11
360832,17
361400,34
361980,38
362560,31
363128,21
363712,14
364284,15
364864,21
365432,18
366016,15
366588,14
367164,15
367744,14
368316,14
368896,15
369464,21
370048,15
370616,13
371196,12
371776,13
372348,26
372928,43
373496,50
374080,31
374648,22
375232,18
375804,15
376380,15
376960,12
377528,11
378112,14
378692,13
379272,13
379844,22
380420,19
381000,14
381572,14
382152,11
382724,14
383304,13
383876,15
384460,16
385040,11
385608,12
386192,11
386764,15
387344,19
387916,22
388496,24
389064,31
389644,40
390224,43
390796,28
391376,14
391948,18
392528,19
393100,15
393680,11
394256,11
394824,11
395408,14
395980,12
396560,10
397140,10
397720,13
398292,17
398868,25
399448,26
400020,19
400600,13
401168,16
401752,11
402324,10
402900,11
403480,22
404052,41
404632,49
405204,46
405784,39
406356,38
406936,33
407516,18
408092,20
408672,20
409244,15
409824,15
410400,10
410976,12
411544,21
412112,22
412696,23
413264,24
413848,24
414416,19
415000,21
415568,25
416152,23
416720,21
417288,17
417864,15
418432,15
419008,14
419576,18
420160,20
420728,20
421304,22
421872,22
422448,26
423032,31
423600,40
424184,35
424752,24
425336,23
425904,20
426484,15
427064,13
427636,19
428216,19
428784,18
429368,21
429940,22
430520,21
431088,19
431668,18
432248,21
432816,34
433400,30
433972,19
434552,15
435124,12
435700,20
436280,26
436848,32
437432,37
438004,38
438584,38
439156,39
439736,33
440308,26
440884,17
441464,14
442036,15
442616,14
443188,16
443768,15
444340,11
444916,12
445496,13
446068,11
446648,15
447220,22
447800,27
448372,24
448952,20
449524,18
450100,29
450680,29
451248,15
451832,22
452404,24
452984,19
453552,13
454132,16
454712,27
455284,40
455864,45
456436,50
457016,49
457588,39
458168,33
458748,19
459324,15
459904,13
460476,20
461056,22
461632,25
462216,26
462788,20
463364,14
463944,12
464516,14
465096,23
465668,28
466248,23
466816,19
467400,17
467976,20
468548,13
469128,11
469696,18
470280,24
470860,21
471440,31
472020,35
472592,37
473176,42
473748,47
474328,40
474900,32
475480,25
476052,21
476628,12
477208,13
477780,13
478360,16
478932,29
479512,38
480092,35
480672,17
481240,11
481820,13
482400,18
482968,21
483552,19
484124,15
484704,15
485276,14
485852,19
486432,25
487000,25
487584,26
488156,26
488736,32
489308,38
489888,41
490460,35
491036,28
491616,21
492188,15
492768,13
493340,11
493920,18
494492,32
495064,28
495648,24
496220,24
496800,32
497368,29
497952,23
498520,22
499104,22
499676,20
500252,16
500832,15
501404,22
501984,20
502564,26
503144,29
503716,26
504292,15
504872,14
505444,32
506024,46
506596,49
507176,47
507748,38
508328,27
508908,21
509484,17
510064,11
510636,14
511216,23
511796,23
512380,19
512952,21
513520,26
514104,24
514672,27
515256,27
515824,25
516408,21
516976,17
517560,15
518128,16
518704,17
519288,23
519856,27
520440,21
521008,22
521592,25
522164,27
522740,28
523320,32
523888,32
524472,26
525044,22
525624,17
526192,15
526776,12
527348,21
527924,30
528504,30
529072,24
529656,21
530224,19
530808,10
531380,10
531956,10
532536,15
533104,14
533688,16
534260,15
534840,13
535412,13
535992,11
536564,15
537140,24
537720,27
538288,30
538872,42
539444,47
540024,35
540596,26
541172,23
541752,20
542324,15
542904,15
543476,13
544056,12
544624,14
545208,27
545780,33
546356,35
546936,31
547508,28
548088,23
548664,16
549248,14
549820,14
550396,14
550980,14
551548,17
552128,30
552700,32
553280,23
553856,15
554440,17
555016,19
555588,34
556168,39
556740,33
557320,30
557900,28
558480,22
559060,15
559636,15
560216,14
560788,21
561368,36
561940,42
562520,29
563092,23
563668,25
564248,18
564816,11
565400,13
565972,14
566552,13
567124,15
567704,14
568276,14
568852,22
569432,25
570004,26
570584,24
571156,22
571736,23
572316,32
572892,44
573472,44
574040,39
574624,30
575196,25
575776,18
576356,14
576936,13
577504,16
578084,13
578664,17
579232,26
579816,16
580388,10
580968,12
581540,29
582116,35
582696,27
583268,17
583848,15
584420,15
585000,14
585572,11
586152,15
586732,17
587308,15
587888,19
588460,29
589040,34
589616,38
590200,34
590772,20
591348,21
591928,21
592504,16
593080,16
593652,12
594232,16
594804,20
595384,26
595956,27
596532,25
597112,21
597684,22
598264,24
598844,22
599424,16
600004,14
600580,15
601160,15
601732,16
602312,19
602884,23
603464,16
604036,14
604616,16
605200,24
605772,33
606352,43
606924,46
607504,41
608084,37
608664,31
609236,15
609812,13
610392,20
610964,17
611544,26
612124,33
612704,31
613284,28
613860,22
614440,21
615012,15
615592,16
616164,18
616744,17
617316,14
617896,16
618468,16
619044,12
619624,11
620196,14
620776,13
621348,12
621928,15
622508,27
623084,30
623664,42
624236,43
624816,33
625388,20
625968,15
626540,14
627120,18
627700,15
628276,10
628856,15
629428,18
630008,21
630588,19
631168,13
631740,11
632316,13
632900,13
633472,14
634048,14
634620,15
635200,16
635780,15
636360,11
636944,10
637516,10
638096,13
638672,26
639252,35
639828,34
640412,23
640984,19
641552,28
642136,34
642708,23
643288,12
643856,15
644440,27
645012,32
645588,32
646168,28
646740,26
647320,24
647892,22
648472,19
649044,24
649624,21
650192,15
650772,15
651352,21
651924,25
652504,19
653076,18
653656,17
654228,18
654804,25
655384,30
655952,38
656536,46
657104,40
657688,37
658256,32
658840,26
659408,19
659984,11
660568,11
661136,11
661720,17
662288,26
662872,24
663444,19
664016,24
664600,19
665172,19
665752,23
666320,22
666904,14
667472,14
668056,11
668624,13
669200,11
669784,13
670352,23
670936,23
671516,14
672096,16
672664,25
673240,32
673824,38
674396,41
674976,34
675548,30
676128,13
676696,15
677280,10
677848,17
678424,27
679008,26
679576,27
680160,31
680728,23
681312,13
681880,12
682456,13
683040,15
683612,30
684192,31
684764,24
685344,20
685916,19
686496,15
687072,11
687652,10
688232,11
688804,22
689384,41
689956,55
690536,41
691108,29
691684,18
692264,15
692836,16
693416,18
693988,18
694568,26
695136,23
695720,15
696292,14
696868,14
697448,13
698020,14
698600,24
699168,30
699752,32
700324,24
700900,16
701480,11
702052,15
702632,17
703204,21
703784,28
704356,26
704936,30
705508,38
706084,47
706664,51
707236,45
707816,32
708388,18
708968,20
709540,19
710116,15
710696,10
711268,15
711848,21
712420,31
713000,37
713572,36
714156,27
714732,26
715308,27
715888,23
716464,27
717040,29
717616,26
718200,12
718772,13
719348,24
719928,22
720500,26
721080,36
721652,45
722232,45
722804,38
723384,49
723952,51
724532,42
725112,32
725684,24
726264,13
726836,15
727416,13
727988,19
728564,22
729144,17
729716,17
730296,17
730868,16
731448,22
732028,26
732608,21
733180,19
733756,15
734336,14
734912,13
735488,11
736068,13
736648,17
737220,25
737796,32
738376,42
738948,47
739528,46
740100,35
740680,17
741252,15
741832,15
742408,15
742980,11
743560,28
744132,28
744712,27
745284,27
745864,24
746436,27
747012,22
747592,16
748164,15
748744,15
749316,15
749896,23
750476,15
751056,13
751632,15
752208,17
752784,14
753356,12
753936,14
754516,15
755096,32
755676,50
756252,42
756832,22
757404,13
757984,15
758564,21
759144,25
759716,21
760292,15
760872,12
761444,19
762024,18
762596,20
763176,18
763756,12
764336,11
764916,11
765492,22
766072,23
766648,17
767224,16
767804,21
768388,22
768960,17
769536,15
770120,11
770692,12
771272,18
771844,27
772424,31
772996,33
773576,22
774160,15
774732,16
775312,19
775884,18
776464,11
777036,11
777616,12
778196,24
778772,25
779352,25
779924,30
780504,30
781084,25
781664,21
782236,34
782812,32
783392,26
783964,21
784544,14
785116,18
785696,25
786276,35
786856,42
787436,58
788012,55
788592,51
789164,47
789744,47
790316,43
790900,31
791476,23
792052,15
792632,15
793204,15
793784,13
794356,15
794936,16
795516,22
796100,30
796680,30
797256,23
797832,20
798408,22
798984,21
799564,15
800144,15
800720,15
801296,12
801880,15
802452,15
803032,13
803604,15
804184,21
804752,23
805332,28
805912,38
806484,39
807064,29
807636,19
808216,17
808788,19
809368,17
809948,10
810524,10
811104,11
811676,19
812256,20
812836,20
813416,20
813988,22
814564,31
815144,22
815716,15
816296,14
816868,14
817448,17
818020,12
818600,10
819180,18
819756,21
820336,26
820904,26
821488,32
822056,51
822640,55
823208,51
823784,38
824368,22
824936,13
825512,16
826084,18
826664,16
827232,12
827816,12
828388,15
828964,15
829544,13
830112,15
830696,17
831268,21
831848,15
832420,14
832992,15
833576,15
834148,15
834728,12
835296,14
835880,12
836448,11
837032,9
837552,11
838124,18
838704,27
839276,42
839856,56
840428,47
841008,38
841576,23
842160,15
842732,15
843304,15
843888,27
844460,33
845040,32
845608,26
846192,19
846764,20
847336,16
847920,17
848492,16
849072,17
849644,24
850224,24
850796,15
851376,21
851944,26
852524,27
853104,24
853676,21
854256,18
854836,22
855416,27
855988,35
856564,43
857144,37
857716,35
858296,35
858868,30
859448,19
860028,11
860608,16
861180,22
861756,36
862336,34
862908,25
863488,22
864060,17
864640,19
865208,24
865788,18
866368,14
866940,15
867520,14
868092,10
868672,9
869192,14
869768,15
870340,14
870916,19
871496,24
872068,25
872648,34
873220,46
873800,45
874372,40
874952,23
875528,17
876100,13
876680,18
877252,15
877832,17
878404,21
878984,18
879556,16
880132,11
880712,13
881280,17
881864,25
882436,18
883016,13
883588,14
884168,14
884744,15
885316,13
885896,10
886468,10
887048,13
887620,13
888200,17
888780,26
889356,34
889936,31
890508,20
891088,24
891668,26
892248,18
892820,14
893396,32
893976,19
894552,12
895128,14
895704,17
896284,17
896856,13
897440,10
898012,11
898588,15
899168,18
899740,18
900320,17
900900,15
901480,11
902048,11
902628,11
903208,14
903776,20
904360,27
904928,26
905512,24
906084,30
906664,47
907236,46
907812,34
908392,18
908964,15
909544,13
910116,19
910696,21
911268,25
911844,28
912424,27
912996,30
913576,35
914148,28
914728,18
915300,16
915880,16
916452,21
917028,17
917608,17
918180,30
918760,36
919340,35
919920,30
920500,30
921076,33
921656,35
922228,37
922808,49
923380,58
923960,44
924532,24
925112,14
925684,15
926260,11
926840,15
927412,19
927992,21
928564,26
929144,32
929716,30
930292,21
930872,24
931444,27
932024,28
932592,21
933176,16
933748,14
934328,18
934908,21
935484,23
936064,25
936636,23
937216,27
937796,24
938376,33
938948,35
939524,37
940104,28
940676,19
941256,17
941832,14
942408,16
942988,15
943568,13
944144,14
944716,18
945296,14
945868,19
946448,19
947028,13
947612,16
948188,18
948764,16
949344,15
949916,15
950496,15
951076,12
951656,12
952236,10
952812,12
953392,18
953964,24
954544,25
955120,28
955696,40
956276,42
956856,38
957436,35
958016,29
958592,22
959168,17
959748,9
960272,11
960848,18
961416,19
962000,17
962576,18
963144,17
963728,15
964300,20
964880,25
965452,24
966032,21
966604,18
967180,18
967760,12
968332,10
968912,11
969484,18
970064,29
970644,34
971220,37
971800,41
972372,38
972952,36
973524,33
974104,25
974676,16
975256,15
975836,14
976412,10
976992,15
977564,22
978144,35
978724,27
979304,25
979876,24
980452,15
981032,11
981604,13
982184,16
982756,15
983336,14
983916,14
984496,19
985072,15
985652,11
986232,11
986804,12
987384,18
987956,43
988536,59
989116,63
989692,62
990272,42
990844,24
991424,21
991996,20
992580,17
993156,11
993736,20
994320,26
994892,19
995472,20
996044,21
996624,21
997196,19
997776,21
998356,24
998932,21
999512,18
1000084,16
1000708,21
1001332,15
1001960,11
1002588,10
1003208,14
1003836,17
1004460,46
1005080,67
1005712,73
1006328,61
1006956,39
1007580,32
1008204,19
1008832,15
1009456,19
1010084,21
1010712,30
1011332,32
1011960,19
1012584,11
1013212,10
1013844,10
1014464,18
1015092,22
1015716,17
1016340,14
1016968,14
1017584,14
1018216,15
1018840,19
1019464,21
1020092,20
1020712,23
1021344,29
1021972,18
1022592,20
1023224,30
1023848,26
1024476,17
1025104,14
1025724,19
1026352,23
1026976,27
1027596,20
1028224,13
1028844,11
1029472,11
1030092,10
1030716,13
1031344,13
1031960,14
1032588,14
1033212,14
1033840,17
1034468,10
1035088,15
1035716,20
1036344,24
1036960,22
1037588,24
1038212,33
1038840,33
1039468,27
1040088,22
1040712,17
1041336,15
1041956,16
1042588,22
1043204,17
1043832,11
1044456,23
1045080,27
1045708,23
1046328,26
1046956,26
1047584,24
1048200,20
1048828,15
1049452,15
1050080,18
1050708,14
1051328,21
1051956,22
1052580,12
1053200,10
1053832,11
1054448,21
1055076,34
1055700,43
1056324,45
1056952,39
1057568,29
1058196,23
1058824,20
1059448,11
1060076,16
1060696,22
1061328,25
1061956,20
1062576,15
1063204,14
1063828,17
1064452,20
1065084,19
1065700,16
1066328,15
1066952,18
1067576,12
1068204,21
1068820,31
1069448,26
1070072,28
1070696,21
1071324,18
1071948,23
1072580,31
1073208,29
1073824,18
1074452,19
1075076,19
1075708,14
1076336,15
1076952,21
1077580,27
1078204,23
1078828,13
1079456,11
1080072,16
1080700,21
1081324,21
1081948,25
1082576,17
1083192,15
1083820,18
1084452,14
1085072,12
1085700,13
1086324,19
1086952,27
1087580,25
1088200,32
1088828,35
1089448,34
1090068,26
1090700,28
1091320,24
1091948,18
1092572,11
1093192,15
1093824,33
1094440,25
1095068,13
1095696,14
1096320,15
1096948,21
1097572,22
1098200,17
1098828,14
1099448,15
1100076,15
1100700,15
1101324,16
1101952,20
1102576,25
1103204,24
1103828,31
1104452,25
1105080,22
1105704,30
1106332,33
1106964,34
1107584,30
1108212,17
1108836,16
1109464,15
1110092,12
1110712,20
1111340,20
1111964,19
1112588,22
1113220,25
1113840,26
1114468,26
1115092,29
1115716,23
1116348,16
1116968,15
1117596,13
1118228,18
1118848,22
1119476,26
1120100,33
1120732,28
1121360,24
1121976,26
1122604,29
1123228,25
1123852,25
1124480,28
1125096,23
1125728,24
1126352,16
1126976,10
1127604,15
1128224,18
1128852,19
1129480,19
1130096,27
1130724,29
1131348,30
1131976,22
1132608,19
1133224,22
1133852,21
1134476,13
1135108,11
1135736,22
1136352,21
1136984,16
1137608,25
1138228,41
1138860,38
1139480,33
1140108,23
1140732,19
1141360,22
1141988,19
1142612,15
1143244,34
1143872,26
1144492,11
1145120,13
1145744,19
1146372,13
1147004,10
1147624,10
1148252,16
1148876,16
1149496,15
1150128,14
1150744,16
1151372,15
1151996,14
1152624,12
1153252,18
1153876,23
1154504,31
1155132,36
1155752,36
1156380,31
1157004,15
1157632,13
1158264,14
1158880,15
1159508,9
1160080,10
1160708,10
1161336,10
1161956,13
1162584,14
1163208,16
1163828,17
1164460,16
1165080,23
1165708,22
1166332,15
1166960,13
1167588,14
1168212,14
1168840,17
1169468,16
1170088,14
1170716,15
1171340,19
1171968,30
1172596,42
1173216,43
1173844,33
1174468,20
1175092,15
1175720,13
1176340,18
1176968,22
1177592,26
1178216,29
1178844,25
1179468,27
1180096,21
1180728,19
1181344,28
1181976,32
1182600,22
1183228,15
1183860,14
1184480,24
1185108,36
1185732,46
1186356,42
1186984,36
1187608,35
1188236,38
1188860,38
1189488,44
1190116,35
1190740,21
1191368,14
1192000,20
1192616,17
1193244,17
1193868,31
1194500,40
1195128,41
1195748,27
1196376,15
1197000,20
1197624,20
1198252,15
1198872,17
1199500,18
1200124,14
1200752,18
1201380,32
1202004,37
1202632,36
1203260,38
1203880,37
1204508,41
1205128,51
1205760,57
1206388,48
1207008,29
1207636,16
1208260,14
1208884,15
1209516,14
1210136,16
1210764,20
1211388,22
1212016,24
1212644,22
1213268,18
1213900,18
1214528,21
1215152,32
1215784,41
1216408,31
1217032,17
1217660,12
1218280,22
1218908,18
1219532,26
1220156,29
1220784,25
1221408,35
1222036,43
1222668,46
1223288,48
1223916,39
1224544,21
1225172,15
1225804,14
1226424,23
1227052,26
1227676,33
1228304,32
1228932,20
1229548,13
1230180,10
1230800,10
1231424,15
1232052,15
1232668,15
1233300,14
1233928,15
1234544,11
1235172,13
1235796,17
1236428,23
1237056,31
1237672,37
1238304,39
1238928,38
1239556,30
1240188,28
1240808,20
1241436,14
1242060,15
1242684,11
1243312,16
1243928,18
1244560,19
1245184,22
1245808,22
1246436,25
1247060,28
1247688,17
1248320,14
1248936,14
1249564,15
1250188,15
1250816,11
1251448,14
1252064,20
1252692,26
1253316,22
1253940,13
1254572,22
1255192,33
1255820,33
1256444,28
1257072,36
1257700,39
1258324,21
1258952,12
1259584,16
1260200,17
1260832,33
1261456,37
1262084,26
1262712,17
1263332,11
1263960,10
1264588,14
1265212,13
1265840,14
1266456,15
1267088,15
1267720,14
1268336,16
1268964,11
1269588,11
1270220,11
1270852,29
1271472,42
1272100,50
1272728,50
1273352,35
1273980,23
1274600,19
1275228,16
1275852,10
1276476,15
1277108,26
1277728,37
1278360,28
1278988,25
1279608,19
1280240,12
1280860,11
1281488,14
1282116,14
1282732,14
1283360,15
1283984,13
1284612,11
1285240,10
1285860,10
1286492,13
1287112,24
1287736,32
1288364,34
1288984,36
1289612,39
1290232,31
1290856,23
1291484,24
1292108,19
1292736,11
1293364,16
1293984,32
1294612,26
1295236,22
1295864,17
1296492,18
1297112,26
1297740,31
1298364,28
1298984,16
1299616,15
1300232,17
1300860,21
1301484,25
1302108,17
1302736,10
1303352,15
1303984,32
1304612,38
1305232,41
1305860,45
1306484,42
1307112,25
1307740,14
1308360,17
1308988,11
1309612,12
1310236,11
1310868,18
1311484,28
1312116,27
1312736,29
1313356,25
1313988,27
1314604,27
1315232,29
1315864,21
1316476,15
1317108,18
1317732,15
1318360,12
1318988,16
1319608,29
1320236,41
1320856,44
1321480,41
1322108,37
1322728,32
1323356,24
1323980,21
1324600,22
1325232,20
1325848,17
1326476,11
1327100,27
1327720,33
1328352,36
1328976,37
1329604,34
1330232,19
1330848,11
1331476,14
1332100,13
1332728,15
1333356,20
1333976,21
1334604,17
1335224,12
1335848,11
1336476,15
1337096,27
1337724,39
1338344,40
1338968,42
1339596,28
1340216,15
1340844,15
1341472,15
1342088,15
1342716,12
1343340,15
1343972,18
1344600,18
1345220,19
1345852,14
1346472,14
1347096,15
1347724,18
1348344,19
1348972,19
1349596,22
1350216,16
1350848,11
1351464,17
1352092,19
1352720,21
1353344,27
1353972,34
1354596,43
1355224,40
1355852,32
1356472,24
1357100,20
1357724,22
1358344,20
1358976,18
1359592,12
1360220,17
1360844,20
1361464,26
1362092,31
1362712,24
1363340,25
1363960,34
1364584,31
1365212,22
1365836,24
1366464,15
1367092,23
1367712,52
1368340,52
1368964,41
1369592,31
1370220,26
1370840,25
1371468,31
1372092,33
1372716,20
1373344,14
1373968,15
1374596,16
1375220,15
1375844,10
1376472,12
1377096,11
1377724,9
1378296,16
1378920,17
1379548,17
1380172,19
1380800,18
1381428,27
1382048,31
1382676,19
1383300,13
1383928,15
1384560,13
1385176,11
1385804,12
1386428,12
1387052,11
1387680,16
1388296,25
1388924,38
1389548,40
1390172,46
1390800,45
1391416,36
1392048,21
1392676,10
1393292,13
1393924,23
1394544,28
1395176,29
1395804,28
1396424,22
1397052,18
1397676,21
1398300,21
1398928,18
1399548,16
1400176,15
1400800,22
1401420,29
1402052,23
1402672,17
1403300,13
1403932,13
1404552,24
1405180,27
1405804,27
1406436,27
1407064,27
1407680,23
1408312,21
1408936,11
1409556,13
1410184,21
1410808,25
1411436,19
1412060,17
1412684,15
1413312,15
1413928,20
1414556,24
1415184,24
1415808,25
1416436,19
1417060,14
1417688,17
1418316,27
1418936,28
1419564,26
1420188,29
1420812,25
1421440,28
1422056,28
1422684,38
1423308,32
1423932,27
1424564,18
1425184,14
1425812,31
1426444,54
1427064,58
1427692,47
1428316,30
1428948,12
1429576,20
1430196,29
1430824,31
1431448,19
1432072,13
1432704,16
1433324,21
1433952,26
1434576,29
1435196,20
1435828,18
1436448,20
1437076,19
1437704,20
1438328,21
1438956,25
1439580,23
1440212,21
1440840,20
1441456,19
1442084,13
1442704,15
1443332,21
1443960,28
1444584,28
1445212,24
1445832,16
1446456,13
1447084,14
1447704,16
1448332,18
1448952,14
1449576,17
1450208,18
1450832,21
1451460,19
1452092,14
1452712,13
1453340,11
1453964,13
1454596,21
1455224,23
1455840,31
1456472,35
1457096,37
1457720,24
1458348,16
1458968,11
1459596,10
1460220,18
1460848,25
1461476,32
1462100,28
1462728,19
1463356,16
1463976,17
1464608,17
1465228,17
1465860,15
1466488,17
1467104,20
1467736,20
1468360,16
1468984,17
1469612,17
1470232,21
1470860,25
1471484,30
1472112,29
1472740,27
1473364,20
1473992,21
1474624,18
1475240,15
1475868,10
1476492,19
1477120,26
1477748,22
1478368,13
1478996,10
1479620,10
1480244,15
1480872,19
1481496,17
1482124,14
1482748,14
1483376,15
1484004,13
1484628,23
1485260,25
1485888,22
1486504,21
1487132,18
1487756,23
1488384,34
1489016,37
1489632,31
1490260,31
1490884,21
1491508,16
1492136,12
1492756,22
1493384,34
1494008,43
1494632,43
1495260,34
1495884,25
1496512,12
1497144,10
1497760,14
1498388,12
1499012,16
1499640,19
1500272,22
1500888,17
1501516,10
1502140,11
1502764,12
1503396,12
1504016,19
1504644,23
1505268,41
1505892,50
1506520,40
1507148,33
1507776,25
1508404,15
1509024,10
1509652,11
1510276,17
1510908,19
1511540,18
1512160,15
1512788,17
1513412,22
1514036,18
1514668,20
1515288,19
1515916,18
1516540,20
1517168,13
1517796,13
1518420,20
1519052,15
1519680,14
1520304,21
1520932,34
1521556,32
1522184,31
1522812,30
1523432,23
1524060,21
1524684,18
1525308,14
1525940,13
1526560,17
1527188,19
1527820,22
1528440,24
1529068,17
1529692,17
1530324,26
1530952,28
1531576,18
1532204,15
1532828,22
1533452,21
1534084,16
1534704,12
1535336,10
1535960,11
1536584,14
1537212,23
1537832,30
1538460,39
1539088,45
1539704,40
1540336,30
1540956,29
1541588,23
1542216,15
1542836,10
1543464,14
1544088,23
1544708,25
1545340,28
1545960,28
1546588,25
1547212,31
1547836,42
1548464,43
1549088,17
1549716,16
1550348,30
1550968,37
1551596,37
1552220,37
1552852,33
1553480,30
1554100,27
1554728,36
1555352,43
1555976,36
1556608,24
1557224,19
1557852,15
1558476,15
1559100,10
1559728,15
1560348,25
1560976,27
1561604,28
1562220,28
1562852,27
1563476,31
1564104,27
1564736,20
1565352,18
1565980,16
1566604,14
1567236,15
1567864,16
1568488,13
1569116,18
1569740,33
1570364,33
1570992,31
1571616,33
1572244,25
1572876,20
1573496,20
1574124,21
1574748,22
1575380,16
1576008,12
1576632,11
1577260,13
1577884,19
1578508,27
1579140,32
1579760,28
1580388,23
1581012,18
1581636,15
1582268,14
1582888,19
1583516,25
1584148,33
1584768,24
1585396,14
1586020,10
1586652,15
1587284,12
1587904,27
1588532,41
1589156,53
1589780,49
1590408,29
1591032,20
1591660,16
1592288,11
1592912,11
1593540,11
1594160,17
1594788,24
1595420,28
1596040,28
1596668,29
1597296,25
1597924,25
1598556,20
1599176,15
1599808,15
1600432,11
1601052,13
1601684,12
1602300,14
1602932,20
1603552,22
1604176,32
1604804,46
1605420,50
1606052,39
1606680,27
1607296,29
1607928,22
1608548,17
1609180,13
1609808,21
1610424,25
1611052,23
1611676,20
1612300,20
1612932,12
1613552,17
1614180,21
1614804,21
1615428,16
1616056,14
1616672,15
1617300,13
1617932,11
1618552,9
1619128,9
1619700,12
1620332,11
1620956,11
1621580,19
1622208,27
1622832,35
1623460,36
1624092,32
1624712,25
1625340,16
1625964,15
1626596,10
1627224,9
1627788,10
1628420,15
1629044,23
1629676,23
1630304,19
1630924,15
1631552,14
1632176,15
1632800,14
1633428,14
1634048,15
1634676,11
1635300,12
1635924,10
1636556,10
1637176,21
1637804,39
1638436,52
1639052,53
1639680,28
1640300,16
1640928,15
1641556,16
1642172,13
1642804,11
1643424,24
1644044,31
1644672,20
1645296,13
1645924,10
1646544,11
1647164,11
1647796,16
1648416,17
1649044,14
1649672,15
1650288,12
1650916,12
1651540,10
1652168,10
1652796,10
1653416,12
1654044,15
1654668,36
1655296,51
1655924,38
1656544,39
1657172,33
1657796,22
1658416,14
1659044,13
1659664,20
1660292,24
1660912,36
1661536,23
1662164,12
1662788,10
1663416,10
1664044,10
1664660,12
1665288,15
1665908,16
1666536,14
1667164,10
1667784,10
1668412,11
1669032,14
1669656,19
1670284,25
1670904,33
1671532,36
1672156,36
1672776,31
1673404,18
1674024,15
1674652,15
1675280,17
1675896,24
1676524,28
1677148,27
1677776,13
1678404,10
1679024,10
1679652,13
1680276,23
1680900,21
1681528,18
1682144,22
1682772,16
1683396,14
1684016,13
1684644,10
1685260,14
1685892,26
1686512,34
1687136,40
1687764,44
1688384,44
1689016,43
1689644,32
1690260,23
1690888,16
1691508,14
1692140,13
1692768,17
1693384,23
1694012,29
1694636,23
1695260,17
1695888,12
1696504,10
1697132,10
1697756,14
1698380,15
1699008,14
1699624,16
1700256,11
1700884,10
1701500,15
1702132,14
1702756,14
1703384,25
1704012,34
1704632,37
1705260,44
1705884,41
1706504,24
1707132,14
1707752,15
1708380,16
1709004,12
1709628,10
1710256,10
1710872,10
1711504,15
1712132,16
1712752,21
1713380,24
1714004,27
1714632,35
1715264,37
1715880,22
1716508,15
1717132,11
1717760,12
1718388,14
1719008,14
1719636,15
1720260,25
1720884,31
1721516,28
1722136,25
1722764,25
1723388,21
1724016,20
1724644,21
1725268,21
1725896,23
1726524,22
1727144,13
1727772,11
1728396,20
1729028,17
1729656,15
1730272,20
1730900,22
1731524,29
1732144,22
1732776,16
1733392,17
1734020,17
1734644,15
1735268,10
1735896,10
1736520,10
1737148,18
1737780,27
1738400,33
1739028,31
1739652,37
1740284,37
1740912,21
1741532,15
1742164,13
1742784,10
1743408,11
1744036,11
1744652,15
1745284,21
1745904,28
1746528,29
1747156,28
1747780,40
1748412,26
1749040,21
1749656,15
1750288,23
1750912,27
1751540,25
1752172,22
1752792,23
1753420,24
1754044,37
1754668,52
1755300,53
1755920,47
1756548,39
1757172,31
1757796,27
1758428,16
1759052,18
1759680,33
1760312,40
1760928,47
1761556,43
1762180,27
1762808,21
1763436,14
1764056,13
1764684,12
1765308,15
1765928,18
1766560,21
1767176,24
1767804,17
1768428,12
1769052,11
1769680,15
1770296,23
1770924,39
1771556,46
1772176,42
1772804,31
1773428,23
1774056,15
1774684,14
1775304,10
1775932,11
1776556,21
1777180,27
1777812,31
1778432,40
1779060,35
1779684,33
1780308,29
1780940,25
1781560,17
1782188,15
1782820,17
1783440,26
1784068,35
1784692,38
1785320,35
1785952,30
1786568,29
1787196,34
1787820,37
1788444,41
1789076,34
1789696,27
1790324,31
1790952,21
1791576,15
1792208,17
1792824,17
1793452,17
1794080,22
1794696,39
1795324,31
1795948,20
1796576,14
1797204,11
1797824,18
1798452,17
1799076,16
1799696,17
1800328,10
1800944,12
1801572,13
1802196,10
1802820,13
1803448,24
1804072,41
1804700,46
1805328,48
1805944,46
1806576,31
1807196,21
1807828,14
1808456,10
1809072,14
1809700,23
1810324,29
1810948,30
1811580,26
1812200,20
1812828,21
1813452,22
1814076,26
1814704,31
1815324,28
1815952,16
1816580,15
1817200,11
1817828,11
1818452,14
1819080,12
1819712,20
1820328,36
1820956,53
1821580,67
1822212,66
1822840,48
1823456,28
1824088,17
1824708,14
1825332,11
1825960,10
1826584,15
1827212,23
1827836,20
1828460,20
1829088,19
1829712,17
1830340,17
1830972,21
1831592,18
1832220,15
1832844,14
1833476,17
1834104,26
1834728,32
1835356,21
1835980,11
1836608,10
1837236,14
1837856,18
1838484,26
1839116,28
1839736,30
1840368,28
1840988,18
1841620,13
1842248,10
1842872,10
1843504,13
1844124,17
1844748,15
1845376,10
1845992,11
1846620,11
1847244,14
1847868,18
1848496,26
1849112,22
1849740,15
1850364,10
1850992,10
1851620,10
1852244,14
1852872,16
1853500,26
1854120,39
1854748,38
1855372,41
1856000,39
1856628,32
1857248,21
1857876,14
1858500,10
1859124,12
1859752,10
1860372,19
1861000,33
1861624,39
1862248,38
1862876,36
1863500,20
1864132,17
1864760,21
1865376,19
1866008,16
1866632,13
1867260,12
1867888,11
1868512,16
1869140,28
1869764,36
1870388,50
1871016,54
1871640,52
1872268,46
1872892,34
1873520,24
1874148,14
1874772,15
1875404,10
1876032,13
1876648,25
1877280,32
1877904,36
1878532,35
1879164,29
1879784,28
1880412,20
1881036,17
1881660,21
1882292,24
1882912,21
1883540,14
1884172,23
1884792,60
1885420,61
1886044,56
1886676,45
1887304,33
1887924,35
1888552,38
1889176,31
1889800,21
1890428,16
1891048,16
1891676,11
1892300,13
1892924,22
1893556,32
1894176,27
1894808,17
1895436,11
1896056,12
1896684,15
1897308,17
1897936,17
1898568,16
1899184,14
1899816,16
1900440,13
1901064,11
1901692,10
1902312,10
1902944,10
1903568,11
1904192,11
1904820,23
1905440,41
1906068,48
1906700,33
1907320,24
1907948,17
1908572,15
1909204,16
1909832,22
1910456,25
1911084,25
1911708,16
1912336,11
1912964,10
1913584,12
1914216,15
1914840,14
1915464,15
1916096,23
1916712,29
1917344,21
1917976,16
1918592,19
1919224,25
1919852,29
1920484,33
1921112,32
1921728,27
1922356,23
1922980,17
1923604,13
1924232,14
1924852,13
1925480,16
1926104,21
1926724,36
1927356,35
1927976,21
1928604,24
1929236,22
1929856,21
1930484,16
1931108,12
1931736,15
1932368,16
1932984,17
1933616,23
1934240,25
1934860,21
1935492,20
1936112,25
1936740,31
1937364,37
1937988,36
1938616,31
1939240,25
1939868,20
1940500,14
1941120,17
1941748,25
1942372,34
1943004,37
1943636,32
1944256,18
1944884,33
1945512,53
1946136,33
1946764,11
1947384,15
1948012,15
1948636,14
1949260,16
1949888,20
1950512,35
1951140,43
1951772,36
1952392,29
1953020,31
1953644,32
1954276,30
1954904,25
1955520,25
1956152,35
1956776,32
1957400,25
1958028,22
1958648,16
1959276,10
1959900,22
1960524,32
1961156,35
1961776,36
1962404,28
1963036,31
1963656,32
1964284,33
1964912,28
1965540,16
1966172,15
1966792,17
1967420,23
1968044,27
1968664,31
1969292,23
1969912,33
1970540,56
1971164,56
1971788,47
1972416,35
1973040,17
1973668,15
1974296,15
1974920,22
1975548,25
1976172,31
1976804,23
1977432,15
1978048,11
1978680,11
1979304,10
1979924,12
1980556,20
1981176,24
1981804,13
1982428,15
1983052,17
1983684,22
1984304,35
1984932,27
1985564,18
1986184,15
1986812,18
1987436,23
1988064,25
1988696,23
1989312,17
1989940,14
1990564,14
1991188,15
1991820,12
1992440,12
1993068,25
1993692,20
1994316,18
1994948,16
1995568,12
1996196,16
1996828,28
1997444,38
1998076,27
1998700,27
1999328,19
1999960,27
2000580,61
2001208,45
2001832,31
2002456,23
2003084,19
2003704,17
2004332,11
2004956,28
2005580,30
2006212,24
2006832,21
2007460,14
2008092,13
2008712,14
2009340,14
2009964,11
2010592,26
2011220,27
2011840,20
2012468,11
2013092,10
2013716,15
2014344,19
2014968,16
2015596,14
2016224,15
2016844,10
2017476,10
2018096,12
2018724,12
2019352,23
2019976,41
2020604,58
2021228,62
2021860,46
2022488,20
2023112,15
2023740,15
2024364,16
2024988,14
2025616,16
2026232,16
2026864,17
2027488,18
2028112,18
2028740,19
2029360,24
2029988,27
2030620,23
2031240,15
2031868,15
2032496,17
2033124,15
2033756,18
2034376,21
2035008,20
2035632,17
2036256,17
2036884,16
2037504,22
2038136,35
2038760,44
2039384,38
2040012,29
2040632,23
2041260,28
2041892,18
2042512,12
2043144,34
2043768,51
2044396,44
2045028,34
2045648,20
2046276,15
2046904,24
2047528,31
2048160,25
2048772,24
2049400,25
2050020,11
2050644,17
2051272,20
2051884,24
2052512,31
2053144,28
2053756,32
2054388,48
2055012,48
2055640,51
2056268,36
2056888,22
2057516,23
2058136,20
2058760,14
2059388,12
2060008,33
2060636,35
2061260,27
2061880,24
2062508,18
2063128,24
2063756,31
2064380,27
2065000,15
2065628,21
2066252,21
2066880,12
2067508,10
2068128,16
2068756,14
2069380,21
2070008,29
2070636,36
2071256,27
2071884,26
2072508,21
2073132,28
2073760,22
2074376,19
2075004,13
2075628,10
2076252,14
2076880,14
2077496,21
2078124,33
2078756,23
2079376,11
2080004,10
2080624,13
2081252,19
2081884,16
2082504,14
2083132,13
2083756,23
2084376,20
2085008,17
2085624,19
2086252,21
2086876,23
2087500,21
2088128,31
2088744,34
2089372,39
2090000,28
2090620,15
2091252,14
2091872,11
2092504,11
2093132,18
2093752,27
2094380,34
2095004,31
2095628,28
2096256,29
2096872,22
2097500,19
2098124,15
2098748,16
2099376,13
2099992,15
2100620,17
2101244,11
2101872,13
2102500,22
2103124,31
2103752,35
2104380,45
2105000,31
2105628,20
2106248,24
2106880,19
2107508,16
2108128,16
2108756,12
2109380,12
2110004,16
2110636,18
2111256,19
2111884,13
2112508,12
2113136,20
2113764,21
2114388,22
2115016,18
2115644,14
2116264,15
2116892,14
2117516,11
2118144,11
2118776,17
2119392,25
2120020,33
2120644,47
2121268,53
2121896,35
2122516,23
2123144,19
2123768,14
2124392,18
2125020,19
2125644,31
2126276,32
2126904,14
2127520,10
2128148,9
2128720,10
2129348,14
2129980,12
2130600,16
2131228,16
2131848,16
2132476,17
2133108,12
2133728,14
2134356,14
2134980,12
2135604,13
2136236,28
2136856,47
2137484,58
2138108,58
2138736,50
2139364,35
2139988,26
2140620,20
2141248,14
2141864,18
2142496,30
2143120,33
2143748,26
2144380,22
2145000,23
2145628,23
2146252,21
2146876,23
2147504,21
2148124,17
2148752,16
2149380,14
2150000,10
2150628,11
2151252,14
2151880,18
2152512,21
2153128,25
2153756,34
2154380,40
2155008,42
2155640,38
2156256,36
2156884,29
2157508,19
2158132,10
2158760,13
2159384,21
2160012,26
2160636,26
2161264,32
2161892,29
2162516,30
2163148,31
2163776,40
2164396,31
2165024,15
2165648,16
2166276,22
2166908,26
2167528,20
2168156,18
2168780,18
2169404,31
2170036,43
2170656,42
2171284,29
2171916,15
2172536,19
2173164,27
2173788,31
2174420,27
2175048,17
2175664,11
2176296,12
2176916,21
2177540,29
2178172,48
2178792,45
2179420,21
2180044,12
2180668,19
2181296,21
2181912,15
2182540,16
2183164,18
2183792,16
2184420,13
2185044,20
2185672,19
2186300,19
2186920,40
2187548,47
2188172,41
2188804,27
2189432,21
2190048,14
2190676,15
2191304,22
2191928,22
2192556,12
2193176,11
2193804,9
2194376,10
2195008,19
2195636,26
2196256,39
2196884,27
2197516,12
2198136,17
2198764,22
2199392,23
2200020,24
2200652,18
2201272,23
2201904,19
2202524,16
2203148,21
2203780,30
2204400,38
2205028,39
2205652,32
2206276,28
2206908,22
2207528,17
2208156,11
2208788,12
2209408,25
2210036,21
2210660,18
2211292,19
2211920,18
2212544,25
2213172,27
2213796,23
2214420,16
2215048,14
2215664,14
2216296,11
2216920,12
2217544,17
2218172,20
2218792,14
2219424,13
2220052,23
2220672,39
2221304,47
2221928,35
2222556,23
2223188,16
2223808,15
2224436,14
2225060,12
2225684,19
2226316,33
2226936,36
2227568,21
2228188,17
2228812,25
2229444,24
2230064,14
2230692,13
2231324,14
2231944,15
2232576,17
2233200,10
2233828,14
2234460,22
2235080,21
2235708,23
2236336,28
2236960,33
2237588,53
2238208,54
2238840,31
2239464,23
2240088,19
2240716,14
2241336,10
2241964,11
2242592,9
2243164,12
2243796,11
2244420,12
2245052,15
2245680,12
2246300,22
2246928,29
2247552,27
2248180,21
2248812,16
2249432,13
2250060,10
2250684,11
2251312,14
2251940,28
2252560,35
2253192,37
2253812,33
2254436,39
2255064,39
2255688,29
2256316,21
2256948,14
2257568,15
2258196,13
2258820,15
2259448,25
2260080,37
2260696,43
2261324,27
2261948,10
2262572,11
2263204,22
2263824,26
2264452,20
2265076,17
2265700,15
2266328,19
2266952,32
2267580,31
2268212,23
2268832,19
2269460,24
2270084,40
2270716,45
2271344,42
2271968,32
2272600,25
2273224,19
2273848,17
2274476,12
2275096,15
2275724,29
2276348,36
2276976,36
2277604,38
2278228,43
2278860,46
2279488,44
2280112,32
2280740,16
2281364,18
2281992,20
2282620,19
2283240,30
2283868,24
2284492,25
2285116,28
2285748,40
2286368,50
2287000,56
2287628,48
2288248,50
2288876,31
2289500,22
2290132,25
2290764,21
2291384,11
2292012,15
2292636,28
2293260,33
2293892,34
2294512,35
2295140,24
2295764,21
2296388,12
2297016,15
2297640,16
2298268,15
2298900,16
2299520,21
2300148,17
2300772,12
2301404,11
2302036,10
2302656,14
2303288,25
2303912,35
2304536,38
2305168,31
2305784,27
2306412,26
2307036,19
2307660,15
2308288,19
2308904,27
2309536,25
2310164,14
2310784,15
2311412,19
2312036,27
2312664,37
2313296,26
2313912,15
2314544,15
2315168,15
2315792,15
2316420,10
2317040,11
2317668,10
2318292,15
2318916,21
2319548,30
2320168,43
2320796,45
2321424,39
2322048,30
2322676,32
2323300,23
2323932,15
2324560,10
2325176,13
2325804,17
2326428,23
2327052,26
2327680,30
2328304,27
2328932,26
2329556,25
2330184,21
2330812,14
2331432,14
2332060,14
2332692,15
2333312,19
2333940,15
2334568,11
2335196,11
2335828,24
2336448,35
2337076,31
2337700,32
2338324,29
2338952,14
2339576,16
2340204,16
2340828,18
2341452,11
2342080,11
2342704,14
2343332,15
2343964,19
2344584,20
2345212,14
2345836,11
2346468,17
2347096,18
2347720,20
2348348,19
2348972,15
2349596,11
2350228,12
2350848,16
2351476,17
2352104,24
2352728,28
2353356,32
2353976,27
2354608,23
2355236,19
2355856,25
2356484,16
2357108,14
2357736,11
2358368,13
2358988,19
2359616,18
2360240,14
2360864,14
2361496,18
2362112,20
2362744,19
2363368,18
2363992,15
2364624,13
2365240,16
2365872,17
2366500,10
2367120,13
2367752,21
2368376,27
2369004,25
2369636,26
2370256,33
2370884,37
2371508,38
2372132,27
2372764,20
2373384,18
2374012,14
2374640,13
2375264,15
2375892,25
2376516,28
2377148,27
2377776,25
2378400,32
2379028,20
2379652,13
2380284,17
2380916,36
2381536,30
2382164,15
2382788,27
2383412,35
2384044,38
2384664,27
2385292,22
2385916,21
2386544,27
2387172,35
2387800,37
2388428,21
2389060,16
2389680,26
2390312,25
2390936,24
2391560,11
2392192,11
2392808,14
2393440,17
2394064,17
2394688,26
2395320,30
2395936,38
2396568,41
2397196,32
2397816,21
2398448,13
2399072,14
2399700,20
2400332,24
2400952,30
2401580,25
2402204,17
2402828,15
2403456,19
2404080,23
2404708,21
2405332,15
2405956,25
2406588,32
2407208,40
2407836,31
2408468,11
2409088,15
2409716,19
2410340,13
2410968,10
2411600,10
2412216,14
2412848,24
2413472,29
2414096,21
2414724,14
2415344,16
2415976,21
2416600,26
2417224,21
2417852,15
2418472,15
2419100,15
2419732,28
2420352,40
2420980,37
2421604,25
2422236,20
2422864,24
2423488,21
2424116,15
2424740,13
2425368,25
2425996,34
2426616,32
2427248,24
2427868,19
2428496,19
2429124,22
2429744,18
2430376,16
2431004,14
2431624,14
2432256,15
2432880,13
2433508,11
2434140,17
2434760,24
2435388,25
2436012,28
2436636,48
2437268,52
2437888,55
2438516,40
2439140,25
2439764,17
2440396,14
2441016,11
2441644,16
2442276,18
2442896,19
2443524,23
2444148,30
2444780,24
2445412,22
2446032,22
2446664,20
2447288,22
2447912,20
2448544,14
2449160,21
2449788,23
2450416,19
2451040,19
2451668,15
2452296,19
2452924,29
2453556,25
2454176,27
2454808,26
2455432,20
2456064,16
2456692,16
2457312,15
2457944,9
2458512,12
2459144,15
2459772,18
2460392,19
2461020,10
2461644,13
2462268,18
2462896,16
2463512,18
2464144,13
2464768,14
2465392,18
2466020,16
2466644,14
2467272,11
2467900,10
2468520,17
2469148,19
2469772,18
2470400,38
2471028,46
2471648,48
2472276,46
2472900,45
2473524,44
2474156,32
2474776,13
2475404,13
2476028,20
2476656,25
2477284,25
2477908,28
2478540,31
2479172,36
2479792,36
2480424,19
2481044,16
2481668,15
2482300,16
2482920,24
2483548,29
2484172,25
2484796,17
2485424,18
2486048,28
2486676,38
2487308,37
2487928,39
2488556,28
2489180,24
2489812,20
2490440,15
2491056,10
2491688,11
2492312,13
2492936,18
2493564,27
2494184,30
2494816,34
2495436,25
2496064,23
2496692,20
2497312,17
2497940,16
2498572,14
2499192,12
2499820,11
2500444,14
2501076,23
2501704,17
2502328,15
2502960,23
2503584,23
2504208,25
2504836,29
2505456,28
2506084,25
2506708,16
2507336,15
2507964,10
2508584,13
2509216,18
2509844,19
2510464,20
2511092,23
2511716,17
2512348,12
2512976,11
2513600,16
2514228,14
2514852,18
2515480,15
2516108,11
2516728,11
2517356,10
2517984,11
2518608,18
2519236,24
2519856,33
2520488,45
2521116,50
2521736,44
2522364,39
2522988,29
2523620,15
2524252,12
2524872,17
2525500,23
2526128,29
2526752,31
2527380,28
2528000,30
2528628,32
2529252,26
2529876,17
2530508,14
2531128,15
2531760,15
2532388,13
2533008,19
2533640,26
2534264,22
2534896,21
2535524,26
2536144,34
2536776,29
2537400,33
2538024,38
2538656,25
2539272,17
2539904,14
2540528,14
2541152,17
2541780,20
2542408,20
2543036,27
2543668,44
2544288,34
2544916,19
2545544,13
2546172,10
2546804,17
2547424,19
2548052,24
2548680,25
2549304,25
2549932,16
2550552,17
2551184,15
2551812,14
2552432,15
2553064,27
2553688,40
2554316,47
2554948,34
2555568,24
2556200,15
2556824,15
2557448,15
2558080,23
2558696,35
2559328,39
2559952,37
2560580,39
2561208,36
2561824,34
2562452,27
2563080,14
2563696,25
2564324,41
2564948,38
2565576,24
2566204,12
2566824,11
2567452,11
2568076,16
2568704,29
2569332,34
2569952,38
2570580,47
2571204,49
2571824,31
2572456,22
2573072,15
2573700,21
2574324,17
2574948,11
2575576,11
2576200,11
2576828,12
2577456,14
2578072,21
2578704,21
2579328,27
2579956,35
2580588,28
2581208,16
2581836,15
2582460,11
2583080,15
2583712,21
2584328,21
2584956,18
2585580,18
2586204,33
2586832,55
2587456,57
2588084,40
2588712,16
2589336,17
2589964,20
2590588,14
2591220,31
2591848,40
2592468,39
2593096,33
2593720,15
2594340,10
2594972,11
2595592,11
2596220,12
2596844,14
2597468,14
2598096,16
2598720,16
2599348,10
2599980,12
2600600,13
2601228,10
2601852,18
2602480,25
2603112,37
2603728,39
2604360,34
2604984,29
2605604,23
2606236,18
2606856,23
2607484,23
2608108,11
2608732,23
2609360,29
2609984,21
2610616,22
2611244,20
2611864,21
2612492,24
2613116,19
2613744,18
2614376,21
2614996,16
2615624,14
2616248,10
2616872,11
2617500,15
2618120,11
2618748,17
2619372,26
2619996,53
2620628,64
2621256,55
2621884,32
2622512,16
2623136,14
2623764,15
2624388,10
2625016,13
2625644,18
2626260,21
2626888,21
2627512,24
2628136,21
2628764,15
2629384,16
2630012,18
2630636,14
2631256,15
2631888,14
2632504,13
2633132,17
2633760,15
2634376,12
2635008,11
2635632,17
2636260,31
2636888,47
2637504,47
2638132,33
2638756,23
2639380,15
2640008,17
2640624,20
2641252,14
2641876,11
2642500,27
2643128,34
2643744,34
2644372,31
2645000,25
2645624,26
2646252,18
2646876,13
2647504,15
2648132,13
2648752,15
2649380,11
2650004,11
2650628,10
2651260,12
2651880,13
2652508,15
2653132,24
2653756,45
2654384,60
2655004,44
2655632,30
2656260,25
2656880,24
2657508,16
2658132,10
2658760,13
2659388,23
2660008,26
2660636,27
2661260,20
2661888,11
2662520,19
2663136,37
2663764,28
2664384,29
2665008,32
2665636,14
2666252,17
2666880,17
2667504,18
2668128,27
2668756,41
2669380,45
2670008,46
2670636,48
2671256,51
2671884,39
2672508,31
2673136,27
2673768,25
2674384,16
2675012,14
2675636,27
2676260,30
2676888,27
2677504,27
2678136,21
2678760,20
2679380,22
2680012,19
2680632,20
2681260,19
2681888,17
2682512,10
2683140,11
2683764,11
2684392,18
2685024,21
2685640,20
2686268,32
2686892,43
2687516,45
2688144,28
2688764,21
2689392,18
2690016,21
2690640,16
2691268,10
2691888,15
2692516,23
2693144,33
2693760,31
2694388,18
2695012,12
2695644,16
2696272,22
2696892,14
2697520,15
2698144,15
2698768,16
2699396,16
2700016,12
2700644,11
2701268,14
2701892,19
2702520,12
2703144,12
2703772,18
2704404,36
2705024,35
2705652,30
2706276,23
2706904,17
2707532,10
2708152,12
2708780,14
2709404,10
2710028,11
2710656,10
2711280,13
2711908,17
2712532,17
2713156,16
2713788,14
2714408,17
2715036,15
2715664,12
2716288,12
2716916,10
2717540,11
2718168,10
2718800,11
2719416,18
2720044,36
2720668,45
2721288,46
2721920,46
2722536,33
2723164,17
2723788,19
2724412,11
2725040,15
2725656,29
2726288,33
2726916,31
2727536,25
2728164,18
2728788,18
2729416,27
2730044,30
2730664,24
2731292,17
2731916,14
2732548,23
2733176,42
2733792,43
2734424,36
2735048,17
2735668,21
2736300,39
2736920,53
2737548,50
2738172,32
2738800,19
2739428,14
2740052,17
2740680,18
2741312,19
2741928,17
2742556,15
2743180,15
2743812,12
2744440,15
2745064,17
2745692,16
2746316,22
2746940,18
2747568,16
2748184,16
2748816,12
2749440,14
2750064,14
2750692,11
2751316,12
2751948,19
2752580,26
2753200,34
2753828,44
2754452,42
2755080,29
2755708,22
2756328,16
2756956,15
2757580,17
2758204,16
2758836,12
2759456,11
2760084,11
2760716,15
2761336,23
2761964,20
2762588,16
2763220,15
2763848,13
2764472,15
2765104,15
2765724,17
2766348,14
2766980,12
2767600,15
2768228,19
2768852,21
2769476,29
2770104,38
2770728,44
2771356,36
2771988,24
2772608,16
2773236,15
2773860,11
2774492,11
2775120,21
2775744,26
2776372,28
2776996,26
2777620,26
2778252,24
2778872,32
2779500,40
2780128,41
2780752,38
2781380,29
2782000,23
2782628,19
2783260,31
2783880,30
2784512,33
2785136,45
2785764,54
2786396,65
2787016,57
2787644,31
2788268,14
2788892,17
2789520,22
2790144,15
2790772,10
2791396,10
2792020,11
2792648,14
2793272,14
2793900,14
2794532,12
2795152,20
2795784,32
2796408,33
2797036,26
2797668,19
2798288,20
2798916,11
2799540,13
2800168,17
2800796,16
2801416,21
2802044,27
2802668,33
2803292,33
2803920,34
2804544,33
2805172,18
2805804,14
2806424,15
2807052,17
2807676,26
2808304,14
2808932,11
2809552,11
2810184,13
2810808,20
2811428,18
2812060,12
2812680,14
2813308,14
2813936,16
2814560,14
2815188,15
2815816,15
2816444,11
2817076,10
2817696,12
2818324,11
2818948,12
2819576,27
2820204,36
2820824,40
2821452,38
2822076,30
2822700,18
2823328,16
2823948,18
2824576,19
2825200,29
2825824,39
2826452,28
2827076,21
2827704,17
2828336,10
2828952,12
2829580,14
2830204,14
2830832,13
2831464,14
2832080,11
2832712,11
2833332,11
2833956,17
2834588,18
2835208,23
2835836,46
2836460,55
2837084,44
2837716,35
2838340,18
2838968,14
2839600,14
2840216,15
2840848,14
2841472,27
2842100,30
2842732,18
2843352,11
2843980,22
2844604,28
2845228,26
2845860,11
2846480,19
2847108,19
2847732,17
2848356,15
2848988,21
2849612,18
2850240,19
2850868,21
2851488,26
2852116,32
2852740,46
2853372,46
2854004,27
2854624,16
2855252,17
2855876,14
2856504,15
2857132,10
2857752,13
2858380,24
2859008,30
2859632,25
2860260,19
2860884,23
2861516,23
2862148,30
2862768,30
2863396,23
2864024,17
2864644,15
2865276,14
2865896,14
2866528,16
2867152,18
2867776,25
2868408,35
2869024,37
2869652,33
2870284,42
2870904,27
2871532,17
2872156,15
2872788,15
2873416,14
2874032,13
2874664,11
2875288,10
2875912,18
2876540,24
2877160,23
2877788,22
2878412,15
2879036,16
2879668,21
2880288,18
2880916,14
2881544,13
2882160,11
2882788,10
2883412,13
2884040,24
2884668,25
2885288,29
2885916,37
2886540,40
2887168,35
2887796,24
2888416,25
2889044,23
2889664,18
2890288,17
2890916,10
2891536,12
2892164,12
2892788,17
2893412,27
2894040,27
2894664,19
2895292,18
2895924,16
2896544,13
2897172,15
2897796,17
2898428,16
2899056,11
2899672,11
2900300,10
2900924,11
2901548,19
2902180,23
2902800,29
2903428,33
2904052,35
2904676,26
2905308,22
2905932,19
2906560,15
2907188,10
2907808,11
2908436,17
2909060,28
2909692,23
2910320,17
2910940,15
2911568,13
2912192,15
2912816,20
2913444,15
2914064,16
2914692,17
2915316,11
2915940,11
2916572,13
2917196,12
2917828,13
2918456,12
2919072,12
2919704,18
2920328,20
2920956,24
2921584,28
2922208,33
2922836,41
2923460,37
2924088,21
2924716,10
2925336,14
2925964,20
2926588,26
2927216,25
2927844,13
2928472,10
2929100,14
2929732,20
2930352,15
2930984,13
2931608,16
2932228,16
2932860,11
2933480,11
2934108,10
2934736,15
2935360,17
2935988,21
2936608,27
2937236,31
2937868,19
2938488,18
2939116,14
2939744,14
2940372,11
2941004,10
2941624,12
2942252,11
2942880,13
2943504,14
2944136,23
2944752,27
2945380,21
2946004,16
2946628,15
2947260,15
2947880,15
2948508,17
2949140,20
2949760,23
2950388,23
2951012,28
2951640,30
2952272,30
2952888,33
2953520,30
2954144,33
2954768,28
2955396,20
2956016,15
2956644,15
2957268,11
2957892,14
2958524,22
2959144,29
2959776,28
2960404,22
2961024,13
2961652,10
2962276,11
2962904,14
2963532,14
2964152,13
2964780,14
2965404,12
2966028,15
2966660,16
2967280,19
2967908,19
2968536,23
2969160,16
2969788,20
2970408,29
2971036,27
2971664,22
2972284,22
2972912,17
2973536,12
2974164,12
2974796,10
2975416,15
2976044,18
2976668,21
2977292,23
2977920,28
2978536,24
2979168,19
2979792,14
2980416,15
2981044,14
2981664,14
2982292,14
2982924,18
2983544,16
2984172,10
2984796,10
2985428,11
2986056,22
2986680,43
2987308,48
2987936,32
2988560,25
2989188,19
2989808,15
2990436,11
2991060,11
2991684,10
2992316,14
2992936,24
2993564,25
2994196,23
2994816,18
2995448,11
2996068,16
2996700,19
2997328,15
2997948,15
2998576,19
2999200,23
2999824,18
3000452,14
3001072,15
3001700,25
3002324,36
3002952,36
3003580,37
3004200,33
3004828,27
3005460,14
3006080,15
3006708,13
3007336,12
3007968,21
3008600,37
3009216,36
3009848,22
3010472,19
3011096,15
3011724,10
3012344,13
3012972,15
3013600,14
3014224,15
3014852,16
3015472,11
3016104,21
3016732,22
3017352,28
3017984,22
3018608,14
3019236,15
3019868,18
3020488,27
3021120,40
3021744,37
3022368,26
3022996,26
3023616,18
3024248,13
3024872,17
3025496,29
3026124,27
3026744,13
3027376,10
3028004,12
3028624,22
3029256,25
3029880,17
3030512,14
3031140,14
3031760,15
3032388,17
3033016,22
3033640,19
3034268,16
3034888,17
3035516,24
3036144,29
3036768,40
3037400,37
3038024,21
3038656,15
3039284,15
3039904,15
3040536,16
3041160,19
3041792,21
3042420,22
3043040,17
3043668,16
3044296,15
3044920,11
3045548,12
3046168,22
3046800,15
3047420,14
3048048,18
3048676,21
3049300,19
3049932,12
3050564,10
3051184,14
3051816,30
3052440,49
3053064,57
3053692,52
3054312,40
3054944,28
3055568,24
3056192,22
3056820,15
3057440,12
3058068,12
3058700,28
3059320,19
3059948,13
3060576,17
3061204,19
3061836,22
3062456,22
3063084,13
3063712,15
3064336,15
3064964,14
3065584,11
3066216,10
3066840,11
3067464,12
3068096,14
3068716,22
3069348,31
3069980,38
3070600,37
3071232,25
3071860,19
3072492,22
3073120,20
3073744,15
3074372,10
3074996,23
3075620,38
3076248,38
3076864,30
3077496,24
3078120,14
3078744,17
3079372,26
3079992,32
3080624,23
3081252,20
3081872,15
3082500,33
3083124,45
3083756,42
3084384,35
3085004,26
3085632,22
3086256,27
3086880,41
3087508,32
3088128,30
3088756,26
3089380,20
3090004,14
3090636,10
3091256,14
3091884,23
3092516,17
3093136,14
3093764,18
3094388,25
3095020,42
3095652,38
3096272,27
3096900,15
3097528,15
3098152,19
3098780,20
3099400,15
3100028,19
3100652,23
3101280,26
3101908,30
3102532,26
3103164,26
3103796,28
3104416,28
3105044,20
3105668,15
3106300,15
3106932,16
3107552,14
3108184,17
3108808,17
3109432,10
3110060,9
3110628,13
3111260,19
3111888,34
3112512,38
3113144,20
3113760,15
3114388,14
3115020,14
3115640,21
3116268,19
3116896,23
3117524,30
3118156,34
3118776,42
3119408,44
3120032,35
3120652,27
3121284,19
3121904,22
3122536,18
3123160,14
3123784,15
3124412,29
3125032,32
3125660,28
3126292,18
3126912,13
3127540,13
3128168,13
3128796,10
3129428,14
3130048,15
3130676,15
3131304,16
3131928,12
3132560,16
3133176,15
3133808,13
3134432,21
3135056,29
3135684,31
3136304,25
3136932,19
3137564,18
3138184,22
3138812,26
3139436,22
3140068,14
3140700,11
3141320,23
3141948,25
3142576,22
3143200,21
3143828,18
3144448,15
3145076,18
3145700,23
3146328,27
3146956,24
3147576,16
3148208,14
3148836,15
3149456,20
3150084,19
3150708,16
3151340,22
3151972,30
3152592,36
3153224,37
3153848,32
3154472,23
3155100,18
3155720,15
3156352,14
3156976,11
3157600,10
3158232,21
3158856,24
3159488,20
3160116,16
3160736,11
3161368,11
3161992,11
3162620,15
3163252,19
3163872,17
3164504,14
3165128,22
3165752,19
3166384,16
3167004,15
3167632,14
3168264,20
3168888,32
3169520,41
3170144,32
3170776,24
3171404,21
3172024,17
3172656,15
3173280,13
3173904,28
3174536,22
3175152,14
3175784,11
3176408,12
3177032,10
3177660,10
3178280,11
3178908,15
3179540,21
3180160,21
3180788,19
3181416,15
3182048,18
3182680,23
3183296,23
3183928,29
3184552,32
3185176,31
3185808,36
3186428,33
3187056,23
3187684,13
3188308,16
3188940,19
3189560,16
3190192,11
3190824,10
3191440,11
3192072,13
3192700,20
3193332,26
3193964,22
3194584,21
3195216,27
3195840,33
3196464,32
3197096,21
3197716,16
3198344,14
3198972,22
3199600,35
3200232,28
3200856,16
3201484,36
3202112,53
3202728,42
3203360,39
3203980,31
3204612,19
3205240,18
3205856,17
3206484,14
3207108,12
3207728,11
3208360,15
3208976,21
3209604,23
3210228,24
3210852,22
3211480,22
3212104,21
3212732,19
3213364,19
3213984,16
3214612,15
3215236,12
3215868,10
3216496,10
3217120,15
3217748,30
3218372,42
3218996,46
3219628,38
3220248,33
3220876,25
3221500,19
3222128,15
3222756,14
3223380,10
3224012,13
3224640,21
3225264,27
3225892,21
3226516,12
3227140,13
3227772,18
3228392,17
3229020,14
3229644,15
3230268,17
3230900,16
3231520,16
3232148,13
3232780,12
3233400,12
3234028,13
3234652,15
3235284,19
3235912,31
3236532,37
3237160,41
3237784,39
3238408,29
3239036,19
3239656,15
3240284,16
3240908,21
3241532,18
3242164,18
3242784,22
3243412,30
3244044,29
3244664,27
3245292,32
3245920,24
3246548,20
3247180,18
3247800,15
3248432,13
3249052,15
3249676,11
3250308,14
3250928,30
3251560,45
3252180,59
3252804,67
3253436,50
3254056,29
3254688,27
3255316,24
3255936,17
3256568,11
3257192,22
3257820,33
3258452,34
3259072,35
3259704,33
3260328,26
3260952,22
3261580,11
3262200,17
3262832,17
3263456,14
3264080,14
3264708,15
3265328,17
3265956,20
3266588,24
3267208,22
3267836,11
3268460,13
3269092,30
3269724,38
3270344,39
3270976,27
3271600,15
3272224,16
3272856,14
3273472,11
3274104,15
3274728,17
3275352,14
3275984,20
3276604,21
3277236,18
3277864,15
3278480,14
3279108,14
3279728,15
3280360,15
3280988,14
3281604,13
3282232,17
3282856,20
3283476,19
3284104,20
3284724,25
3285356,34
3285976,35
3286600,36
3287228,28
3287844,14
3288476,15
3289104,14
3289720,17
3290348,36
3290972,42
3291600,43
3292228,30
3292848,16
3293476,11
3294096,18
3294724,14
3295352,14
3295976,13
3296604,13
3297228,16
3297852,15
3298480,14
3299096,15
3299724,13
3300348,12
3300976,17
3301604,22
3302228,35
3302856,38
3303484,42
3304104,35
3304732,25
3305356,16
3305984,15
3306612,10
3307232,17
3307860,20
3308484,24
3309104,26
3309736,23
3310352,26
3310980,21
3311604,17
3312228,14
3312860,14
3313480,15
3314112,15
3314740,11
3315360,15
3315988,21
3316612,19
3317244,16
3317872,22
3318488,23
3319120,33
3319740,42
3320364,47
3320992,36
3321616,26
3322244,19
3322868,15
3323492,14
3324120,23
3324744,34
3325372,39
3326004,34
3326624,39
3327252,28
3327876,18
3328508,16
3329136,17
3329760,17
3330388,19
3331008,16
3331632,12
3332260,15
3332880,35
3333508,37
3334132,30
3334756,23
3335384,33
3336008,44
3336636,51
3337264,46
3337880,34
3338512,17
3339132,13
3339764,11
3340392,11
3341012,17
3341640,25
3342264,30
3342884,41
3343516,47
3344136,46
3344764,47
3345388,35
3346012,14
3346640,21
3347256,33
3347884,31
3348516,30
3349136,31
3349764,18
3350388,16
3351016,17
3351644,22
3352264,38
3352892,49
3353516,47
3354144,35
3354772,26
3355392,25
3356020,22
3356644,11
3357268,13
3357900,24
3358520,26
3359148,24
3359780,20
3360400,20
3361028,27
3361648,31
3362280,26
3362908,16
3363528,15
3364156,14
3364780,11
3365400,11
3366032,21
3366648,24
3367276,27
3367900,34
3368524,45
3369152,46
3369768,39
3370396,29
3371028,16
3371648,15
3372276,21
3372900,16
3373528,12
3374156,17
3374776,32
3375404,39
3376028,30
3376652,18
3377280,16
3377896,23
3378528,33
3379152,27
3379776,16
3380404,17
3381024,17
3381652,23
3382280,22
3382896,19
3383528,20
3384152,24
3384780,28
3385408,34
3386028,37
3386656,40
3387276,28
3387908,18
3388536,14
3389160,15
3389788,13
3390412,22
3391036,22
3391668,28
3392288,24
3392916,11
3393544,10
3394168,11
3394796,16
3395420,21
3396048,16
3396680,14
3397296,15
3397924,14
3398548,12
3399172,11
3399804,16
3400424,24
3401052,29
3401676,31
3402296,34
3402928,37
3403544,41
3404172,35
3404796,30
3405424,16
3406052,15
3406676,13
3407308,17
3407936,28
3408556,45
3409184,52
3409808,45
3410436,35
3411068,32
3411688,30
3412316,14
3412940,23
3413564,34
3414196,39
3414816,29
3415444,13
3416076,10
3416696,15
3417324,33
3417948,43
3418580,43
3419208,38
3419832,42
3420460,40
3421084,30
3421708,23
3422340,16
3422960,12
3423588,11
3424216,11
3424836,16
3425468,20
3426088,30
3426716,37
3427348,39
3427968,41
3428596,32
3429220,16
3429852,16
3430484,18
3431104,21
3431732,21
3432356,16
3432980,14
3433608,16
3434232,17
3434860,18
3435488,33
3436112,45
3436740,43
3437360,33
3437992,23
3438620,16
3439240,14
3439872,14
3440496,27
3441124,31
3441756,21
3442376,20
3443004,17
3443628,14
3444252,12
3444880,15
3445504,27
3446132,23
3446756,22
3447380,17
3448008,12
3448632,11
3449260,11
3449892,12
3450512,15
3451140,25
3451764,30
3452396,31
3453028,32
3453648,37
3454276,39
3454900,40
3455524,37
3456156,26
3456776,12
3457404,20
3458028,30
3458652,33
3459280,32
3459896,21
3460524,11
3461156,13
3461776,14
3462404,12
3463028,15
3463656,18
3464284,19
3464904,18
3465532,15
3466156,15
3466780,11
3467412,10
3468032,21
3468660,30
3469284,35
3469908,31
3470540,18
3471160,20
3471792,25
3472420,26
3473040,13
3473668,12
3474292,25
3474924,33
3475552,28
3476176,24
3476804,17
3477428,13
3478052,19
3478684,19
3479304,17
3479936,17
3480560,16
3481184,15
3481816,11
3482436,16
3483068,20
3483696,20
3484312,14
3484940,12
3485564,25
3486192,33
3486824,41
3487440,32
3488068,23
3488692,21
3489316,23
3489944,13
3490560,9
3491140,12
3491768,22
3492392,28
3493020,25
3493640,20
3494268,22
3494892,18
3495516,13
3496148,14
3496772,14
3497400,18
3498032,19
3498648,15
3499280,11
3499904,11
3500532,12
3501164,15
3501784,27
3502416,33
3503036,45
3503664,35
3504292,17
3504912,15
3505540,14
3506168,15
3506792,11
3507420,18
3508044,24
3508676,24
3509304,18
3509928,12
3510556,11
3511184,10
3511812,16
3512444,14
3513064,15
3513692,14
3514316,14
3514944,11
3515572,10
3516192,12
3516824,15
3517452,18
3518072,21
3518704,29
3519328,36
3519960,34
3520592,25
3521208,20
3521840,16
3522464,14
3523088,13
3523716,12
3524336,17
3524964,30
3525588,26
3526212,25
3526840,28
3527464,13
3528092,11
3528720,14
3529344,14
3529972,15
3530596,18
3531228,24
3531856,24
3532480,18
3533108,10
3533732,10
3534356,18
3534988,36
3535608,47
3536236,41
3536860,21
3537484,15
3538112,17
3538736,17
3539364,23
3539996,12
3540616,16
3541244,31
3541868,34
3542500,31
3543132,31
3543752,29
3544380,32
3545004,36
3545628,23
3546260,18
3546880,35
3547508,29
3548132,20
3548756,18
3549388,18
3550008,15
3550636,20
3551268,22
3551888,28
3552520,29
3553144,34
3553772,29
3554404,22
3555024,25
3555656,17
3556280,11
3556904,11
3557532,11
3558152,21
3558784,23
3559408,18
3560032,12
3560660,11
3561284,26
3561916,29
3562544,18
3563168,16
3563800,18
3564424,13
3565052,15
3565684,24
3566304,30
3566936,29
3567560,29
3568184,39
3568812,47
3569432,48
3570060,34
3570688,20
3571312,16
3571940,15
3572568,15
3573196,13
3573828,17
3574448,27
3575076,37
3575704,37
3576328,42
3576956,34
3577576,12
3578208,13
3578832,19
3579456,14
3580088,15
3580704,16
3581336,12
3581968,11
3582588,11
3583220,19
3583844,28
3584476,45
3585104,56
3585724,53
3586352,36
3586976,24
3587600,27
3588228,27
3588848,22
3589476,12
3590100,17
3590724,25
3591356,22
3591976,24
3592608,28
3593236,12
3593856,11
3594484,19
3595108,24
3595740,17
3596372,14
3596992,15
3597620,16
3598244,23
3598868,19
3599500,16
3600120,13
3600748,17
3601372,25
3601996,26
3602624,34
3603248,34
3603876,17
3604508,14
3605128,14
3605756,17
3606380,17
3607008,12
3607640,14
3608256,29
3608884,33
3609508,35
3610132,29
3610760,22
3611384,21
3612012,17
3612636,14
3613260,15
3613888,17
3614512,18
3615140,19
3615772,14
3616392,12
3617020,18
3617644,30
3618272,29
3618904,31
3619520,36
3620148,38
3620772,30
3621396,16
3622028,14
3622648,13
3623276,11
3623900,10
3624524,13
3625156,18
3625776,23
3626404,17
3627036,22
3627656,28
3628284,25
3628908,19
3629540,19
3630168,18
3630788,17
3631416,12
3632040,29
3632664,32
3633292,15
3633912,17
3634544,21
3635168,27
3635792,38
3636420,49
3637040,45
3637668,38
3638300,31
3638920,20
3639548,10
3640176,19
3640804,38
3641432,39
3642056,25
3642684,23
3643308,27
3643936,28
3644564,27
3645184,15
3645816,16
3646436,16
3647060,14
3647692,12
3648312,16
3648940,21
3649572,23
3650192,20
3650820,22
3651444,30
3652076,39
3652704,46
3653324,41
3653952,29
3654576,21
3655200,17
3655828,14
3656448,15
3657076,19
3657700,20
3658324,23
3658956,16
3659576,20
3660208,17
3660836,20
3661456,24
3662084,21
3662708,18
3663340,14
3663972,13
3664592,15
3665220,22
3665848,23
3666472,22
3667100,17
3667720,12
3668348,21
3668972,34
3669600,47
3670228,37
3670852,27
3671484,27
3672116,28
3672736,18
3673368,13
3673992,24
3674624,33
3675252,25
3675872,27
3676504,25
3677128,19
3677752,18
3678384,23
3679004,23
3679632,23
3680264,17
3680888,15
3681516,14
3682140,19
3682772,17
3683404,10
3684024,13
3684652,25
3685280,37
3685904,41
3686532,31
3687152,20
3687780,25
3688404,26
3689024,22
3689656,16
3690272,14
3690900,9
3691472,13
3692096,27
3692724,43
3693344,43
3693972,37
3694604,30
3695224,23
3695852,18
3696476,16
3697108,14
3697736,19
3698360,32
3698988,35
3699612,32
3700236,24
3700864,26
3701488,30
3702116,33
3702740,37
3703364,25
3703996,14
3704616,19
3705244,27
3705876,26
3706496,15
3707124,10
3707752,19
3708380,25
3709012,22
3709632,21
3710260,21
3710888,19
3711512,22
3712144,21
3712760,23
3713388,17
3714012,14
3714636,17
3715264,16
3715888,25
3716516,19
3717148,22
3717768,23
3718396,31
3719020,41
3719652,40
3720284,20
3720904,14
3721532,20
3722160,21
3722784,17
3723412,13
3724032,11
3724660,10
3725288,17
3725912,25
3726540,17
3727160,13
3727792,11
3728420,14
3729040,13
3729668,14
3730292,15
3730924,24
3731552,34
3732176,32
3732804,27
3733428,16
3734052,11
3734684,18
3735304,27
3735936,40
3736560,28
3737184,25
3737816,22
3738440,21
3739068,18
3739696,12
3740320,10
3740948,27
3741572,34
3742204,21
3742836,22
3743456,15
3744088,13
3744708,19
3745332,24
3745964,30
3746584,27
3747212,29
3747836,15
3748464,21
3749092,29
3749720,27
3750348,29
3750980,32
3751600,36
3752232,37
3752856,41
3753480,35
3754112,33
3754728,23
3755360,18
3755984,13
3756608,11
3757240,15
3757856,26
3758488,30
3759116,28
3759736,26
3760368,27
3760992,27
3761620,22
3762252,14
3762872,14
3763504,15
3764128,18
3764752,22
3765384,21
3766000,16
3766632,12
3767256,11
3767880,15
3768512,27
3769128,43
3769756,37
3770388,21
3771008,21
3771636,18
3772264,15
3772892,10
3773524,11
3774144,18
3774776,19
3775400,19
3776024,25
3776652,26
3777272,18
3777904,15
3778528,22
3779152,19
3779784,15
3780400,14
3781028,14
3781660,20
3782280,25
3782912,26
3783536,28
3784168,30
3784796,36
3785416,37
3786048,31
3786672,35
3787296,31
3787928,14
3788544,20
3789176,19
3789800,21
3790424,27
3791052,26
3791672,23
3792304,16
3792932,12
3793552,16
3794184,22
3794808,21
3795436,15
3796068,20
3796688,27
3797316,24
3797944,26
3798568,17
3799196,14
3799816,17
3800448,15
3801072,22
3801696,32
3802324,39
3802948,40
3803580,27
3804212,21
3804832,15
3805460,14
3806088,10
3806716,13
3807348,21
3807968,31
3808600,42
3809228,40
3809852,16
3810480,11
3811104,13
3811736,14
3812364,14
3812984,16
3813616,14
3814240,15
3814872,13
3815500,12
3816120,17
3816748,21
3817376,21
3818000,22
3818628,30
3819248,36
3819880,36
3820504,29
3821128,25
3821760,22
3822376,21
3823008,13
3823640,20
3824256,39
3824888,45
3825512,39
3826144,25
3826776,12
3827392,11
3828024,16
3828648,19
3829272,17
3829904,13
3830520,15
3831152,18
3831776,15
3832404,24
3833032,34
3833656,39
3834288,38
3834920,35
3835536,39
3836168,27
3836796,14
3837428,14
3838060,20
3838680,20
3839316,12
3839940,12
3840568,10
3841196,12
3841816,18
3842444,20
3843068,22
3843696,27
3844324,23
3844948,23
3845580,25
3846208,21
3846828,21
3847456,13
3848080,11
3848708,11
3849340,18
3849960,21
3850588,22
3851212,27
3851836,38
3852468,54
3853088,42
3853716,24
3854348,20
3854968,21
3855596,14
3856220,16
3856852,19
3857480,20
3858100,17
3858728,25
3859352,23
3859976,20
3860608,24
3861224,30
3861852,28
3862476,27
3863100,24
3863732,14
3864352,24
3864980,35
3865612,41
3866232,44
3866860,55
3867484,56
3868116,35
3868748,30
3869368,29
3869996,18
3870624,16
3871248,14
3871876,18
3872496,26
3873124,27
3873748,19
3874372,14
3875004,17
3875624,16
3876256,10
3876884,10
3877504,10
3878136,14
3878760,15
3879388,15
3880020,16
3880640,13
3881268,16
3881892,15
3882516,10
3883148,14
3883768,19
3884396,27
3885024,30
3885648,40
3886276,32
3886896,15
3887524,15
3888156,15
3888776,16
3889408,11
3890032,10
3890664,12
3891292,13
3891912,11
3892540,11
3893164,19
3893788,26
3894416,21
3895040,23
3895668,21
3896292,25
3896920,18
3897548,13
3898168,19
3898796,18
3899428,16
3900048,17
3900676,19
3901304,37
3901936,47
3902564,46
3903184,37
3903816,24
3904440,23
3905064,21
3905692,16
3906312,11
3906944,21
3907568,27
3908192,29
3908820,32
3909448,31
3910076,18
3910708,12
3911328,14
3911960,13
3912584,15
3913212,14
3913844,15
3914464,10
3915096,15
3915720,19
3916344,14
3916976,12
3917592,17
3918224,20
3918852,26
3919472,37
3920104,32
3920728,25
3921356,26
3921988,21
3922608,12
3923236,10
3923860,16
3924488,22
3925116,20
3925736,18
3926368,17
3926992,13
3927616,13
3928248,16
3928864,14
3929496,15
3930128,17
3930748,16
3931376,11
3932004,10
3932632,10
3933264,11
3933880,17
3934512,45
3935136,62
3935760,51
3936392,34
3937008,28
3937636,24
3938260,23
3938884,23
3939516,12
3940136,24
3940764,24
3941396,17
3942016,18
3942648,18
3943268,22
3943900,30
3944528,42
3945152,33
3945780,19
3946404,16
3947028,31
3947660,38
3948280,24
3948908,13
3949532,13
3950156,13
3950788,11
3951408,19
3952036,33
3952668,46
3953288,50
3953916,47
3954540,25
3955172,15
3955804,11
3956424,14
3957052,15
3957680,17
3958304,22
3958932,31
3959552,42
3960184,41
3960808,31
3961432,20
3962060,14
3962680,20
3963312,27
3963940,18
3964560,14
3965192,15
3965816,17
3966444,17
3967076,18
3967696,24
3968328,29
3968948,35
3969576,28
3970204,19
3970824,21
3971452,33
3972080,28
3972704,10
3973332,16
3973956,21
3974588,17
3975216,24
3975836,35
3976464,27
3977088,19
3977720,24
3978348,24
3978968,19
3979596,15
3980224,15
3980848,16
3981476,30
3982096,34
3982724,25
3983352,24
3983976,26
3984608,37
3985232,35
3985864,26
3986492,20
3987112,19
3987744,14
3988368,15
3989000,12
3989628,10
3990248,11
3990880,13
3991504,22
3992128,20
3992760,13
3993380,14
3994012,19
3994640,28
3995264,28
3995892,15
3996520,14
3997148,12
3997780,11
3998400,13
3999028,16
3999656,23
4000280,22
4000908,24
4001528,35
4002156,45
4002780,34
4003404,17
4004032,16
4004656,19
4005284,22
4005912,10
4006532,19
4007160,30
4007784,38
4008412,32
4009044,24
4009664,16
4010292,11
4010916,18
4011540,21
4012168,15
4012792,15
4013424,17
4014048,11
4014672,16
4015300,15
4015920,20
4016548,26
4017180,28
4017800,35
4018428,39
4019052,31
4019684,24
4020312,22
4020932,22
4021560,17
4022184,13
4022808,11
4023436,15
4024056,32
4024684,32
4025308,25
4025932,19
4026560,21
4027184,24
4027812,23
4028444,18
4029064,18
4029692,17
4030320,14
4030948,19
4031580,20
4032200,18
4032828,24
4033452,26
4034076,30
4034708,34
4035328,40
4035956,39
4036580,37
4037204,37
4037836,25
4038456,17
4039084,13
4039716,16
4040336,20
4040964,25
4041588,29
4042220,23
4042852,12
4043472,12
4044104,13
4044728,16
4045352,17
4045980,16
4046600,17
4047228,12
4047852,15
4048476,15
4049108,15
4049732,18
4050364,26
4050992,35
4051612,40
4052240,41
4052864,32
4053496,21
4054128,15
4054744,15
4055376,14
4056000,16
4056620,11
4057252,11
4057872,13
4058500,12
4059124,14
4059748,16
4060380,18
4061004,20
4061636,25
4062264,25
4062884,24
4063512,14
4064140,15
4064768,21
4065400,21
4066016,16
4066648,21
4067272,30
4067896,41
4068524,48
4069144,43
4069776,18
4070400,14
4071024,15
4071656,15
4072280,11
4072908,11
4073540,11
4074160,13
4074792,9
4075364,12
4076000,23
4076628,19
4077248,21
4077880,27
4078504,26
4079128,18
4079760,16
4080376,14
4081008,12
4081632,12
4082256,14
4082888,14
4083504,24
4084136,34
4084764,53
4085384,65
4086016,49
4086640,31
4087268,21
4087900,14
4088520,15
4089148,19
4089776,28
4090400,23
4091028,15
4091648,15
4092280,14
4092904,12
4093528,22
4094160,42
4094776,43
4095408,16
4096040,22
4096660,21
4097288,21
4097908,15
4098536,14
4099164,14
4099784,30
4100412,34
4101032,44
4101656,53
4102284,53
4102904,40
4103532,21
4104152,15
4104776,15
4105404,18
4106024,13
4106652,18
4107280,25
4107896,27
4108524,28
4109148,25
4109776,19
4110404,16
4111020,17
4111652,18
4112276,16
4112900,17
4113528,14
4114152,10
4114780,11
4115404,14
4116028,16
4116656,20
4117272,28
4117900,33
4118524,36
4119152,31
4119780,23
4120404,25
4121032,30
4121660,17
4122276,12
4122908,17
4123528,23
4124156,16
4124788,13
4125408,14
4126036,17
4126660,21
4127284,20
4127916,16
4128536,14
4129164,16
4129788,15
4130416,16
4131044,17
4131668,17
4132296,17
4132928,18
4133544,21
4134172,19
4134796,17
4135428,20
4136056,18
4136672,14
4137304,21
4137928,23
4138548,15
4139180,11
4139800,20
4140428,27
4141052,18
4141680,17
4142308,16
4142932,19
4143560,25
4144192,24
4144808,19
4145436,14
4146064,14
4146692,14
4147324,12
4147944,14
4148572,23
4149196,37
4149816,39
4150448,39
4151064,44
4151692,39
4152316,34
4152944,25
4153572,19
4154200,19
4154828,14
4155460,12
4156080,24
4156708,39
4157336,29
4157960,24
4158588,23
4159208,15
4159836,11
4160464,12
4161084,14
4161712,13
4162336,14
4162964,17
4163592,16
4164208,12
4164840,13
4165460,15
4166088,11
4166720,25
4167336,35
4167964,54
4168588,61
4169220,54
4169848,39
4170464,31
4171092,18
4171716,14
4172340,10
4172972,17
4173592,24
4174220,28
4174844,30
4175472,31
4176100,31
4176724,19
4177352,20
4177984,18
4178600,14
4179228,14
4179852,15
4180480,15
4181108,18
4181728,15
4182356,10
4182980,11
4183604,13
4184236,17
4184856,18
4185484,24
4186108,16
4186736,15
4187364,26
4187988,27
4188616,28
4189248,21
4189864,10
4190492,11
4191116,12
4191748,22
4192376,22
4193000,16
4193628,16
4194252,25
4194876,29
4195504,31
4196128,29
4196756,15
4197388,20
4198008,30
4198640,24
4199260,13
4199888,18
4200520,27
4201136,29
4201764,28
4202388,23
4203012,23
4203644,27
4204264,41
4204892,40
4205516,29
4206140,12
4206768,20
4207384,27
4208012,26
4208636,22
4209264,15
4209892,12
4210516,16
4211148,17
4211780,15
4212400,15
4213028,14
4213652,11
4214280,11
4214908,10
4215528,11
4216156,12
4216780,13
4217408,21
4218036,50
4218656,51
4219284,36
4219916,22
4220536,27
4221164,27
4221788,19
4222420,13
4223048,19
4223672,33
4224304,43
4224924,40
4225548,37
4226176,23
4226800,13
4227428,13
4228052,12
4228676,21
4229304,29
4229920,28
4230552,21
4231180,15
4231800,11
4232428,10
4233052,16
4233684,21
4234312,34
4234928,48
4235560,43
4236184,25
4236808,20
4237436,18
4238056,15
4238684,21
4239312,39
4239936,35
4240564,22
4241184,13
4241812,10
4242444,10
4243064,13
4243692,22
4244316,25
4244948,19
4245576,15
4246200,18
4246828,12
4247452,18
4248076,28
4248708,32
4249328,33
4249960,28
4250580,27
4251204,35
4251832,41
4252456,37
4253084,32
4253716,22
4254336,15
4254968,21
4255592,20
4256220,9
4256800,11
4257424,25
4258052,43
4258676,41
4259308,37
4259936,38
4260552,41
4261184,34
4261808,21
4262428,15
4263056,44
4263680,52
4264308,37
4264932,25
4265556,24
4266184,21
4266808,22
4267436,33
4268068,46
4268688,52
4269316,40
4269940,28
4270572,21
4271200,16
4271820,12
4272448,17
4273072,37
4273696,40
4274324,22
4274944,15
4275572,14
4276196,13
4276820,20
4277452,20
4278072,16
4278700,15
4279332,17
4279952,20
4280584,13
4281204,13
4281836,10
4282464,21
4283084,28
4283712,36
4284336,51
4284960,59
4285588,52
4286208,29
4286836,17
4287460,17
4288088,14
4288716,12
4289336,11
4289964,12
4290596,18
4291216,22
4291844,25
4292468,21
4293096,22
4293728,25
4294348,26
4294976,18
4295600,14
4296228,17
4296856,19
4297476,13
4298104,10
4298728,11
4299352,18
4299984,22
4300604,27
4301236,39
4301864,46
4302480,38
4303112,23
4303736,16
4304364,15
4304996,18
4305616,37
4306244,45
4306868,37
4307492,25
4308120,18
4308744,11
4309372,11
4309996,11
4310624,13
4311252,19
4311876,15
4312508,21
4313136,14
4313756,23
4314384,33
4315008,30
4315636,25
4316268,16
4316888,16
4317516,29
4318140,45
4318768,49
4319396,42
4320016,28
4320644,15
4321268,17
4321892,17
4322520,19
4323144,22
4323776,24
4324404,24
4325024,16
4325652,14
4326276,14
4326908,26
4327536,43
4328160,37
4328788,15
4329412,17
4330036,15
4330668,16
4331288,20
4331916,29
4332540,34
4333168,22
4333796,20
4334420,31
4335052,45
4335680,55
4336304,39
4336936,23
4337556,20
4338184,21
4338812,10
4339432,16
4340060,25
4340684,22
4341312,18
4341940,23
4342560,27
4343188,25
4343820,16
4344440,17
4345068,14
4345692,17
4346324,22
4346952,12
4347576,11
4348204,12
4348828,15
4349452,25
4350084,35
4350704,46
4351336,51
4351960,59
4352584,48
4353216,29
4353832,21
4354460,14
4355092,12
4355712,17
4356340,31
4356964,35
4357596,43
4358224,50
4358848,40
4359476,28
4360100,15
4360724,13
4361356,14
4361976,18
4362604,21
4363228,20
4363852,16
4364480,16
4365104,21
4365732,32
4366364,32
4366984,27
4367612,29
4368236,33
4368868,30
4369496,25
4370116,23
4370744,15
4371368,15
4371992,10
4372624,11
4373240,21
4373868,22
4374492,26
4375120,31
4375748,29
4376368,21
4376996,14
4377628,24
4378248,18
4378876,15
4379500,20
4380132,15
4380764,13
4381384,13
4382016,10
4382640,12
4383264,11
4383892,18
4384512,25
4385140,33
4385764,35
4386388,25
4387020,25
4387640,35
4388268,19
4388900,17
4389520,22
4390148,20
4390776,11
4391404,10
4392036,10
4392656,11
4393284,10
4393912,14
4394536,12
4395164,15
4395784,18
4396416,16
4397040,10
4397664,11
4398296,14
4398920,32
4399552,23
4400180,11
4400800,37
4401428,42
4402056,38
4402684,33
4403316,34
4403936,37
4404564,37
4405188,20
4405812,11
4406440,12
4407064,22
4407692,26
4408316,22
4408944,13
4409572,10
4410200,11
4410828,14
4411460,14
4412080,15
4412708,13
4413336,15
4413960,9
4414540,10
4415164,11
4415796,13
4416420,11
4417044,21
4417672,50
4418296,61
4418928,57
4419552,46
4420176,27
4420804,18
4421424,16
4422056,15
4422684,24
4423304,24
4423936,19
4424560,17
4425188,11
4425816,15
4426440,21
4427068,26
4427692,26
4428316,21
4428948,14
4429568,15
4430196,11
4430820,11
4431444,17
4432076,22
4432696,18
4433324,13
4433956,13
4434576,31
4435204,52
4435828,44
4436460,30
4437088,16
4437712,15
4438344,11
4438968,11
4439592,13
4440224,18
4440840,22
4441468,18
4442096,18
4442720,14
4443348,11
4443972,15
4444604,18
4445236,20
4445856,16
4446484,13
4447108,10
4447740,11
4448372,13
4448992,16
4449620,17
4450244,21
4450868,40
4451500,46
4452120,37
4452752,21
4453380,26
4454000,37
4454632,31
4455256,13
4455884,11
4456516,17
4457136,25
4457764,28
4458388,29
4459016,31
4459648,32
4460264,25
4460896,14
4461520,13
4462144,15
4462772,13
4463392,13
4464024,19
4464652,10
4465272,11
4465900,15
4466528,32
4467156,44
4467788,47
4468408,41
4469036,39
4469664,32
4470288,17
4470920,14
4471536,12
4472168,18
4472792,19
4473416,19
4474048,25
4474664,36
4475296,22
4475928,10
4476548,14
4477180,15
4477804,13
4478436,16
4479068,20
4479688,21
4480320,19
4480944,13
4481568,11
4482196,10
4482816,13
4483444,29
4484068,42
4484692,38
4485324,40
4485944,31
4486572,14
4487200,14
4487824,15
4488452,10
4489076,13
4489708,26
4490336,23
4490956,19
4491584,17
4492208,14
4492832,15
4493460,25
4494080,24
4494708,20
4495336,16
4495960,17
4496592,11
4497208,15
4497836,11
4498468,20
4499088,37
4499720,45
4500344,46
4500972,38
4501604,46
4502224,50
4502856,44
4503480,32
4504104,23
4504736,14
4505352,18
4505984,21
4506608,28
4507228,28
4507860,25
4508484,25
4509112,29
4509740,25
4510360,20
4510988,17
4511612,15
4512244,16
4512872,15
4513496,12
4514124,11
4514748,13
4515372,12
4516004,16
4516624,21
4517252,26
4517876,34
4518500,44
4519132,41
4519756,25
4520384,20
4521012,23
4521632,13
4522260,11
4522884,17
4523516,39
4524144,42
4524768,30
4525400,22
4526024,13
4526648,12
4527276,22
4527896,23
4528528,23
4529152,20
4529776,16
4530404,24
4531028,21
4531660,22
4532292,16
4532912,16
4533540,28
4534168,43
4534792,51
4535420,60
4536040,49
4536668,31
4537292,19
4537916,17
4538548,10
4539168,15
4539800,38
4540428,43
4541048,36
4541680,21
4542304,13
4542932,12
4543564,11
4544184,13
4544816,17
4545440,15
4546064,19
4546692,16
4547312,16
4547940,20
4548564,12
4549188,30
4549820,37
4550440,37
4551068,48
4551700,54
4552320,50
4552948,41
4553576,29
4554204,25
4554836,11
4555456,23
4556088,29
4556712,22
4557336,15
4557968,10
4558588,11
4559216,14
4559840,15
4560464,24
4561092,26
4561712,23
4562340,17
4562972,16
4563592,11
4564220,15
4564848,17
4565476,25
4566108,27
4566728,25
4567356,26
4567984,30
4568608,31
4569236,16
4569856,13
4570484,15
4571108,14
4571736,11
4572364,13
4572984,11
4573612,17
4574244,28
4574864,34
4575496,32
4576120,30
4576748,14
4577380,14
4578000,15
4578628,15
4579256,17
4579880,11
4580508,12
4581128,11
4581760,16
4582384,27
4583008,34
4583640,45
4584264,43
4584896,32
4585524,21
4586144,25
4586776,31
4587400,38
4588032,19
4588660,11
4589280,19
4589908,27
4590532,25
4591156,33
4591788,33
4592408,23
4593036,15
4593660,17
4594288,16
4594916,15
4595544,17
4596172,15
4596804,18
4597424,21
4598056,31
4598680,25
4599304,16
4599936,28
4600552,37
4601184,41
4601808,40
4602432,26
4603060,15
4603680,14
4604308,15
4604940,10
4605560,12
4606192,19
4606816,24
4607448,27
4608076,25
4608692,17
4609324,14
4609944,11
4610568,13
4611196,14
4611816,15
4612444,16
4613068,11
4613692,10
4614324,10
4614944,14
4615572,21
4616204,33
4616824,47
4617452,46
4618076,37
4618708,24
4619336,19
4619960,15
4620588,15
4621212,15
4621836,11
4622468,12
4623088,23
4623716,23
4624340,24
4624964,24
4625596,19
4626216,21
4626844,39
4627476,52
4628096,42
4628724,33
4629348,17
4629980,30
4630608,32
4631232,29
4631860,30
4632488,40
4633108,57
4633740,68
4634360,65
4634988,45
4635612,24
4636236,17
4636868,24
4637488,22
4638116,10
4638748,14
4639368,21
4639996,22
4640624,24
4641252,25
4641884,27
4642504,27
4643132,24
4643756,16
4644380,15
4645012,14
4645632,21
4646260,17
4646888,15
4647508,10
4648140,20
4648760,32
4649392,35
4650020,28
4650640,41
4651268,60
4651892,65
4652524,55
4653156,40
4653776,24
4654404,16
4655028,11
4655656,15
4656284,22
4656904,26
4657532,27
4658160,29
4658784,29
4659412,28
4660036,23
4660668,18
4661296,18
4661916,20
4662544,20
4663168,11
4663796,24
4664428,28
4665048,20
4665676,13
4666300,20
4666924,32
4667556,38
4668176,43
4668804,35
4669432,24
4670056,23
4670684,17
4671312,11
4671940,12
4672572,14
4673192,23
4673820,24
4674444,30
4675076,31
4675708,27
4676328,19
4676956,15
4677584,13
4678208,15
4678836,14
4679456,13
4680088,13
4680716,15
4681336,11
4681964,13
4682592,22
4683220,21
4683852,32
4684472,51
4685104,61
4685728,53
4686352,38
4686980,19
4687600,15
4688228,13
4688852,10
4689476,12
4690108,26
4690728,45
4691356,35
4691988,20
4692608,20
4693236,17
4693864,18
4694492,16
4695124,13
4695744,16
4696376,13
4697000,20
4697624,22
4698252,22
4698872,16
4699504,15
4700128,18
4700752,21
4701384,28
4702004,26
4702632,25
4703264,20
4703884,15
4704516,12
4705140,10
4705772,9
4706352,10
4706976,11
4707608,23
4708232,23
4708864,17
4709492,18
4710112,23
4710744,25
4711368,18
4711992,15
4712624,31
4713244,30
4713872,18
4714504,13
4715120,11
4715752,12
4716376,11
4717008,30
4717636,48
4718256,58
4718888,45
4719512,31
4720136,20
4720764,16
4721384,11
4722012,12
4722636,23
4723264,29
4723892,24
4724512,28
4725140,25
4725772,16
4726392,13
4727024,14
4727648,15
4728280,15
4728908,14
4729528,12
4730160,17
4730784,21
4731408,21
4732040,18
4732660,20
4733288,34
4733916,43
4734540,45
4735172,42
4735792,27
4736428,15
4737056,14
4737676,16
4738304,23
4738928,27
4739556,28
4740188,28
4740808,25
4741436,18
4742064,15
4742688,14
4743316,12
4743936,14
4744568,14
4745192,18
4745816,19
4746448,13
4747064,11
4747696,25
4748324,39
4748944,44
4749576,39
4750200,41
4750832,44
4751464,37
4752080,22
4752708,17
4753332,16
4753956,15
4754588,10
4755208,15
4755836,21
4756464,24
4757088,23
4757720,19
4758344,18
4758976,22
4759604,32
4760224,36
4760856,29
4761480,15
4762112,14
4762740,13
4763360,11
4763988,11
4764616,11
4765240,17
4765872,18
4766488,35
4767120,49
4767752,58
4768368,51
4769000,33
4769624,28
4770252,24
4770884,16
4771504,11
4772136,14
4772760,15
4773384,23
4774016,21
4774632,22
4775264,20
4775888,24
4776512,18
4777144,18
4777760,15
4778392,15
4779024,15
4779640,12
4780272,21
4780900,25
4781528,23
4782160,23
4782780,26
4783412,40
4784036,42
4784660,39
4785292,32
4785912,23
4786544,15
4787168,17
4787796,11
4788428,14
4789048,27
4789680,44
4790308,41
4790928,28
4791560,30
4792188,38
4792820,35
4793452,20
4794072,19
4794704,31
4795328,23
4795956,21
4796588,32
4797208,32
4797840,17
4798472,18
4799092,25
4799724,35
4800352,41
4800980,40
4801608,35
4802224,26
4802856,22
4803480,18
4804104,16
4804732,10
4805352,11
4805980,19
4806608,26
4807228,24
4807860,24
4808480,21
4809108,13
4809740,10
4810360,21
4810992,17
4811616,15
4812244,15
4812876,10
4813496,11
4814124,12
4814748,15
4815372,23
4816000,26
4816624,33
4817252,36
4817876,34
4818500,35
4819132,24
4819752,18
4820384,18
4821012,17
4821632,11
4822264,12
4822888,25
4823516,29
4824148,24
4824768,21
4825400,20
4826024,23
4826648,28
4827276,24
4827896,20
4828528,19
4829152,16
4829776,13
4830404,19
4831024,16
4831656,11
4832288,14
4832904,22
4833536,29
4834160,35
4834788,43
4835420,36
4836040,29
4836668,17
4837292,17
4837920,21
4838548,11
4839168,14
4839796,18
4840424,15
4841048,16
4841676,18
4842296,28
4842924,32
4843556,34
4844176,23
4844804,14
4845428,14
4846060,14
4846692,16
4847312,17
4847944,17
4848568,14
4849192,15
4849824,23
4850440,29
4851072,33
4851696,31
4852320,25
4852952,23
4853576,25
4854208,24
4854836,13
4855456,10
4856088,12
4856712,15
4857340,21
4857972,22
4858592,18
4859224,16
4859848,14
4860472,15
4861104,16
4861724,15
4862356,14
4862988,12
4863608,12
4864240,13
4864864,13
4865492,15
4866124,21
4866744,30
4867372,48
4867996,55
4868624,33
4869252,16
4869872,15
4870500,13
4871128,11
4871752,18
4872384,22
4873000,23
4873632,20
4874260,22
4874880,28
4875508,23
4876136,17
4876764,17
4877396,13
4878016,15
4878648,14
4879272,15
4879896,13
4880528,10
4881144,13
4881772,16
4882396,19
4883024,35
4883652,44
4884272,52
4884904,61
4885532,44
4886152,21
4886784,15
4887408,14
4888040,14
4888668,10
4889288,10
4889920,17
4890540,30
4891168,55
4891800,58
4892416,28
4893048,13
4893672,17
4894296,17
4894928,19
4895544,23
4896176,12
4896804,10
4897424,18
4898052,35
4898680,32
4899308,27
4899940,36
4900560,52
4901192,56
4901816,45
4902440,31
4903068,17
4903688,14
4904320,11
4904944,12
4905568,17
4906200,21
4906824,26
4907456,27
4908088,22
4908704,18
4909336,23
4909964,24
4910596,18
4911228,16
4911848,14
4912480,14
4913108,16
4913732,19
4914364,19
4914984,15
4915620,16
4916248,25
4916864,35
4917492,48
4918116,44
4918744,31
4919376,19
4919992,15
4920624,15
4921248,12
4921872,16
4922500,14
4923120,15
4923748,18
4924372,15
4925000,15
4925628,21
4926248,24
4926876,25
4927508,22
4928128,21
4928756,18
4929380,10
4930008,10
4930640,12
4931256,14
4931884,14
4932508,19
4933132,31
4933764,38
4934384,40
4935016,40
4935640,39
4936264,35
4936892,25
4937512,15
4938144,15
4938772,16
4939392,21
4940020,24
4940648,19
4941276,15
4941908,12
4942528,14
4943156,17
4943784,17
4944408,16
4945036,14
4945656,13
4946284,11
4946908,11
4947532,13
4948164,16
4948784,25
4949412,33
4950044,36
4950664,39
4951296,36
4951920,25
4952548,17
4953180,16
4953800,15
4954428,10
4955052,12
4955680,13
4956308,21
4956928,25
4957556,24
4958184,23
4958808,23
4959436,22
4960056,21
4960684,18
4961312,16
4961936,15
4962564,12
4963188,17
4963820,16
4964448,12
4965072,11
4965704,12
4966328,19
4966952,31
4967580,46
4968200,44
4968828,38
4969452,21
4970076,18
4970708,22
4971332,18
4971964,10
4972592,15
4973212,21
4973840,22
4974464,23
4975092,18
4975724,16
4976344,18
4976972,17
4977596,15
4978220,14
4978852,14
4979472,13
4980100,15
4980724,17
4981348,15
4981980,19
4982604,23
4983236,29
4983864,31
4984488,34
4985116,31
4985744,27
4986372,19
4987004,14
4987624,10
4988256,14
4988880,25
4989504,32
4990132,30
4990752,25
4991384,13
4992016,10
4992632,12
4993260,21
4993888,20
4994516,15
4995148,16
4995768,22
4996400,24
4997024,20
4997648,14
4998276,16
4998896,22
4999524,33
5000152,46
5000776,47
5001404,42
5002024,22
5002652,16
5003284,34
5003904,32
5004536,25
5005160,33
5005788,40
5006420,40
5007040,24
5007672,10
5008296,25
5008920,29
5009548,46
5010168,69
5010800,89
5011424,84
5012048,74
5012676,56
5013296,21
5013928,12
5014556,15
5015176,24
5015808,19
5016432,11
5017064,11
5017696,11
5018312,19
5018940,15
5019564,35
5020192,40
5020820,27
5021440,18
5022068,31
5022696,35
5023320,12
5023952,11
5024568,10
5025200,15
5025832,20
5026448,23
5027076,19
5027704,15
5028336,17
5028964,14
5029584,15
5030216,13
5030840,15
5031464,11
5032096,10
5032712,26
5033344,38
5033968,34
5034592,21
5035224,29
5035848,37
5036480,41
5037108,96
5037728,94
5038360,74
5038988,55
5039616,14
5040248,18
5040868,43
5041496,66
5042124,65
5042748,101
5043428,205
5044100,141
5044776,61
5045408,43
5046024,22
5046656,47
5047280,23
5047904,18
5048536,26
5049160,55
5049792,76
5050420,64
5051040,62
5051672,23
5052296,27
5052928,25
5053556,53
5054176,85
5054808,93
5055432,50
5056056,14
5056688,24
5057304,59
5057936,68
5058568,72
5059184,58
5059816,39
5060440,37
5061072,23
5061700,19
5062320,33
5062952,35
5063576,44
5064200,48
5064832,59
5065452,70
5066084,50
5066708,33
5067332,32
5067964,30
5068584,16
5069216,26
5069848,46
5070468,29
5071096,12
5071724,10
5072356,31
5072988,37
5073608,17
5074240,15
5074864,45
5075488,35
5076120,12
5076740,22
5077372,31
5077996,30
5078624,21
5079256,11
5079880,33
5080512,76
5081140,51
5081760,23
5082388,23
5083016,39
5083644,22
5084276,11
5084896,24
5085524,31
5086152,27
5086776,15
5087408,25
5088024,40
5088656,59
5089288,57
5089904,57
5090536,52
5091160,85
5091792,37
5092424,22
5093044,20
5093676,32
5094300,56
5094928,61
5095556,46
5096176,18
5096808,65
5097432,133
5098108,92
5098736,56
5099360,64
5099992,14
5100624,90
5101244,110
5101928,131
5102604,159
5103276,198
5103956,138
5104632,22
5105248,81
5105880,62
5106508,67
5107140,202
5107824,282
5108492,259
5109172,149
5109852,24
5110472,32
5111104,24
5111728,36
5112356,57
5112988,67
5113608,53
5114240,22
5114864,24
5115492,13
5116124,11
5116752,18
5117384,26
5118016,29
5118636,71
5119272,100
5119948,110
5120624,78
5121244,45
5121868,34
5122496,43
5123124,42
5123744,27
5124372,110
5125048,76
5125664,13
5126292,22
5126912,41
5127540,32
5128164,35
5128788,55
5129416,35
5130036,13
5130664,25
5131292,90
5131912,79
5132540,33
5133164,12
5133796,23
5134424,29
5135040,13
5135668,51
5136292,54
5136916,42
5137544,75
5138168,55
5138796,81
5139420,84
5140044,41
5140676,15
5141296,117
5141976,96
5142600,48
5143216,138
5143900,56
5144520,17
5145144,16
5145772,73
5146392,108
5147072,97
5147696,71
5148312,84
5148944,87
5149568,61
5150196,54
5150828,147
5151500,44
5152128,20
5152748,13
5153372,19
5154004,28
5154628,10
5155256,13
5155888,73
5156504,108
5157184,54
5157808,15
5158432,18
5159060,34
5159680,87
5160308,159
5160992,68
5161608,21
5162236,17
5162860,11
5163492,12
5164120,14
5164740,51
5165368,39
5165992,42
5166616,55
5167248,94
5167864,75
5168496,31
5169120,58
5169744,49
5170372,16
5170992,14
5171624,43
5172252,36
5172872,68
5173500,115
5174176,67
5174800,62
5175428,83
5176048,33
5176676,107
5177360,177
5178028,47
5178652,67
5179280,117
5179960,37
5180584,18
5181204,55
5181832,46
5182456,58
5183080,116
5183764,124
5184436,89
5185056,80
5185684,30
5186304,44
5186932,53
5187556,12
5188180,59
5188812,42
5189432,56
5190064,37
5190692,55
5191312,137
5191996,164
5192668,163
5193340,160
5194020,88
5194640,23
5195268,35
5195900,26
5196520,17
5197152,39
5197776,79
5198400,100
5199080,120
5199756,152
5200436,137
5201112,24
5201736,32
5202368,14
5202996,24
5203616,23
5204244,25
5204868,10
5205496,42
5206128,89
5206744,93
5207376,67
5208000,63
5208624,58
5209252,38
5209872,41
5210500,29
5211124,19
5211752,23
5212380,17
5213004,21
5213636,16
5214268,16
5214888,23
5215516,36
5216144,75
5216772,88
5217404,118
5218076,187
5218756,185
5219436,136
5220108,101
5220784,33
5221416,186
5222084,132
5222764,84
5223384,104
5224060,174
5224736,114
5225404,49
5226024,13
5226652,20
5227272,15
5227904,25
5228528,113
5229204,212
5229880,181
5230556,104
5231228,48
5231856,46
5232480,152
5233164,91
5233792,29
5234408,34
5235040,15
5235664,29
5236288,33
5236920,18
5237536,14
5238168,11
5238796,15
5239416,23
5240048,29
5240672,21
5241300,63
5241932,45
5242552,23
5243184,16
5243808,33
5244428,50
5245060,62
5245680,37
5246308,30
5246932,14
5247556,11
5248188,146
5248856,285
5249536,295
5250208,119
5250884,14
5251508,95
5252136,425
5252812,430
5253488,111
5254164,21
5254784,17
5255412,17
5256036,23
5256664,39
5257292,36
5257912,21
5258540,19
5259164,56
5259788,98
5260420,145
5261092,188
5261768,100
5262444,35
5263064,97
5263692,172
5264368,153
5265036,36
5265660,17
5266284,64
5266912,145
5267596,127
5268268,82
5268892,74
5269524,36
5270144,128
5270824,31
5271448,21
5272072,23
5272700,39
5273320,31
5273952,11
5274572,29
5275196,51
5275828,42
5276448,25
5277076,19
5277708,50
5278328,25
5278956,11
5279584,57
5280212,130
5280892,139
5281564,58
5282188,44
5282812,75
5283440,144
5284120,77
5284736,16
5285364,50
5285992,70
5286616,44
5287244,13
5287868,12
5288492,12
5289120,23
5289736,22
5290364,25
5290988,15
5291612,11
5292240,19
5292856,15
5293488,13
5294116,22
5294736,23
5295364,14
5295988,28
5296620,35
5297248,52
5297868,81
5298496,89
5299120,15
5299744,36
5300372,18
5300992,17
5301620,73
5302244,35
5302868,22
5303500,32
5304120,26
5304748,13
5305380,33
5306000,26
5306628,44
5307252,12
5307884,22
5308512,41
5309132,82
5309760,86
5310384,30
5311012,24
5311640,48
5312264,56
5312892,38
5313516,42
5314140,18
5314772,45
5315396,40
5316024,64
5316656,30
5317272,16
5317904,15
5318528,57
5319156,23
5319788,38
5320408,31
5321036,17
5321660,11
5322284,96
5322916,112
5323588,32
5324216,25
5324844,39
5325460,15
5326092,12
5326712,31
5327340,57
5327972,24
5328592,19
5329220,30
5329844,90
5330468,97
5331096,65
5331716,107
5332396,140
5333072,40
5333696,47
5334324,32
5334948,188
5335624,174
5336304,86
5336928,15
5337556,48
5338188,56
5338808,37
5339436,15
5340060,60
5340684,66
5341316,95
5341936,66
5342564,15
5343188,12
5343816,17
5344444,14
5345064,15
5345692,59
5346324,59
5346944,47
5347572,22
5348196,60
5348828,51
5349456,30
5350072,71
5350704,95
5351328,85
5351952,88
5352580,85
5353200,65
5353828,11
5354452,12
5355076,87
5355708,85
5356328,21
5356956,18
5357588,34
5358208,44
5358836,48
5359464,105
5360144,77
5360768,23
5361384,15
5362012,17
5362636,33
5363260,59
5363892,98
5364512,95
5365140,96
5365772,110
5366444,104
5367120,30
5367736,18
5368360,16
5368992,15
5369608,27
5370236,77
5370860,130
5371540,78
5372168,43
5372788,45
5373420,27
5374052,18
5374672,40
5375304,48
5375928,15
5376552,18
5377180,17
5377800,29
5378428,85
5379052,80
5379676,82
5380304,58
5380924,21
5381552,88
5382180,55
5382800,13
5383428,37
5384052,54
5384680,50
5385312,44
5385928,40
5386560,35
5387184,21
5387808,38
5388436,47
5389056,53
5389684,45
5390308,37
5390932,11
5391564,18
5392184,42
5392812,13
5393444,14
5394064,17
5394692,17
5395316,19
5395948,10
5396580,28
5397200,46
5397828,15
5398452,11
5399076,12
5399708,60
5400328,96
5400956,73
5401584,56
5402208,41
5402836,67
5403460,76
5404092,43
5404724,64
5405344,31
5405976,83
5406600,23
5407228,71
5407860,90
5408480,81
5409108,91
5409732,19
5410356,176
5411036,202
5411708,116
5412384,69
5413012,64
5413632,16
5414260,60
5414888,49
5415508,16
5416140,14
5416760,45
5417388,51
5418020,62
5418640,65
5419268,23
5419892,26
5420524,68
5421156,105
5421828,101
5422508,56
5423132,18
5423752,27
5424384,161
5425060,170
5425732,108
5426412,91
5427032,35
5427664,61
5428292,84
5428912,110
5429592,139
5430264,36
5430880,78
5431508,103
5432184,105
5432864,40
5433492,45
5434112,65
5434744,73
5435368,140
5436044,169
5436720,74
5437344,48
5437968,29
5438596,179
5439268,130
5439948,100
5440628,80
5441248,76
5441876,21
5442500,81
5443124,75
5443752,20
5444376,37
5445004,32
5445628,72
5446256,33
5446884,10
5447508,83
5448140,57
5448768,28
5449388,67
5450016,98
5450640,122
5451320,108
5451996,47
5452616,23
5453244,13
5453876,18
5454496,18
5455124,12
5455748,30
5456380,65
5457008,49
5457624,12
5458256,12
5458880,18
5459504,67
5460132,88
5460752,29
5461380,136
5462064,244
5462732,234
5463412,143
5464088,45
5464712,153
5465396,168
5466068,28
5466688,54
5467316,28
5467936,83
5468568,228
5469248,226
5469916,36
5470544,29
5471168,52
5471792,34
5472424,20
5473040,24
5473668,24
5474292,33
5474916,29
5475548,12
5476172,23
5476804,66
5477432,29
5478056,43
5478688,69
5479312,60
5479940,56
5480572,56
5481192,37
5481824,17
5482444,46
5483068,22
5483700,38
5484320,124
5485000,85
5485628,31
5486248,15
5486876,64
5487504,132
5488188,14
5488812,42
5489432,61
5490060,27
5490684,12
5491312,37
5491940,37
5492564,19
5493196,26
5493824,14
5494448,20
5495076,29
5495700,76
5496328,31
5496956,63
5497576,63
5498208,17
5498832,96
5499456,57
5500088,34
5500704,61
5501336,59
5501968,50
5502584,17
5503216,13
5503840,18
5504472,11
5505100,80
5505720,92
5506348,13
5506972,44
5507600,30
5508228,32
5508848,12
5509476,12
5510104,16
5510728,57
5511356,84
5511976,18
5512608,19
5513236,48
5513856,65
5514488,30
5515112,19
5515744,23
5516372,20
5516992,60
5517620,175
5518300,211
5518972,219
5519652,180
5520324,82
5520944,266
5521624,253
5522300,346
5522980,179
5523660,56
5524280,31
5524912,15
5525540,16
5526160,17
5526792,33
5527416,39
5528048,70
5528676,82
5529296,66
5529928,50
5530552,16
5531172,39
5531804,86
5532424,62
5533052,43
5533676,40
5534300,80
5534932,43
5535556,17
5536188,72
5536816,46
5537440,16
5538068,81
5538692,119
5539376,29
5540000,73
5540616,54
5541248,109
5541928,91
5542552,38
5543180,31
5543808,57
5544436,33
5545068,30
5545688,45
5546316,24
5546940,15
5547568,12
5548196,36
5548816,82
5549444,57
5550068,69
5550696,98
5551328,59
5551952,17
5552584,61
5553216,84
5553832,89
5554464,23
5555088,31
5555720,51
5556352,13
5556968,51
5557596,65
5558224,35
5558848,13
5559480,22
5560096,16
5560728,17
5561356,18
5561976,30
5562608,137
5563284,199
5563960,137
5564636,170
5565308,86
5565936,202
5566620,175
5567292,59
5567920,84
5568552,25
5569172,193
5569852,242
5570524,152
5571196,32
5571824,157
5572500,214
5573176,215
5573848,154
5574524,40
5575148,25
5575780,18
5576400,16
5577028,23
5577652,25
5578276,29
5578908,14
5579528,51
5580160,61
5580784,77
5581408,93
5582036,35
5582664,54
5583292,106
5583976,60
5584592,14
5585224,19
5585848,15
5586472,80
5587100,63
5587720,37
5588352,11
5588976,29
5589600,13
5590232,52
5590856,60
5591488,25
5592116,16
5592736,14
5593368,21
5593992,18
5594624,15
5595252,12
5595872,11
5596504,69
5597128,85
5597752,47
5598384,12
5599004,32
5599632,80
5600264,100
5600940,42
5601564,40
5602188,58
5602820,45
5603448,40
5604072,20
5604700,39
5605328,33
5605952,118
5606632,101
5607308,127
5607984,30
5608616,152
5609284,176
5609960,163
5610640,80
5611264,49
5611896,193
5612576,242
5613244,132
5613920,20
5614544,120
5615220,410
5615900,268
5616572,57
5617192,23
5617824,46
5618440,71
5619072,28
5619696,17
5620320,32
5620948,38
5621576,35
5622204,13
5622836,36
5623456,42
5624088,48
5624712,37
5625340,25
5625972,13
5626592,19
5627224,59
5627848,54
5628472,51
5629104,54
5629720,12
5630352,22
5630984,25
5631604,48
5632236,22
5632856,16
5633488,52
5634116,40
5634736,37
5635364,81
5635988,57
5636616,42
5637244,48
5637864,57
5638492,118
5639176,94
5639792,32
5640420,17
5641044,34
5641676,22
5642304,42
5642920,61
5643552,93
5644176,109
5644856,62
5645480,39
5646096,56
5646724,73
5647348,91
5647976,24
5648604,53
5649228,121
5649912,150
5650588,97
5651208,32
5651836,15
5652464,38
5653088,23
5653716,11
5654340,35
5654972,28
5655600,10
5656224,20
5656852,35
5657476,14
5658108,15
5658740,17
5659360,21
5659988,35
5660612,97
5661240,179
5661920,73
5662536,25
5663168,18
5663796,185
5664468,130
5665144,25
5665768,59
5666392,13
5667020,32
5667640,79
5668272,93
5668900,24
5669520,31
5670152,38
5670776,43
5671404,52
5672036,60
5672656,37
5673288,28
5673908,32
5674536,27
5675164,23
5675784,25
5676416,15
5677040,21
5677664,21
5678292,19
5678920,13
5679548,40
5680180,35
5680800,21
5681428,16
5682052,32
5682684,71
5683316,76
5683936,82
5684564,59
5685188,52
5685812,62
5686444,18
5687064,91
5687692,62
5688316,38
5688944,60
5689576,39
5690200,37
5690832,32
5691460,14
5692080,15
5692712,15
5693336,15
5693960,17
5694588,32
5695208,67
5695840,55
5696464,47
5697088,26
5697716,10
5698336,13
5698964,27
5699596,42
5700216,85
5700844,44
5701468,15
5702100,24
5702732,36
5703352,21
5703984,21
5704608,31
5705232,18
5705864,31
5706480,46
5707112,13
5707736,87
5708364,115
5709044,87
5709664,31
5710296,30
5710924,51
5711544,66
5712176,82
5712800,65
5713424,21
5714056,14
5714672,19
5715304,17
5715928,27
5716552,12
5717184,21
5717800,15
5718432,16
5719060,37
5719680,47
5720312,33
5720936,10
5721568,15
5722200,10
5722816,45
5723448,112
5724128,165
5724796,76
5725424,42
5726048,77
5726680,257
5727364,228
5728036,81
5728664,15
5729292,11
5729912,21
5730544,13
5731168,39
5731800,36
5732432,32
5733056,31
5733688,14
5734316,11
5734940,16
5735572,35
5736192,70
5736820,106
5737504,134
5738172,49
5738796,31
5739424,15
5740048,17
5740676,11
5741296,12
5741924,13
5742548,48
5743176,74
5743804,99
5744424,91
5745052,50
5745684,24
5746304,19
5746932,52
5747560,77
5748188,120
5748872,115
5749540,116
5750220,166
5750900,144
5751572,24
5752200,23
5752824,237
5753500,155
5754180,105
5754852,110
5755524,51
5756152,71
5756776,55
5757408,48
5758040,14
5758656,34
5759288,21
5759912,23
5760536,30
5761168,63
5761784,79
5762412,58
5763036,18
5763660,14
5764288,16
5764912,33
5765540,11
5766172,40
5766792,61
5767420,45
5768044,24
5768672,17
5769304,30
5769920,36
5770552,40
5771176,24
5771800,20
5772428,11
5773048,12
5773676,10
5774300,23
5774924,31
5775556,28
5776176,14
5776804,23
5777432,22
5778056,13
5778684,25
5779308,31
5779940,46
5780568,50
5781184,17
5781816,45
5782440,13
5783064,77
5783692,60
5784312,45
5784944,58
5785568,24
5786192,16
5786820,14
5787440,22
5788068,92
5788700,67
5789320,18
5789948,11
5790572,43
5791204,44
5791836,64
5792456,192
5793140,117
5793820,41
5794440,15
5795068,17
5795696,24
5796324,35
5796956,36
5797576,39
5798208,33
5798832,12
5799456,11
5800084,58
5800704,78
5801332,65
5801956,21
5802580,29
5803212,90
5803832,105
5804516,90
5805144,52
5805760,67
5806392,121
5807068,118
5807740,44
5808368,70
5808992,81
5809620,27
5810252,45
5810872,21
5811504,73
5812128,22
5812752,20
5813384,46
5814000,87
5814632,100
5815316,28
5815936,15
5816568,16
5817192,34
5817820,49
5818452,66
5819072,73
5819704,88
5820328,37
5820952,73
5821580,78
5822200,57
5822832,77
5823456,45
5824080,26
5824708,10
5825328,22
5825956,21
5826588,38
5827208,34
5827836,35
5828460,37
5829092,51
5829724,56
5830344,74
5830976,22
5831600,34
5832224,72
5832856,42
5833472,38
5834104,50
5834728,40
5835352,31
5835984,37
5836604,41
5837236,11
5837864,31
5838484,18
5839112,51
5839736,57
5840368,21
5840996,23
5841616,66
5842244,65
5842868,119
5843544,84
5844172,46
5844792,16
5845424,15
5846052,46
5846672,71
5847304,47
5847928,16
5848556,27
5849188,16
5849808,28
5850436,17
5851060,19
5851688,33
5852316,44
5852936,42
5853568,27
5854192,43
5854816,21
5855448,42
5856072,87
5856700,52
5857332,12
5857952,13
5858580,48
5859204,114
5859888,64
5860512,39
5861128,22
5861760,13
5862384,52
5863008,66
5863640,65
5864264,67
5864892,17
5865524,54
5866144,75
5866776,41
5867400,23
5868032,14
5868660,15
5869280,26
5869908,16
5870536,25
5871160,61
5871792,93
5872412,142
5873092,99
5873720,55
5874336,21
5874968,163
5875644,143
5876316,70
5876944,112
5877616,80
5878240,15
5878868,25
5879488,84
5880120,67
5880744,112
5881420,102
5882100,42
5882720,100
5883404,106
5884084,17
5884704,57
5885336,78
5885968,56
5886588,76
5887220,84
5887844,24
5888476,39
5889108,11
5889728,21
5890356,51
5890984,73
5891608,116
5892288,92
5892912,19
5893544,40
5894172,49
5894792,33
5895424,25
5896048,11
5896676,19
5897308,76
5897928,73
5898560,47
5899184,53
5899808,20
5900436,109
5901108,19
5901732,74
5902364,58
5902984,18
5903612,19
5904240,46
5904868,46
5905496,30
5906120,15
5906748,11
5907376,19
5908000,38
5908628,22
5909248,57
5909876,24
5910504,25
5911128,59
5911756,92
5912376,91
5913008,49
5913636,22
5914256,20
5914884,42
5915508,86
5916140,103
5916824,79
5917440,50
5918072,61
5918696,121
5919372,108
5920052,79
5920672,137
5921348,95
5921972,14
5922592,44
5923220,35
5923852,52
5924472,17
5925100,23
5925728,27
5926356,16
5926988,21
5927608,15
5928236,58
5928864,76
5929488,69
5930116,73
5930736,76
5931368,19
5931992,21
5932616,33
5933248,41
5933864,14
5934496,14
5935128,14
5935744,18
5936376,21
5937000,11
5937632,11
5938260,11
5938880,17
5939512,14
5940136,19
5940760,12
5941388,24
5942008,14
5942636,29
5943260,15
5943884,21
5944516,54
5945136,55
5945764,37
5946396,22
5947016,13
5947648,45
5948272,97
5948900,137
5949584,86
5950200,15
5950832,17
5951456,56
5952080,45
5952708,23
5953328,56
5953956,48
5954588,18
5955208,66
5955836,76
5956464,61
5957092,25
5957724,13
5958344,33
5958976,35
5959600,30
5960224,59
5960852,62
5961472,20
5962104,38
5962728,56
5963352,59
5963984,21
5964600,18
5965232,25
5965860,41
5966480,12
5967108,20
5967736,40
5968364,37
5968996,116
5969668,119
5970348,60
5970976,22
5971592,86
5972224,176
5972900,66
5973520,39
5974152,69
5974772,63
5975400,43
5976028,83
5976652,61
5977280,36
5977904,21
5978536,42
5979168,30
5979788,10
5980416,23
5981040,34
5981672,30
5982304,95
5982920,121
5983604,98
5984224,42
5984848,66
5985476,122
5986148,70
5986776,14
5987404,38
5988024,43
5988652,66
5989280,52
5989904,18
5990536,34
5991152,25
5991784,49
5992408,39
5993032,14
5993664,33
5994280,15
5994912,19
5995540,41
5996160,45
5996792,33
5997416,28
5998048,32
5998680,42
5999296,22
5999928,16
6000556,69
6001180,23
6001812,38
6002432,35
6003064,39
6003688,38
6004312,15
6004940,42
6005560,25
6006192,47
6006820,38
6007440,23
6008072,20
6008696,17
6009324,14
6009956,13
6010576,14
6011208,10
6011832,11
6012456,13
6013088,20
6013708,31
6014336,48
6014964,43
6015588,51
6016220,38
6016844,49
6017476,100
6018156,126
6018828,64
6019456,15
6020080,77
6020704,183
6021388,81
6022008,20
6022636,23
6023268,45
6023888,60
6024520,26
6025144,16
6025768,30
6026396,78
6027016,89
6027648,24
6028272,23
6028896,12
6029524,11
6030152,25
6030780,28
6031412,92
6032032,97
6032660,37
6033288,17
6033916,12
6034548,40
6035168,28
6035800,58
6036428,56
6037052,13
6037684,32
6038304,11
6038936,23
6039568,17
6040188,34
6040820,13
6041444,47
6042076,32
6042708,35
6043328,17
6043956,34
6044584,33
6045208,42
6045836,32
6046456,33
6047088,37
6047712,12
6048336,15
6048964,16
6049584,45
6050216,20
6050844,29
6051464,22
6052096,43
6052720,67
6053352,16
6053980,37
6054600,93
6055232,61
6055856,25
6056480,39
6057112,29
6057728,31
6058360,42
6058984,33
6059608,16
6060240,15
6060856,31
6061488,19
6062120,12
6062736,17
6063368,65
6063992,91
6064624,81
6065256,15
6065872,23
6066504,91
6067128,232
6067804,72
6068432,15
6069048,30
6069680,46
6070308,65
6070928,48
6071560,30
6072184,74
6072816,95
6073448,17
6074064,13
6074696,43
6075320,85
6075944,35
6076576,53
6077196,95
6077828,100
6078512,77
6079128,14
6079760,65
6080388,91
6081020,17
6081648,36
6082268,45
6082896,76
6083520,77
6084144,38
6084772,43
6085392,99
6086024,114
6086704,63
6087328,18
6087960,63
6088584,87
6089212,99
6089844,80
6090464,77
6091096,34
6091720,14
6092344,24
6092976,38
6093592,17
6094224,33
6094852,20
6095472,19
6096104,13
6096728,59
6097356,54
6097988,20
6098608,57
6099240,25
6099860,64
6100488,158
6101168,178
6101844,164
6102524,126
6103204,52
6103824,126
6104508,12
6105136,128
6105804,183
6106480,104
6107164,52
6107784,36
6108416,14
6109040,54
6109672,65
6110300,62
6110920,26
6111552,35
6112180,35
6112804,34
6113436,28
6114056,22
6114688,15
6115312,18
6115936,25
6116568,25
6117192,20
6117824,21
6118456,15
6119072,21
6119704,15
6120332,53
6120960,106
6121644,93
6122264,64
6122896,21
6123524,101
6124196,68
6124824,20
6125448,16
6126076,14
6126712,14
6127332,39
6127964,49
6128588,46
6129216,13
6129844,71
6130464,46
6131096,14
6131728,12
6132352,11
6132984,19
6133612,15
6134244,33
6134876,45
6135496,44
6136128,23
6136756,11
6137384,23
6138016,93
6138632,144
6139320,216
6139996,181
6140672,90
6141296,147
6141980,297
6142656,240
6143332,86
6143956,21
6144584,29
6145212,52
6145832,71
6146460,58
6147092,60
6147712,29
6148340,24
6148964,11
6149596,25
6150224,68
6150844,40
6151472,17
6152096,60
6152720,123
6153400,75
6154024,12
6154652,19
6155284,10
6155904,17
6156536,10
6157160,46
6157788,136
6158472,104
6159140,82
6159768,80
6160396,79
6161016,56
6161644,29
6162268,22
6162900,18
6163528,66
6164152,69
6164784,41
6165408,25
6166032,36
6166660,15
6167280,21
6167908,45
6168536,72
6169160,17
6169788,11
6170408,20
6171036,12
6171668,18
6172288,46
6172916,48
6173540,51
6174172,35
6174804,17
6175424,29
6176056,23
6176676,77
6177300,73
6177932,20
6178552,19
6179184,35
6179808,13
6180432,31
6181064,48
6181680,70
6182312,81
6182944,71
6183564,46
6184192,17
6184816,43
6185448,21
6186076,62
6186696,84
6187328,72
6187952,16
6188576,61
6189208,62
6189824,123
6190508,72
6191136,12
6191752,25
6192384,35
6193012,22
6193640,17
6194272,11
6194892,31
6195524,73
6196148,80
6196772,32
6197400,84
6198024,94
6198656,34
6199280,12
6199904,15
6200536,39
6201160,53
6201792,23
6202420,11
6203040,21
6203672,41
6204296,66
6204928,64
6205556,34
6206176,44
6206808,200
6207484,124
6208156,42
6208780,16
6209404,22
6210036,35
6210668,35
6211288,93
6211916,182
6212596,144
6213268,138
6213948,154
6214620,65
6215240,133
6215924,132
6216596,132
6217272,86
6217896,30
6218520,53
6219152,85
6219784,79
6220404,67
6221036,17
6221660,83
6222292,69
6222920,42
6223544,41
6224176,159
6224852,157
6225524,110
6226204,21
6226824,294
6227508,268
6228188,54
6228808,17
6229436,51
6230068,36
6230688,25
6231320,35
6231944,40
6232576,19
6233204,21
6233824,32
6234456,20
6235080,19
6235704,13
6236336,18
6236952,25
6237584,17
6238216,11
6238832,41
6239464,89
6240092,99
6240720,89
6241348,80
6241968,22
6242596,75
6243224,65
6243848,80
6244476,21
6245096,13
6245728,21
6246352,67
6246976,22
6247608,28
6248224,103
6248908,96
6249532,22
6250152,73
6250784,101
6251460,45
6252080,32
6252708,10
6253328,64
6253960,49
6254584,13
6255208,23
6255836,22
6256464,29
6257092,31
6257724,12
6258344,28
6258976,17
6259600,49
6260228,29
6260860,33
6261480,49
6262112,21
