tempo_arduino_micro_s,valor_ADC
500,34
1004,39
1504,35
2000,26
2508,18
3000,14
3508,11
4000,10
4504,12
5000,20
5500,42
6000,56
6500,63
7000,44
7500,28
8000,29
8500,23
9000,14
9500,10
10000,11
10508,21
11028,32
11556,34
12076,30
12604,30
13124,30
13652,32
14172,28
14700,18
15220,16
15748,13
16268,18
16796,19
17316,19
17836,22
18356,22
18876,19
19396,15
19916,12
20436,14
20956,18
21476,27
21996,39
22516,50
23036,59
23564,47
24084,39
24612,29
25132,21
25660,14
26180,14
26708,25
27228,34
27756,35
28276,28
28804,23
29324,20
29852,19
30372,27
30900,36
31420,39
31948,34
32472,24
32996,16
33516,13
34044,14
34564,14
35092,18
35612,18
36140,19
36660,20
37188,19
37708,20
38236,41
38760,57
39284,72
39804,74
40332,50
40852,21
41372,14
41892,20
42412,16
42932,13
43452,11
43972,12
44492,16
45012,30
45532,31
46052,28
46572,34
47092,34
47612,28
48140,17
48660,15
49188,13
49708,16
50236,17
50756,18
51284,23
51804,23
52332,26
52852,22
53380,17
53900,15
54428,19
54948,31
55476,41
55996,43
56524,47
57044,43
57572,33
58096,29
58620,24
59140,13
59668,18
60188,33
60716,38
61240,43
61764,51
62284,53
62812,54
63332,50
63860,36
64384,26
64908,18
65428,15
65948,14
66468,14
66988,18
67508,27
68028,35
68548,40
69068,39
69588,31
70108,24
70628,27
71148,35
71672,46
72192,57
72716,61
73236,57
73764,36
74284,17
74812,15
75332,16
75860,15
76380,10
76908,17
77428,35
77956,51
78480,51
79004,45
79528,35
80052,30
80572,29
81100,32
81624,33
82148,26
82668,17
83196,14
83716,16
84244,21
84764,28
85292,26
85812,27
86340,22
86860,23
87388,28
87908,30
88436,36
88956,45
89484,53
90008,47
90524,32
91044,26
91564,13
92084,18
92604,23
93124,20
93644,20
94164,24
94684,25
95204,26
95724,31
96248,36
96764,37
97292,38
97812,38
98340,28
98860,20
99388,15
99908,15
100436,17
101000,12
101584,24
102156,27
102736,25
103304,35
103880,66
104456,73
105024,63
105600,55
106168,56
106744,47
107312,35
107896,16
108464,14
109040,16
109624,13
110192,25
110768,29
111336,28
111920,20
112492,20
113072,17
113640,19
114216,20
114800,25
115368,19
115952,15
116520,14
117104,15
117676,11
118252,11
118832,11
119400,11
119984,11
120556,16
121136,29
121704,28
122288,31
122856,47
123436,49
124016,45
124584,38
125168,30
125736,25
126320,11
126892,16
127464,27
128048,31
128616,29
129192,21
129760,16
130336,20
130904,25
131488,35
132056,41
132632,35
133216,18
133784,21
134360,33
134932,43
135512,33
136084,17
136656,21
137232,31
137800,37
138384,40
138952,43
139536,40
140104,31
140688,26
141260,20
141832,18
142416,14
142984,27
143568,32
144136,34
144720,39
145288,42
145872,31
146448,20
147016,24
147600,26
148168,25
148752,22
149320,18
149904,15
150476,18
151048,27
151632,27
152204,25
152784,25
153356,26
153936,27
154504,30
155088,37
155664,37
156236,35
156816,28
157384,19
157968,13
158540,15
159120,14
159692,11
160268,14
160848,14
161416,18
161992,27
162560,26
163144,22
163716,22
164296,13
164872,14
165440,12
166016,17
166584,16
167160,15
167728,9
168252,10
168824,12
169400,10
169968,13
170536,20
171112,36
171684,62
172264,74
172832,62
173416,32
173988,17
174564,15
175144,15
175716,16
176296,10
176864,15
177448,23
178016,27
178600,21
179168,25
179748,26
180328,27
180896,23
181480,17
182048,19
182632,26
183200,18
183776,15
184360,22
184928,22
185504,19
186076,18
186656,23
187224,35
187808,44
188376,50
188952,54
189536,51
190104,46
190688,35
191260,22
191840,15
192412,15
192984,14
193568,21
194140,36
194720,41
195288,40
195872,38
196440,26
197024,21
197592,25
198172,16
198752,14
199320,15
199904,15
200476,14
201056,12
201624,16
202200,11
202784,10
203356,11
203936,10
204508,16
205088,32
205656,49
206232,63
206800,61
207376,51
207952,42
208524,24
209104,13
209672,15
210256,21
210824,30
211408,37
211984,35
212552,24
213136,21
213704,28
214288,27
214856,29
215440,23
216008,18
216584,15
217160,15
217728,10
218312,16
218880,15
219464,14
220032,26
220616,39
221192,47
221760,49
222344,53
222916,69
223496,58
224068,35
224648,21
225216,16
225796,14
226376,25
226944,30
227528,43
228096,54
228680,51
229252,32
229832,13
230408,10
230976,13
231552,15
232124,13
232704,15
233272,19
233856,14
234424,19
235000,25
235584,24
236152,16
236736,13
237308,12
237888,20
238460,28
239040,34
239612,26
240188,16
240768,18
241336,15
241920,18
242488,15
243072,12
243644,10
244216,22
244800,32
245368,18
245952,12
246520,13
247104,14
247672,22
248256,21
248824,16
249400,15
249984,16
250552,16
251136,10
251708,10
252288,10
252860,18
253432,35
254016,36
254588,40
255168,50
255740,60
256320,54
256896,41
257472,30
258040,29
258616,27
259192,11
259764,22
260344,27
260912,35
261496,39
262064,41
262640,43
263224,40
263792,39
264376,36
264944,29
265528,17
266100,14
266680,15
267248,22
267824,31
268408,27
268976,17
269560,13
270128,12
270712,11
271284,24
271860,32
272440,51
273008,59
273592,56
274164,44
274744,32
275316,21
275896,12
276468,10
277044,18
277624,27
278192,34
278776,36
279348,39
279928,39
280500,41
281072,32
281656,27
282224,25
282800,23
283368,19
283952,15
284524,13
285104,30
285676,39
286252,36
286832,38
287400,32
287984,37
288556,46
289136,55
289704,55
290280,42
290864,26
291432,17
292016,15
292584,11
293168,14
293740,21
294320,25
294892,33
295464,42
296048,41
296616,38
297200,36
297768,37
298352,32
298924,22
299500,15
300080,16
300652,23
301232,37
301804,40
302384,35
302956,28
303536,22
304116,17
304692,22
305272,35
305844,40
306424,35
306996,28
307576,26
308152,25
308728,21
309312,11
309884,26
310464,39
311036,40
311616,32
312196,23
312776,30
313352,43
313924,47
314504,27
315076,15
315656,25
316228,28
316808,19
317380,21
317956,22
318536,29
319108,36
319688,28
320260,19
320840,17
321408,27
321984,27
322552,24
323132,26
323712,34
324284,32
324864,22
325432,22
326016,14
326588,10
327160,17
327744,26
328312,31
328896,30
329464,26
330048,21
330616,19
331200,21
331768,23
332344,22
332928,22
333496,19
334072,13
334640,13
335224,15
335792,19
336372,18
336952,23
337520,32
338104,42
338672,42
339256,38
339824,39
340408,32
340976,27
341552,19
342136,14
342708,10
343288,10
343856,16
344440,19
345008,23
345584,30
346168,28
346740,15
347320,11
347892,19
348472,21
349040,17
349624,13
350192,14
350772,14
351352,15
351924,18
352504,19
353072,19
353656,16
354224,21
354804,30
355384,41
355956,51
356536,43
357108,27
357688,19
358260,16
358840,15
359416,17
359996,26
360576,32
361144,27
361728,21
362296,19
362880,18
363448,26
364028,29
364608,31
365180,30
365760,19
366328,14
366912,16
367484,17
368064,15
368632,16
369212,18
369792,17
370364,23
370944,46
371516,61
372096,50
372664,40
373244,30
373824,27
374392,27
374976,19
375548,13
376128,10
376700,10
377280,13
377852,19
378428,19
379008,22
379580,27
380160,41
380728,51
381312,45
381892,38
382468,26
383048,16
383620,15
384200,13
384772,15
385352,29
385920,41
386504,38
387080,37
387652,42
388232,42
388804,45
389384,47
389956,35
390536,21
391104,22
391684,18
392264,14
392832,10
393416,15
393988,23
394568,21
395136,21
395720,27
396296,32
396868,36
397448,37
398020,33
398600,20
399172,14
399752,15
400332,15
400904,19
401488,16
402060,11
402640,17
403208,33
403792,34
404364,40
404944,47
405520,54
406092,52
406672,40
407244,33
407824,21
408396,15
408976,12
409548,14
410124,21
410704,35
411272,40
411856,43
412424,46
413008,41
413576,30
414160,23
414736,24
415304,22
415888,18
416460,15
417040,15
417608,13
418192,15
418760,18
419336,22
419920,24
420488,15
421072,21
421640,46
422224,67
422796,58
423376,36
423952,24
424524,18
425104,21
425672,19
426256,13
426824,18
427408,32
427980,38
428556,35
429136,28
429708,23
430288,21
430856,12
431440,13
432008,14
432592,15
433168,15
433740,19
434320,22
434892,24
435472,23
436040,14
436624,12
437192,13
437772,23
438352,40
438924,51
439504,51
440076,36
440656,29
441224,31
441808,23
442384,15
442956,24
443536,44
444108,49
444688,57
445260,71
445840,56
446412,34
446988,24
447568,14
448140,14
448720,16
449288,17
449872,13
450444,14
451024,18
451600,26
452168,30
452752,31
453324,37
453904,35
454476,38
455056,41
455628,40
456204,37
456784,37
457356,40
457936,33
458508,24
459088,12
459660,19
460240,37
460816,49
461384,47
461960,41
462528,31
463112,29
463684,27
464264,22
464832,18
465408,16
465992,15
466564,19
467144,21
467716,11
468296,23
468868,32
469448,45
470024,42
470596,34
471176,46
471748,64
472328,63
472908,50
473488,31
474060,17
474636,15
475216,14
475788,21
476368,34
476948,40
477528,39
478100,30
478676,18
479256,14
479828,16
480408,23
480980,28
481560,23
482132,16
482712,13
483284,15
483856,14
484440,11
485012,15
485592,17
486164,19
486744,26
487312,39
487892,42
488472,49
489044,47
489624,38
490192,35
490776,30
491356,24
491936,16
492516,10
493092,22
493672,34
494244,43
494824,44
495392,38
495976,27
496548,22
497124,21
497704,27
498276,26
498856,16
499428,20
500008,29
500576,31
501160,23
501732,10
502308,11
502888,19
503460,30
504040,49
504620,48
505200,35
505772,33
506348,27
506928,27
507500,22
508080,21
508652,17
509232,11
509812,19
510392,26
510972,27
511552,23
512132,26
512700,28
513280,28
513848,24
514424,22
514992,23
515568,22
516152,19
516720,16
517304,14
517872,19
518456,15
519024,10
519608,9
520128,10
520696,14
521280,21
521848,42
522432,64
523000,65
523584,49
524152,47
524736,34
525308,21
525880,11
526464,14
527032,24
527616,32
528196,30
528776,21
529344,16
529920,15
530504,19
531076,16
531656,14
532228,15
532808,14
533376,15
533960,16
534536,23
535108,20
535688,22
536260,21
536840,19
537412,22
537992,32
538560,41
539136,45
539720,32
540292,22
540872,21
541444,17
542024,14
542596,14
543176,21
543752,30
544324,33
544904,29
545476,27
546056,25
546628,26
547208,30
547776,31
548356,30
548936,30
549508,19
550088,21
550660,39
551240,35
551812,26
552392,21
552968,13
553536,11
554120,25
554692,50
555272,63
555852,64
556432,54
557012,38
557588,25
558168,16
558740,14
559320,11
559892,19
560472,30
561052,30
561628,25
562208,19
562780,12
563360,11
563932,15
564512,21
565080,26
565664,33
566236,26
566812,15
567392,14
567964,19
568544,11
569124,11
569704,13
570276,10
570852,18
571432,32
572004,55
572584,63
573156,36
573736,32
574316,29
574896,22
575468,14
576044,15
576624,23
577192,21
577776,16
578344,18
578928,15
579500,11
580076,10
580656,11
581228,16
581808,29
582380,29
582960,17
583540,16
584120,10
584696,16
585276,19
585856,21
586428,22
587008,33
587580,52
588160,65
588740,64
589316,51
589896,34
590468,18
591048,14
591620,14
592200,16
592780,19
593360,21
593936,29
594508,31
595088,33
595660,35
596240,33
596812,35
597392,29
597964,22
598540,14
599120,15
599692,15
600272,16
600844,18
601424,25
601996,29
602576,30
603152,34
603724,28
604304,28
604876,36
605456,46
606028,47
606608,34
607188,29
607764,28
608344,17
608916,12
609496,22
610076,31
610656,44
611236,43
611812,32
612396,21
612968,22
613544,20
614120,18
614696,18
615272,14
615856,14
616428,16
617000,14
617584,12
618156,12
618736,15
619308,22
619888,23
620460,24
621036,37
621616,50
622188,61
622768,54
623340,49
623920,33
624500,22
625080,13
625652,10
626228,11
626808,25
627380,36
627960,37
628532,40
629112,33
629684,35
630260,43
630840,41
631412,34
631992,23
632568,16
633144,15
633724,13
634304,16
634888,27
635460,34
636040,27
636612,22
637192,32
637772,47
638352,62
638932,65
639508,54
640092,35
640660,24
641240,17
641808,17
642392,11
642964,19
643536,32
644120,38
644692,42
645272,44
645840,32
646424,13
646992,18
647576,23
648148,21
648724,16
649304,14
649876,15
650456,15
651028,17
651608,19
652188,29
652764,37
653344,35
653916,35
654496,43
655068,54
655648,58
656224,47
656808,32
657376,25
657944,18
658528,15
659096,21
659680,40
660248,48
660832,39
661400,26
661980,29
662560,30
663128,30
663712,27
664284,27
664864,22
665436,18
666016,15
666584,16
667152,17
667736,15
668304,21
668888,28
669456,25
670032,28
670604,37
671184,47
671760,59
672332,53
672912,32
673484,17
674064,13
674632,14
675216,15
675784,15
676364,27
676944,32
677512,29
678096,25
678668,24
679248,17
679816,16
680400,16
680976,21
681544,27
682128,28
682696,19
683280,14
683848,17
684432,23
685004,28
685576,27
686160,16
686728,13
687312,25
687884,42
688464,57
689036,69
689616,62
690192,51
690764,46
691344,33
691916,20
692496,15
693064,32
693648,37
694220,44
694796,41
695376,35
695948,31
696528,34
697104,30
697688,31
698256,33
698836,25
699416,15
699988,14
700568,13
701140,14
701720,16
702292,19
702872,17
703444,21
704020,26
704600,32
705172,49
705752,56
706324,45
706904,28
707476,27
708052,24
708632,16
709204,18
709784,26
710356,21
710936,21
711516,29
712096,36
712676,32
713252,26
713832,24
714404,20
714984,17
715556,14
716136,19
716716,27
717292,31
717872,29
718444,30
719024,28
719596,26
720176,19
720752,27
721336,45
721908,49
722484,51
723064,46
723636,32
724216,16
724788,14
725368,15
725940,19
726516,29
727096,38
727668,35
728248,38
728820,34
729400,32
729972,29
730552,24
731124,18
731700,14
732280,14
732852,16
733432,17
734004,23
734584,24
735164,20
735740,17
736320,18
736892,30
737472,40
738044,43
738624,48
739196,50
739776,40
740360,22
740932,15
741512,14
742084,11
742664,21
743232,45
743816,61
744388,50
744964,27
745544,18
746116,15
746696,14
747268,16
747848,20
748420,22
749000,17
749576,15
750148,21
750728,27
751300,22
751880,17
752460,13
753040,15
753612,25
754188,39
754768,46
755340,52
755920,54
756500,42
757080,21
757660,14
758236,21
758816,22
759388,10
759968,22
760544,37
761120,47
761700,38
762280,29
762852,22
763428,20
764008,22
764580,15
765160,15
765740,14
766320,15
766900,16
767476,24
768060,23
768628,22
769208,19
769776,23
770360,28
770932,39
771512,48
772084,45
772660,32
773240,19
773812,16
774392,13
774964,15
775544,19
776116,25
776692,28
777272,31
777844,26
778424,17
778996,11
779576,13
780148,12
780728,11
781308,14
781884,18
782464,19
783036,15
783616,18
784196,24
784776,12
785348,10
785924,12
786504,25
787076,33
787656,49
788232,60
788808,58
789388,49
789968,37
790552,22
791124,19
791704,16
792280,10
792856,18
793436,34
794020,44
794596,48
795172,50
795752,48
796328,44
796904,31
797476,20
798056,14
798636,14
799212,14
799792,15
800368,12
800944,22
801516,24
802096,29
802664,32
803248,34
803820,39
804396,52
804976,66
805548,65
806128,49
806708,32
807288,21
807860,13
808436,14
809016,13
809588,19
810168,26
810740,31
811320,34
811900,31
812480,38
813064,47
813636,45
814216,32
814788,22
815368,15
815948,17
816532,24
817108,31
817684,23
818264,16
818836,23
819416,27
819992,32
820568,41
821136,43
821712,45
822288,50
822856,35
823440,18
824008,15
824592,16
825160,15
825744,12
826312,18
826888,25
827472,37
828044,46
828624,51
829196,40
829776,39
830344,32
830928,21
831504,14
832076,15
832656,15
833224,15
833808,27
834376,34
834960,36
835528,32
836104,26
836688,34
837260,51
837840,63
838412,67
838992,56
839564,36
840144,21
840720,14
841288,18
841872,22
842444,31
843024,33
843596,36
844176,32
844744,24
845324,15
845904,13
846476,23
847056,37
847628,35
848208,21
848776,15
849360,16
849936,21
850504,24
851088,24
851660,25
852240,28
852808,25
853392,20
853964,36
854540,48
855120,56
855692,55
856272,45
856844,23
857424,14
857996,13
858576,12
859152,15
859724,25
860304,32
860876,37
861456,38
862028,35
862608,33
863180,38
863756,31
864336,21
864908,14
865488,14
866056,17
866640,17
867208,22
867792,24
868368,22
868940,23
869520,25
870092,25
870672,36
871240,42
871824,45
872396,38
872972,25
873552,21
874124,15
874704,14
875276,14
875856,18
876428,19
877008,13
877584,15
878156,25
878736,35
879308,36
879888,44
880468,46
881048,36
881616,23
882192,17
882776,14
883348,14
883928,16
884500,21
885080,26
885652,35
886228,52
886808,53
887380,41
887960,47
888532,61
889112,62
889684,33
890264,13
890836,24
891412,19
891992,12
892564,12
893144,9
893664,11
894240,16
894812,23
895392,26
895964,24
896540,28
897120,19
897688,18
898272,14
898844,13
899424,15
899996,15
900572,14
901152,12
901720,12
902304,14
902876,21
903456,29
904028,40
904608,41
905180,43
905756,37
906336,19
906908,14
907488,13
908060,15
908640,11
909212,10
909788,19
910368,32
910940,33
911520,31
912092,22
912672,16
913244,17
913824,25
914396,28
914972,18
915552,14
916124,14
916704,13
917276,26
917856,31
918436,32
919012,27
919596,26
920168,29
920744,41
921316,46
921896,50
922476,43
923056,30
923628,22
924204,18
924784,14
925356,11
925936,21
926516,32
927096,42
927676,43
928252,40
928832,34
929404,33
929984,27
930556,17
931136,15
931716,14
932296,15
932880,15
933452,14
934032,15
934604,17
935184,20
935756,21
936336,21
936916,24
937492,38
938072,48
938644,46
939224,42
939804,38
940384,32
940964,22
941540,15
942120,14
942692,30
943272,33
943844,37
944424,40
945004,30
945584,20
946156,18
946732,17
947312,13
947884,14
948464,14
949036,16
949616,16
950196,14
950772,11
951352,11
951928,16
952504,18
953076,17
953656,24
954236,38
954816,47
955400,51
955976,47
956556,34
957128,22
957704,22
958284,19
958864,10
959444,15
960020,25
960600,30
961172,30
961752,27
962332,18
962912,16
963492,18
964068,17
964648,19
965220,18
965800,20
966372,22
966952,12
967532,10
968112,15
968692,16
969268,14
969848,14
970420,29
971000,49
971572,62
972152,66
972732,50
973308,30
973888,27
974460,15
975040,13
975612,15
976192,27
976772,32
977352,37
977936,42
978508,45
979088,28
979660,16
980240,11
980812,13
981392,19
981964,15
982540,15
983120,18
983692,20
984272,16
984844,11
985424,19
985996,31
986576,34
987152,34
987724,38
988304,47
988876,53
989456,33
990028,18
990608,15
991188,14
991764,11
992344,13
992916,16
993496,20
994076,24
994656,27
995228,40
995804,52
996384,48
996956,33
997536,22
998108,13
998688,15
999268,18
999848,17
1000420,13
1001040,15
1001668,12
1002288,15
1002916,20
1003544,31
1004160,42
1004788,53
1005412,56
1006044,37
1006672,29
1007288,21
1007920,22
1008544,12
1009168,10
1009796,17
1010416,25
1011044,27
1011668,30
1012292,31
1012920,39
1013544,33
1014172,19
1014804,14
1015424,18
1016052,20
1016676,22
1017304,21
1017936,16
1018552,13
1019184,19
1019808,24
1020432,23
1021060,29
1021680,43
1022308,53
1022932,37
1023560,24
1024188,17
1024804,16
1025432,15
1026060,28
1026676,28
1027304,19
1027928,19
1028556,25
1029184,22
1029800,17
1030428,16
1031048,21
1031676,15
1032304,15
1032920,13
1033548,11
1034172,12
1034796,13
1035424,14
1036040,14
1036672,23
1037292,41
1037916,47
1038544,42
1039160,32
1039792,27
1040420,14
1041036,19
1041664,20
1042288,14
1042916,16
1043544,24
1044160,17
1044788,15
1045412,14
1046032,11
1046660,10
1047280,15
1047908,14
1048528,14
1049152,15
1049780,17
1050396,26
1051024,25
1051656,23
1052272,20
1052900,21
1053524,27
1054152,39
1054780,55
1055400,58
1056028,33
1056648,17
1057276,15
1057904,13
1058520,17
1059152,33
1059776,41
1060396,48
1061028,55
1061648,30
1062276,15
1062900,20
1063524,39
1064152,49
1064776,48
1065404,23
1066032,16
1066648,36
1067276,50
1067900,55
1068528,37
1069156,41
1069776,43
1070404,46
1071024,49
1071648,55
1072280,47
1072896,39
1073524,26
1074148,21
1074772,16
1075400,11
1076016,15
1076644,17
1077272,26
1077888,32
1078516,45
1079140,48
1079768,39
1080396,24
1081016,17
1081644,17
1082264,18
1082888,15
1083516,18
1084136,16
1084764,11
1085388,13
1086012,19
1086640,28
1087264,43
1087892,47
1088524,47
1089140,51
1089772,39
1090392,25
1091020,17
1091652,13
1092272,20
1092900,20
1093524,18
1094148,18
1094780,20
1095400,23
1096028,29
1096652,28
1097272,29
1097904,22
1098520,17
1099148,15
1099772,14
1100400,12
1101028,15
1101652,15
1102280,25
1102912,31
1103528,37
1104160,43
1104780,45
1105412,41
1106040,29
1106664,20
1107292,16
1107912,14
1108536,10
1109168,13
1109784,23
1110412,29
1111036,28
1111664,28
1112292,23
1112916,25
1113548,27
1114176,22
1114800,16
1115428,14
1116052,15
1116680,12
1117308,11
1117928,13
1118556,15
1119180,11
1119808,11
1120436,20
1121056,43
1121684,65
1122312,70
1122936,61
1123564,29
1124188,15
1124820,19
1125448,19
1126064,20
1126696,19
1127316,18
1127940,17
1128572,14
1129192,16
1129820,23
1130444,25
1131064,21
1131696,14
1132312,15
1132940,18
1133564,22
1134192,25
1134820,26
1135444,27
1136072,22
1136704,29
1137320,39
1137948,47
1138572,46
1139200,31
1139828,16
1140448,17
1141076,20
1141700,13
1142324,15
1142956,38
1143576,47
1144204,39
1144828,30
1145456,21
1146084,17
1146708,25
1147340,25
1147968,18
1148592,15
1149220,13
1149844,14
1150468,14
1151100,10
1151720,15
1152352,24
1152972,26
1153596,37
1154224,56
1154840,62
1155468,48
1156092,29
1156720,21
1157348,16
1157972,15
1158600,22
1159228,36
1159848,43
1160476,35
1161100,14
1161728,13
1162356,16
1162976,17
1163604,24
1164228,17
1164852,15
1165480,16
1166096,15
1166724,15
1167348,19
1167972,17
1168604,13
1169224,14
1169856,15
1170484,34
1171104,48
1171732,47
1172356,29
1172988,14
1173616,14
1174232,19
1174864,20
1175488,11
1176112,23
1176740,41
1177360,30
1177988,21
1178612,23
1179236,22
1179864,13
1180488,13
1181116,13
1181748,19
1182368,25
1182996,25
1183620,31
1184252,27
1184880,18
1185496,15
1186128,19
1186752,31
1187376,43
1188004,48
1188620,50
1189252,35
1189876,22
1190500,16
1191128,15
1191752,11
1192380,20
1193012,32
1193632,42
1194260,36
1194884,31
1195512,33
1196144,44
1196764,48
1197392,42
1198016,26
1198640,15
1199268,17
1199888,29
1200516,25
1201140,23
1201764,18
1202396,19
1203020,23
1203652,37
1204280,46
1204896,48
1205524,47
1206148,32
1206780,19
1207408,16
1208024,14
1208656,15
1209280,23
1209900,48
1210532,39
1211152,21
1211780,10
1212404,11
1213028,15
1213660,16
1214284,29
1214912,15
1215544,17
1216164,21
1216792,23
1217416,26
1218044,22
1218676,24
1219296,27
1219924,22
1220548,21
1221172,27
1221800,36
1222424,35
1223052,33
1223676,22
1224304,15
1224932,11
1225556,19
1226188,33
1226820,38
1227440,32
1228072,27
1228696,20
1229320,21
1229948,30
1230568,29
1231196,20
1231820,15
1232444,15
1233072,19
1233688,24
1234316,27
1234940,27
1235568,32
1236196,41
1236820,52
1237448,58
1238076,60
1238696,56
1239324,40
1239948,22
1240580,17
1241208,14
1241824,21
1242452,29
1243076,45
1243700,49
1244328,44
1244952,39
1245580,34
1246204,26
1246832,19
1247460,19
1248084,13
1248712,14
1249344,14
1249960,19
1250588,27
1251212,32
1251840,29
1252468,20
1253088,17
1253716,33
1254340,49
1254968,57
1255596,50
1256216,37
1256844,27
1257468,20
1258096,15
1258724,26
1259348,37
1259980,41
1260608,36
1261232,32
1261860,37
1262484,50
1263108,57
1263740,32
1264360,14
1264988,20
1265612,27
1266236,33
1266868,34
1267488,32
1268116,31
1268748,30
1269368,27
1269996,33
1270624,47
1271252,48
1271880,39
1272504,25
1273132,14
1273756,15
1274380,15
1275012,10
1275632,21
1276260,32
1276888,35
1277508,31
1278140,35
1278760,34
1279392,24
1280020,22
1280636,19
1281264,14
1281884,17
1282512,19
1283144,28
1283760,15
1284388,11
1285012,12
1285636,13
1286264,11
1286888,16
1287516,33
1288140,52
1288760,57
1289388,51
1290008,39
1290636,21
1291260,15
1291880,24
1292508,39
1293132,54
1293760,46
1294388,21
1295008,13
1295636,11
1296260,12
1296888,13
1297516,16
1298136,15
1298764,15
1299388,14
1300012,11
1300640,17
1301256,27
1301884,36
1302508,39
1303132,30
1303760,34
1304380,36
1305008,45
1305636,36
1306256,16
1306884,15
1307504,19
1308136,18
1308764,20
1309384,26
1310012,37
1310636,34
1311264,28
1311892,27
1312512,16
1313140,13
1313760,17
1314384,15
1315012,12
1315632,13
1316260,16
1316888,23
1317504,37
1318132,45
1318756,38
1319384,30
1320012,22
1320628,32
1321260,47
1321880,51
1322500,47
1323132,40
1323752,23
1324380,14
1325004,11
1325624,15
1326256,26
1326872,31
1327500,31
1328124,30
1328752,33
1329380,34
1330004,30
1330632,27
1331260,21
1331876,17
1332504,14
1333128,17
1333756,21
1334384,18
1335000,16
1335632,17
1336252,21
1336876,32
1337504,43
1338128,43
1338756,34
1339380,23
1340000,21
1340628,13
1341252,16
1341884,12
1342512,14
1343128,24
1343756,26
1344380,19
1345008,26
1345636,23
1346252,19
1346884,15
1347504,19
1348128,18
1348756,15
1349376,14
1350004,16
1350628,19
1351252,20
1351880,23
1352496,31
1353124,33
1353752,46
1354368,58
1355000,54
1355620,45
1356252,33
1356880,22
1357496,18
1358124,17
1358748,34
1359368,27
1360000,27
1360612,29
1361244,26
1361864,31
1362488,34
1363116,28
1363736,28
1364364,18
1364988,16
1365616,14
1366244,15
1366868,15
1367496,18
1368124,20
1368744,23
1369372,28
1369996,41
1370624,53
1371252,56
1371872,55
1372500,41
1373124,35
1373748,23
1374376,18
1374992,11
1375624,17
1376248,46
1376868,53
1377500,54
1378120,49
1378752,33
1379380,35
1380000,36
1380628,31
1381252,22
1381880,14
1382512,20
1383128,29
1383756,31
1384380,47
1385004,49
1385632,30
1386248,21
1386876,39
1387500,55
1388124,67
1388752,58
1389376,38
1390004,18
1390636,13
1391256,15
1391884,19
1392512,30
1393140,36
1393768,32
1394392,33
1395020,30
1395644,30
1396268,32
1396896,29
1397512,19
1398140,14
1398764,14
1399388,18
1400016,19
1400640,19
1401268,17
1401896,18
1402520,22
1403148,25
1403772,33
1404404,48
1405032,61
1405648,45
1406280,25
1406904,19
1407524,15
1408156,11
1408772,21
1409404,33
1410024,45
1410648,50
1411276,39
1411896,32
1412524,24
1413152,17
1413768,17
1414396,13
1415024,21
1415652,26
1416280,28
1416904,27
1417532,21
1418156,17
1418780,14
1419408,16
1420032,29
1420660,40
1421284,47
1421908,47
1422536,32
1423156,17
1423784,16
1424412,19
1425032,24
1425660,28
1426284,30
1426912,19
1427540,14
1428160,32
1428788,55
1429412,56
1430036,32
1430668,12
1431288,16
1431916,15
1432544,41
1433168,46
1433796,52
1434416,59
1435044,53
1435672,42
1436288,33
1436916,41
1437540,44
1438168,47
1438796,37
1439416,22
1440044,14
1440668,15
1441288,15
1441916,23
1442536,47
1443164,47
1443788,23
1444412,18
1445040,16
1445656,15
1446284,21
1446908,24
1447536,21
1448164,20
1448788,14
1449416,18
1450044,19
1450664,21
1451292,17
1451916,13
1452544,15
1453176,25
1453792,38
1454420,47
1455044,44
1455668,30
1456296,22
1456912,14
1457544,16
1458168,11
1458792,18
1459420,33
1460044,37
1460672,36
1461300,35
1461920,35
1462548,27
1463172,19
1463800,18
1464432,16
1465048,15
1465676,17
1466300,22
1466924,24
1467552,22
1468168,24
1468800,27
1469424,33
1470048,54
1470676,62
1471300,58
1471932,46
1472564,23
1473184,14
1473812,15
1474436,15
1475068,15
1475696,22
1476312,39
1476940,30
1477564,15
1478188,11
1478816,16
1479432,24
1480064,29
1480684,26
1481308,16
1481936,14
1482560,19
1483188,19
1483816,21
1484440,23
1485068,29
1485692,34
1486320,32
1486948,40
1487568,48
1488196,49
1488820,35
1489440,24
1490072,19
1490688,16
1491316,14
1491940,25
1492564,40
1493192,40
1493808,30
1494440,20
1495068,14
1495688,22
1496316,12
1496940,14
1497568,12
1498200,15
1498816,16
1499448,19
1500068,13
1500696,16
1501324,10
1501944,18
1502572,31
1503200,49
1503820,54
1504452,59
1505072,65
1505700,49
1506332,34
1506952,17
1507580,24
1508204,36
1508836,43
1509464,50
1510088,47
1510716,30
1511340,18
1511964,27
1512596,24
1513216,15
1513844,17
1514468,16
1515092,14
1515724,13
1516344,15
1516972,29
1517604,27
1518224,24
1518852,22
1519476,17
1520108,29
1520736,59
1521356,83
1521984,71
1522608,41
1523232,25
1523860,16
1524480,13
1525108,18
1525732,24
1526356,29
1526988,34
1527608,31
1528236,24
1528868,26
1529488,27
1530116,24
1530744,21
1531372,17
1532004,14
1532624,15
1533256,14
1533880,15
1534504,17
1535136,18
1535756,26
1536388,31
1537008,38
1537632,46
1538260,41
1538880,25
1539508,19
1540140,14
1540760,14
1541388,10
1542012,16
1542640,27
1543272,34
1543888,24
1544516,19
1545140,24
1545764,35
1546392,38
1547016,26
1547644,15
1548268,13
1548892,18
1549520,33
1550136,37
1550768,33
1551396,26
1552016,25
1552644,21
1553268,29
1553896,36
1554528,48
1555148,49
1555776,37
1556400,31
1557024,21
1557656,14
1558272,10
1558900,27
1559524,48
1560148,44
1560780,36
1561400,37
1562028,37
1562660,35
1563280,31
1563908,21
1564532,15
1565160,15
1565792,14
1566408,29
1567036,26
1567660,23
1568284,24
1568916,17
1569536,11
1570164,32
1570788,65
1571412,82
1572040,66
1572664,27
1573292,14
1573924,16
1574544,20
1575172,10
1575796,21
1576428,30
1577056,30
1577680,25
1578308,21
1578932,23
1579556,37
1580184,51
1580808,47
1581436,31
1582060,17
1582684,17
1583316,27
1583940,28
1584572,23
1585204,31
1585824,34
1586456,39
1587080,51
1587708,50
1588340,42
1588960,25
1589588,24
1590212,14
1590836,17
1591468,14
1592088,12
1592716,13
1593340,19
1593968,15
1594596,11
1595224,11
1595852,22
1596484,36
1597104,37
1597736,32
1598360,23
1598984,20
1599612,12
1600232,13
1600860,26
1601480,36
1602104,36
1602732,30
1603352,41
1603980,59
1604604,65
1605224,55
1605852,44
1606476,25
1607104,15
1607732,15
1608352,18
1608980,26
1609600,35
1610232,41
1610860,38
1611480,28
1612108,31
1612732,29
1613356,22
1613988,24
1614608,23
1615236,15
1615860,20
1616484,31
1617112,33
1617736,28
1618364,15
1618996,12
1619616,18
1620244,31
1620868,34
1621496,38
1622124,22
1622744,19
1623372,27
1623996,23
1624620,15
1625252,10
1625872,10
1626500,10
1627124,15
1627748,28
1628380,38
1629000,46
1629632,55
1630260,56
1630880,36
1631508,15
1632132,32
1632764,26
1633392,17
1634012,24
1634640,41
1635264,42
1635888,51
1636516,60
1637136,60
1637764,52
1638392,44
1639016,39
1639644,29
1640264,18
1640892,18
1641520,22
1642140,28
1642768,41
1643392,41
1644020,43
1644648,50
1645264,39
1645892,31
1646516,23
1647136,15
1647764,14
1648384,14
1649012,16
1649632,13
1650252,22
1650880,20
1651500,23
1652132,24
1652760,28
1653376,56
1654004,73
1654628,75
1655256,57
1655884,34
1656504,18
1657132,15
1657756,17
1658376,21
1659004,27
1659624,38
1660252,37
1660872,39
1661496,33
1662124,38
1662744,34
1663372,25
1663996,16
1664620,15
1665248,19
1665868,15
1666496,17
1667124,19
1667744,22
1668372,26
1668992,28
1669624,35
1670252,39
1670872,44
1671500,56
1672124,50
1672744,39
1673372,16
1673992,15
1674620,16
1675244,23
1675864,39
1676496,43
1677112,38
1677740,31
1678372,20
1678992,21
1679620,22
1680244,17
1680872,15
1681500,14
1682120,14
1682748,13
1683368,18
1683988,24
1684620,19
1685236,11
1685868,16
1686488,30
1687108,41
1687740,55
1688360,58
1688988,56
1689616,39
1690232,22
1690860,15
1691480,19
1692112,39
1692740,38
1693360,29
1693988,26
1694612,27
1695236,35
1695868,48
1696488,36
1697116,16
1697740,14
1698360,15
1698988,17
1699608,21
1700236,11
1700856,19
1701480,31
1702108,45
1702732,48
1703360,58
1703988,62
1704608,60
1705236,42
1705860,29
1706488,25
1707116,17
1707736,15
1708364,29
1708988,31
1709612,26
1710240,27
1710856,31
1711488,27
1712112,18
1712732,11
1713364,16
1713988,31
1714616,26
1715244,16
1715860,15
1716492,16
1717116,11
1717744,14
1718372,22
1718992,27
1719620,35
1720248,53
1720868,59
1721500,54
1722120,33
1722748,17
1723372,18
1723996,14
1724624,19
1725240,31
1725872,27
1726500,22
1727120,31
1727748,31
1728372,27
1729000,30
1729628,28
1730244,19
1730876,16
1731496,16
1732120,25
1732752,23
1733368,18
1733996,24
1734620,21
1735244,23
1735872,39
1736492,49
1737120,53
1737748,60
1738368,53
1738996,35
1739620,20
1740252,14
1740880,15
1741496,12
1742124,31
1742748,39
1743368,31
1744000,27
1744616,26
1745244,29
1745868,34
1746492,38
1747120,37
1747736,20
1748368,16
1748988,14
1749616,18
1750244,21
1750868,16
1751500,10
1752128,10
1752744,11
1753376,26
1754000,50
1754628,66
1755260,72
1755880,61
1756508,40
1757132,21
1757756,13
1758388,30
1759008,39
1759640,33
1760268,26
1760888,24
1761516,24
1762136,27
1762768,20
1763396,14
1764016,17
1764644,15
1765264,14
1765892,16
1766524,24
1767140,28
1767772,34
1768396,31
1769016,31
1769648,43
1770264,51
1770892,52
1771516,50
1772140,32
1772768,19
1773392,16
1774020,13
1774652,16
1775272,27
1775900,36
1776524,43
1777156,40
1777784,39
1778404,44
1779032,49
1779656,33
1780280,23
1780908,15
1781528,22
1782156,24
1782780,22
1783408,19
1784036,21
1784660,27
1785288,30
1785920,29
1786536,38
1787164,47
1787788,53
1788420,42
1789048,29
1789672,17
1790300,14
1790928,20
1791552,25
1792184,35
1792800,42
1793428,31
1794056,28
1794672,31
1795300,28
1795924,19
1796552,15
1797184,13
1797800,14
1798428,14
1799052,14
1799680,11
1800308,10
1800928,11
1801556,15
1802180,36
1802804,65
1803432,73
1804056,65
1804684,58
1805308,38
1805928,25
1806560,18
1807180,14
1807812,17
1808440,27
1809056,35
1809684,47
1810308,52
1810936,56
1811564,29
1812184,21
1812812,22
1813436,25
1814060,14
1814688,22
1815304,28
1815936,40
1816560,39
1817184,30
1817812,19
1818436,17
1819064,18
1819692,30
1820312,48
1820940,62
1821564,60
1822196,37
1822824,17
1823440,16
1824072,19
1824692,21
1825316,27
1825944,36
1826560,36
1827188,29
1827816,21
1828440,14
1829068,16
1829688,18
1830316,33
1830948,32
1831568,19
1832196,14
1832820,14
1833452,27
1834080,31
1834704,29
1835332,26
1835960,28
1836584,40
1837212,56
1837832,69
1838464,57
1839088,34
1839712,26
1840340,20
1840964,12
1841596,27
1842224,35
1842848,41
1843476,43
1844100,46
1844728,39
1845356,30
1845976,35
1846604,23
1847224,13
1847848,19
1848476,22
1849096,22
1849724,23
1850348,19
1850972,18
1851600,22
1852216,26
1852844,33
1853476,39
1854096,49
1854724,49
1855348,31
1855976,21
1856608,17
1857232,14
1857860,15
1858484,22
1859108,26
1859736,26
1860352,26
1860984,27
1861608,33
1862228,40
1862860,32
1863480,24
1864108,16
1864736,14
1865360,16
1865988,12
1866612,10
1867240,22
1867872,33
1868488,41
1869116,44
1869740,53
1870364,61
1870996,60
1871616,51
1872244,28
1872868,15
1873492,15
1874124,16
1874744,26
1875372,31
1876004,34
1876624,28
1877252,28
1877876,34
1878508,28
1879136,21
1879756,19
1880384,22
1881008,16
1881632,16
1882260,15
1882880,15
1883508,16
1884132,16
1884756,20
1885388,18
1886008,23
1886636,38
1887268,62
1887888,67
1888516,55
1889140,36
1889772,16
1890400,26
1891016,29
1891644,45
1892268,33
1892892,27
1893524,32
1894144,39
1894776,38
1895396,25
1896020,12
1896652,16
1897272,19
1897900,21
1898532,14
1899152,28
1899784,13
1900408,18
1901036,21
1901668,34
1902288,48
1902916,67
1903544,77
1904168,74
1904796,62
1905416,45
1906044,26
1906668,16
1907292,14
1907924,15
1908548,33
1909176,47
1909804,45
1910424,42
1911052,34
1911676,29
1912308,25
1912940,21
1913560,20
1914192,15
1914816,15
1915440,15
1916072,19
1916688,30
1917320,27
1917944,18
1918568,13
1919200,12
1919824,28
1920456,38
1921084,42
1921704,37
1922332,29
1922956,17
1923584,15
1924216,11
1924832,12
1925460,26
1926084,31
1926708,29
1927336,27
1927952,25
1928580,25
1929204,26
1929828,22
1930456,19
1931080,16
1931708,15
1932340,14
1932960,15
1933588,23
1934212,27
1934844,26
1935472,29
1936088,40
1936720,51
1937340,57
1937964,50
1938596,31
1939216,25
1939844,15
1940468,15
1941092,23
1941724,39
1942348,49
1942976,39
1943608,25
1944228,22
1944856,13
1945480,13
1946112,23
1946740,32
1947360,25
1947988,17
1948612,19
1949236,38
1949868,43
1950488,49
1951116,38
1951740,18
1952368,14
1952996,22
1953620,36
1954252,52
1954880,42
1955496,24
1956128,14
1956752,15
1957380,19
1958012,25
1958632,37
1959260,45
1959884,41
1960508,33
1961140,22
1961760,15
1962388,14
1963020,16
1963640,13
1964268,15
1964892,17
1965524,21
1966152,17
1966776,25
1967404,29
1968028,31
1968648,36
1969276,37
1969896,41
1970524,41
1971148,38
1971772,29
1972400,20
1973024,13
1973652,14
1974280,10
1974904,19
1975532,22
1976156,24
1976788,36
1977416,45
1978036,38
1978664,42
1979288,30
1979912,21
1980540,13
1981160,30
1981788,36
1982412,32
1983036,22
1983668,11
1984288,11
1984916,18
1985548,14
1986168,23
1986796,37
1987420,55
1988048,54
1988680,38
1989296,26
1989924,18
1990548,14
1991172,14
1991804,19
1992424,32
1993052,39
1993676,43
1994300,45
1994932,31
1995552,19
1996180,18
1996812,14
1997428,14
1998060,16
1998684,18
1999312,11
1999944,16
2000564,21
2001192,30
2001816,40
2002440,45
2003068,54
2003688,69
2004316,67
2004940,46
2005564,27
2006192,20
2006816,15
2007444,12
2008076,20
2008696,35
2009324,41
2009948,38
2010576,33
2011204,22
2011824,16
2012452,18
2013076,25
2013700,24
2014332,18
2014952,15
2015580,15
2016208,13
2016828,15
2017460,22
2018080,19
2018708,18
2019336,33
2019960,58
2020588,60
2021212,53
2021844,41
2022472,34
2023088,21
2023720,15
2024344,16
2024968,27
2025596,38
2026216,44
2026844,51
2027472,40
2028096,37
2028724,35
2029344,34
2029972,45
2030604,34
2031224,17
2031852,19
2032480,30
2033108,35
2033740,26
2034360,39
2034992,59
2035616,63
2036240,61
2036868,58
2037488,49
2038116,44
2038740,41
2039368,25
2039996,15
2040616,15
2041248,14
2041880,24
2042496,33
2043124,28
2043752,32
2044380,32
2045012,19
2045632,15
2046264,28
2046888,33
2047512,23
2048144,14
2048756,27
2049384,31
2050008,27
2050628,22
2051256,22
2051872,25
2052500,29
2053128,40
2053744,47
2054372,47
2054996,36
2055624,26
2056252,18
2056868,14
2057500,10
2058120,14
2058752,16
2059380,24
2060000,36
2060628,45
2061248,47
2061872,44
2062500,28
2063120,25
2063748,21
2064372,16
2064992,21
2065620,20
2066244,13
2066872,25
2067500,32
2068120,38
2068748,38
2069372,47
2070000,60
2070628,64
2071248,53
2071876,31
2072500,19
2073124,14
2073752,14
2074368,28
2074996,34
2075620,31
2076244,24
2076872,16
2077488,16
2078116,20
2078748,20
2079368,23
2079996,28
2080620,22
2081248,15
2081876,18
2082496,27
2083124,21
2083748,16
2084368,19
2085000,28
2085616,36
2086244,50
2086868,44
2087488,42
2088120,31
2088736,24
2089364,26
2089992,23
2090616,18
2091244,12
2091864,37
2092496,50
2093124,37
2093744,34
2094372,20
2094996,19
2095620,19
2096252,20
2096872,31
2097500,31
2098124,14
2098748,20
2099376,31
2099992,37
2100620,40
2101244,40
2101872,43
2102500,31
2103124,12
2103752,24
2104380,45
2105000,37
2105628,20
2106248,15
2106880,18
2107508,14
2108128,11
2108756,25
2109380,33
2110008,28
2110636,20
2111256,16
2111884,24
2112508,29
2113136,29
2113764,27
2114388,20
2115016,16
2115644,17
2116264,20
2116892,21
2117516,23
2118144,29
2118776,27
2119392,39
2120024,55
2120648,54
2121268,44
2121900,30
2122520,20
2123148,15
2123772,15
2124400,11
2125028,22
2125652,34
2126280,30
2126912,36
2127528,33
2128156,40
2128780,45
2129412,28
2130040,23
2130656,19
2131284,14
2131908,27
2132528,38
2133160,39
2133776,38
2134404,24
2135028,12
2135652,15
2136280,33
2136904,48
2137536,61
2138164,52
2138784,43
2139412,30
2140036,19
2140664,13
2141296,28
2141912,37
2142540,43
2143164,32
2143788,30
2144420,28
2145040,30
2145668,38
2146292,46
2146916,41
2147544,21
2148168,14
2148796,22
2149428,35
2150048,44
2150680,32
2151300,20
2151928,33
2152560,51
2153176,64
2153804,74
2154428,64
2155052,34
2155680,16
2156296,17
2156928,28
2157552,26
2158176,28
2158804,44
2159428,41
2160056,30
2160688,24
2161304,18
2161932,14
2162556,17
2163184,21
2163816,13
2164432,13
2165064,14
2165688,15
2166312,20
2166940,17
2167560,11
2168188,11
2168812,16
2169436,37
2170068,57
2170692,70
2171320,62
2171948,50
2172568,38
2173196,25
2173820,14
2174452,23
2175080,34
2175704,37
2176336,41
2176956,33
2177580,29
2178208,32
2178832,30
2179460,24
2180084,21
2180704,22
2181336,16
2181960,16
2182588,26
2183216,30
2183836,24
2184464,23
2185088,27
2185716,28
2186344,42
2186968,61
2187596,75
2188220,59
2188844,33
2189472,14
2190096,15
2190724,31
2191348,41
2191972,40
2192604,38
2193228,22
2193856,13
2194484,13
2195104,18
2195732,19
2196360,20
2196988,13
2197620,16
2198240,21
2198868,19
2199492,15
2200120,13
2200748,12
2201368,19
2201996,27
2202620,44
2203248,49
2203876,58
2204500,52
2205128,32
2205760,16
2206376,14
2207008,23
2207632,37
2208260,40
2208888,48
2209512,52
2210140,31
2210764,17
2211388,12
2212020,10
2212640,11
2213268,13
2213896,14
2214520,14
2215148,13
2215772,10
2216400,10
2217032,15
2217648,28
2218276,46
2218900,51
2219528,51
2220156,63
2220776,65
2221408,52
2222032,36
2222656,21
2223284,15
2223904,14
2224536,24
2225164,32
2225784,38
2226412,33
2227036,37
2227668,41
2228300,45
2228920,45
2229548,29
2230172,16
2230800,13
2231428,14
2232048,16
2232676,17
2233300,17
2233924,22
2234556,18
2235176,16
2235808,26
2236436,42
2237056,53
2237688,42
2238312,32
2238940,33
2239572,24
2240192,24
2240820,13
2241444,14
2242068,29
2242696,39
2243320,36
2243948,35
2244572,43
2245196,54
2245824,45
2246444,18
2247072,29
2247700,38
2248320,33
2248948,30
2249572,22
2250204,22
2250832,22
2251456,15
2252088,11
2252712,24
2253336,24
2253964,28
2254584,35
2255212,43
2255836,38
2256460,38
2257088,37
2257704,11
2258336,23
2258964,30
2259584,31
2260212,37
2260836,41
2261464,34
2262092,27
2262712,22
2263340,15
2263964,14
2264588,20
2265220,16
2265840,12
2266468,13
2267092,18
2267716,14
2268344,17
2268968,40
2269596,61
2270228,70
2270848,71
2271476,50
2272100,29
2272732,20
2273360,16
2273976,10
2274608,15
2275232,29
2275856,34
2276484,34
2277104,33
2277732,17
2278360,15
2278984,20
2279612,26
2280232,41
2280860,39
2281492,24
2282112,15
2282740,28
2283364,24
2283996,12
2284628,13
2285248,18
2285876,27
2286500,55
2287124,75
2287756,69
2288376,36
2289004,24
2289628,21
2290252,18
2290884,10
2291504,21
2292132,40
2292764,34
2293384,27
2294016,21
2294636,21
2295268,23
2295896,21
2296516,29
2297144,24
2297768,14
2298392,15
2299020,18
2299640,25
2300268,30
2300892,31
2301516,29
2302148,36
2302768,57
2303396,62
2304028,55
2304644,40
2305272,24
2305896,18
2306524,15
2307156,26
2307776,39
2308404,45
2309028,49
2309652,37
2310280,14
2310904,12
2311532,16
2312156,21
2312780,22
2313412,18
2314032,17
2314660,17
2315292,25
2315912,25
2316540,14
2317164,11
2317796,10
2318424,15
2319044,33
2319672,43
2320296,58
2320920,60
2321548,43
2322168,33
2322796,23
2323420,16
2324044,13
2324672,16
2325296,35
2325924,43
2326552,32
2327176,35
2327804,35
2328428,38
2329060,34
2329692,33
2330312,23
2330940,16
2331564,13
2332188,12
2332816,11
2333440,17
2334068,23
2334692,15
2335320,11
2335948,16
2336568,41
2337196,74
2337828,78
2338448,66
2339076,65
2339700,55
2340332,30
2340960,11
2341584,16
2342212,27
2342840,33
2343460,37
2344092,36
2344712,33
2345340,21
2345964,33
2346588,42
2347220,29
2347844,28
2348472,23
2349104,10
2349720,14
2350352,14
2350976,13
2351608,13
2352236,14
2352856,24
2353484,41
2354112,62
2354736,71
2355368,72
2355984,50
2356612,36
2357236,19
2357860,10
2358492,14
2359116,23
2359744,34
2360376,44
2360992,50
2361624,41
2362248,29
2362876,31
2363508,32
2364128,30
2364760,17
2365384,17
2366008,51
2366636,57
2367256,46
2367888,33
2368516,27
2369136,36
2369764,45
2370388,38
2371020,25
2371648,16
2372272,14
2372900,15
2373528,14
2374152,10
2374780,15
2375400,25
2376032,35
2376652,40
2377276,35
2377908,27
2378528,23
2379156,18
2379788,20
2380408,15
2381036,14
2381660,13
2382292,10
2382924,10
2383544,14
2384172,26
2384796,45
2385424,59
2386052,71
2386672,73
2387300,65
2387924,40
2388548,17
2389180,16
2389800,23
2390428,26
2391060,36
2391680,37
2392312,25
2392936,14
2393568,12
2394200,14
2394816,14
2395448,12
2396072,16
2396696,17
2397328,14
2397944,13
2398576,18
2399200,24
2399824,24
2400456,26
2401072,21
2401700,19
2402332,26
2402952,36
2403580,47
2404204,51
2404836,41
2405464,29
2406088,22
2406716,20
2407340,11
2407964,24
2408596,38
2409216,43
2409844,38
2410468,30
2411092,29
2411724,32
2412344,39
2412972,34
2413604,20
2414224,21
2414852,15
2415480,12
2416108,14
2416740,17
2417360,18
2417988,23
2418612,39
2419236,59
2419868,70
2420488,86
2421116,54
2421740,19
2422364,14
2422996,13
2423620,15
2424252,28
2424880,52
2425504,52
2426136,26
2426760,13
2427388,13
2428020,10
2428640,21
2429268,33
2429896,37
2430520,21
2431152,14
2431768,15
2432400,23
2433032,31
2433648,35
2434276,26
2434900,19
2435532,17
2436160,44
2436784,56
2437416,56
2438040,49
2438664,31
2439292,14
2439912,14
2440544,10
2441168,13
2441788,31
2442420,44
2443040,37
2443668,30
2444300,36
2444920,44
2445548,35
2446172,30
2446804,17
2447432,14
2448056,17
2448684,25
2449308,23
2449932,21
2450560,22
2451184,28
2451816,36
2452440,46
2453064,54
2453696,67
2454312,70
2454944,60
2455576,37
2456196,20
2456828,13
2457452,24
2458084,35
2458712,44
2459328,57
2459956,60
2460580,43
2461204,24
2461832,24
2462452,25
2463080,24
2463704,15
2464328,18
2464956,24
2465576,32
2466204,26
2466832,23
2467456,29
2468084,25
2468708,24
2469336,31
2469968,33
2470584,42
2471212,36
2471836,23
2472460,18
2473088,13
2473712,11
2474340,11
2474964,24
2475588,33
2476220,32
2476840,31
2477468,28
2478100,30
2478720,28
2479348,23
2479972,18
2480604,15
2481232,15
2481856,20
2482484,24
2483108,23
2483732,25
2484364,24
2484984,29
2485612,37
2486236,45
2486860,55
2487488,55
2488112,50
2488740,43
2489372,28
2489992,16
2490620,21
2491244,37
2491876,41
2492504,35
2493128,33
2493756,37
2494380,40
2495008,36
2495636,36
2496256,32
2496884,23
2497508,17
2498132,14
2498764,13
2499384,22
2500012,29
2500640,26
2501264,27
2501892,28
2502516,43
2503148,49
2503780,53
2504400,45
2505028,32
2505652,21
2506276,16
2506908,13
2507528,24
2508156,28
2508784,32
2509408,32
2510036,23
2510660,18
2511292,23
2511924,24
2512544,33
2513172,49
2513800,39
2514428,15
2515060,23
2515680,36
2516308,38
2516932,40
2517556,33
2518188,33
2518808,45
2519436,56
2520064,55
2520688,47
2521316,27
2521944,23
2522572,19
2523204,19
2523824,16
2524456,12
2525080,17
2525704,32
2526332,42
2526952,44
2527584,53
2528208,56
2528832,41
2529460,19
2530080,14
2530708,14
2531340,14
2531960,17
2532592,17
2533216,21
2533844,24
2534476,21
2535096,28
2535724,43
2536352,60
2536976,63
2537604,55
2538224,41
2538856,27
2539480,15
2540104,19
2540732,29
2541352,36
2541984,37
2542612,30
2543232,27
2543864,27
2544488,34
2545116,37
2545748,38
2546368,28
2547000,24
2547624,14
2548248,31
2548876,36
2549496,25
2550128,27
2550752,32
2551376,27
2552008,23
2552624,31
2553256,44
2553888,60
2554504,54
2555136,44
2555760,33
2556392,29
2557024,14
2557640,14
2558272,31
2558896,37
2559524,33
2560156,34
2560772,35
2561400,34
2562024,24
2562644,20
2563272,16
2563892,16
2564524,18
2565152,13
2565768,24
2566396,34
2567020,26
2567648,15
2568276,16
2568896,29
2569524,48
2570148,59
2570772,53
2571400,42
2572016,26
2572644,13
2573268,17
2573892,25
2574520,31
2575136,45
2575768,46
2576396,36
2577016,33
2577644,30
2578268,24
2578896,19
2579524,15
2580144,15
2580772,14
2581396,15
2582020,22
2582652,18
2583272,23
2583900,31
2584524,45
2585148,48
2585776,63
2586400,63
2587028,54
2587656,45
2588272,34
2588900,20
2589524,13
2590152,23
2590784,41
2591400,36
2592032,33
2592652,35
2593284,46
2593912,32
2594528,28
2595156,25
2595784,19
2596408,16
2597036,16
2597656,15
2598284,15
2598908,10
2599536,12
2600164,13
2600788,15
2601420,25
2602048,49
2602664,60
2603296,69
2603920,79
2604548,72
2605180,54
2605800,28
2606428,17
2607052,11
2607676,32
2608308,46
2608928,50
2609556,47
2610188,34
2610808,33
2611440,41
2612060,33
2612692,21
2613320,13
2613936,18
2614568,20
2615192,18
2615816,25
2616444,34
2617064,31
2617692,23
2618316,22
2618940,37
2619572,50
2620192,52
2620820,43
2621452,30
2622068,20
2622700,16
2623324,14
2623952,11
2624580,24
2625196,30
2625828,31
2626448,31
2627076,30
2627704,28
2628328,29
2628956,30
2629576,25
2630200,22
2630828,15
2631448,18
2632076,26
2632700,31
2633324,25
2633952,11
2634576,12
2635204,29
2635832,51
2636448,64
2637080,58
2637700,34
2638332,16
2638960,13
2639576,13
2640204,11
2640828,12
2641448,25
2642080,42
2642696,47
2643324,45
2643944,30
2644568,23
2645196,20
2645816,18
2646444,13
2647072,14
2647688,13
2648320,16
2648940,23
2649572,26
2650200,23
2650816,15
2651448,19
2652072,37
2652696,45
2653324,54
2653944,51
2654572,31
2655196,27
2655820,21
2656452,16
2657072,11
2657700,18
2658328,37
2658952,48
2659580,44
2660204,29
2660832,19
2661464,18
2662080,18
2662708,19
2663332,16
2663952,17
2664584,13
2665200,11
2665828,19
2666452,21
2667072,23
2667700,31
2668320,41
2668948,56
2669576,56
2670192,58
2670820,50
2671444,39
2672072,27
2672700,16
2673320,13
2673948,19
2674568,31
2675200,41
2675828,37
2676448,40
2677076,41
2677700,38
2678324,43
2678952,40
2679576,35
2680204,17
2680828,13
2681456,13
2682084,20
2682708,29
2683336,32
2683968,29
2684584,29
2685212,37
2685836,53
2686464,64
2687096,73
2687712,60
2688344,42
2688964,22
2689584,14
2690216,16
2690832,27
2691460,40
2692084,47
2692708,45
2693336,38
2693960,29
2694588,19
2695216,15
2695832,22
2696464,19
2697088,14
2697716,14
2698344,14
2698968,14
2699596,12
2700220,10
2700844,10
2701472,13
2702092,35
2702720,45
2703344,61
2703968,60
2704596,46
2705220,28
2705848,22
2706480,30
2707096,30
2707724,17
2708348,12
2708980,27
2709608,43
2710224,40
2710852,40
2711476,47
2712100,44
2712732,35
2713352,17
2713984,17
2714604,23
2715228,23
2715856,20
2716480,17
2717108,13
2717740,10
2718360,17
2718988,34
2719612,42
2720244,45
2720872,34
2721488,25
2722116,26
2722740,20
2723364,16
2723992,10
2724616,29
2725244,33
2725868,24
2726488,16
2727116,16
2727736,25
2728364,33
2728992,38
2729616,28
2730244,19
2730864,13
2731496,19
2732124,26
2732744,34
2733376,35
2734000,29
2734620,21
2735252,26
2735872,41
2736500,52
2737124,51
2737748,33
2738380,18
2739000,13
2739632,19
2740260,18
2740880,12
2741508,10
2742132,15
2742764,23
2743392,23
2744012,22
2744640,21
2745264,16
2745888,18
2746516,16
2747136,17
2747764,16
2748388,12
2749012,17
2749644,24
2750264,23
2750892,22
2751524,22
2752144,29
2752772,40
2753396,49
2754028,43
2754656,26
2755272,18
2755900,13
2756524,13
2757148,23
2757776,38
2758400,33
2759028,21
2759652,23
2760276,29
2760908,26
2761528,28
2762156,16
2762788,13
2763408,14
2764036,19
2764660,17
2765292,11
2765920,12
2766544,20
2767172,25
2767796,27
2768420,36
2769048,40
2769672,38
2770300,40
2770924,31
2771548,25
2772176,15
2772800,14
2773428,14
2774060,22
2774680,43
2775308,40
2775932,31
2776564,31
2777192,28
2777816,11
2778444,10
2779068,15
2779692,14
2780324,18
2780944,24
2781572,23
2782196,24
2782824,25
2783452,23
2784076,20
2784708,23
2785336,32
2785960,41
2786588,50
2787212,34
2787840,13
2788468,14
2789088,13
2789716,17
2790340,15
2790968,22
2791596,26
2792216,24
2792844,12
2793468,12
2794096,13
2794724,11
2795348,24
2795980,35
2796612,26
2797232,17
2797860,14
2798484,15
2799108,10
2799740,18
2800360,23
2800988,27
2801612,30
2802236,31
2802864,38
2803488,46
2804116,37
2804748,39
2805368,30
2805996,15
2806620,12
2807252,15
2807880,23
2808496,30
2809128,27
2809752,16
2810376,17
2811004,26
2811624,48
2812252,50
2812876,29
2813500,15
2814132,24
2814752,24
2815384,19
2816012,12
2816628,17
2817260,17
2817880,26
2818512,49
2819140,63
2819760,60
2820388,49
2821012,23
2821636,13
2822268,12
2822888,15
2823516,16
2824140,21
2824764,28
2825392,30
2826016,30
2826644,17
2827276,9
2827844,9
2828424,11
2829048,15
2829676,17
2830300,13
2830924,15
2831552,19
2832176,21
2832804,17
2833432,11
2834056,13
2834684,13
2835308,19
2835940,31
2836568,44
2837184,43
2837816,35
2838440,22
2839064,16
2839692,15
2840312,10
2840940,17
2841568,26
2842192,32
2842820,30
2843440,23
2844068,20
2844700,20
2845320,21
2845948,21
2846576,17
2847204,15
2847836,13
2848456,20
2849084,25
2849708,25
2850332,21
2850960,15
2851584,18
2852212,31
2852836,38
2853460,49
2854092,44
2854712,27
2855340,14
2855972,12
2856592,13
2857224,17
2857844,25
2858476,29
2859108,29
2859728,23
2860356,15
2860984,14
2861604,24
2862236,22
2862856,22
2863488,20
2864112,15
2864736,16
2865364,21
2865992,19
2866620,21
2867252,23
2867868,29
2868500,42
2869120,48
2869752,45
2870380,38
2871000,35
2871628,33
2872252,27
2872876,17
2873508,18
2874128,18
2874756,22
2875380,27
2876004,26
2876636,28
2877260,29
2877888,27
2878520,30
2879136,37
2879768,21
2880392,14
2881020,15
2881648,21
2882264,21
2882892,16
2883516,17
2884140,12
2884768,12
2885384,27
2886012,43
2886636,53
2887260,49
2887888,45
2888504,35
2889136,29
2889764,16
2890384,10
2891012,13
2891636,20
2892264,28
2892896,34
2893512,31
2894140,19
2894764,17
2895388,24
2896016,19
2896632,16
2897260,16
2897884,17
2898508,11
2899140,12
2899760,13
2900388,13
2901020,20
2901640,21
2902268,29
2902892,40
2903524,37
2904156,32
2904776,33
2905404,24
2906028,17
2906652,11
2907284,24
2907904,25
2908532,12
2909156,11
2909780,13
2910412,10
2911032,10
2911660,11
2912292,15
2912912,23
2913540,32
2914164,31
2914796,15
2915424,14
2916048,19
2916676,15
2917300,16
2917924,24
2918556,35
2919176,42
2919804,45
2920428,51
2921052,48
2921680,42
2922304,27
2922932,15
2923564,12
2924184,23
2924812,31
2925436,31
2926068,22
2926696,18
2927320,21
2927952,21
2928576,25
2929200,23
2929828,19
2930448,24
2931076,15
2931704,24
2932328,27
2932956,29
2933580,28
2934212,30
2934844,30
2935464,37
2936096,49
2936716,55
2937348,53
2937980,40
2938600,23
2939228,13
2939852,19
2940480,16
2941108,28
2941728,44
2942360,49
2942988,43
2943608,36
2944240,25
2944864,20
2945492,23
2946120,27
2946744,20
2947372,14
2947996,16
2948620,17
2949252,14
2949872,12
2950500,10
2951124,13
2951748,29
2952376,58
2952992,75
2953624,72
2954252,48
2954872,27
2955500,13
2956124,17
2956756,14
2957388,16
2958008,37
2958636,40
2959260,28
2959888,19
2960516,14
2961136,15
2961764,12
2962388,16
2963012,13
2963644,13
2964264,14
2964892,15
2965524,15
2966144,12
2966772,12
2967396,23
2968028,30
2968656,44
2969280,45
2969908,42
2970532,38
2971156,27
2971788,17
2972408,15
2973036,11
2973660,10
2974284,13
2974912,22
2975536,24
2976164,17
2976792,22
2977416,28
2978044,28
2978668,25
2979296,26
2979928,18
2980544,15
2981172,20
2981796,25
2982420,24
2983048,21
2983672,17
2984300,18
2984924,21
2985548,33
2986180,38
2986800,41
2987428,32
2988060,30
2988680,22
2989308,13
2989936,12
2990564,19
2991196,20
2991816,25
2992448,31
2993072,33
2993696,29
2994324,44
2994944,43
2995576,28
2996200,21
2996820,19
2997452,14
2998072,15
2998704,18
2999332,20
2999952,19
3000584,27
3001208,34
3001836,51
3002468,62
3003088,61
3003720,40
3004344,26
3004968,25
3005596,24
3006216,23
3006848,12
3007472,11
3008096,22
3008724,30
3009348,32
3009980,24
3010608,17
3011232,14
3011860,12
3012484,12
3013116,17
3013748,22
3014368,26
3015000,34
3015624,29
3016248,15
3016876,12
3017496,24
3018128,20
3018756,11
3019376,18
3020008,36
3020632,40
3021264,29
3021892,27
3022512,23
3023140,11
3023768,13
3024392,26
3025020,37
3025640,36
3026272,33
3026896,28
3027520,16
3028148,11
3028768,13
3029400,18
3030032,20
3030648,15
3031280,21
3031904,19
3032536,11
3033164,26
3033784,24
3034412,12
3035036,12
3035664,21
3036292,37
3036912,43
3037540,37
3038168,33
3038792,30
3039424,22
3040040,10
3040672,15
3041300,26
3041920,36
3042548,30
3043172,28
3043804,27
3044436,26
3045056,32
3045688,34
3046312,22
3046936,18
3047564,18
3048184,11
3048812,22
3049436,25
3050064,31
3050692,31
3051312,32
3051944,37
3052572,44
3053192,47
3053824,51
3054448,37
3055076,20
3055708,12
3056328,14
3056956,10
3057584,25
3058208,47
3058840,52
3059456,54
3060088,40
3060712,10
3061336,11
3061968,12
3062584,11
3063216,18
3063848,22
3064464,13
3065096,24
3065720,18
3066352,17
3066980,10
3067600,15
3068232,34
3068856,52
3069480,59
3070112,73
3070732,68
3071364,71
3071988,64
3072616,36
3073244,11
3073868,32
3074496,50
3075124,49
3075744,41
3076372,37
3076996,30
3077628,25
3078256,20
3078876,16
3079504,13
3080128,14
3080752,18
3081380,17
3082000,11
3082628,19
3083252,29
3083876,21
3084508,23
3085128,35
3085760,59
3086388,78
3087008,73
3087640,45
3088264,25
3088892,13
3089520,14
3090140,26
3090768,34
3091392,38
3092016,33
3092648,37
3093264,33
3093892,35
3094520,35
3095144,33
3095772,23
3096396,16
3097028,13
3097660,16
3098280,23
3098908,28
3099532,33
3100164,28
3100792,26
3101412,30
3102044,42
3102668,52
3103292,57
3103924,46
3104544,35
3105172,32
3105804,19
3106424,14
3107052,33
3107680,47
3108308,44
3108940,31
3109560,24
3110192,25
3110816,29
3111440,33
3112072,33
3112688,27
3113320,14
3113944,17
3114568,19
3115196,18
3115816,12
3116448,11
3117076,14
3117696,14
3118324,25
3118952,33
3119580,46
3120212,47
3120832,33
3121460,26
3122084,23
3122708,17
3123340,15
3123960,34
3124588,28
3125212,19
3125836,19
3126464,19
3127088,12
3127716,10
3128348,16
3128968,22
3129596,20
3130220,15
3130852,15
3131484,24
3132104,26
3132736,29
3133360,36
3133984,44
3134616,49
3135232,54
3135864,55
3136488,53
3137112,44
3137740,22
3138360,13
3138988,13
3139620,12
3140240,15
3140868,19
3141492,29
3142124,41
3142756,54
3143376,54
3144008,45
3144628,28
3145252,21
3145884,30
3146504,31
3147136,18
3147760,13
3148384,13
3149016,11
3149640,11
3150268,11
3150900,26
3151520,54
3152152,76
3152776,84
3153408,73
3154036,47
3154656,16
3155284,13
3155908,15
3156536,14
3157164,13
3157784,47
3158416,72
3159044,64
3159664,47
3160296,32
3160920,25
3161552,18
3162184,18
3162800,13
3163432,26
3164056,44
3164680,49
3165312,54
3165928,37
3166560,27
3167184,19
3167808,30
3168440,62
3169060,79
3169692,81
3170320,58
3170940,31
3171572,15
3172196,15
3172828,13
3173460,36
3174080,57
3174712,57
3175336,51
3175960,42
3176592,30
3177208,23
3177840,27
3178464,29
3179088,32
3179720,21
3180336,16
3180968,13
3181596,18
3182216,25
3182848,37
3183472,45
3184104,42
3184732,41
3185352,47
3185984,52
3186608,55
3187232,38
3187860,20
3188480,14
3189108,16
3189736,38
3190360,37
3190992,26
3191612,23
3192244,22
3192876,28
3193496,26
3194128,31
3194756,33
3195388,28
3196020,14
3196640,12
3197272,14
3197896,17
3198520,14
3199152,32
3199772,23
3200404,15
3201032,30
3201648,44
3202276,43
3202900,44
3203528,43
3204156,27
3204776,15
3205404,13
3206028,15
3206656,13
3207288,26
3207904,22
3208532,15
3209156,10
3209780,11
3210408,14
3211024,16
3211656,19
3212280,15
3212904,13
3213532,14
3214156,16
3214784,11
3215416,21
3216032,15
3216660,11
3217284,17
3217912,15
3218540,20
3219160,37
3219792,55
3220416,55
3221040,53
3221668,55
3222288,46
3222916,24
3223544,11
3224168,14
3224796,20
3225420,29
3226052,34
3226680,32
3227304,43
3227932,50
3228556,43
3229188,23
3229816,13
3230436,13
3231064,14
3231688,14
3232312,31
3232940,38
3233560,25
3234188,11
3234812,12
3235440,29
3236068,49
3236692,36
3237324,17
3237952,17
3238572,21
3239200,22
3239824,16
3240452,10
3241084,29
3241704,43
3242332,27
3242956,27
3243580,29
3244212,28
3244832,29
3245460,22
3246092,12
3246712,14
3247340,15
3247968,24
3248596,30
3249228,28
3249848,25
3250476,23
3251104,21
3251728,41
3252356,62
3252976,67
3253604,55
3254228,24
3254856,15
3255484,14
3256104,13
3256732,13
3257364,22
3257984,37
3258612,42
3259236,44
3259868,46
3260500,46
3261120,55
3261752,53
3262376,45
3263000,24
3263632,13
3264252,14
3264880,39
3265504,55
3266128,50
3266756,36
3267376,35
3268004,21
3268636,18
3269256,34
3269884,40
3270512,34
3271140,38
3271772,54
3272392,61
3273024,37
3273648,13
3274272,19
3274900,31
3275520,35
3276152,37
3276776,34
3277400,31
3278028,28
3278644,23
3279276,17
3279904,13
3280520,13
3281148,13
3281768,14
3282396,14
3283028,10
3283648,11
3284276,13
3284896,23
3285516,39
3286148,47
3286768,40
3287396,27
3288016,21
3288640,17
3289268,13
3289888,13
3290516,21
3291144,27
3291760,24
3292388,26
3293012,16
3293640,12
3294268,11
3294888,11
3295516,16
3296140,13
3296768,13
3297396,16
3298016,14
3298644,13
3299264,14
3299884,14
3300516,17
3301136,21
3301764,24
3302388,38
3303012,48
3303640,25
3304264,13
3304892,14
3305520,12
3306136,16
3306768,23
3307392,31
3308020,32
3308648,30
3309272,33
3309900,19
3310524,14
3311148,17
3311776,17
3312400,14
3313028,13
3313652,16
3314276,21
3314904,20
3315528,14
3316156,19
3316788,32
3317408,45
3318036,47
3318660,48
3319292,41
3319920,30
3320536,19
3321168,13
3321792,15
3322412,13
3323044,11
3323664,13
3324292,30
3324916,38
3325540,33
3326172,24
3326796,16
3327424,17
3328056,25
3328668,30
3329296,27
3329916,24
3330548,16
3331176,11
3331792,13
3332424,33
3333048,41
3333668,41
3334300,38
3334920,39
3335548,40
3336172,41
3336796,31
3337424,13
3338040,16
3338672,13
3339300,16
3339920,11
3340548,24
3341172,34
3341800,37
3342428,28
3343048,11
3343676,15
3344300,20
3344924,16
3345552,12
3346168,13
3346800,13
3347420,15
3348044,17
3348672,24
3349296,29
3349924,21
3350552,10
3351176,15
3351804,21
3352428,25
3353060,35
3353688,28
3354312,24
3354940,24
3355564,15
3356188,18
3356816,10
3357440,13
3358068,27
3358692,37
3359316,30
3359948,19
3360568,32
3361196,53
3361824,47
3362440,31
3363072,13
3363692,30
3364324,45
3364952,43
3365568,36
3366196,18
3366820,13
3367444,22
3368072,42
3368688,62
3369316,67
3369940,44
3370560,22
3371192,15
3371808,13
3372436,12
3373068,11
3373688,28
3374316,56
3374940,59
3375572,50
3376200,37
3376816,14
3377448,10
3378068,12
3378696,16
3379324,14
3379940,16
3380572,24
3381192,11
3381816,15
3382444,26
3383064,43
3383692,47
3384316,48
3384936,51
3385568,48
3386192,49
3386820,48
3387452,36
3388072,25
3388700,13
3389324,15
3389956,26
3390584,28
3391204,33
3391832,31
3392456,31
3393080,35
3393708,31
3394328,31
3394956,35
3395580,24
3396208,17
3396836,11
3397460,17
3398088,26
3398720,37
3399336,42
3399964,39
3400588,33
3401220,28
3401848,33
3402464,47
3403092,45
3403716,30
3404340,22
3404972,12
3405588,22
3406220,25
3406844,17
3407468,18
3408096,38
3408720,50
3409348,45
3409976,29
3410592,17
3411224,20
3411848,22
3412476,23
3413104,16
3413728,15
3414356,20
3414984,17
3415608,14
3416236,19
3416856,42
3417484,64
3418112,61
3418736,62
3419364,58
3419988,47
3420620,27
3421252,16
3421872,15
3422500,13
3423124,10
3423752,10
3424380,26
3425000,43
3425628,45
3426252,40
3426876,36
3427508,38
3428128,35
3428756,25
3429388,13
3430008,20
3430640,27
3431260,27
3431892,27
3432520,22
3433144,19
3433772,18
3434396,14
3435020,28
3435652,34
3436272,36
3436900,37
3437524,31
3438148,21
3438780,20
3439400,14
3440028,9
3440600,15
3441232,13
3441860,11
3442480,20
3443108,33
3443740,41
3444360,43
3444988,40
3445612,29
3446240,17
3446872,14
3447488,13
3448116,15
3448740,21
3449364,13
3449996,10
3450616,20
3451244,35
3451868,52
3452492,60
3453124,60
3453744,45
3454372,39
3455004,38
3455624,24
3456256,11
3456876,21
3457508,38
3458136,36
3458752,33
3459384,40
3460004,36
3460628,33
3461260,18
3461880,15
3462508,24
3463132,39
3463756,21
3464384,30
3465008,39
3465636,23
3466264,12
3466888,17
3467516,33
3468140,50
3468772,54
3469404,67
3470024,51
3470652,32
3471280,24
3471904,17
3472532,11
3473152,20
3473780,31
3474408,29
3475032,19
3475660,21
3476280,30
3476912,33
3477540,34
3478160,38
3478792,36
3479416,29
3480044,21
3480676,13
3481296,11
3481928,11
3482548,11
3483172,31
3483800,44
3484424,54
3485052,81
3485676,82
3486300,68
3486928,42
3487552,22
3488180,13
3488808,14
3489432,10
3490060,17
3490684,28
3491312,46
3491944,38
3492560,31
3493192,28
3493816,16
3494440,11
3495068,12
3495688,13
3496316,15
3496940,13
3497564,13
3498196,18
3498820,33
3499452,34
3500080,26
3500704,19
3501336,23
3501960,32
3502592,35
3503220,51
3503840,30
3504472,13
3505092,15
3505720,17
3506348,18
3506968,16
3507600,11
3508220,10
3508848,12
3509476,19
3510100,32
3510732,34
3511364,36
3511984,37
3512616,25
3513240,14
3513864,23
3514492,38
3515112,30
3515744,13
3516368,12
3516992,13
3517624,21
3518240,40
3518872,54
3519500,73
3520120,58
3520752,49
3521376,38
3522004,19
3522632,10
3523256,16
3523884,33
3524508,49
3525132,46
3525760,39
3526376,33
3527008,35
3527632,37
3528256,31
3528884,25
3529504,20
3530132,19
3530764,14
3531384,18
3532012,19
3532636,20
3533268,31
3533900,34
3534520,49
3535148,72
3535772,75
3536396,69
3537028,48
3537648,24
3538276,17
3538900,17
3539524,10
3540156,19
3540776,28
3541404,29
3542036,28
3542656,35
3543284,38
3543908,43
3544540,43
3545168,33
3545792,19
3546420,13
3547044,14
3547668,11
3548300,10
3548920,23
3549548,28
3550172,20
3550800,21
3551428,46
3552048,68
3552676,74
3553308,52
3553928,27
3554556,19
3555180,15
3555812,12
3556444,18
3557064,35
3557696,38
3558320,31
3558944,35
3559576,46
3560196,38
3560824,29
3561448,26
3562072,19
3562704,16
3563320,16
3563952,17
3564584,20
3565200,39
3565828,44
3566452,42
3567084,33
3567716,36
3568336,41
3568964,40
3569588,44
3570212,44
3570844,45
3571464,34
3572092,23
3572716,11
3573344,21
3573972,43
3574600,47
3575228,44
3575860,62
3576480,63
3577108,33
3577736,14
3578364,13
3578996,12
3579616,15
3580248,13
3580872,21
3581496,27
3582128,31
3582748,37
3583376,30
3584008,21
3584628,33
3585260,45
3585884,58
3586512,56
3587140,43
3587760,26
3588388,15
3589012,13
3589640,28
3590268,44
3590888,45
3591516,28
3592140,29
3592768,25
3593396,28
3594016,23
3594644,19
3595276,16
3595896,13
3596524,13
3597152,14
3597780,16
3598412,28
3599032,25
3599664,19
3600288,17
3600912,21
3601540,27
3602160,51
3602788,67
3603412,41
3604036,14
3604668,16
3605288,14
3605916,18
3606544,15
3607160,10
3607792,18
3608416,32
3609044,42
3609672,14
3610296,13
3610924,13
3611544,12
3612168,15
3612800,20
3613416,20
3614044,15
3614668,12
3615292,17
3615924,14
3616544,13
3617172,18
3617804,38
3618424,56
3619052,79
3619676,81
3620308,53
3620936,46
3621552,31
3622184,13
3622808,25
3623432,37
3624060,43
3624680,43
3625308,44
3625932,42
3626556,37
3627184,31
3627808,32
3628436,29
3629068,16
3629688,15
3630316,14
3630940,25
3631572,31
3632204,31
3632824,26
3633452,26
3634076,33
3634700,51
3635332,63
3635952,64
3636580,45
3637204,27
3637828,16
3638456,14
3639080,15
3639708,30
3640340,41
3640960,49
3641588,39
3642212,31
3642844,21
3643476,14
3644096,23
3644724,31
3645352,28
3645976,13
3646604,16
3647224,18
3647852,17
3648480,15
3649100,19
3649732,18
3650352,16
3650980,21
3651612,38
3652232,55
3652860,53
3653484,38
3654116,35
3654744,27
3655368,15
3655996,12
3656624,19
3657248,37
3657876,48
3658496,48
3659124,37
3659752,38
3660376,50
3661008,36
3661624,28
3662252,14
3662884,12
3663504,13
3664136,12
3664760,21
3665388,41
3666020,51
3666640,40
3667268,32
3667892,54
3668516,76
3669148,80
3669768,78
3670400,55
3671020,26
3671648,20
3672276,37
3672904,38
3673536,19
3674164,21
3674784,38
3675416,44
3676040,41
3676672,35
3677300,38
3677920,49
3678552,55
3679176,33
3679800,14
3680432,27
3681052,31
3681680,30
3682308,25
3682928,34
3683556,48
3684184,57
3684812,73
3685444,66
3686064,63
3686696,45
3687316,23
3687940,13
3688572,13
3689192,11
3689820,18
3690444,30
3691068,27
3691696,34
3692312,35
3692940,27
3693564,28
3694192,34
3694820,16
3695444,13
3696076,13
3696704,13
3697320,12
3697952,17
3698576,39
3699204,37
3699832,31
3700452,33
3701080,44
3701704,43
3702328,37
3702956,36
3703576,29
3704208,25
3704832,23
3705456,13
3706088,31
3706712,47
3707340,50
3707972,56
3708592,49
3709224,29
3709848,27
3710472,41
3711100,41
3711720,35
3712352,15
3712976,20
3713596,54
3714228,66
3714848,47
3715476,31
3716108,18
3716728,16
3717356,22
3717980,39
3718612,48
3719244,49
3719864,37
3720492,22
3721116,13
3721740,13
3722372,12
3722992,10
3723620,23
3724248,35
3724872,36
3725500,41
3726120,43
3726748,34
3727380,24
3728000,19
3728628,17
3729252,19
3729884,13
3730512,15
3731132,22
3731760,21
3732388,17
3733012,19
3733640,24
3734264,44
3734896,64
3735520,69
3736144,47
3736772,26
3737392,31
3738024,31
3738652,20
3739272,11
3739900,26
3740528,47
3741156,50
3741788,38
3742408,32
3743036,27
3743664,36
3744288,32
3744916,36
3745536,44
3746164,37
3746792,16
3747416,24
3748044,36
3748664,43
3749292,36
3749924,30
3750544,51
3751172,68
3751800,73
3752428,67
3753060,42
3753680,19
3754308,14
3754932,22
3755560,23
3756188,23
3756808,29
3757436,33
3758064,27
3758688,14
3759320,11
3759944,28
3760576,49
3761208,43
3761824,13
3762456,19
3763080,14
3763712,13
3764340,12
3764960,12
3765588,31
3766216,37
3766840,40
3767472,38
3768088,31
3768720,30
3769348,26
3769968,21
3770596,14
3771220,19
3771852,19
3772484,10
3773104,11
3773736,18
3774360,33
3774984,32
3775616,17
3776232,10
3776864,11
3777488,12
3778112,16
3778740,13
3779360,17
3779988,13
3780620,12
3781240,13
3781868,13
3782492,13
3783124,10
3783756,12
3784376,30
3785008,45
3785632,33
3786256,16
3786884,19
3787504,35
3788136,49
3788760,41
3789384,14
3790016,19
3790632,33
3791264,39
3791892,37
3792512,29
3793140,20
3793768,17
3794396,13
3795028,13
3795648,13
3796276,13
3796904,13
3797528,13
3798160,12
3798776,15
3799408,21
3800032,14
3800656,21
3801284,40
3801904,50
3802536,45
3803164,22
3803784,22
3804416,26
3805040,15
3805668,11
3806300,16
3806920,29
3807552,35
3808176,31
3808800,37
3809432,39
3810052,42
3810680,41
3811304,29
3811928,13
3812560,16
3813176,13
3813808,13
3814436,24
3815056,39
3815684,49
3816308,47
3816940,31
3817572,30
3818192,38
3818824,48
3819448,53
3820072,47
3820704,32
3821320,16
3821952,13
3822576,12
3823200,29
3823832,42
3824456,35
3825088,28
3825716,30
3826336,28
3826968,38
3827592,32
3828224,29
3828856,20
3829472,18
3830104,17
3830728,14
3831352,15
3831984,11
3832604,16
3833236,25
3833864,42
3834488,52
3835120,57
3835744,55
3836376,22
3837008,12
3837628,35
3838260,64
3838884,57
3839508,17
3840144,31
3840760,47
3841388,55
3842012,33
3842636,11
3843264,14
3843880,10
3844508,26
3845140,34
3845760,36
3846388,32
3847012,17
3847644,14
3848276,24
3848896,21
3849524,27
3850148,39
3850776,56
3851404,86
3852024,93
3852652,76
3853276,49
3853900,25
3854532,14
3855152,28
3855784,28
3856412,48
3857032,60
3857660,49
3858284,42
3858916,43
3859544,26
3860164,23
3860792,11
3861416,13
3862040,13
3862668,19
3863288,29
3863916,40
3864544,33
3865168,21
3865796,12
3866416,13
3867044,16
3867676,18
3868296,27
3868924,29
3869548,14
3870180,13
3870812,20
3871432,37
3872064,52
3872684,31
3873308,11
3873940,46
3874560,52
3875188,30
3875816,17
3876440,23
3877068,34
3877688,21
3878320,18
3878948,19
3879568,16
3880200,13
3880824,13
3881452,19
3882084,28
3882704,39
3883336,43
3883960,48
3884584,43
3885216,47
3885832,69
3886464,49
3887088,30
3887712,21
3888344,16
3888968,11
3889596,25
3890228,38
3890848,46
3891480,50
3892104,54
3892732,53
3893364,44
3893984,43
3894612,31
3895236,13
3895860,20
3896492,30
3897112,35
3897740,41
3898364,38
3898992,23
3899620,17
3900248,27
3900876,39
3901508,43
3902128,33
3902760,34
3903384,23
3904008,16
3904636,22
3905256,16
3905884,13
3906512,14
3907136,11
3907768,10
3908384,10
3909016,23
3909644,39
3910264,37
3910896,30
3911520,32
3912152,33
3912780,19
3913400,14
3914032,13
3914656,28
3915280,43
3915912,33
3916528,18
3917160,15
3917784,31
3918408,49
3919036,67
3919656,67
3920288,51
3920916,26
3921536,15
3922168,30
3922792,34
3923420,24
3924052,19
3924672,21
3925300,30
3925928,33
3926552,37
3927184,47
3927800,30
3928432,13
3929056,13
3929680,13
3930308,22
3930928,17
3931560,16
3932188,23
3932808,16
3933436,21
3934060,50
3934692,65
3935320,65
3935944,77
3936576,66
3937200,43
3937824,17
3938452,13
3939072,9
3939652,16
3940280,41
3940904,48
3941532,40
3942152,29
3942784,26
3943408,36
3944028,49
3944660,40
3945284,17
3945912,13
3946540,14
3947160,26
3947792,29
3948416,21
3949044,28
3949676,34
3950296,37
3950928,40
3951552,42
3952176,47
3952804,26
3953424,29
3954052,34
3954676,25
3955304,17
3955932,10
3956556,20
3957188,38
3957816,52
3958440,59
3959068,39
3959692,30
3960324,26
3960956,21
3961576,14
3962208,14
3962832,15
3963456,13
3964084,15
3964704,24
3965336,26
3965964,24
3966584,19
3967216,15
3967840,32
3968472,51
3969100,77
3969720,64
3970348,39
3970972,14
3971596,24
3972228,26
3972848,27
3973476,34
3974100,41
3974724,35
3975356,42
3975976,50
3976608,56
3977236,57
3977856,52
3978484,37
3979108,16
3979740,74
3980372,86
3980992,80
3981620,57
3982244,60
3982872,43
3983500,33
3984120,37
3984748,49
3985372,57
3986000,49
3986628,32
3987248,25
3987876,19
3988508,16
3989128,11
3989756,22
3990384,37
3991016,42
3991648,30
3992268,31
3992896,24
3993524,28
3994148,32
3994780,24
3995400,15
3996028,15
3996652,17
3997280,18
3997908,13
3998532,10
3999164,13
3999796,12
4000416,21
4001044,59
4001668,82
4002300,81
4002928,61
4003544,40
4004176,24
4004796,15
4005420,12
4006052,16
4006672,29
4007300,39
4007924,35
4008548,33
4009180,32
4009804,29
4010432,23
4011060,18
4011680,19
4012308,15
4012932,14
4013564,13
4014196,10
4014816,13
4015444,15
4016068,12
4016692,11
4017320,16
4017936,23
4018568,31
4019192,72
4019816,89
4020444,61
4021068,29
4021700,14
4022328,10
4022952,25
4023580,43
4024208,48
4024836,41
4025464,35
4026088,25
4026716,20
4027340,25
4027964,25
4028596,16
4029216,14
4029844,14
4030476,17
4031096,31
4031728,29
4032352,32
4032980,21
4033612,20
4034232,21
4034860,13
4035484,27
4036108,55
4036740,66
4037360,59
4037988,50
4038612,38
4039236,18
4039868,12
4040488,24
4041116,30
4041748,32
4042368,40
4042996,56
4043624,58
4044252,54
4044884,48
4045504,27
4046132,15
4046756,23
4047380,29
4048008,28
4048632,28
4049260,34
4049884,34
4050512,31
4051140,38
4051760,46
4052388,52
4053020,44
4053640,22
4054272,13
4054896,19
4055524,21
4056156,30
4056776,31
4057408,27
4058032,25
4058656,19
4059284,12
4059904,11
4060536,22
4061160,20
4061784,15
4062412,16
4063032,21
4063664,15
4064296,10
4064912,18
4065544,20
4066168,15
4066796,25
4067428,44
4068048,43
4068676,53
4069304,59
4069928,50
4070556,39
4071176,27
4071808,13
4072432,14
4073056,25
4073684,32
4074312,32
4074940,38
4075572,19
4076192,11
4076820,17
4077444,31
4078076,37
4078708,14
4079328,15
4079960,15
4080584,12
4081208,20
4081836,13
4082456,17
4083088,17
4083716,30
4084336,48
4084968,59
4085592,59
4086224,41
4086852,39
4087472,30
4088104,15
4088728,26
4089352,26
4089984,24
4090600,24
4091232,25
4091856,25
4092480,37
4093112,45
4093732,36
4094364,23
4094996,26
4095616,15
4096252,12
4096872,13
4097500,11
4098128,10
4098744,13
4099372,26
4099992,45
4100612,55
4101244,64
4101860,74
4102492,64
4103112,37
4103736,14
4104364,12
4104980,13
4105612,15
4106232,25
4106856,33
4107484,32
4108108,20
4108736,21
4109364,32
4109984,47
4110612,39
4111236,30
4111864,18
4112492,14
4113112,25
4113740,31
4114364,16
4114988,18
4115616,35
4116232,35
4116864,37
4117484,48
4118108,58
4118736,54
4119360,29
4119988,33
4120620,30
4121240,16
4121868,15
4122492,20
4123120,41
4123748,46
4124368,39
4124996,31
4125620,26
4126244,27
4126872,29
4127488,23
4128116,23
4128740,20
4129364,14
4129992,13
4130608,12
4131236,18
4131864,24
4132488,31
4133116,42
4133740,41
4134372,50
4135000,62
4135624,65
4136252,45
4136876,37
4137500,32
4138132,18
4138752,12
4139380,22
4140004,37
4140628,45
4141256,45
4141880,39
4142508,39
4143140,38
4143760,37
4144388,31
4145012,19
4145644,15
4146272,12
4146888,15
4147520,14
4148144,19
4148764,17
4149396,14
4150016,35
4150644,48
4151268,49
4151892,51
4152524,40
4153144,18
4153772,13
4154404,16
4155024,14
4155652,19
4156276,28
4156908,23
4157536,19
4158160,21
4158788,16
4159412,15
4160036,16
4160664,18
4161284,19
4161912,13
4162536,13
4163160,13
4163788,18
4164408,30
4165036,33
4165664,30
4166288,30
4166916,27
4167540,47
4168168,51
4168796,44
4169416,38
4170044,38
4170668,23
4171292,22
4171920,19
4172540,13
4173168,23
4173792,35
4174416,34
4175044,31
4175664,43
4176292,44
4176924,30
4177544,30
4178172,29
4178796,23
4179424,16
4180056,13
4180672,21
4181300,18
4181924,19
4182548,13
4183176,10
4183792,21
4184424,36
4185048,65
4185668,81
4186300,39
4186920,13
4187548,13
4188176,23
4188800,23
4189428,10
4190052,24
4190680,19
4191312,14
4191928,21
4192560,24
4193184,24
4193808,36
4194436,40
4195056,35
4195684,25
4196308,19
4196932,13
4197564,20
4198184,15
4198816,14
4199444,18
4200064,45
4200692,73
4201316,81
4201944,89
4202572,78
4203192,41
4203820,13
4204444,15
4205068,12
4205696,21
4206320,37
4206948,43
4207572,44
4208196,43
4208824,35
4209448,29
4210076,26
4210704,27
4211328,26
4211956,21
4212580,13
4213212,15
4213840,20
4214456,22
4215088,27
4215712,24
4216336,29
4216964,32
4217584,35
4218216,41
4218840,49
4219464,47
4220092,41
4220712,29
4221340,13
4221972,25
4222592,43
4223220,54
4223848,60
4224476,51
4225108,34
4225728,23
4226356,21
4226980,11
4227604,12
4228232,13
4228848,13
4229480,20
4230104,13
4230728,39
4231356,46
4231976,42
4232604,39
4233236,41
4233856,51
4234484,57
4235108,56
4235740,47
4236368,20
4236992,15
4237620,13
4238244,13
4238868,17
4239500,26
4240120,32
4240748,27
4241372,19
4241996,23
4242624,28
4243248,34
4243876,31
4244508,28
4245128,23
4245756,18
4246380,16
4247012,11
4247644,14
4248264,25
4248892,33
4249516,51
4250144,51
4250772,50
4251392,51
4252020,58
4252644,51
4253268,35
4253900,14
4254520,16
4255148,25
4255780,38
4256400,40
4257028,39
4257652,33
4258280,26
4258912,16
4259528,12
4260160,17
4260780,23
4261404,27
4262036,37
4262656,40
4263284,15
4263908,13
4264532,21
4265160,12
4265776,39
4266408,35
4267036,38
4267656,67
4268284,99
4268908,98
4269536,63
4270168,40
4270784,34
4271416,16
4272040,24
4272660,37
4273292,54
4273912,60
4274544,61
4275168,67
4275792,56
4276420,27
4277040,23
4277668,19
4278300,12
4278920,16
4279548,15
4280176,11
4280804,15
4281432,45
4282056,64
4282684,60
4283308,62
4283932,64
4284564,62
4285184,59
4285812,48
4286436,33
4287060,34
4287692,34
4288312,13
4288940,36
4289572,57
4290192,57
4290820,39
4291444,31
4292076,23
4292704,25
4293324,41
4293952,54
4294576,45
4295200,25
4295828,16
4296448,19
4297076,38
4297700,38
4298324,43
4298956,38
4299576,34
4300208,37
4300836,46
4301456,49
4302084,53
4302704,30
4303336,21
4303964,17
4304584,13
4305212,18
4305836,38
4306460,47
4307092,48
4307712,41
4308340,36
4308964,33
4309588,28
4310220,30
4310840,32
4311468,15
4312100,14
4312720,13
4313348,14
4313976,19
4314604,21
4315236,26
4315856,44
4316484,60
4317108,64
4317736,60
4318364,71
4318984,73
4319616,43
4320240,19
4320864,18
4321492,29
4322116,29
4322744,43
4323372,51
4323992,59
4324620,46
4325244,23
4325876,16
4326504,13
4327120,11
4327752,16
4328376,17
4329000,13
4329628,14
4330248,25
4330876,29
4331500,25
4332124,15
4332756,11
4333380,16
4334012,46
4334640,55
4335264,46
4335896,27
4336520,14
4337148,16
4337780,14
4338400,22
4339028,22
4339656,13
4340280,16
4340908,31
4341528,44
4342160,43
4342780,16
4343408,24
4344036,42
4344660,27
4345292,13
4345920,19
4346544,29
4347176,28
4347800,17
4348424,13
4349052,12
4349672,13
4350300,17
4350928,31
4351552,44
4352184,48
4352800,41
4353428,28
4354056,20
4354680,19
4355308,10
4355932,15
4356560,19
4357192,14
4357808,11
4358440,28
4359060,41
4359688,53
4360316,47
4360936,15
4361564,20
4362192,13
4362816,13
4363444,10
4364064,10
4364692,12
4365324,22
4365944,30
4366572,24
4367196,42
4367828,60
4368460,80
4369080,70
4369708,55
4370332,39
4370956,20
4371588,19
4372208,35
4372836,40
4373460,41
4374084,46
4374716,48
4375336,41
4375968,47
4376596,30
4377216,12
4377848,16
4378472,21
4379100,20
4379732,14
4380352,18
4380984,21
4381608,11
4382228,16
4382860,38
4383480,57
4384108,61
4384732,61
4385356,54
4385988,34
4386608,23
4387236,13
4387868,21
4388488,40
4389116,59
4389744,47
4390372,25
4391004,16
4391624,22
4392256,19
4392880,25
4393504,25
4394136,22
4394752,18
4395384,15
4396008,13
4396632,14
4397264,14
4397880,14
4398512,12
4399144,17
4399760,34
4400392,69
4401016,70
4401648,51
4402276,48
4402896,37
4403528,19
4404148,13
4404772,15
4405404,13
4406024,11
4406652,14
4407276,31
4407900,36
4408532,25
4409156,27
4409788,39
4410416,40
4411036,40
4411664,31
4412288,23
4412916,15
4413548,10
4414168,15
4414796,30
4415424,43
4416048,35
4416676,20
4417296,25
4417924,58
4418548,72
4419176,69
4419804,58
4420428,43
4421060,20
4421692,12
4422312,31
4422944,47
4423568,47
4424200,35
4424828,16
4425448,14
4426076,24
4426700,39
4427324,47
4427956,50
4428576,36
4429208,14
4429836,31
4430456,31
4431084,30
4431708,33
4432340,30
4432968,31
4433592,32
4434224,37
4434848,53
4435472,62
4436100,51
4436720,25
4437348,13
4437972,14
4438600,10
4439228,26
4439848,33
4440480,43
4441108,38
4441728,29
4442356,25
4442980,29
4443612,18
4444244,16
4444864,15
4445492,15
4446116,13
4446740,11
4447372,10
4447992,9
4448572,12
4449200,18
4449824,17
4450452,42
4451072,77
4451704,80
4452328,52
4452952,37
4453584,23
4454200,16
4454832,16
4455464,19
4456080,12
4456712,11
4457336,21
4457964,28
4458596,34
4459216,45
4459844,49
4460472,21
4461096,17
4461728,27
4462344,19
4462976,15
4463600,24
4464224,21
4464856,26
4465476,39
4466108,47
4466740,50
4467360,58
4467988,55
4468616,57
4469244,41
4469876,16
4470496,13
4471124,12
4471752,11
4472376,27
4473008,37
4473624,42
4474256,47
4474888,40
4475504,32
4476136,33
4476760,34
4477392,30
4478024,30
4478644,20
4479276,14
4479900,29
4480528,38
4481156,40
4481776,53
4482404,54
4483028,43
4483652,42
4484284,42
4484904,37
4485532,25
4486164,16
4486784,15
4487412,13
4488036,12
4488664,10
4489296,15
4489912,20
4490544,18
4491168,25
4491792,27
4492424,26
4493040,29
4493668,23
4494292,17
4494916,12
4495548,12
4496168,15
4496796,14
4497428,14
4498048,13
4498676,10
4499300,20
4499932,35
4500564,56
4501184,59
4501816,63
4502440,48
4503064,36
4503696,25
4504312,40
4504944,29
4505568,13
4506192,31
4506824,47
4507440,59
4508068,63
4508700,52
4509320,51
4509948,46
4510572,24
4511204,12
4511832,19
4512452,15
4513080,12
4513704,10
4514328,19
4514956,33
4515576,54
4516208,57
4516828,59
4517452,66
4518084,66
4518704,53
4519332,44
4519964,30
4520584,24
4521212,13
4521836,35
4522468,48
4523096,44
4523720,42
4524348,35
4524976,18
4525596,19
4526228,28
4526848,37
4527476,47
4528100,41
4528724,31
4529356,20
4529976,13
4530604,28
4531236,33
4531856,26
4532484,15
4533108,44
4533740,61
4534372,47
4534992,48
4535624,47
4536248,43
4536872,43
4537500,35
4538120,33
4538752,13
4539376,23
4540000,53
4540628,63
4541256,58
4541884,47
4542516,46
4543136,34
4543768,28
4544392,23
4545020,13
4545652,16
4546272,15
4546904,27
4547524,39
4548148,40
4548780,28
4549400,21
4550028,27
4550656,38
4551280,63
4551912,70
4552536,56
4553164,37
4553796,17
4554416,13
4555044,11
4555672,13
4556296,17
4556928,18
4557544,22
4558172,26
4558800,28
4559424,17
4560052,10
4560672,25
4561300,32
4561932,20
4562552,17
4563184,18
4563808,13
4564436,11
4565068,16
4565688,21
4566320,30
4566944,38
4567568,39
4568200,36
4568816,58
4569444,55
4570072,45
4570696,31
4571324,20
4571944,10
4572576,24
4573204,42
4573824,49
4574456,53
4575080,32
4575712,23
4576344,25
4576960,27
4577588,21
4578216,14
4578840,13
4579472,12
4580088,11
4580720,13
4581344,17
4581968,16
4582600,13
4583216,25
4583844,51
4584476,70
4585096,77
4585728,55
4586352,22
4586984,19
4587616,23
4588232,18
4588860,12
4589484,41
4590108,66
4590740,64
4591360,51
4591988,37
4592616,40
4593240,25
4593868,12
4594488,16
4595116,13
4595748,17
4596368,21
4597000,27
4597624,32
4598252,26
4598884,14
4599504,18
4600136,27
4600760,45
4601384,64
4602016,73
4602632,59
4603264,40
4603888,18
4604512,13
4605144,16
4605768,27
4606396,42
4607028,41
4607648,35
4608280,35
4608904,28
4609532,25
4610160,34
4610784,37
4611412,19
4612036,21
4612660,25
4613288,15
4613904,24
4614536,41
4615160,45
4615784,46
4616412,39
4617036,23
4617664,27
4618296,30
4618912,40
4619540,70
4620164,65
4620796,42
4621428,20
4622048,14
4622676,21
4623300,32
4623928,38
4624556,36
4625176,32
4625804,37
4626428,36
4627056,37
4627688,28
4628308,16
4628940,12
4629568,12
4630192,12
4630820,11
4631448,11
4632072,22
4632700,22
4633320,37
4633952,49
4634572,49
4635196,57
4635828,54
4636448,48
4637076,43
4637708,30
4638328,18
4638960,11
4639584,29
4640212,46
4640844,44
4641464,42
4642092,43
4642716,57
4643340,51
4643968,42
4644592,38
4645220,28
4645844,13
4646468,29
4647100,28
4647720,25
4648348,51
4648980,70
4649600,63
4650228,57
4650852,63
4651484,60
4652112,51
4652736,27
4653368,15
4653992,16
4654616,21
4655244,22
4655864,31
4656496,40
4657120,43
4657744,45
4658372,36
4658992,38
4659624,29
4660252,22
4660872,17
4661500,13
4662124,17
4662756,18
4663388,22
4664008,30
4664636,40
4665260,37
4665888,25
4666516,14
4667136,23
4667768,37
4668392,53
4669016,52
4669648,43
4670264,27
4670892,13
4671524,14
4672144,14
4672772,16
4673396,30
4674028,26
4674656,14
4675272,11
4675904,21
4676528,37
4677152,36
4677780,32
4678400,21
4679028,13
4679652,15
4680280,25
4680908,24
4681528,25
4682156,19
4682788,11
4683408,11
4684040,21
4684664,53
4685292,90
4685924,78
4686544,60
4687172,39
4687800,19
4688424,13
4689052,27
4689672,44
4690300,54
4690928,48
4691552,31
4692180,27
4692804,29
4693436,31
4694068,36
4694688,30
4695320,19
4695944,13
4696576,21
4697204,34
4697824,43
4698452,36
4699080,35
4699704,33
4700336,42
4700952,55
4701584,54
4702212,45
4702832,35
4703464,21
4704088,14
4704716,27
4705348,38
4705968,46
4706600,59
4707224,50
4707848,39
4708480,38
4709096,46
4709728,45
4710356,25
4710980,20
4711612,42
4712232,31
4712860,12
4713492,14
4714112,13
4714744,15
4715368,24
4716000,31
4716628,37
4717248,54
4717880,64
4718504,74
4719128,50
4719760,28
4720376,12
4721008,13
4721632,11
4722256,14
4722884,9
4723452,11
4724084,10
4724708,21
4725332,29
4725964,41
4726584,44
4727212,35
4727844,26
4728464,17
4729092,18
4729720,19
4730348,11
4730980,36
4731600,63
4732232,53
4732856,41
4733480,44
4734112,49
4734728,58
4735360,62
4735984,47
4736612,31
4737240,13
4737864,18
4738492,22
4739124,32
4739744,37
4740376,37
4741000,40
4741632,32
4742260,27
4742880,28
4743508,31
4744136,35
4744760,29
4745388,18
4746008,15
4746640,13
4747272,24
4747888,28
4748520,19
4749144,30
4749776,43
4750404,48
4751024,52
4751656,60
4752280,55
4752904,43
4753532,24
4754152,14
4754784,25
4755408,27
4756032,19
4756660,13
4757280,23
4757908,34
4758540,30
4759160,45
4759792,55
4760416,47
4761048,21
4761676,12
4762296,18
4762924,27
4763548,28
4764172,30
4764804,26
4765424,19
4766056,11
4766680,45
4767304,82
4767936,100
4768608,89
4769228,76
4769860,67
4770480,69
4771112,56
4771736,22
4772360,17
4772988,32
4773608,42
4774240,49
4774864,53
4775488,43
4776120,27
4776736,21
4777368,21
4777996,13
4778616,14
4779248,13
4779872,12
4780504,25
4781132,20
4781752,24
4782384,48
4783008,47
4783632,53
4784264,55
4784884,54
4785512,38
4786140,23
4786764,13
4787396,25
4788016,31
4788648,37
4789276,39
4789896,33
4790528,26
4791152,20
4791784,17
4792416,20
4793036,26
4793664,25
4794288,15
4794916,13
4795544,14
4796168,19
4796800,23
4797424,27
4798048,24
4798680,39
4799304,45
4799936,43
4800568,48
4801192,58
4801820,50
4802444,36
4803076,26
4803704,18
4804328,14
4804956,19
4805580,29
4806208,45
4806836,63
4807456,64
4808088,50
4808716,28
4809336,17
4809964,19
4810592,23
4811220,16
4811852,12
4812472,14
4813104,21
4813728,30
4814352,35
4814980,35
4815600,30
4816228,21
4816852,23
4817476,21
4818108,13
4818728,19
4819356,19
4819988,44
4820608,51
4821236,33
4821860,11
4822492,14
4823124,11
4823744,16
4824372,32
4825000,35
4825624,27
4826252,26
4826872,27
4827504,25
4828128,31
4828752,34
4829384,23
4830000,15
4830632,11
4831264,25
4831884,27
4832516,49
4833140,78
4833772,92
4834400,90
4835016,83
4835648,57
4836272,35
4836896,19
4837524,14
4838144,21
4838776,24
4839400,30
4840024,42
4840652,51
4841272,52
4841900,44
4842532,28
4843152,15
4843784,21
4844408,21
4845036,18
4845668,13
4846288,32
4846920,38
4847544,28
4848168,11
4848796,11
4849416,28
4850048,51
4850672,61
4851296,63
4851924,48
4852552,23
4853180,13
4853812,16
4854432,16
4855060,11
4855684,11
4856316,16
4856948,22
4857568,23
4858200,19
4858824,23
4859448,33
4860080,37
4860696,29
4861328,22
4861960,13
4862580,13
4863208,11
4863836,11
4864468,12
4865096,10
4865720,12
4866348,21
4866972,46
4867596,63
4868228,76
4868848,67
4869476,51
4870100,33
4870728,15
4871356,18
4871976,15
4872608,15
4873236,44
4873856,65
4874488,51
4875112,41
4875744,50
4876372,43
4876992,30
4877620,13
4878244,19
4878868,19
4879500,16
4880120,29
4880748,33
4881372,27
4881996,19
4882628,34
4883248,47
4883876,53
4884508,57
4885128,45
4885756,19
4886384,24
4887012,41
4887644,16
4888264,25
4888896,39
4889520,46
4890144,39
4890776,34
4891392,23
4892024,13
4892648,14
4893272,12
4893904,11
4894520,14
4895152,25
4895784,15
4896404,12
4897032,10
4897660,13
4898288,27
4898920,29
4899536,27
4900168,45
4900792,55
4901416,59
4902048,65
4902668,49
4903300,30
4903924,19
4904548,11
4905180,25
4905804,36
4906436,34
4907068,22
4907688,16
4908320,17
4908944,25
4909576,35
4910208,39
4910828,30
4911456,27
4912084,25
4912708,13
4913340,15
4913960,14
4914592,16
4915224,31
4915848,45
4916476,49
4917100,55
4917728,54
4918360,48
4918976,29
4919604,19
4920228,13
4920852,12
4921484,10
4922104,19
4922732,43
4923356,58
4923980,54
4924612,37
4925232,12
4925860,12
4926492,20
4927112,21
4927744,13
4928368,14
4928996,17
4929624,35
4930248,31
4930876,22
4931500,27
4932124,29
4932752,14
4933376,13
4934004,25
4934628,52
4935252,62
4935884,57
4936504,40
4937132,21
4937764,12
4938384,24
4939012,31
4939640,33
4940268,31
4940900,26
4941520,21
4942148,25
4942772,28
4943396,34
4944028,36
4944648,31
4945276,13
4945900,17
4946528,21
4947156,14
4947780,23
4948412,33
4949044,24
4949664,26
4950296,41
4950920,55
4951552,56
4952180,50
4952800,32
4953428,25
4954056,21
4954680,14
4955312,58
4955928,63
4956560,34
4957188,19
4957808,19
4958436,16
4959064,21
4959692,26
4960324,12
4960944,15
4961572,13
4962196,15
4962824,29
4963452,28
4964072,17
4964700,13
4965324,12
4965948,20
4966580,50
4967200,64
4967828,65
4968460,53
4969080,36
4969708,21
4970332,20
4970964,21
4971592,13
4972212,38
4972840,51
4973464,45
4974088,41
4974716,40
4975336,41
4975968,44
4976592,36
4977216,21
4977844,14
4978464,14
4979092,23
4979724,26
4980344,23
4980972,26
4981596,25
4982228,25
4982860,24
4983480,37
4984112,49
4984736,52
4985360,37
4985992,21
4986608,15
4987240,13
4987864,17
4988488,21
4989116,28
4989736,31
4990368,16
4991000,21
4991616,30
4992252,31
4992872,31
4993504,27
4994136,13
4994752,14
4995380,12
4996008,13
4996632,11
4997260,13
4997880,25
4998508,30
4999132,25
4999756,28
5000388,34
5001008,36
5001636,43
5002268,33
5002888,17
5003516,18
5004144,37
5004772,48
5005404,27
5006024,16
5006656,31
5007280,41
5007904,48
5008536,45
5009152,49
5009784,32
5010408,25
5011032,25
5011664,21
5012280,16
5012912,11
5013544,31
5014160,55
5014792,65
5015416,69
5016048,59
5016680,60
5017296,61
5017928,49
5018552,33
5019176,25
5019808,15
5020424,16
5021056,23
5021680,22
5022304,25
5022936,37
5023560,40
5024192,37
5024820,32
5025440,39
5026068,37
5026692,32
5027324,29
5027956,34
5028576,27
5029204,16
5029832,11
5030456,11
5031084,20
5031704,26
5032336,34
5032964,61
5033584,81
5034216,76
5034840,62
5035472,44
5036104,35
5036724,22
5037356,19
5037980,12
5038608,24
5039236,36
5039856,36
5040488,39
5041112,40
5041736,32
5042368,27
5042984,33
5043616,41
5044248,19
5044864,16
5045496,19
5046120,22
5046752,31
5047380,27
5048000,23
5048628,22
5049256,28
5049880,52
5050512,67
5051128,60
5051760,45
5052384,26
5053008,22
5053640,14
5054256,18
5054888,36
5055520,40
5056140,57
5056768,55
5057392,46
5058024,43
5058656,37
5059276,33
5059904,30
5060528,31
5061152,18
5061784,14
5062400,44
5063032,63
5063656,57
5064284,54
5064912,50
5065536,53
5066168,48
5066800,45
5067420,54
5068052,57
5068676,31
5069308,15
5069940,13
5070560,21
5071192,28
5071816,35
5072440,42
5073072,45
5073692,40
5074324,32
5074956,21
5075576,17
5076208,21
5076832,16
5077464,13
5078096,14
5078712,13
5079348,20
5079972,23
5080596,29
5081228,40
5081848,36
5082476,29
5083104,34
5083728,34
5084360,37
5084976,47
5085608,33
5086236,17
5086856,12
5087488,27
5088112,43
5088744,43
5089372,45
5089992,40
5090624,34
5091248,26
5091872,22
5092504,13
5093120,10
5093752,13
5094376,13
5095004,13
5095636,13
5096260,14
5096892,17
5097524,20
5098144,24
5098776,39
5099400,47
5100032,51
5100664,59
5101284,69
5101916,54
5102540,27
5103168,18
5103800,18
5104420,12
5105052,24
5105684,36
5106304,39
5106936,44
5107560,47
5108192,29
5108824,22
5109444,31
5110076,30
5110700,29
5111324,31
5111960,15
5112580,15
5113212,31
5113836,36
5114464,23
5115096,11
5115720,31
5116356,48
5116988,52
5117608,66
5118240,59
5118868,36
5119496,20
5120132,17
5120748,13
5121376,18
5122000,37
5122620,49
5123252,58
5123872,53
5124500,34
5125128,22
5125744,11
5126372,10
5126996,13
5127628,12
5128256,13
5128872,12
5129500,10
5130124,20
5130756,27
5131384,36
5132004,41
5132632,37
5133256,45
5133880,53
5134508,50
5135128,36
5135756,17
5136384,12
5137008,13
5137636,11
5138260,31
5138888,46
5139520,51
5140136,41
5140764,23
5141388,17
5142020,22
5142648,18
5143272,13
5143900,13
5144524,15
5145148,13
5145780,30
5146400,37
5147028,29
5147656,11
5148280,11
5148908,16
5149532,22
5150164,64
5150792,81
5151416,77
5152048,57
5152668,28
5153292,13
5153920,21
5154544,23
5155172,23
5155800,39
5156424,47
5157052,44
5157672,49
5158304,52
5158932,44
5159552,30
5160184,21
5160808,38
5161436,13
5162068,14
5162688,23
5163316,35
5163940,35
5164564,33
5165196,28
5165816,21
5166444,37
5167068,56
5167692,62
5168324,52
5168944,32
5169572,13
5170204,12
5170824,15
5171456,25
5172076,29
5172708,39
5173336,41
5173960,45
5174588,43
5175212,48
5175836,36
5176468,18
5177088,13
5177716,25
5178340,26
5178964,22
5179596,30
5180216,35
5180844,18
5181476,10
5182096,10
5182724,25
5183348,47
5183980,54
5184612,50
5185232,41
5185860,33
5186484,31
5187108,18
5187740,10
5188360,11
5188988,13
5189612,26
5190236,37
5190868,43
5191492,29
5192124,24
5192756,20
5193376,25
5194008,23
5194632,17
5195260,18
5195892,12
5196512,13
5197144,18
5197768,22
5198392,25
5199024,38
5199644,58
5200272,68
5200904,63
5201520,46
5202148,33
5202772,31
5203404,20
5204032,12
5204648,19
5205280,46
5205904,65
5206532,63
5207164,56
5207784,53
5208416,46
5209036,22
5209664,11
5210292,14
5210912,22
5211540,23
5212172,24
5212792,17
5213424,13
5214048,22
5214680,19
5215308,10
5215928,12
5216560,26
5217184,57
5217808,86
5218436,79
5219056,62
5219688,37
5220312,13
5220936,24
5221568,31
5222188,43
5222816,38
5223448,31
5224064,36
5224692,30
5225316,37
5225948,33
5226576,16
5227200,13
5227828,15
5228452,14
5229076,20
5229708,22
5230328,18
5230960,18
5231584,17
5232208,29
5232836,43
5233456,65
5234088,78
5234716,60
5235336,27
5235968,17
5236592,15
5237224,26
5237852,10
5238472,22
5239104,29
5239728,37
5240352,39
5240984,35
5241600,29
5242228,31
5242856,48
5243480,55
5244108,28
5244728,18
5245356,13
5245988,13
5246608,20
5247236,30
5247860,36
5248492,47
5249120,57
5249736,73
5250364,68
5250988,62
5251612,43
5252240,19
5252856,14
5253484,20
5254108,17
5254728,24
5255360,40
5255976,56
5256604,57
5257236,50
5257856,28
5258484,14
5259108,12
5259736,19
5260368,12
5260984,24
5261616,26
5262236,28
5262860,12
5263492,31
5264112,32
5264740,35
5265364,49
5265988,66
5266616,83
5267232,81
5267860,55
5268492,39
5269112,39
5269740,36
5270364,20
5270996,13
5271624,38
5272248,54
5272876,57
5273504,56
5274128,43
5274756,32
5275376,27
5276004,19
5276628,26
5277252,21
5277884,13
5278504,13
5279132,19
5279764,24
5280384,24
5281012,28
5281636,31
5282264,35
5282892,40
5283512,41
5284140,48
5284764,50
5285388,38
5286016,26
5286632,13
5287264,17
5287884,40
5288508,58
5289136,48
5289760,43
5290388,42
5291016,25
5291640,29
5292268,34
5292892,24
5293520,14
5294152,13
5294768,14
5295396,18
5296020,29
5296644,39
5297272,39
5297896,33
5298524,31
5299152,43
5299776,51
5300404,49
5301024,43
5301652,30
5302284,36
5302904,37
5303532,23
5304160,12
5304788,34
5305420,63
5306040,67
5306668,36
5307292,16
5307916,18
5308548,31
5309168,25
5309796,12
5310420,12
5311044,13
5311676,12
5312296,16
5312924,10
5313556,10
5314176,27
5314804,39
5315428,36
5316060,40
5316688,55
5317312,68
5317940,73
5318568,63
5319188,50
5319820,23
5320440,13
5321068,21
5321692,47
5322316,64
5322948,62
5323568,50
5324200,29
5324828,14
5325444,14
5326072,14
5326696,19
5327324,17
5327956,14
5328576,21
5329204,12
5329828,20
5330452,14
5331080,13
5331696,16
5332328,19
5332952,25
5333572,45
5334204,62
5334824,72
5335452,56
5336084,38
5336704,21
5337332,19
5337956,27
5338588,23
5339216,28
5339832,32
5340464,38
5341088,39
5341712,36
5342340,31
5342960,22
5343588,16
5344212,15
5344836,13
5345468,12
5346088,10
5346716,11
5347344,20
5347968,26
5348596,15
5349220,18
5349852,43
5350480,63
5351096,68
5351728,58
5352352,32
5352976,13
5353604,20
5354224,16
5354852,12
5355476,27
5356104,37
5356732,23
5357352,13
5357984,14
5358612,28
5359232,29
5359864,20
5360488,22
5361116,17
5361748,14
5362368,25
5362996,22
5363624,16
5364244,16
5364876,20
5365496,29
5366128,50
5366748,57
5367372,67
5368004,62
5368624,39
5369252,19
5369884,12
5370504,13
5371132,16
5371756,32
5372388,46
5373020,54
5373640,52
5374268,23
5374896,15
5375520,25
5376152,18
5376768,12
5377396,14
5378020,14
5378640,15
5379272,11
5379888,16
5380516,22
5381148,23
5381768,33
5382396,45
5383020,52
5383652,54
5384280,60
5384904,69
5385532,50
5386156,25
5386784,15
5387412,14
5388032,40
5388660,51
5389284,56
5389908,49
5390540,30
5391160,20
5391792,15
5392420,11
5393040,12
5393668,11
5394292,13
5394924,13
5395552,12
5396176,12
5396804,18
5397428,21
5398052,15
5398684,20
5399304,35
5399936,47
5400560,61
5401184,65
5401812,35
5402436,12
5403068,13
5403696,22
5404320,17
5404948,10
5405572,28
5406204,38
5406836,40
5407456,41
5408084,33
5408708,33
5409332,26
5409960,17
5410576,15
5411204,17
5411828,14
5412452,11
5413084,10
5413708,19
5414336,25
5414968,17
5415588,10
5416216,14
5416840,42
5417468,43
5418100,40
5418720,52
5419348,52
5419976,30
5420600,17
5421228,11
5421848,17
5422476,48
5423100,58
5423728,53
5424360,33
5424984,17
5425612,22
5426244,22
5426864,14
5427496,17
5428120,16
5428740,13
5429372,10
5429992,10
5430620,13
5431244,30
5431868,38
5432500,52
5433120,61
5433748,71
5434380,80
5435000,70
5435632,43
5436256,14
5436884,17
5437516,24
5438136,38
5438768,48
5439392,46
5440016,46
5440644,40
5441264,25
5441892,22
5442516,31
5443140,43
5443768,29
5444388,14
5445016,15
5445644,16
5446264,14
5446892,18
5447516,29
5448148,50
5448776,58
5449396,57
5450024,60
5450648,70
5451272,65
5451900,34
5452520,19
5453148,15
5453772,13
5454396,13
5455028,38
5455648,43
5456276,31
5456908,26
5457528,28
5458156,26
5458780,35
5459412,42
5460040,36
5460656,24
5461288,21
5461912,15
5462536,11
5463164,12
5463784,11
5464412,12
5465036,17
5465664,28
5466292,46
5466912,87
5467540,115
5468224,73
5468840,33
5469468,17
5470092,12
5470724,18
5471352,31
5471972,37
5472604,31
5473228,30
5473852,33
5474484,37
5475104,27
5475736,18
5476364,15
5476984,11
5477612,12
5478240,15
5478872,19
5479500,10
5480120,11
5480748,12
5481372,11
5481996,13
5482628,23
5483248,40
5483876,59
5484500,72
5485128,67
5485756,56
5486376,36
5487008,23
5487636,10
5488256,19
5488884,15
5489508,13
5490140,25
5490768,28
5491392,22
5492020,30
5492644,31
5493268,29
5493900,22
5494520,13
5495148,15
5495772,26
5496400,25
5497028,16
5497648,15
5498276,13
5498908,16
5499528,24
5500156,36
5500784,53
5501416,51
5502048,29
5502664,25
5503296,24
5503920,13
5504544,11
5505176,26
5505792,41
5506424,41
5507048,37
5507672,30
5508304,23
5508920,14
5509548,15
5510180,16
5510800,17
5511428,13
5512056,29
5512684,34
5513316,28
5513936,17
5514568,12
5515192,11
5515816,15
5516448,24
5517064,30
5517696,39
5518320,37
5518944,35
5519576,27
5520200,27
5520828,24
5521460,10
5522080,29
5522708,52
5523336,42
5523964,29
5524596,28
5525216,35
5525848,33
5526472,31
5527096,19
5527728,12
5528344,13
5528976,19
5529608,18
5530224,15
5530852,18
5531476,24
5532108,24
5532736,32
5533360,45
5533988,47
5534616,47
5535240,51
5535872,53
5536488,31
5537116,25
5537740,19
5538364,33
5538996,52
5539616,44
5540248,34
5540876,24
5541496,32
5542128,32
5542752,26
5543380,19
5544012,12
5544632,13
5545264,15
5545888,18
5546512,15
5547144,14
5547760,16
5548392,22
5549016,33
5549640,56
5550272,64
5550888,63
5551520,47
5552152,26
5552768,13
5553396,13
5554024,21
5554652,32
5555284,30
5555904,27
5556536,33
5557160,41
5557784,41
5558412,44
5559032,41
5559664,33
5560288,15
5560912,13
5561544,13
5562160,28
5562792,34
5563424,44
5564044,41
5564672,30
5565296,31
5565928,37
5566560,46
5567176,53
5567808,52
5568432,22
5569056,13
5569688,12
5570308,16
5570940,14
5571564,23
5572188,45
5572816,31
5573436,16
5574064,14
5574696,11
5575312,24
5575944,24
5576568,19
5577196,13
5577828,12
5578448,16
5579076,13
5579704,13
5580328,17
5580960,14
5581576,17
5582204,37
5582832,65
5583456,60
5584084,49
5584708,31
5585340,15
5585968,13
5586592,15
5587220,12
5587844,19
5588476,24
5589108,32
5589728,36
5590360,24
5590984,17
5591608,27
5592240,34
5592856,37
5593488,25
5594120,16
5594736,17
5595368,15
5595992,43
5596624,68
5597256,59
5597872,32
5598504,31
5599128,32
5599752,39
5600384,48
5601000,49
5601632,38
5602256,33
5602880,25
5603508,14
5604128,19
5604756,49
5605388,56
5606008,49
5606636,39
5607260,39
5607892,27
5608524,19
5609144,13
5609772,15
5610396,27
5611024,23
5611652,12
5612272,21
5612900,23
5613524,22
5614148,13
5614780,14
5615400,32
5616032,48
5616660,57
5617280,68
5617908,54
5618532,36
5619164,23
5619796,13
5620416,14
5621044,24
5621672,30
5622296,23
5622924,27
5623544,32
5624176,33
5624800,44
5625424,51
5626056,27
5626672,13
5627304,15
5627936,14
5628552,21
5629184,15
5629808,13
5630440,29
5631068,36
5631688,38
5632320,27
5632944,33
5633568,67
5634196,80
5634816,62
5635444,36
5636068,17
5636692,13
5637320,10
5637944,18
5638572,45
5639204,56
5639824,41
5640452,21
5641076,14
5641708,25
5642336,32
5642956,42
5643584,30
5644208,13
5644832,34
5645460,32
5646080,26
5646708,25
5647332,25
5647960,19
5648588,25
5649208,36
5649836,41
5650468,54
5651088,61
5651720,53
5652344,40
5652972,30
5653604,12
5654224,43
5654852,53
5655480,59
5656104,52
5656732,24
5657352,11
5657984,15
5658604,26
5659228,25
5659860,19
5660484,14
5661112,11
5661744,13
5662360,11
5662992,13
5663616,21
5664244,23
5664876,21
5665496,39
5666124,61
5666748,67
5667372,55
5668004,44
5668624,35
5669252,25
5669876,15
5670504,12
5671132,24
5671756,37
5672388,44
5673020,46
5673640,42
5674268,29
5674892,26
5675524,23
5676152,24
5676776,23
5677408,15
5678032,16
5678656,14
5679288,18
5679904,19
5680536,13
5681164,10
5681784,15
5682416,43
5683040,70
5683668,81
5684300,79
5684920,41
5685548,15
5686172,14
5686800,21
5687428,66
5688048,64
5688676,24
5689300,13
5689928,11
5690556,10
5691176,11
5691808,15
5692436,18
5693056,23
5693688,25
5694312,20
5694940,12
5695572,14
5696192,17
5696820,25
5697444,21
5698068,15
5698696,17
5699320,34
5699948,58
5700576,68
5701200,49
5701828,31
5702448,28
5703076,18
5703708,12
5704328,17
5704956,35
5705584,46
5706212,55
5706844,59
5707464,40
5708096,37
5708720,40
5709344,18
5709976,13
5710592,26
5711224,44
5711848,50
5712472,39
5713104,25
5713720,15
5714352,24
5714984,39
5715600,38
5716232,38
5716856,35
5717488,35
5718116,30
5718736,17
5719368,15
5719992,14
5720616,11
5721248,24
5721868,23
5722500,12
5723124,10
5723748,11
5724380,24
5725004,34
5725636,34
5726268,34
5726888,27
5727520,21
5728144,17
5728776,13
5729404,10
5730024,17
5730656,29
5731280,35
5731904,35
5732536,60
5733156,73
5733788,69
5734420,65
5735040,56
5735668,38
5736292,16
5736920,12
5737552,12
5738168,23
5738800,39
5739424,47
5740048,50
5740676,39
5741296,34
5741924,35
5742548,38
5743176,36
5743804,28
5744424,29
5745052,15
5745684,42
5746304,52
5746936,27
5747560,11
5748188,12
5748820,13
5749440,31
5750068,56
5750696,73
5751320,64
5751952,35
5752572,16
5753200,13
5753824,11
5754448,23
5755080,49
5755696,46
5756324,27
5756956,22
5757576,27
5758208,20
5758832,13
5759464,12
5760096,13
5760712,17
5761340,14
5761964,13
5762584,10
5763212,12
5763832,21
5764460,26
5765084,39
5765708,60
5766336,68
5766960,63
5767588,61
5768220,42
5768840,23
5769468,13
5770092,17
5770724,29
5771352,38
5771972,38
5772600,35
5773228,31
5773852,31
5774480,44
5775100,51
5775728,47
5776352,28
5776976,17
5777604,12
5778224,15
5778852,14
5779484,18
5780104,30
5780732,36
5781356,26
5781988,33
5782620,57
5783240,65
5783868,66
5784496,42
5785116,17
5785748,16
5786368,13
5786996,12
5787620,10
5788244,14
5788872,24
5789496,27
5790124,19
5790756,20
5791376,32
5792004,41
5792628,43
5793260,31
5793888,14
5794512,15
5795144,13
5795768,18
5796392,15
5797020,11
5797640,16
5798268,35
5798896,36
5799520,37
5800148,51
5800772,50
5801404,33
5802032,24
5802656,35
5803284,33
5803912,30
5804540,11
5805172,23
5805792,37
5806424,28
5807044,22
5807672,23
5808300,28
5808920,29
5809548,32
5810180,31
5810800,21
5811432,13
5812056,13
5812684,11
5813316,18
5813936,34
5814568,33
5815192,34
5815816,51
5816448,64
5817064,71
5817696,49
5818316,15
5818940,13
5819572,12
5820192,13
5820820,13
5821452,36
5822072,52
5822704,45
5823328,29
5823960,21
5824592,25
5825208,31
5825836,25
5826464,16
5827088,14
5827716,12
5828336,14
5828964,12
5829588,23
5830216,37
5830848,28
5831464,22
5832096,28
5832724,47
5833344,63
5833976,62
5834600,37
5835232,17
5835860,12
5836480,18
5837112,25
5837736,33
5838360,35
5838988,32
5839608,32
5840240,23
5840860,16
5841484,12
5842116,17
5842736,26
5843364,27
5843996,13
5844616,16
5845244,25
5845872,26
5846500,20
5847132,17
5847752,35
5848384,36
5849008,35
5849632,47
5850260,48
5850880,40
5851508,25
5852136,34
5852760,40
5853392,18
5854012,10
5854640,22
5855272,41
5855892,41
5856524,31
5857148,30
5857780,31
5858408,34
5859032,30
5859664,26
5860288,18
5860912,14
5861540,14
5862160,11
5862792,19
5863416,33
5864040,29
5864668,27
5865292,15
5865924,22
5866556,48
5867176,66
5867808,54
5868432,36
5869064,34
5869692,26
5870312,12
5870944,12
5871568,25
5872192,36
5872824,45
5873440,42
5874072,21
5874700,23
5875320,27
5875952,20
5876576,13
5877208,13
5877836,12
5878456,21
5879088,25
5879712,24
5880336,26
5880968,27
5881584,29
5882216,33
5882840,38
5883468,33
5884096,36
5884720,30
5885352,22
5885984,19
5886604,23
5887236,15
5887860,19
5888496,32
5889124,38
5889744,38
5890372,33
5891000,31
5891624,36
5892256,37
5892872,48
5893504,32
5894128,17
5894752,14
5895384,27
5896008,37
5896636,39
5897268,48
5897888,38
5898520,14
5899144,19
5899772,49
5900404,64
5901024,41
5901652,20
5902276,19
5902900,14
5903532,14
5904152,22
5904780,27
5905404,48
5906032,61
5906660,52
5907284,36
5907916,35
5908548,11
5909168,17
5909796,12
5910420,12
5911048,15
5911676,15
5912296,10
5912928,12
5913552,15
5914176,34
5914808,53
5915428,55
5916056,54
5916688,51
5917308,46
5917940,35
5918564,17
5919196,12
5919828,12
5920448,18
5921080,11
5921704,19
5922328,32
5922956,26
5923576,23
5924208,20
5924832,28
5925452,27
5926084,14
5926704,12
5927332,13
5927964,12
5928584,14
5929212,10
5929836,16
5930468,18
5931100,17
5931720,15
5932352,22
5932976,37
5933600,34
5934232,19
5934848,29
5935480,27
5936104,25
5936728,33
5937360,28
5937976,13
5938608,14
5939236,17
5939856,19
5940484,24
5941108,25
5941736,29
5942368,36
5942988,38
5943616,28
5944240,13
5944864,13
5945492,10
5946112,11
5946740,21
5947368,38
5947992,37
5948620,30
5949240,45
5949872,53
5950500,53
5951120,58
5951752,41
5952376,18
5953004,16
5953636,11
5954256,24
5954884,45
5955508,58
5956136,57
5956764,38
5957384,27
5958016,27
5958640,21
5959264,21
5959896,14
5960520,15
5961148,18
5961780,20
5962400,20
5963028,25
5963652,27
5964284,27
5964916,32
5965536,51
5966168,63
5966792,64
5967416,44
5968044,18
5968664,14
5969292,18
5969916,22
5970544,28
5971176,22
5971800,31
5972432,49
5973064,48
5973680,50
5974312,37
5974936,14
5975564,23
5976192,13
5976816,13
5977448,13
5978072,14
5978696,16
5979328,13
5979944,13
5980576,20
5981208,26
5981828,34
5982456,50
5983080,61
5983712,68
5984344,50
5984960,16
5985592,14
5986216,15
5986840,18
5987472,26
5988088,28
5988720,24
5989344,21
5989968,23
5990600,16
5991216,23
5991848,23
5992476,21
5993096,22
5993728,18
5994352,15
5994980,13
5995612,10
5996232,10
5996864,18
5997488,24
5998112,17
5998744,25
5999360,35
5999992,59
6000620,81
6001244,77
6001872,54
6002496,40
6003124,21
6003756,16
6004376,26
6005008,29
6005632,37
6006260,44
6006892,46
6007512,51
6008144,56
6008768,29
6009392,15
6010024,13
6010640,14
6011272,13
6011896,20
6012524,33
6013156,30
6013780,31
6014412,26
6015040,20
6015664,33
6016296,46
6016920,50
6017544,42
6018176,35
6018796,34
6019428,31
6020052,31
6020676,14
6021308,18
6021928,35
6022556,37
6023188,48
6023808,51
6024440,43
6025064,37
6025692,42
6026324,43
6026944,23
6027576,21
6028200,27
6028824,17
6029452,12
6030072,11
6030704,11
6031328,26
6031956,50
6032588,56
6033208,63
6033840,64
6034472,35
6035088,18
6035720,21
6036344,26
6036976,14
6037604,20
6038224,34
6038856,41
6039480,43
6040108,50
6040740,38
6041360,27
6041992,14
6042616,13
6043240,12
6043872,13
6044496,15
6045124,15
6045756,16
6046376,21
6047008,31
6047632,30
6048264,32
6048892,39
6049512,57
6050144,65
6050768,66
6051392,53
6052024,25
6052640,13
6053272,13
6053900,26
6054520,45
6055152,45
6055776,31
6056408,12
6057036,18
6057656,27
6058288,36
6058912,43
6059536,50
6060168,25
6060788,12
6061420,22
6062044,23
6062672,17
6063300,23
6063920,34
6064552,28
6065184,25
6065800,37
6066432,45
6067056,50
6067688,49
6068316,46
6068936,30
6069568,15
6070192,14
6070816,30
6071448,38
6072068,38
6072696,31
6073320,30
6073944,20
6074576,13
6075192,23
6075824,30
6076456,20
6077080,12
6077712,15
6078340,17
6078972,17
6079604,16
6080224,13
6080856,18
6081480,22
6082104,31
6082736,41
6083352,54
6083984,45
6084608,20
6085232,14
6085860,13
6086488,18
6087116,24
6087748,34
6088368,38
6088996,29
6089620,24
6090248,18
6090876,12
6091496,16
6092128,28
6092752,34
6093376,16
6094008,13
6094628,13
6095256,16
6095888,27
6096508,43
6097136,53
6097764,50
6098392,43
6099024,45
6099644,42
6100276,40
6100900,29
6101524,14
6102156,18
6102776,27
6103408,24
6104032,13
6104656,36
6105288,50
6105904,42
6106536,35
6107168,41
6107784,54
6108416,47
6109044,27
6109672,15
6110304,14
6110928,13
6111560,13
6112184,10
6112812,25
6113440,55
6114064,61
6114696,51
6115320,52
6115944,55
6116576,68
6117200,54
6117832,40
6118464,22
6119080,12
6119712,23
6120336,17
6120968,15
6121596,26
6122216,36
6122848,31
6123476,27
6124100,20
6124732,34
6125352,36
6125984,37
6126616,27
6127240,18
6127872,13
6128496,22
6129128,31
6129760,22
6130380,11
6131012,13
6131636,26
6132264,51
6132896,62
6133512,71
6134148,65
6134772,42
6135396,28
6136032,25
6136656,25
6137288,13
6137920,15
6138540,33
6139172,46
6139796,60
6140424,59
6141056,54
6141676,49
6142308,48
6142936,42
6143564,44
6144196,26
6144816,16
6145444,11
6146072,32
6146688,41
6147320,33
6147944,37
6148572,53
6149200,55
6149824,71
6150452,84
6151076,59
6151700,45
6152328,48
6152952,42
6153580,11
6154208,21
6154832,42
6155460,49
6156080,40
6156708,31
6157340,28
6157960,25
6158588,14
6159216,23
6159844,21
6160476,15
6161096,13
6161724,13
6162348,10
6162972,15
6163604,17
6164224,24
6164852,32
6165476,42
6166100,53
6166732,50
6167352,33
6167984,18
6168612,13
6169232,13
6169864,17
6170484,11
6171116,15
6171748,27
6172368,31
6172996,24
6173624,14
6174248,15
6174876,20
6175496,24
6176128,25
6176752,24
6177376,20
6178004,13
6178628,21
6179260,22
6179888,24
6180512,27
6181140,28
6181768,24
6182396,37
6183028,44
6183648,41
6184280,42
6184904,29
6185528,18
6186160,13
6186776,15
6187408,29
6188036,30
6188656,39
6189288,48
6189912,38
6190544,25
6191172,26
6191792,29
6192424,28
6193048,17
6193672,13
6194304,13
6194920,15
6195552,18
6196176,24
6196800,35
6197432,36
6198052,38
6198680,45
6199312,58
6199932,67
6200564,60
6201188,34
6201820,14
6202448,17
6203068,23
6203696,26
6204324,25
6204948,31
6205580,34
6206200,35
6206832,33
6207456,17
6208080,11
6208708,12
6209328,28
6209956,44
6210588,16
6211208,24
6211836,21
6212464,12
6213096,11
6213724,22
6214344,41
6214976,53
6215600,63
6216224,68
6216856,69
6217476,55
6218108,41
6218732,21
6219356,12
6219988,13
6220616,17
6221248,29
6221876,36
6222496,31
6223128,29
6223752,30
6224384,24
6225016,24
6225632,35
6226264,35
6226888,20
6227512,14
6228144,15
6228760,11
6229392,10
6230020,15
6230640,16
6231272,27
6231896,49
6232528,57
6233156,73
6233776,80
6234408,56
6235032,28
6235656,15
6236288,12
6236904,11
6237536,18
6238160,31
6238784,40
6239416,38
6240032,38
6240664,31
6241292,24
6241912,17
6242544,17
6243168,22
6243800,30
6244428,31
6245048,25
6245680,22
6246304,22
6246928,12
6247560,26
6248176,39
6248804,56
6249428,80
6250052,99
6250684,82
6251304,39
6251936,20
6252564,25
6253184,29
6253816,11
6254440,13
6255068,22
6255700,28
6256320,32
6256948,41
6257576,43
6258200,43
6258832,44
6259448,41
6260080,29
6260704,24
6261328,21
6261960,20
6262576,11
