tempo_arduino_micro_s,valor_ADC
500,34
1004,45
1500,43
2000,22
2504,13
3000,14
3508,13
4000,16
4504,22
5000,25
5500,24
6000,30
6500,32
7000,24
7500,16
8000,15
8500,18
9000,28
9500,40
10000,44
10508,42
11028,39
11556,26
12076,16
12604,15
13124,14
13648,15
14172,12
14700,14
15220,25
15748,26
16268,22
16796,25
17316,26
17836,28
18356,18
18876,10
19396,13
19916,20
20436,29
20956,25
21476,18
21996,14
22516,11
23036,13
23564,15
24084,18
24612,25
25132,29
25660,25
26180,25
26708,31
27228,37
27756,39
28276,34
28804,27
29324,16
29852,15
30372,20
30900,25
31420,22
31948,22
32472,16
32996,16
33516,24
34044,28
34564,17
35092,10
35612,10
36140,19
36660,17
37188,16
37708,26
38236,25
38760,19
39284,12
39804,10
40332,10
40852,12
41372,10
41892,11
42412,17
42932,14
43452,18
43972,38
44492,67
45012,74
45532,59
46052,43
46572,30
47092,18
47612,10
48140,10
48660,10
49188,10
49708,15
50236,18
50760,23
51284,35
51804,37
52332,29
52852,27
53380,33
53900,38
54428,30
54948,21
55476,11
55996,14
56524,11
57044,11
57572,10
58096,10
58620,15
59140,25
59668,23
60188,22
60716,34
61240,50
61764,47
62284,39
62812,44
63332,29
63860,12
64384,12
64908,10
65428,10
65948,11
66468,12
66988,10
67508,10
68028,10
68548,12
69068,12
69588,16
70108,13
70628,14
71148,15
71668,16
72192,11
72716,13
73236,19
73764,17
74284,10
74812,10
75332,14
75860,22
76380,19
76908,12
77428,26
77956,35
78480,27
79004,27
79528,26
80052,34
80572,35
81100,26
81620,30
82148,26
82668,17
83196,20
83720,22
84244,17
84764,10
85292,18
85812,32
86340,38
86860,23
87388,14
87908,15
88436,16
88956,30
89484,30
90004,22
90524,15
91044,15
91564,14
92084,12
92604,32
93124,44
93644,50
94164,55
94684,59
95208,46
95724,38
96248,28
96764,24
97292,22
97812,10
98340,17
98860,32
99388,44
99908,40
100436,38
101000,28
101584,16
102156,11
102736,17
103304,21
103880,20
104456,19
105024,19
105600,13
106168,23
106744,33
107312,32
107896,22
108464,11
109040,19
109624,36
110192,36
110776,35
111344,35
111928,41
112500,33
113080,22
113648,17
114224,11
114800,26
115368,40
115952,45
116520,32
117104,21
117676,10
118252,10
118832,11
119400,15
119984,14
120556,15
121136,17
121704,19
122288,11
122856,11
123436,14
124016,16
124584,22
125168,23
125736,27
126320,27
126888,24
127464,31
128048,30
128616,16
129192,15
129760,17
130344,14
130912,11
131496,13
132064,12
132640,9
133164,10
133736,10
134312,17
134884,18
135464,17
136032,17
136616,18
137184,31
137760,35
138344,39
138912,22
139496,11
140064,24
140648,37
141220,35
141792,43
142376,47
142948,40
143528,35
144096,28
144680,31
145248,30
145824,25
146392,25
146972,15
147552,19
148120,29
148704,31
149272,19
149856,20
150424,21
151000,13
151584,10
152156,10
152736,23
153308,22
153888,15
154456,15
155040,16
155608,11
156184,14
156768,15
157340,15
157920,9
158440,10
159016,13
159588,26
160168,17
160736,11
161304,28
161888,37
162456,34
163040,53
163608,42
164192,27
164760,13
165328,12
165912,14
166480,25
167060,22
167632,11
168208,23
168776,31
169352,29
169920,14
170496,17
171072,19
171640,27
172224,33
172792,18
173376,20
173944,14
174528,11
175096,23
175672,15
176256,19
176824,47
177408,66
177976,48
178560,27
179128,26
179708,22
180288,18
180856,21
181440,19
182008,22
182592,30
183160,27
183744,29
184312,27
184892,19
185472,11
186044,15
186624,13
187192,14
187776,14
188344,17
188920,15
189504,15
190072,14
190656,18
191228,21
191808,26
192380,31
192960,39
193528,41
194104,28
194688,17
195256,18
195840,15
196408,16
196992,16
197564,15
198140,15
198720,16
199288,16
199872,17
200444,18
201024,23
201592,19
202176,23
202748,32
203324,27
203904,32
204476,29
205056,25
205624,11
206200,16
206768,24
207336,27
207912,38
208480,60
209064,76
209632,80
210208,67
210776,53
211360,26
211928,15
212496,15
213080,15
213648,14
214232,10
214804,15
215384,25
215952,39
216532,42
217112,41
217684,27
218264,21
218832,21
219408,23
219976,16
220560,13
221128,14
221704,15
222288,14
222860,18
223440,19
224012,17
224592,12
225164,10
225744,12
226320,15
226888,34
227472,48
228044,42
228624,48
229196,51
229776,35
230348,16
230924,11
231504,19
232076,35
232656,45
233224,41
233808,23
234376,19
234960,13
235536,15
236104,15
236688,14
237260,19
237840,27
238412,24
238992,12
239564,15
240140,14
240720,14
241288,12
241872,10
242444,11
243024,10
243596,23
244176,58
244752,75
245324,75
245904,64
246472,55
247056,41
247624,22
248208,9
248724,10
249296,13
249880,19
250448,19
251032,15
251604,13
252184,13
252752,19
253336,20
253908,22
254484,23
255064,29
255636,24
256216,17
256792,17
257368,16
257936,13
258512,15
259088,15
259656,19
260240,48
260808,53
261384,41
261952,27
262536,27
263104,42
263680,35
264264,31
264832,27
265416,11
265988,9
266516,10
267088,15
267672,25
268240,24
268816,27
269400,35
269968,37
270552,28
271124,22
271704,15
272276,11
272848,16
273432,14
274004,10
274584,11
275152,11
275736,20
276316,35
276896,32
277472,31
278052,37
278632,42
279204,39
279784,45
280356,46
280936,25
281508,13
282084,10
282664,27
283232,41
283816,38
284388,25
284968,15
285536,15
286120,15
286692,15
287268,19
287848,16
288420,14
289000,11
289568,12
290152,10
290724,10
291296,10
291880,10
292448,20
293032,34
293604,42
294184,39
294756,30
295336,32
295908,32
296484,32
297064,22
297632,10
298216,29
298788,43
299368,40
299940,31
300516,30
301096,25
301668,17
302248,18
302820,28
303400,32
303972,30
304552,26
305132,14
305708,11
306288,26
306860,49
307440,51
308016,49
308600,43
309168,42
309744,40
310328,41
310900,43
311480,39
312052,34
312632,29
313204,19
313784,13
314356,10
314932,14
315512,34
316084,36
316664,36
317236,35
317816,33
318396,26
318972,26
319552,19
320124,14
320704,15
321272,16
321856,23
322424,16
323008,10
323576,11
324152,13
324736,14
325308,24
325888,52
326460,56
327040,49
327608,58
328188,50
328768,35
329336,25
329920,27
330488,23
331064,13
331632,11
332216,25
332784,33
333364,34
333944,26
334512,19
335096,15
335664,15
336248,28
336816,41
337384,37
337960,24
338528,15
339104,13
339676,20
340256,19
340824,15
341408,15
341976,19
342556,20
343136,46
343704,64
344288,59
344860,50
345440,35
346012,16
346584,22
347168,15
347740,14
348320,15
348888,11
349472,24
350040,29
350624,23
351196,15
351772,16
352352,19
352920,26
353504,17
354076,14
354656,15
355224,16
355800,11
356384,13
356956,14
357536,14
358108,14
358688,18
359256,26
359840,39
360408,47
360984,47
361568,35
362140,23
362720,17
363288,15
363872,12
364444,24
365020,33
365600,41
366168,49
366752,50
367324,51
367904,52
368476,46
369056,31
369624,14
370200,25
370784,22
371356,19
371936,20
372508,34
373088,55
373660,64
374236,54
374816,41
375388,42
375968,41
376540,37
377120,39
377692,46
378272,31
378844,18
379420,15
380000,17
380568,15
381152,9
381672,22
382248,41
382820,37
383400,31
383972,29
384548,26
385128,24
385696,25
386280,26
386848,27
387432,25
388004,19
388576,14
389160,14
389728,14
390312,19
390884,23
391464,23
392036,26
392616,29
393188,27
393764,33
394344,39
394916,30
395496,17
396068,14
396648,13
397220,11
397796,17
398376,21
398948,15
399528,10
400100,11
400680,10
401248,10
401832,10
402404,17
402976,21
403560,17
404128,16
404712,14
405284,13
405864,15
406436,13
407008,10
407592,13
408164,10
408744,11
409316,16
409896,32
410472,38
411048,39
411616,32
412192,26
412776,28
413344,26
413928,12
414496,18
415080,21
415648,17
416224,27
416808,37
417376,35
417952,46
418520,48
419104,27
419676,19
420256,15
420824,14
421400,19
421984,39
422556,46
423136,48
423704,31
424288,15
424856,10
425432,23
426016,38
426584,46
427168,48
427740,56
428320,54
428888,35
429472,15
430044,13
430620,12
431200,21
431768,35
432352,46
432920,49
433504,43
434076,35
434652,34
435232,35
435800,32
436384,33
436956,21
437536,17
438108,14
438688,25
439260,51
439836,66
440416,70
440988,60
441568,42
442140,34
442720,32
443292,40
443864,41
444448,34
445020,27
445600,19
446168,14
446752,13
447324,13
447904,9
448424,9
448940,15
449512,19
450092,17
450672,17
451240,19
451824,27
452396,33
452976,42
453544,41
454124,26
454704,25
455276,17
455856,13
456428,15
457008,10
457576,10
458160,15
458740,11
459316,11
459896,39
460468,73
461048,76
461624,70
462208,58
462780,36
463356,23
463936,11
464508,12
465088,24
465656,36
466240,43
466808,41
467392,21
467964,11
468540,13
469120,14
469692,15
470272,15
470844,15
471424,19
471996,21
472572,20
473152,13
473724,10
474304,12
474876,11
475456,11
476036,15
476616,43
477200,65
477772,50
478352,39
478924,38
479504,34
480084,27
480664,20
481232,10
481812,20
482392,25
482964,17
483544,16
484116,24
484696,20
485268,11
485844,11
486424,14
486992,15
487576,15
488148,15
488728,12
489300,10
489880,12
490452,15
491028,10
491608,21
492180,37
492760,51
493332,50
493912,36
494484,23
495056,19
495640,15
496212,14
496792,15
497364,11
497944,17
498512,20
499096,24
499668,31
500244,28
500824,26
501392,16
501976,10
502556,14
503136,13
503708,14
504284,18
504864,19
505436,11
506016,15
506588,18
507168,17
507740,18
508320,16
508900,22
509476,34
510056,30
510632,20
511208,25
511788,23
512372,15
512944,19
513512,31
514096,29
514664,34
515248,47
515816,40
516392,20
516964,17
517544,17
518112,17
518692,14
519272,23
519844,14
520424,23
520992,46
521576,43
522148,22
522724,18
523304,35
523876,43
524456,27
525028,19
525608,17
526176,22
526760,25
527332,23
527908,20
528488,21
529056,33
529640,39
530208,42
530792,28
531364,10
531936,21
532520,31
533088,33
533672,20
534244,20
534824,26
535392,35
535976,33
536548,49
537124,55
537704,35
538272,17
538856,38
539428,35
540008,16
540576,10
541156,14
541736,10
542308,20
542888,34
543460,64
544040,76
544608,60
545192,49
545764,41
546336,38
546920,30
547492,15
548072,11
548644,26
549224,43
549796,39
550372,26
550952,19
551524,16
552104,13
552676,19
553256,31
553828,38
554408,41
554976,35
555556,15
556136,14
556708,22
557288,27
557868,26
558448,34
559028,48
559604,48
560184,47
560756,55
561336,55
561908,43
562488,19
563068,14
563648,11
564232,10
564804,13
565384,25
565956,39
566536,42
567108,42
567688,37
568260,26
568836,12
569416,16
569988,18
570568,15
571140,15
571720,19
572300,13
572880,13
573464,15
574036,33
574616,31
575188,31
575768,32
576348,42
576928,56
577496,56
578076,42
578656,42
579224,34
579808,22
580380,11
580960,15
581528,18
582108,22
582688,36
583260,32
583840,15
584412,15
584992,15
585564,18
586144,17
586724,14
587300,15
587880,14
588452,16
589032,18
589612,11
590192,9
590712,10
591288,15
591868,28
592444,40
593024,45
593596,36
594176,29
594756,26
595336,17
595908,14
596484,15
597064,17
597636,21
598216,27
598788,31
599368,31
599948,28
600528,21
601112,18
601684,21
602264,22
602836,14
603416,14
603996,15
604580,15
605156,20
605732,29
606312,13
606888,14
607464,15
608036,27
608616,25
609188,11
609764,19
610344,31
610916,47
611496,52
612072,44
612648,42
613228,27
613808,16
614388,13
614964,12
615544,10
616116,23
616696,28
617268,21
617848,19
618416,11
618992,11
619576,18
620148,19
620728,14
621300,15
621880,15
622452,12
623032,32
623604,49
624180,50
624760,53
625332,56
625912,45
626484,34
627064,33
627636,25
628212,20
628792,16
629364,14
629944,14
630516,13
631096,18
631676,21
632260,27
632840,31
633412,29
633992,28
634568,27
635144,26
635724,24
636304,24
636884,25
637460,24
638040,14
638612,13
639192,11
639772,10
640356,11
640928,11
641504,13
642088,11
642656,22
643240,42
643808,46
644392,43
644964,35
645544,29
646116,25
646692,19
647272,10
647844,10
648424,12
648992,21
649576,27
650148,28
650724,28
651304,28
651876,22
652456,13
653028,15
653608,15
654180,14
654760,18
655332,17
655908,19
656488,26
657056,24
657632,20
658200,17
658784,18
659352,27
659928,31
660512,41
661080,42
661664,30
662236,18
662816,15
663384,15
663968,13
664540,38
665116,59
665696,44
666268,14
666848,17
667416,19
668000,10
668568,29
669144,34
669728,24
670296,20
670880,24
671448,16
672032,19
672600,28
673176,28
673748,21
674320,14
674904,14
675472,20
676056,21
676624,27
677208,11
677776,30
678356,43
678936,56
679508,58
680088,43
680656,27
681240,25
681808,14
682392,12
682964,21
683536,29
684120,28
684692,23
685272,16
685844,14
686424,17
686992,16
687572,15
688152,14
688724,11
689304,11
689876,11
690456,21
691028,32
691608,31
692184,25
692760,30
693344,38
693916,46
694496,43
695068,41
695648,32
696220,20
696796,20
697376,19
697948,10
698528,25
699100,54
699680,63
700260,61
700840,39
701412,14
701988,11
702568,24
703140,38
703720,32
704300,14
704880,25
705448,24
706028,22
706608,19
707176,16
707760,11
708332,17
708912,29
709484,34
710064,38
710636,51
711212,49
711792,43
712364,31
712944,21
713516,14
714096,11
714676,11
715252,15
715832,26
716408,31
716984,31
717556,31
718136,28
718708,26
719288,23
719868,16
720444,16
721024,19
721596,15
722176,22
722756,27
723336,16
723904,11
724484,15
725064,18
725636,15
726216,29
726788,43
727368,41
727940,36
728520,22
729104,15
729676,19
730256,29
730828,21
731408,16
731980,35
732560,32
733140,35
733716,42
734296,55
734868,40
735448,18
736028,14
736608,16
737180,18
737756,27
738336,35
738908,37
739488,33
740060,21
740640,11
741212,10
741792,12
742364,13
742940,14
743520,23
744092,27
744672,26
745244,33
745824,27
746396,20
746972,17
747552,15
748124,11
748704,26
749276,30
749856,35
750436,46
751016,37
751588,38
752164,35
752744,14
753316,16
753896,16
754468,15
755048,15
755628,25
756204,25
756784,23
757356,17
757936,18
758512,17
759088,24
759668,39
760248,56
760828,61
761404,52
761984,43
762556,21
763136,15
763716,13
764296,27
764876,22
765452,12
766032,14
766608,24
767184,24
767764,24
768348,23
768920,25
769496,25
770080,23
770648,19
771232,18
771800,24
772384,43
772956,46
773536,20
774108,11
774684,11
775264,14
775836,12
776416,26
776996,49
777576,63
778148,58
778724,49
779304,33
779876,40
780456,38
781028,19
781608,15
782180,51
782760,58
783332,36
783908,26
784488,28
785060,22
785640,11
786212,17
786792,23
787372,38
787948,57
788528,60
789100,52
789680,39
790252,35
790832,32
791412,35
791992,35
792572,37
793152,43
793732,49
794300,45
794880,28
795452,15
796032,14
796612,15
797188,11
797768,19
798340,33
798924,42
799496,42
800072,41
800648,36
801232,26
801808,31
802380,31
802960,25
803532,14
804112,21
804684,19
805264,15
805836,18
806412,23
806992,21
807564,14
808144,13
808716,15
809296,18
809876,26
810452,27
811032,21
811604,18
812184,14
812756,15
813336,18
813916,12
814496,12
815076,18
815652,24
816232,22
816804,18
817384,12
817956,19
818536,16
819116,13
819692,13
820272,14
820840,14
821424,15
821992,11
822576,10
823144,22
823728,14
824296,11
824872,10
825456,13
826024,24
826608,29
827176,36
827760,31
828332,24
828908,23
829488,30
830056,30
830640,17
831212,10
831792,16
832364,33
832944,37
833512,41
834092,36
834672,26
835240,22
835824,24
836396,26
836976,25
837544,24
838124,19
838704,13
839276,11
839856,11
840424,17
841008,23
841576,35
842160,37
842732,52
843308,63
843888,61
844460,51
845040,33
845608,18
846192,14
846760,15
847336,11
847920,19
848492,38
849072,43
849644,36
850224,29
850796,26
851376,24
851944,16
852524,14
853104,14
853676,14
854256,17
854836,15
855416,23
855988,22
856564,14
857144,16
857716,26
858296,30
858868,44
859448,54
860020,56
860600,37
861172,19
861748,18
862328,26
862900,25
863480,20
864052,12
864632,9
865152,10
865728,11
866296,14
866876,15
867456,17
868028,14
868608,11
869180,20
869760,17
870332,14
870908,14
871488,22
872060,18
872640,11
873212,26
873792,31
874364,35
874944,29
875516,27
876092,39
876672,48
877244,64
877824,45
878396,26
878976,18
879556,14
880132,13
880712,10
881280,13
881864,18
882436,30
883016,31
883588,34
884168,34
884744,30
885316,26
885896,22
886468,26
887048,25
887616,17
888200,13
888772,11
889348,11
889928,15
890500,18
891080,20
891652,28
892232,28
892812,20
893392,19
893968,31
894544,38
895120,33
895696,23
896276,28
896848,27
897432,16
898004,13
898576,19
899160,18
899732,36
900312,44
900892,47
901472,53
902044,63
902620,30
903200,17
903768,19
904352,33
904924,37
905504,44
906076,34
906656,13
907228,10
907804,13
908384,21
908956,28
909536,29
910108,42
910688,57
911260,43
911836,35
912416,33
912988,25
913568,11
914140,24
914720,27
915292,19
915872,19
916444,19
917020,22
917600,24
918172,26
918752,26
919332,41
919912,42
920492,25
921068,16
921648,16
922220,33
922800,43
923372,39
923952,37
924524,32
925104,23
925676,16
926252,14
926832,26
927404,40
927984,45
928556,33
929136,17
929708,16
930284,19
930864,14
931436,10
932016,10
932588,13
933168,17
933740,22
934320,26
934900,21
935476,16
936056,18
936628,22
937208,19
937788,21
938368,16
938940,11
939516,15
940100,18
940672,16
941248,15
941820,23
942400,25
942980,19
943560,13
944144,27
944716,40
945296,37
945868,32
946448,23
947028,11
947612,19
948188,27
948764,34
949344,38
949916,38
950496,38
951076,32
951656,21
952236,12
952812,14
953392,14
953964,18
954544,16
955120,14
955696,23
956276,27
956856,34
957436,37
958016,25
958592,21
959168,21
959748,23
960324,22
960904,19
961476,27
962052,28
962632,29
963200,32
963784,19
964356,13
964936,28
965508,34
966088,20
966664,12
967236,11
967816,10
968388,12
968968,13
969540,19
970120,21
970700,24
971276,21
971856,13
972428,10
973008,19
973588,11
974168,10
974740,12
975316,10
975896,11
976468,27
977048,38
977620,29
978200,28
978772,32
979352,38
979932,51
980508,31
981088,11
981660,13
982240,13
982820,10
983400,11
983980,27
984556,26
985136,15
985708,14
986288,14
986860,14
987440,15
988012,15
988592,11
989164,11
989740,11
990320,15
990892,21
991472,20
992044,15
992624,13
993196,18
993772,29
994352,35
994924,33
995504,19
996076,15
996656,15
997228,10
997808,9
998328,14
998900,19
999480,26
1000052,22
1000676,25
1001300,27
1001928,24
1002556,23
1003176,18
1003804,16
1004428,14
1005056,14
1005688,14
1006304,29
1006932,29
1007556,18
1008180,13
1008808,11
1009424,16
1010052,23
1010676,37
1011300,38
1011928,24
1012552,22
1013180,19
1013812,18
1014432,22
1015060,11
1015684,18
1016312,11
1016940,19
1017560,21
1018192,21
1018816,21
1019440,24
1020068,22
1020688,17
1021316,15
1021944,17
1022568,17
1023196,10
1023820,10
1024452,13
1025080,16
1025696,24
1026324,25
1026944,25
1027572,27
1028200,28
1028816,29
1029444,28
1030064,17
1030684,14
1031312,15
1031936,14
1032564,33
1033184,40
1033808,37
1034436,28
1035052,27
1035684,17
1036312,14
1036928,15
1037556,17
1038180,18
1038808,24
1039436,16
1040056,11
1040680,12
1041304,12
1041924,12
1042552,22
1043176,37
1043804,39
1044428,30
1045052,20
1045680,19
1046296,20
1046924,12
1047544,13
1048168,11
1048796,14
1049420,23
1050048,28
1050676,34
1051296,44
1051924,45
1052544,34
1053176,31
1053804,18
1054424,28
1055052,36
1055676,33
1056296,25
1056924,21
1057544,27
1058172,30
1058796,31
1059416,40
1060048,49
1060664,50
1061292,34
1061920,19
1062536,15
1063164,15
1063788,10
1064416,25
1065044,32
1065660,40
1066288,43
1066912,31
1067536,13
1068164,12
1068780,13
1069412,15
1070036,23
1070656,24
1071288,17
1071904,11
1072532,11
1073164,14
1073784,27
1074412,25
1075036,12
1075668,11
1076296,29
1076912,40
1077540,50
1078164,49
1078788,47
1079420,38
1080040,29
1080668,10
1081288,14
1081912,26
1082540,43
1083160,36
1083788,17
1084412,10
1085040,12
1085668,12
1086292,15
1086920,15
1087548,16
1088168,17
1088796,13
1089416,11
1090048,13
1090676,14
1091296,15
1091924,19
1092544,26
1093168,31
1093796,40
1094416,28
1095044,17
1095668,16
1096288,16
1096920,11
1097540,10
1098172,17
1098800,21
1099424,23
1100052,21
1100676,26
1101308,28
1101936,27
1102552,24
1103184,20
1103808,22
1104432,21
1105060,12
1105680,11
1106308,15
1106932,21
1107556,37
1108184,42
1108808,39
1109436,27
1110064,21
1110684,23
1111312,25
1111936,21
1112564,15
1113196,20
1113816,39
1114444,34
1115068,15
1115692,10
1116320,10
1116944,10
1117572,18
1118196,32
1118820,21
1119452,14
1120076,16
1120704,15
1121332,16
1121952,11
1122580,10
1123204,17
1123832,26
1124460,25
1125080,20
1125708,25
1126332,31
1126960,33
1127588,19
1128208,14
1128836,15
1129456,15
1130080,13
1130708,20
1131332,23
1131960,16
1132592,15
1133208,13
1133840,13
1134460,12
1135092,12
1135720,21
1136340,25
1136968,27
1137592,29
1138216,16
1138844,10
1139464,13
1140092,24
1140716,27
1141340,23
1141968,30
1142592,41
1143220,52
1143852,54
1144472,42
1145100,27
1145724,19
1146356,14
1146984,10
1147608,13
1148236,16
1148860,23
1149480,19
1150112,18
1150728,20
1151356,24
1151980,27
1152608,23
1153236,19
1153856,25
1154488,23
1155116,14
1155736,15
1156364,31
1156988,30
1157616,16
1158248,15
1158864,22
1159492,31
1160116,31
1160740,43
1161368,47
1161984,40
1162616,33
1163236,21
1163860,9
1164440,10
1165064,17
1165692,28
1166316,31
1166940,41
1167568,37
1168188,25
1168816,23
1169444,20
1170064,21
1170692,22
1171316,17
1171944,10
1172576,20
1173192,24
1173820,24
1174444,25
1175068,29
1175696,26
1176320,26
1176948,32
1177572,32
1178200,31
1178828,20
1179448,15
1180076,16
1180708,20
1181328,25
1181956,42
1182580,42
1183212,36
1183840,16
1184464,17
1185092,11
1185716,25
1186340,15
1186972,17
1187592,24
1188220,32
1188844,48
1189468,52
1190096,42
1190720,19
1191348,13
1191980,15
1192600,22
1193228,29
1193852,35
1194484,31
1195112,29
1195732,24
1196360,16
1196984,16
1197608,22
1198236,33
1198856,36
1199484,44
1200108,30
1200732,14
1201360,19
1201984,17
1202612,14
1203244,16
1203864,16
1204492,15
1205112,13
1205744,12
1206372,18
1206992,16
1207620,27
1208244,25
1208868,26
1209500,30
1210120,30
1210748,21
1211372,14
1211996,16
1212628,16
1213252,16
1213880,11
1214512,18
1215132,18
1215760,25
1216384,18
1217012,10
1217644,12
1218264,12
1218892,23
1219516,19
1220140,14
1220772,16
1221392,17
1222020,11
1222644,9
1223216,18
1223852,15
1224472,11
1225100,27
1225724,44
1226352,34
1226984,33
1227608,35
1228236,31
1228868,24
1229484,33
1230112,31
1230736,13
1231364,20
1231992,24
1232616,10
1233244,15
1233868,20
1234492,12
1235120,17
1235740,22
1236368,24
1236996,20
1237616,18
1238244,16
1238868,11
1239500,10
1240128,12
1240744,18
1241376,11
1242000,12
1242628,11
1243256,12
1243872,31
1244504,39
1245128,49
1245748,35
1246380,20
1247000,13
1247628,10
1248252,16
1248880,24
1249508,29
1250132,22
1250760,17
1251388,15
1252008,14
1252636,17
1253260,14
1253888,14
1254520,15
1255136,12
1255764,12
1256388,11
1257012,10
1257640,10
1258264,17
1258892,29
1259516,46
1260144,56
1260772,50
1261400,29
1262028,19
1262660,14
1263280,27
1263908,35
1264536,28
1265160,13
1265788,9
1266356,15
1266988,21
1267616,18
1268240,16
1268868,23
1269488,28
1270116,26
1270740,19
1271364,15
1271996,12
1272616,15
1273244,22
1273876,24
1274496,33
1275124,36
1275752,37
1276380,43
1277012,40
1277632,32
1278260,21
1278888,24
1279512,29
1280144,14
1280756,13
1281388,18
1282008,27
1282628,21
1283256,38
1283876,45
1284508,33
1285136,15
1285752,13
1286380,14
1287004,15
1287632,15
1288260,14
1288876,17
1289508,21
1290128,23
1290756,23
1291384,19
1292008,34
1292636,52
1293260,43
1293880,35
1294512,24
1295128,16
1295756,17
1296380,14
1297008,20
1297636,19
1298256,10
1298888,12
1299516,17
1300136,16
1300764,16
1301388,16
1302016,22
1302648,31
1303264,21
1303892,18
1304516,21
1305140,18
1305772,10
1306392,28
1307020,29
1307644,25
1308272,13
1308900,20
1309524,43
1310152,70
1310784,72
1311400,51
1312028,37
1312648,21
1313276,18
1313904,10
1314528,11
1315156,25
1315780,39
1316400,49
1317028,38
1317648,15
1318276,16
1318900,16
1319520,15
1320148,15
1320772,20
1321400,15
1322028,22
1322644,22
1323276,14
1323896,19
1324528,27
1325156,24
1325776,23
1326404,11
1327024,19
1327648,25
1328276,19
1328896,25
1329524,25
1330144,22
1330768,10
1331400,26
1332016,33
1332644,22
1333268,28
1333884,29
1334516,22
1335136,22
1335764,21
1336392,14
1337016,15
1337644,22
1338264,22
1338884,16
1339512,25
1340136,17
1340764,11
1341388,11
1342012,13
1342640,14
1343264,13
1343892,28
1344524,48
1345140,53
1345772,42
1346392,32
1347020,19
1347652,10
1348272,20
1348900,43
1349524,50
1350148,41
1350780,23
1351400,13
1352028,11
1352648,18
1353272,16
1353900,15
1354520,15
1355148,11
1355772,10
1356400,11
1357028,10
1357652,11
1358280,21
1358908,34
1359528,50
1360156,57
1360780,54
1361408,37
1362036,29
1362652,23
1363284,17
1363904,12
1364528,19
1365156,32
1365776,32
1366404,25
1367024,20
1367648,23
1368280,20
1368900,19
1369532,17
1370160,18
1370784,17
1371412,20
1372036,13
1372664,10
1373296,10
1373912,20
1374540,23
1375164,17
1375788,29
1376420,55
1377040,69
1377668,52
1378288,31
1378912,18
1379540,14
1380164,16
1380792,20
1381420,15
1382040,15
1382668,13
1383292,26
1383920,41
1384548,35
1385168,23
1385796,21
1386420,15
1387040,15
1387668,19
1388288,29
1388916,21
1389540,18
1390164,21
1390792,18
1391408,21
1392040,25
1392668,24
1393284,27
1393916,31
1394540,30
1395168,27
1395796,24
1396416,22
1397044,13
1397668,10
1398292,19
1398920,27
1399536,29
1400168,24
1400792,15
1401416,21
1402044,28
1402664,35
1403292,19
1403920,18
1404544,16
1405172,19
1405796,17
1406424,11
1407056,9
1407620,12
1408256,36
1408876,47
1409504,54
1410132,50
1410752,29
1411380,15
1412004,15
1412624,15
1413256,15
1413872,16
1414500,11
1415124,11
1415748,17
1416376,24
1416992,21
1417624,11
1418252,10
1418872,17
1419500,27
1420124,24
1420756,23
1421384,16
1422008,11
1422636,10
1423260,11
1423884,13
1424516,14
1425136,28
1425764,35
1426388,38
1427012,37
1427644,28
1428264,16
1428892,29
1429524,18
1430144,12
1430772,10
1431396,11
1432028,15
1432656,23
1433280,24
1433908,24
1434532,19
1435156,11
1435784,14
1436408,20
1437036,25
1437660,18
1438284,15
1438912,11
1439528,12
1440160,28
1440788,32
1441408,31
1442036,30
1442660,39
1443288,47
1443916,42
1444536,29
1445164,23
1445788,16
1446408,15
1447036,24
1447656,35
1448284,37
1448908,43
1449532,42
1450160,29
1450776,15
1451408,13
1452032,10
1452656,13
1453284,14
1453908,15
1454540,15
1455168,17
1455784,19
1456416,20
1457040,23
1457668,29
1458296,23
1458912,28
1459544,36
1460168,30
1460788,37
1461420,44
1462040,27
1462668,15
1463292,12
1463920,15
1464548,23
1465172,40
1465804,59
1466432,59
1467048,40
1467676,23
1468300,17
1468932,16
1469560,13
1470180,15
1470808,15
1471432,15
1472056,11
1472684,10
1473304,13
1473932,15
1474556,18
1475184,22
1475812,29
1476436,52
1477064,81
1477696,77
1478312,43
1478940,16
1479564,15
1480196,11
1480824,10
1481440,10
1482068,11
1482692,17
1483316,25
1483944,24
1484564,19
1485192,23
1485816,30
1486436,29
1487064,23
1487688,24
1488316,16
1488944,10
1489568,11
1490196,17
1490820,19
1491448,15
1492076,32
1492696,57
1493324,45
1493948,36
1494572,42
1495200,38
1495824,37
1496452,18
1497076,10
1497700,15
1498328,19
1498952,18
1499580,22
1500208,23
1500832,32
1501460,24
1502084,15
1502712,14
1503344,17
1503964,19
1504592,14
1505216,15
1505840,21
1506472,23
1507088,21
1507720,17
1508344,17
1508968,26
1509596,37
1510224,40
1510852,31
1511484,28
1512104,22
1512732,22
1513356,11
1513988,13
1514620,18
1515240,33
1515872,37
1516492,29
1517116,21
1517748,16
1518368,18
1518996,19
1519628,17
1520248,16
1520876,15
1521500,15
1522132,13
1522760,16
1523380,14
1524008,17
1524632,30
1525256,33
1525884,41
1526504,44
1527132,49
1527756,44
1528380,53
1529012,44
1529632,35
1530260,11
1530892,10
1531512,15
1532144,27
1532768,26
1533400,23
1534028,28
1534648,35
1535280,26
1535904,22
1536528,16
1537156,14
1537776,16
1538404,15
1539024,13
1539648,11
1540280,10
1540896,11
1541524,12
1542152,25
1542772,29
1543400,42
1544024,53
1544652,42
1545280,25
1545900,16
1546528,15
1547152,17
1547780,22
1548412,27
1549032,15
1549660,12
1550284,11
1550908,11
1551536,16
1552160,31
1552788,31
1553420,19
1554040,15
1554668,14
1555292,11
1555924,12
1556552,11
1557172,11
1557800,12
1558424,19
1559044,45
1559676,39
1560296,25
1560924,28
1561548,26
1562172,29
1562804,34
1563424,23
1564052,12
1564680,10
1565304,13
1565932,15
1566556,12
1567188,18
1567816,28
1568440,32
1569068,21
1569692,16
1570316,14
1570944,16
1571564,12
1572192,18
1572816,13
1573440,10
1574068,11
1574688,12
1575316,24
1575948,35
1576568,57
1577196,73
1577820,44
1578452,21
1579080,15
1579696,17
1580328,12
1580952,18
1581576,21
1582204,13
1582824,11
1583452,12
1584076,10
1584700,11
1585332,16
1585952,28
1586580,23
1587212,19
1587832,21
1588460,13
1589084,10
1589716,10
1590344,21
1590964,37
1591592,39
1592220,39
1592844,40
1593472,44
1594092,34
1594720,31
1595348,31
1595972,22
1596604,21
1597224,12
1597856,17
1598484,24
1599104,30
1599736,36
1600360,36
1600988,20
1601616,24
1602232,30
1602860,26
1603484,18
1604104,17
1604736,15
1605352,12
1605980,11
1606604,16
1607228,28
1607856,31
1608472,31
1609100,39
1609724,42
1610352,42
1610980,29
1611604,22
1612232,18
1612860,16
1613476,10
1614108,16
1614728,24
1615360,27
1615988,18
1616608,22
1617236,28
1617860,37
1618484,29
1619112,20
1619736,17
1620364,20
1620988,18
1621616,11
1622244,17
1622868,17
1623496,23
1624128,35
1624744,36
1625376,32
1626000,37
1626628,43
1627256,44
1627880,31
1628508,23
1629132,17
1629756,14
1630388,10
1631008,10
1631636,11
1632268,24
1632888,41
1633516,30
1634140,17
1634772,16
1635400,19
1636016,21
1636648,22
1637272,22
1637896,25
1638528,24
1639140,14
1639768,15
1640388,27
1641012,38
1641640,38
1642252,44
1642880,42
1643500,46
1644124,51
1644752,32
1645368,17
1645996,17
1646624,13
1647240,10
1647868,11
1648492,16
1649120,28
1649748,20
1650364,17
1650996,21
1651616,24
1652240,18
1652868,20
1653484,15
1654116,32
1654736,39
1655360,21
1655988,10
1656608,11
1657236,10
1657864,14
1658488,14
1659116,17
1659740,43
1660368,60
1660996,64
1661616,48
1662244,27
1662864,16
1663492,10
1664124,20
1664740,30
1665368,39
1665988,47
1666612,51
1667240,51
1667856,45
1668484,39
1669104,23
1669728,15
1670356,35
1670980,45
1671608,36
1672236,20
1672856,21
1673484,29
1674108,38
1674736,33
1675364,26
1675984,34
1676612,35
1677236,28
1677860,19
1678488,22
1679104,15
1679732,14
1680356,10
1680976,13
1681604,22
1682220,31
1682848,38
1683480,32
1684096,28
1684724,29
1685344,41
1685976,33
1686604,19
1687220,27
1687852,19
1688472,12
1689096,36
1689724,59
1690340,66
1690968,59
1691592,53
1692216,45
1692844,43
1693460,51
1694092,41
1694712,29
1695336,21
1695964,13
1696588,15
1697216,19
1697844,27
1698464,38
1699092,37
1699716,31
1700344,20
1700972,20
1701592,36
1702220,33
1702844,26
1703464,17
1704096,15
1704712,20
1705340,21
1705964,21
1706588,17
1707216,12
1707832,18
1708460,28
1709092,32
1709712,35
1710340,25
1710964,35
1711596,31
1712224,15
1712840,15
1713472,16
1714096,14
1714716,13
1715348,16
1715968,11
1716596,11
1717220,11
1717844,15
1718472,26
1719088,32
1719720,24
1720348,19
1720964,21
1721592,13
1722216,12
1722848,23
1723476,36
1724096,41
1724724,36
1725348,33
1725972,42
1726600,44
1727224,36
1727852,27
1728476,19
1729100,14
1729728,14
1730344,11
1730972,13
1731600,22
1732224,29
1732852,33
1733476,33
1734104,27
1734732,24
1735352,23
1735980,20
1736604,15
1737228,15
1737860,25
1738480,31
1739108,21
1739732,11
1740356,9
1740936,10
1741556,11
1742188,19
1742808,38
1743432,56
1744060,44
1744676,26
1745308,17
1745936,14
1746552,24
1747180,33
1747804,43
1748436,35
1749064,25
1749680,17
1750308,11
1750932,15
1751560,13
1752188,14
1752808,15
1753436,15
1754060,15
1754684,15
1755312,21
1755936,23
1756564,21
1757196,22
1757816,25
1758444,28
1759068,30
1759700,33
1760332,34
1760952,19
1761580,15
1762204,14
1762824,22
1763456,20
1764072,18
1764700,22
1765324,19
1765948,14
1766576,11
1767192,11
1767820,13
1768444,24
1769072,34
1769700,30
1770324,32
1770952,18
1771580,43
1772200,45
1772828,30
1773452,24
1774080,21
1774708,17
1775328,16
1775956,29
1776584,39
1777208,36
1777836,32
1778456,25
1779084,19
1779708,18
1780336,12
1780964,31
1781588,48
1782220,30
1782848,19
1783472,16
1784100,10
1784724,11
1785348,16
1785980,23
1786600,33
1787228,33
1787852,27
1788476,18
1789108,16
1789728,34
1790356,51
1790988,48
1791608,32
1792240,21
1792860,18
1793488,31
1794120,36
1794736,38
1795364,35
1795988,31
1796612,26
1797244,10
1797864,24
1798492,38
1799116,31
1799740,21
1800368,19
1800984,19
1801616,14
1802236,14
1802864,14
1803492,17
1804116,16
1804744,16
1805372,19
1805992,20
1806620,16
1807244,14
1807872,10
1808500,11
1809120,11
1809748,23
1810372,33
1810996,30
1811624,25
1812240,29
1812872,29
1813492,17
1814116,11
1814748,22
1815368,27
1816000,27
1816628,22
1817248,21
1817876,15
1818500,22
1819128,21
1819760,14
1820376,14
1821004,17
1821628,17
1822252,21
1822880,12
1823504,15
1824132,23
1824756,41
1825376,53
1826008,51
1826628,48
1827260,40
1827888,32
1828504,21
1829132,20
1829756,23
1830388,14
1831016,10
1831640,19
1832268,21
1832892,17
1833516,15
1834148,26
1834768,40
1835396,35
1836024,28
1836644,21
1837276,16
1837900,17
1838532,16
1839160,22
1839784,19
1840416,20
1841036,16
1841668,19
1842296,23
1842920,32
1843548,47
1844172,39
1844796,25
1845424,15
1846040,16
1846668,11
1847292,19
1847912,37
1848544,43
1849168,34
1849796,18
1850424,10
1851040,10
1851672,13
1852296,16
1852924,15
1853552,18
1854176,15
1854804,19
1855428,25
1856052,28
1856680,26
1857296,12
1857924,12
1858548,19
1859172,17
1859800,41
1860424,46
1861052,42
1861684,44
1862304,41
1862932,30
1863556,19
1864188,10
1864816,20
1865440,28
1866068,21
1866692,24
1867316,23
1867944,22
1868568,27
1869196,23
1869820,18
1870448,17
1871076,15
1871700,11
1872332,12
1872960,18
1873576,24
1874208,18
1874832,16
1875460,19
1876092,28
1876712,31
1877340,37
1877964,35
1878588,48
1879220,37
1879840,17
1880468,17
1881100,30
1881720,30
1882348,24
1882972,26
1883604,24
1884232,15
1884852,14
1885480,16
1886104,15
1886724,15
1887356,14
1887976,16
1888608,11
1889228,11
1889852,12
1890484,22
1891104,33
1891736,49
1892364,50
1892984,38
1893612,31
1894236,29
1894868,16
1895496,14
1896120,16
1896748,10
1897372,11
1897996,21
1898628,32
1899248,33
1899876,35
1900500,27
1901124,27
1901756,37
1902376,46
1903008,29
1903636,15
1904256,14
1904884,20
1905508,41
1906140,43
1906768,34
1907392,30
1908020,21
1908644,20
1909268,32
1909900,38
1910520,50
1911148,51
1911776,37
1912400,33
1913028,24
1913648,20
1914276,13
1914908,14
1915528,28
1916156,36
1916784,40
1917416,41
1918048,41
1918664,38
1919296,27
1919920,19
1920544,15
1921176,15
1921792,13
1922420,31
1923044,37
1923668,31
1924296,26
1924916,19
1925544,18
1926172,16
1926792,25
1927420,31
1928044,14
1928672,18
1929300,16
1929920,32
1930548,33
1931172,17
1931796,10
1932428,18
1933048,42
1933676,39
1934300,23
1934924,15
1935556,16
1936176,20
1936804,17
1937432,14
1938056,13
1938684,10
1939308,11
1939940,18
1940568,25
1941192,26
1941820,17
1942444,26
1943068,42
1943700,31
1944320,28
1944948,21
1945572,18
1946200,16
1946828,10
1947448,16
1948076,24
1948708,23
1949328,23
1949956,14
1950580,18
1951212,15
1951840,10
1952464,15
1953092,14
1953716,14
1954340,15
1954972,12
1955592,21
1956220,22
1956844,17
1957468,11
1958100,10
1958724,14
1959352,23
1959980,28
1960600,33
1961228,33
1961852,34
1962484,28
1963112,24
1963732,11
1964360,12
1964988,23
1965608,32
1966240,37
1966856,44
1967484,39
1968108,30
1968732,33
1969360,26
1969976,17
1970604,37
1971236,28
1971856,23
1972484,20
1973104,20
1973736,18
1974364,19
1974984,21
1975612,22
1976236,28
1976860,32
1977492,33
1978112,31
1978740,21
1979364,17
1979988,11
1980620,10
1981240,12
1981868,24
1982500,36
1983120,42
1983748,40
1984376,41
1985004,36
1985632,30
1986256,16
1986884,15
1987508,16
1988132,27
1988760,12
1989376,27
1990004,19
1990628,22
1991252,41
1991880,46
1992504,49
1993132,51
1993764,44
1994384,39
1995012,29
1995640,31
1996268,30
1996900,23
1997520,12
1998148,13
1998772,13
1999396,20
2000024,17
2000644,20
2001276,31
2001900,43
2002520,48
2003152,32
2003768,18
2004400,15
2005028,18
2005648,28
2006276,22
2006900,19
2007532,43
2008160,51
2008776,51
2009408,43
2010028,27
2010652,14
2011284,14
2011904,18
2012532,16
2013156,14
2013780,11
2014412,10
2015032,20
2015660,25
2016292,24
2016912,25
2017540,17
2018164,13
2018792,16
2019424,13
2020040,14
2020672,15
2021296,15
2021920,11
2022548,16
2023168,16
2023796,14
2024420,16
2025044,21
2025672,23
2026292,31
2026920,36
2027548,24
2028168,20
2028796,14
2029420,17
2030052,10
2030684,10
2031304,12
2031936,10
2032560,16
2033184,24
2033812,20
2034432,26
2035060,33
2035688,28
2036312,21
2036940,16
2037560,15
2038192,12
2038820,16
2039440,12
2040068,10
2040692,10
2041324,16
2041956,23
2042576,39
2043204,52
2043828,59
2044456,53
2045084,28
2045704,15
2046336,13
2046960,10
2047584,11
2048216,14
2048836,19
2049464,22
2050092,14
2050708,10
2051336,10
2051960,24
2052588,29
2053216,25
2053832,19
2054460,15
2055080,16
2055704,21
2056332,26
2056948,27
2057580,22
2058200,21
2058824,25
2059452,35
2060072,41
2060700,47
2061328,44
2061944,19
2062576,14
2063196,14
2063828,26
2064456,31
2065072,24
2065700,28
2066324,33
2066948,32
2067580,28
2068200,31
2068828,31
2069448,20
2070072,15
2070700,24
2071320,38
2071948,33
2072572,22
2073200,13
2073828,9
2074400,12
2075028,23
2075656,37
2076280,48
2076908,42
2077532,29
2078160,24
2078788,18
2079408,16
2080036,11
2080656,13
2081284,28
2081912,37
2082528,27
2083156,14
2083780,10
2084404,14
2085032,29
2085648,22
2086276,15
2086900,15
2087524,15
2088152,10
2088776,18
2089404,23
2090032,12
2090656,10
2091284,16
2091904,32
2092536,49
2093164,46
2093784,38
2094412,31
2095036,26
2095660,21
2096288,13
2096904,11
2097532,14
2098156,22
2098780,29
2099408,32
2100028,35
2100656,46
2101288,38
2101904,31
2102532,16
2103156,14
2103784,15
2104412,14
2105032,13
2105660,32
2106284,43
2106904,44
2107536,37
2108152,26
2108780,25
2109408,36
2110032,33
2110660,25
2111280,25
2111908,19
2112540,16
2113160,11
2113788,21
2114412,31
2115040,32
2115668,26
2116288,23
2116916,11
2117540,12
2118164,16
2118792,12
2119416,17
2120044,21
2120668,18
2121292,14
2121920,13
2122536,14
2123168,16
2123796,22
2124416,31
2125044,28
2125668,28
2126296,34
2126928,29
2127544,20
2128172,19
2128796,23
2129420,15
2130052,10
2130672,10
2131300,11
2131920,15
2132544,20
2133172,20
2133792,29
2134420,37
2135048,26
2135672,16
2136300,15
2136924,20
2137552,16
2138184,10
2138800,10
2139432,16
2140056,27
2140680,23
2141308,10
2141928,15
2142556,21
2143180,20
2143804,19
2144436,22
2145056,26
2145684,26
2146312,16
2146936,11
2147564,13
2148188,20
2148820,27
2149448,39
2150064,35
2150696,18
2151320,11
2151940,13
2152572,14
2153192,17
2153820,23
2154444,21
2155068,10
2155696,12
2156312,24
2156944,17
2157572,31
2158192,45
2158820,45
2159444,51
2160076,62
2160704,55
2161320,33
2161948,19
2162572,14
2163200,14
2163828,19
2164448,22
2165076,25
2165700,28
2166324,32
2166956,28
2167576,24
2168204,19
2168828,23
2169456,26
2170084,16
2170708,15
2171340,19
2171968,24
2172592,24
2173220,20
2173844,27
2174468,29
2175100,32
2175720,40
2176352,45
2176972,37
2177596,24
2178224,18
2178848,15
2179476,14
2180104,10
2180728,11
2181356,28
2181980,37
2182608,39
2183236,24
2183856,16
2184484,20
2185108,18
2185736,19
2186364,13
2186984,23
2187612,26
2188236,23
2188860,18
2189488,18
2190104,16
2190736,16
2191364,17
2191984,20
2192612,23
2193236,15
2193868,15
2194496,17
2195120,15
2195748,16
2196372,16
2197000,16
2197628,9
2198196,12
2198832,11
2199456,10
2200080,17
2200708,28
2201328,29
2201960,24
2202580,13
2203204,16
2203832,14
2204456,17
2205084,14
2205716,20
2206336,18
2206968,25
2207588,20
2208220,20
2208848,27
2209472,34
2210100,35
2210724,27
2211348,18
2211980,17
2212600,15
2213228,10
2213852,18
2214476,25
2215104,28
2215724,24
2216352,17
2216980,20
2217600,23
2218228,15
2218852,15
2219484,14
2220112,15
2220732,14
2221360,12
2221984,10
2222612,15
2223240,20
2223860,26
2224488,34
2225112,46
2225736,48
2226368,44
2226988,37
2227616,30
2228248,25
2228864,23
2229492,17
2230116,11
2230748,19
2231380,30
2232000,37
2232628,29
2233252,16
2233880,20
2234508,20
2235128,24
2235756,26
2236384,25
2237008,22
2237636,19
2238256,23
2238888,20
2239516,16
2240136,10
2240768,35
2241388,55
2242020,62
2242648,75
2243264,77
2243896,58
2244516,38
2245140,21
2245772,17
2246392,11
2247024,25
2247648,43
2248272,49
2248900,43
2249520,39
2250148,34
2250780,18
2251400,14
2252028,13
2252656,15
2253284,14
2253912,17
2254536,20
2255164,17
2255788,20
2256412,19
2257040,16
2257656,19
2258288,25
2258908,40
2259532,42
2260164,46
2260784,33
2261412,26
2262044,26
2262664,27
2263292,10
2263916,15
2264548,26
2265176,34
2265796,34
2266424,37
2267048,33
2267672,23
2268300,17
2268920,19
2269548,15
2270172,14
2270796,15
2271428,16
2272048,24
2272676,27
2273308,24
2273928,27
2274556,17
2275180,19
2275812,34
2276440,38
2277064,41
2277692,34
2278320,16
2278944,16
2279572,22
2280192,29
2280820,21
2281444,17
2282068,15
2282700,26
2283320,29
2283948,27
2284580,17
2285200,13
2285828,13
2286452,15
2287084,14
2287716,14
2288336,14
2288964,18
2289588,23
2290212,17
2290844,13
2291464,19
2292092,37
2292720,52
2293344,51
2293972,34
2294596,25
2295224,20
2295856,16
2296472,19
2297100,22
2297724,16
2298356,18
2298984,17
2299600,14
2300232,17
2300856,12
2301480,15
2302108,27
2302728,30
2303356,30
2303984,27
2304608,13
2305236,14
2305860,23
2306488,29
2307116,23
2307736,19
2308364,21
2308988,35
2309616,48
2310248,45
2310864,42
2311492,30
2312116,24
2312740,17
2313372,10
2313992,10
2314620,13
2315244,32
2315868,38
2316500,38
2317124,30
2317752,34
2318380,39
2319000,34
2319628,17
2320252,14
2320884,23
2321512,27
2322128,27
2322760,20
2323384,14
2324004,18
2324636,26
2325256,37
2325884,47
2326508,50
2327132,47
2327764,39
2328388,29
2329016,20
2329644,14
2330264,10
2330892,25
2331516,44
2332144,38
2332776,34
2333396,38
2334024,46
2334648,27
2335272,18
2335904,13
2336524,14
2337152,15
2337776,14
2338400,13
2339028,11
2339652,10
2340284,13
2340912,22
2341532,35
2342160,46
2342784,51
2343412,52
2344044,44
2344664,42
2345292,36
2345916,26
2346540,12
2347172,10
2347792,22
2348420,31
2349048,39
2349672,39
2350300,31
2350924,34
2351556,31
2352188,27
2352808,23
2353436,17
2354064,14
2354692,14
2355324,10
2355944,11
2356572,11
2357196,17
2357820,28
2358452,44
2359072,57
2359700,67
2360332,62
2360952,45
2361580,29
2362208,26
2362836,17
2363468,10
2364088,26
2364716,45
2365344,43
2365968,31
2366596,24
2367216,27
2367844,25
2368472,23
2369096,16
2369724,14
2370344,15
2370972,16
2371604,12
2372224,12
2372852,20
2373476,32
2374108,27
2374740,28
2375360,44
2375992,50
2376616,53
2377240,41
2377868,30
2378488,23
2379116,15
2379740,10
2380368,15
2380996,20
2381616,28
2382244,31
2382876,26
2383496,18
2384124,10
2384748,13
2385380,32
2386008,30
2386632,19
2387260,15
2387884,13
2388508,11
2389140,11
2389760,12
2390388,19
2391016,23
2391640,23
2392272,34
2392888,42
2393520,31
2394152,15
2394768,17
2395400,15
2396024,15
2396656,17
2397284,19
2397904,19
2398536,10
2399160,26
2399784,16
2400416,10
2401032,10
2401660,21
2402284,30
2402908,22
2403536,14
2404160,15
2404788,11
2405420,11
2406040,16
2406668,11
2407292,22
2407924,46
2408552,50
2409172,43
2409800,43
2410424,41
2411048,27
2411676,19
2412296,15
2412924,19
2413548,22
2414172,15
2414804,13
2415428,13
2416056,30
2416688,43
2417304,49
2417932,31
2418556,19
2419188,14
2419816,14
2420440,16
2421068,18
2421692,10
2422316,11
2422948,14
2423568,16
2424196,14
2424824,15
2425448,42
2426076,67
2426700,49
2427332,47
2427964,33
2428584,31
2429216,39
2429840,37
2430468,13
2431100,24
2431720,49
2432352,21
2432976,13
2433596,20
2434228,20
2434848,14
2435476,17
2436108,14
2436728,21
2437356,15
2437980,33
2438612,20
2439244,16
2439864,26
2440492,20
2441116,28
2441740,20
2442372,54
2442992,60
2443620,49
2444244,51
2444872,26
2445500,20
2446120,29
2446748,79
2447380,66
2448000,19
2448628,40
2449252,33
2449884,38
2450516,31
2451136,26
2451768,23
2452392,21
2453016,15
2453648,14
2454264,15
2454896,28
2455520,24
2456144,13
2456776,17
2457392,14
2458024,19
2458656,42
2459272,61
2459900,62
2460524,43
2461152,22
2461780,16
2462400,16
2463028,11
2463652,12
2464276,12
2464904,34
2465520,46
2466152,47
2466776,22
2467396,23
2468028,20
2468648,21
2469276,18
2469904,27
2470524,21
2471152,13
2471776,11
2472404,13
2473036,14
2473656,12
2474284,15
2474908,30
2475532,58
2476160,61
2476784,39
2477416,27
2478040,17
2478664,27
2479292,22
2479912,11
2480544,25
2481172,33
2481792,33
2482420,37
2483044,23
2483676,21
2484304,29
2484924,19
2485552,14
2486176,17
2486800,15
2487428,16
2488048,20
2488676,18
2489300,35
2489924,22
2490552,12
2491176,12
2491808,31
2492436,48
2493056,52
2493688,47
2494308,35
2494940,30
2495572,20
2496192,12
2496820,19
2497444,39
2498068,31
2498696,20
2499320,26
2499948,31
2500572,25
2501196,17
2501824,23
2502448,20
2503076,20
2503708,30
2504328,30
2504956,24
2505580,24
2506212,25
2506844,22
2507464,18
2508096,19
2508720,25
2509344,25
2509972,26
2510592,21
2511220,13
2511848,15
2512472,14
2513100,11
2513720,13
2514348,13
2514980,20
2515600,27
2516228,22
2516852,19
2517484,12
2518116,14
2518736,23
2519368,20
2519992,14
2520616,14
2521244,13
2521864,11
2522492,15
2523116,15
2523740,21
2524372,24
2524996,22
2525628,27
2526256,36
2526880,37
2527508,36
2528136,32
2528764,27
2529396,17
2530016,11
2530644,15
2531268,19
2531892,27
2532524,30
2533144,19
2533776,22
2534404,21
2535024,26
2535652,21
2536280,16
2536908,24
2537540,24
2538160,12
2538792,18
2539416,31
2540040,24
2540668,18
2541288,15
2541916,37
2542544,57
2543168,49
2543800,35
2544416,16
2545044,15
2545676,22
2546296,23
2546928,11
2547552,11
2548184,16
2548812,10
2549432,20
2550064,35
2550688,18
2551312,24
2551944,21
2552564,19
2553192,31
2553820,26
2554444,14
2555076,20
2555696,22
2556328,12
2556956,12
2557576,22
2558208,47
2558832,43
2559464,38
2560096,31
2560712,40
2561340,42
2561960,32
2562580,23
2563208,18
2563828,13
2564460,10
2565080,18
2565704,39
2566332,54
2566952,65
2567580,63
2568208,24
2568828,18
2569460,14
2570080,24
2570712,21
2571340,22
2571960,17
2572588,16
2573212,18
2573836,19
2574464,23
2575080,42
2575708,53
2576332,53
2576956,38
2577584,19
2578204,14
2578832,15
2579460,11
2580080,13
2580708,25
2581332,30
2581960,28
2582592,27
2583208,20
2583836,10
2584460,17
2585088,17
2585720,12
2586336,21
2586964,21
2587588,15
2588212,14
2588840,27
2589456,19
2590084,18
2590708,30
2591332,43
2591964,64
2592588,59
2593216,44
2593844,30
2594464,37
2595092,26
2595716,19
2596348,11
2596976,19
2597596,26
2598224,23
2598848,16
2599472,22
2600100,11
2600720,11
2601348,14
2601972,20
2602596,24
2603224,19
2603848,15
2604476,11
2605108,10
2605728,15
2606356,18
2606980,11
2607612,13
2608244,24
2608864,39
2609492,41
2610116,41
2610740,33
2611372,28
2611992,24
2612620,16
2613244,10
2613872,24
2614500,29
2615124,33
2615756,33
2616384,23
2617008,19
2617636,24
2618260,26
2618884,43
2619516,44
2620136,27
2620768,15
2621392,13
2622016,12
2622644,21
2623264,34
2623892,31
2624520,16
2625140,36
2625772,49
2626392,63
2627020,49
2627648,32
2628272,20
2628900,16
2629520,11
2630148,12
2630780,14
2631400,13
2632028,10
2632652,14
2633272,19
2633900,11
2634520,13
2635148,19
2635772,29
2636400,25
2637028,15
2637652,15
2638280,11
2638908,11
2639528,13
2640156,13
2640780,18
2641408,25
2642036,30
2642652,69
2643284,78
2643904,49
2644528,34
2645156,26
2645776,22
2646404,11
2647024,11
2647648,21
2648280,30
2648900,39
2649532,38
2650160,26
2650784,19
2651412,17
2652036,16
2652664,15
2653296,20
2653912,15
2654540,13
2655164,12
2655788,17
2656420,12
2657040,11
2657668,11
2658292,17
2658912,33
2659544,38
2660168,25
2660796,24
2661424,38
2662048,27
2662676,14
2663300,11
2663928,15
2664556,25
2665176,37
2665804,51
2666424,23
2667048,11
2667676,10
2668296,16
2668924,14
2669544,20
2670168,34
2670796,29
2671416,15
2672044,34
2672672,40
2673292,44
2673924,35
2674544,39
2675176,49
2675804,58
2676424,54
2677052,37
2677676,17
2678300,16
2678928,20
2679552,11
2680180,11
2680804,10
2681428,17
2682056,25
2682676,19
2683304,27
2683932,34
2684552,35
2685180,35
2685804,28
2686432,15
2687064,15
2687680,22
2688308,29
2688932,21
2689556,14
2690184,16
2690800,24
2691428,25
2692052,31
2692672,36
2693304,42
2693920,39
2694548,22
2695176,21
2695800,28
2696428,15
2697052,14
2697680,25
2698308,44
2698928,32
2699556,14
2700180,15
2700804,25
2701436,30
2702056,24
2702684,21
2703308,16
2703932,18
2704564,18
2705184,16
2705812,16
2706440,15
2707064,22
2707692,28
2708316,19
2708944,22
2709576,31
2710192,38
2710820,32
2711444,27
2712068,22
2712700,17
2713320,17
2713948,11
2714572,10
2715196,23
2715824,34
2716448,38
2717076,27
2717708,14
2718328,21
2718956,24
2719580,20
2720212,17
2720840,14
2721456,10
2722088,16
2722708,19
2723332,11
2723964,14
2724584,27
2725212,47
2725832,50
2726456,45
2727084,28
2727704,18
2728332,14
2728956,13
2729580,11
2730208,27
2730832,64
2731460,37
2732092,20
2732712,13
2733340,24
2733964,24
2734596,15
2735224,14
2735848,18
2736476,22
2737100,19
2737724,15
2738356,18
2738976,14
2739604,17
2740236,24
2740856,23
2741484,22
2742108,32
2742736,39
2743368,40
2743984,30
2744616,27
2745240,18
2745864,15
2746492,18
2747112,29
2747740,30
2748364,28
2748988,33
2749620,33
2750240,19
2750868,12
2751500,22
2752120,34
2752748,21
2753372,14
2754000,15
2754628,16
2755248,15
2755876,18
2756500,15
2757124,30
2757756,38
2758376,53
2759008,68
2759632,66
2760256,53
2760884,32
2761504,18
2762132,16
2762764,11
2763384,11
2764012,15
2764640,21
2765268,27
2765896,34
2766520,33
2767148,27
2767772,30
2768396,25
2769024,16
2769648,15
2770276,15
2770900,16
2771524,15
2772152,16
2772776,19
2773404,10
2774036,10
2774656,29
2775284,36
2775908,49
2776540,56
2777172,43
2777792,29
2778420,19
2779044,19
2779668,10
2780300,28
2780920,26
2781548,15
2782172,11
2782800,25
2783428,30
2784048,21
2784676,24
2785308,43
2785928,45
2786556,33
2787180,16
2787808,11
2788436,18
2789056,14
2789684,27
2790308,42
2790932,18
2791564,14
2792184,40
2792812,53
2793436,50
2794060,37
2794692,37
2795312,43
2795940,24
2796572,11
2797192,23
2797820,35
2798448,37
2799076,27
2799708,17
2800328,21
2800956,23
2801580,25
2802204,24
2802832,16
2803456,33
2804084,24
2804708,15
2805332,12
2805960,21
2806584,18
2807212,20
2807844,20
2808464,27
2809092,43
2809716,51
2810348,39
2810976,16
2811596,17
2812224,15
2812848,14
2813472,11
2814100,17
2814720,34
2815348,39
2815976,41
2816600,35
2817228,19
2817848,13
2818476,18
2819104,14
2819728,14
2820356,18
2820980,15
2821608,13
2822240,27
2822856,31
2823484,36
2824108,25
2824732,12
2825360,10
2825984,11
2826612,30
2827236,43
2827860,37
2828488,27
2829104,20
2829736,12
2830364,38
2830984,58
2831612,29
2832236,17
2832868,27
2833496,30
2834112,22
2834744,11
2835368,16
2835992,16
2836620,16
2837240,18
2837868,11
2838492,17
2839116,29
2839748,28
2840368,28
2840996,24
2841628,18
2842248,20
2842876,38
2843500,36
2844132,23
2844760,16
2845380,13
2846008,22
2846632,28
2847256,33
2847884,24
2848504,11
2849132,16
2849756,24
2850380,21
2851012,19
2851632,24
2852260,13
2852892,18
2853512,19
2854144,18
2854768,21
2855396,23
2856028,22
2856648,20
2857276,11
2857900,13
2858524,18
2859156,30
2859776,53
2860408,47
2861032,41
2861656,31
2862284,30
2862904,11
2863532,23
2864164,26
2864784,18
2865412,18
2866040,33
2866668,39
2867300,20
2867916,13
2868548,22
2869172,25
2869792,14
2870420,15
2871040,17
2871668,23
2872292,17
2872916,12
2873548,15
2874168,25
2874796,34
2875428,40
2876048,40
2876676,27
2877300,23
2877932,17
2878564,14
2879184,15
2879816,14
2880440,29
2881060,21
2881688,16
2882308,22
2882940,25
2883564,17
2884184,13
2884812,16
2885432,25
2886060,23
2886688,15
2887312,14
2887940,20
2888564,15
2889192,17
2889820,33
2890440,44
2891068,41
2891692,40
2892316,43
2892944,47
2893560,48
2894192,38
2894816,26
2895436,17
2896068,16
2896688,11
2897316,15
2897944,13
2898560,17
2899192,21
2899816,24
2900444,25
2901076,22
2901696,15
2902324,17
2902952,24
2903576,19
2904204,14
2904824,12
2905452,13
2906076,13
2906700,12
2907332,16
2907952,15
2908584,45
2909212,52
2909832,49
2910460,50
2911084,52
2911716,54
2912344,26
2912968,12
2913596,19
2914220,22
2914844,16
2915476,26
2916096,39
2916724,33
2917348,37
2917976,23
2918604,23
2919224,17
2919852,14
2920480,14
2921104,14
2921732,18
2922356,13
2922988,27
2923616,20
2924232,13
2924864,16
2925488,28
2926112,31
2926740,16
2927360,15
2927988,21
2928616,42
2929240,47
2929868,37
2930488,14
2931116,13
2931748,19
2932368,26
2932996,17
2933620,11
2934252,11
2934884,16
2935504,17
2936136,18
2936760,14
2937384,15
2938016,10
2938632,14
2939264,16
2939888,15
2940512,15
2941140,17
2941768,29
2942396,35
2943028,42
2943648,34
2944280,18
2944904,17
2945532,15
2946164,18
2946784,11
2947412,19
2948036,21
2948664,20
2949292,23
2949912,29
2950540,41
2951164,42
2951792,27
2952420,16
2953044,17
2953672,33
2954304,41
2954920,42
2955552,37
2956176,27
2956804,13
2957432,12
2958052,13
2958680,28
2959304,33
2959932,42
2960560,37
2961176,23
2961808,19
2962436,13
2963056,21
2963684,24
2964308,29
2964940,24
2965568,22
2966188,20
2966816,16
2967440,16
2968068,22
2968700,30
2969320,15
2969952,17
2970572,27
2971196,39
2971824,30
2972448,11
2973076,15
2973708,10
2974328,11
2974956,24
2975580,31
2976212,41
2976840,49
2977456,54
2978088,38
2978712,21
2979336,11
2979964,27
2980584,36
2981212,57
2981836,44
2982460,17
2983088,14
2983712,10
2984340,20
2984972,24
2985592,23
2986220,25
2986844,19
2987476,16
2988108,28
2988728,40
2989360,43
2989984,31
2990608,16
2991236,16
2991856,25
2992484,46
2993108,45
2993736,31
2994364,26
2994984,16
2995616,15
2996244,11
2996864,11
2997492,17
2998116,33
2998748,43
2999376,32
3000000,28
3000628,21
3001252,17
3001876,17
3002508,24
3003128,27
3003756,21
3004384,11
3005008,16
3005640,43
3006256,40
3006888,25
3007516,22
3008136,29
3008768,36
3009392,29
3010020,32
3010652,25
3011272,29
3011900,31
3012524,21
3013148,11
3013780,14
3014400,23
3015028,21
3015652,27
3016280,27
3016908,15
3017528,13
3018160,22
3018788,13
3019408,15
3020040,15
3020664,19
3021296,24
3021924,28
3022544,38
3023176,35
3023800,31
3024424,37
3025052,38
3025672,39
3026304,35
3026928,18
3027552,14
3028184,14
3028808,18
3029436,20
3030068,14
3030688,13
3031320,14
3031944,11
3032572,13
3033204,27
3033824,23
3034452,39
3035080,41
3035704,25
3036332,20
3036952,24
3037584,13
3038212,26
3038832,33
3039464,24
3040088,13
3040716,11
3041348,12
3041968,41
3042596,61
3043220,59
3043848,48
3044476,36
3045096,32
3045728,19
3046352,13
3046976,24
3047604,23
3048224,27
3048852,38
3049484,34
3050104,16
3050736,10
3051360,12
3051988,15
3052620,14
3053240,16
3053868,17
3054496,13
3055120,11
3055752,14
3056368,12
3057000,28
3057624,54
3058248,53
3058880,41
3059496,40
3060128,36
3060756,32
3061376,25
3062008,16
3062632,15
3063264,10
3063892,12
3064512,20
3065144,33
3065768,30
3066392,22
3067024,20
3067644,20
3068272,25
3068900,31
3069524,41
3070156,48
3070776,26
3071408,13
3072044,10
3072660,11
3073288,18
3073912,39
3074540,35
3075172,40
3075792,60
3076420,73
3077044,87
3077668,71
3078300,39
3078920,17
3079548,13
3080172,24
3080796,11
3081428,33
3082052,74
3082680,67
3083308,28
3083928,16
3084556,10
3085180,18
3085812,18
3086440,22
3087064,18
3087692,22
3088316,26
3088940,20
3089572,16
3090192,13
3090820,25
3091448,35
3092072,49
3092700,75
3093324,56
3093956,31
3094584,24
3095208,24
3095836,12
3096464,23
3097092,21
3097724,26
3098344,35
3098972,38
3099596,36
3100220,27
3100852,30
3101472,24
3102104,17
3102732,15
3103352,21
3103984,23
3104608,19
3105236,18
3105868,11
3106488,15
3107116,11
3107744,15
3108368,38
3109000,41
3109616,50
3110248,52
3110872,43
3111496,25
3112128,14
3112744,12
3113376,11
3114004,19
3114624,29
3115252,23
3115880,20
3116508,14
3117140,10
3117760,16
3118388,18
3119016,17
3119640,16
3120272,15
3120888,12
3121516,10
3122140,10
3122768,9
3123344,10
3123968,21
3124600,32
3125224,20
3125848,36
3126476,54
3127096,37
3127724,23
3128356,14
3128976,15
3129604,15
3130228,15
3130860,14
3131488,21
3132112,19
3132744,12
3133368,10
3133992,10
3134624,11
3135240,14
3135872,14
3136496,15
3137120,19
3137748,13
3138372,13
3139004,17
3139632,24
3140256,27
3140884,27
3141508,29
3142140,37
3142772,48
3143392,39
3144024,23
3144644,14
3145268,16
3145900,12
3146520,13
3147152,22
3147780,38
3148400,43
3149032,35
3149656,25
3150284,13
3150916,20
3151536,41
3152168,37
3152792,27
3153416,16
3154048,16
3154664,25
3155292,34
3155920,37
3156544,22
3157172,21
3157792,50
3158424,63
3159052,64
3159672,57
3160304,33
3160928,21
3161560,16
3162192,16
3162808,12
3163440,11
3164064,27
3164688,25
3165320,20
3165936,29
3166568,43
3167192,31
3167816,15
3168448,13
3169072,18
3169704,17
3170332,16
3170952,17
3171584,19
3172208,12
3172840,13
3173468,12
3174088,22
3174720,38
3175344,54
3175968,56
3176600,58
3177216,48
3177848,28
3178472,19
3179096,13
3179728,13
3180344,10
3180976,19
3181604,38
3182224,33
3182856,23
3183480,12
3184112,11
3184740,17
3185360,31
3185992,21
3186616,15
3187240,20
3187868,13
3188488,11
3189116,10
3189744,11
3190368,10
3191000,14
3191628,21
3192260,37
3192892,54
3193512,58
3194144,52
3194772,26
3195400,19
3196032,21
3196648,12
3197280,11
3197904,19
3198528,37
3199160,51
3199780,31
3200412,13
3201040,12
3201664,19
3202292,16
3202912,13
3203544,15
3204172,30
3204792,35
3205420,37
3206044,31
3206668,31
3207296,38
3207912,34
3208544,34
3209168,38
3209788,45
3210420,21
3211040,15
3211668,14
3212300,16
3212920,10
3213548,10
3214172,19
3214804,42
3215432,54
3216048,39
3216676,25
3217300,21
3217924,19
3218556,16
3219176,17
3219808,16
3220428,17
3221052,18
3221684,12
3222304,11
3222932,10
3223564,15
3224184,21
3224812,26
3225436,40
3226068,36
3226696,39
3227320,44
3227948,33
3228572,21
3229196,19
3229828,16
3230448,29
3231076,55
3231700,57
3232328,35
3232956,12
3233576,9
3234152,27
3234784,35
3235408,17
3236036,22
3236656,22
3237284,16
3237912,10
3238536,24
3239164,42
3239788,39
3240420,27
3241048,31
3241664,33
3242296,33
3242920,37
3243540,34
3244172,24
3244792,17
3245424,15
3246048,11
3246672,16
3247300,29
3247920,39
3248552,31
3249180,30
3249800,29
3250428,20
3251052,13
3251684,20
3252316,22
3252936,27
3253564,21
3254192,11
3254816,12
3255444,22
3256064,25
3256692,16
3257316,13
3257940,25
3258572,40
3259192,32
3259824,22
3260452,17
3261072,15
3261704,17
3262328,16
3262956,12
3263588,10
3264208,9
3264788,11
3265416,12
3266044,11
3266676,10
3267296,12
3267924,15
3268548,14
3269172,15
3269804,14
3270424,15
3271052,10
3271680,12
3272304,11
3272936,21
3273560,17
3274192,12
3274824,14
3275440,28
3276072,30
3276696,18
3277324,18
3277952,14
3278568,13
3279196,11
3279820,10
3280444,10
3281072,13
3281688,19
3282316,13
3282936,12
3283556,13
3284188,10
3284808,15
3285436,33
3286064,30
3286680,19
3287308,17
3287932,10
3288560,22
3289188,18
3289808,16
3290436,13
3291056,11
3291680,17
3292308,28
3292928,39
3293556,43
3294176,36
3294800,31
3295428,31
3296048,29
3296676,18
3297304,10
3297920,19
3298548,29
3299172,33
3299800,32
3300428,23
3301048,24
3301676,27
3302300,17
3302924,15
3303552,14
3304168,11
3304796,17
3305420,18
3306044,16
3306672,12
3307296,9
3307872,17
3308496,26
3309116,39
3309748,56
3310368,60
3310996,37
3311628,16
3312248,14
3312876,11
3313500,15
3314128,20
3314760,22
3315376,31
3316008,31
3316632,27
3317252,22
3317884,22
3318504,17
3319132,14
3319756,14
3320380,15
3321008,13
3321624,10
3322252,10
3322876,12
3323504,23
3324132,27
3324756,43
3325388,57
3326020,60
3326640,41
3327268,35
3327892,22
3328520,15
3329148,10
3329768,28
3330396,38
3331020,49
3331640,49
3332268,19
3332888,11
3333516,18
3334140,15
3334760,13
3335392,13
3336012,17
3336644,24
3337272,16
3337888,13
3338516,17
3339140,11
3339768,11
3340400,10
3341016,10
3341644,10
3342268,30
3342888,69
3343520,89
3344136,74
3344764,36
3345388,22
3346012,14
3346640,10
3347256,14
3347888,19
3348516,12
3349136,12
3349764,10
3350388,13
3351016,26
3351648,33
3352268,22
3352896,15
3353520,14
3354144,17
3354772,11
3355392,11
3356020,11
3356644,12
3357268,15
3357900,16
3358520,35
3359148,46
3359780,49
3360400,45
3361028,28
3361648,15
3362276,13
3362908,11
3363528,22
3364156,27
3364780,29
3365400,33
3366032,27
3366648,21
3367276,16
3367900,17
3368524,13
3369152,16
3369768,13
3370396,15
3371028,12
3371648,11
3372276,17
3372900,21
3373528,23
3374160,32
3374776,47
3375404,51
3376028,44
3376652,27
3377280,16
3377900,31
3378528,28
3379152,36
3379776,22
3380404,11
3381024,10
3381652,9
3382224,10
3382848,11
3383476,10
3384096,11
3384724,17
3385352,22
3385976,21
3386604,19
3387228,17
3387856,11
3388484,10
3389104,11
3389732,13
3390356,10
3390984,20
3391612,40
3392232,51
3392860,62
3393484,60
3394108,42
3394736,30
3395352,17
3395980,13
3396604,37
3397232,65
3397860,59
3398484,42
3399112,22
3399744,11
3400360,11
3400988,11
3401612,18
3402240,21
3402868,26
3403488,30
3404116,21
3404740,10
3405364,10
3405996,12
3406616,19
3407244,21
3407868,36
3408496,47
3409124,60
3409748,58
3410376,46
3411008,45
3411624,39
3412256,24
3412880,11
3413508,20
3414136,30
3414760,39
3415388,33
3416012,27
3416636,15
3417268,12
3417888,20
3418516,13
3419148,16
3419768,19
3420396,14
3421020,25
3421652,27
3422280,30
3422904,28
3423532,30
3424160,35
3424780,29
3425412,15
3426032,11
3426660,18
3427284,20
3427908,17
3428540,14
3429160,20
3429788,25
3430420,14
3431040,19
3431668,29
3432292,20
3432924,19
3433552,26
3434172,33
3434800,37
3435428,42
3436052,31
3436680,16
3437300,16
3437928,18
3438556,10
3439180,15
3439812,31
3440432,28
3441064,17
3441692,16
3442312,27
3442940,32
3443564,39
3444192,34
3444824,51
3445440,40
3446068,31
3446692,10
3447316,26
3447944,36
3448568,40
3449196,36
3449820,17
3450444,10
3451076,12
3451696,16
3452324,24
3452956,14
3453576,14
3454204,11
3454832,13
3455460,18
3456092,14
3456708,14
3457340,35
3457964,45
3458584,63
3459216,56
3459832,24
3460460,14
3461084,13
3461708,15
3462340,11
3462960,11
3463588,10
3464220,10
3464840,11
3465468,10
3466092,9
3466668,13
3467300,31
3467920,39
3468548,35
3469176,30
3469804,27
3470432,16
3471056,20
3471684,24
3472308,24
3472932,25
3473564,28
3474184,28
3474812,46
3475436,58
3476064,64
3476692,41
3477316,20
3477948,14
3478576,22
3479200,24
3479828,17
3480456,27
3481084,38
3481716,39
3482336,29
3482964,22
3483584,13
3484208,11
3484840,16
3485456,15
3486084,16
3486708,17
3487332,14
3487960,12
3488588,15
3489216,21
3489844,15
3490464,11
3491092,22
3491716,40
3492348,48
3492976,46
3493600,35
3494228,29
3494852,20
3495476,13
3496108,14
3496728,18
3497356,19
3497980,18
3498608,15
3499236,14
3499860,18
3500492,25
3501124,31
3501744,22
3502376,16
3503000,21
3503624,21
3504252,10
3504872,16
3505500,32
3506128,25
3506752,15
3507380,17
3508000,28
3508628,46
3509260,70
3509880,62
3510508,38
3511136,31
3511764,17
3512396,16
3513016,26
3513648,26
3514268,35
3514896,41
3515524,32
3516144,22
3516776,21
3517400,23
3518024,21
3518656,15
3519272,14
3519904,14
3520536,16
3521152,16
3521784,24
3522408,32
3523036,33
3523668,18
3524288,11
3524916,19
3525540,43
3526164,45
3526796,32
3527416,33
3528044,17
3528668,18
3529292,21
3529920,24
3530536,12
3531168,21
3531800,38
3532416,48
3533048,55
3533668,52
3534300,29
3534928,15
3535548,14
3536176,16
3536800,15
3537420,13
3538052,10
3538672,15
3539300,13
3539924,14
3540548,18
3541180,22
3541800,26
3542428,31
3543060,38
3543680,33
3544308,30
3544932,31
3545564,25
3546196,16
3546816,11
3547444,20
3548068,22
3548692,31
3549324,35
3549944,31
3550576,12
3551200,13
3551824,13
3552456,16
3553072,16
3553704,15
3554332,16
3554952,11
3555584,11
3556208,10
3556836,16
3557468,26
3558088,44
3558720,42
3559340,50
3559968,37
3560596,19
3561216,19
3561844,20
3562468,10
3563092,10
3563724,14
3564344,24
3564972,26
3565604,24
3566224,27
3566852,16
3567480,21
3568108,23
3568740,24
3569360,30
3569988,15
3570612,13
3571240,17
3571868,19
3572488,18
3573116,28
3573744,37
3574368,37
3575000,33
3575624,29
3576256,38
3576884,26
3577504,19
3578136,35
3578760,29
3579392,10
3580020,24
3580640,31
3581272,33
3581896,34
3582520,22
3583152,20
3583772,25
3584404,24
3585032,28
3585648,21
3586280,16
3586900,14
3587532,14
3588160,10
3588784,10
3589412,14
3590036,19
3590664,13
3591292,20
3591912,41
3592544,63
3593168,79
3593792,67
3594420,42
3595040,23
3595668,12
3596300,11
3596920,19
3597548,29
3598172,29
3598804,25
3599436,25
3600056,32
3600684,34
3601308,18
3601932,15
3602560,16
3603184,16
3603816,15
3604440,11
3605064,13
3605692,11
3606312,11
3606940,12
3607572,12
3608192,25
3608820,52
3609444,64
3610072,74
3610704,61
3611320,34
3611952,21
3612576,11
3613200,12
3613828,17
3614448,35
3615076,44
3615700,35
3616324,33
3616952,28
3617576,17
3618204,17
3618836,14
3619456,16
3620084,17
3620708,11
3621340,10
3621968,10
3622588,11
3623216,22
3623840,38
3624464,49
3625092,49
3625712,49
3626340,29
3626964,28
3627588,23
3628216,15
3628840,13
3629468,21
3630100,28
3630720,20
3631348,21
3631976,16
3632604,21
3633236,22
3633856,21
3634484,22
3635112,29
3635736,24
3636364,21
3636984,24
3637612,16
3638236,13
3638860,32
3639492,30
3640112,33
3640740,45
3641372,52
3641992,52
3642620,48
3643244,47
3643876,36
3644508,20
3645128,15
3645756,12
3646384,19
3647008,27
3647636,29
3648256,25
3648884,21
3649508,20
3650132,19
3650760,23
3651380,25
3652008,16
3652636,15
3653256,17
3653884,12
3654508,11
3655140,14
3655772,16
3656392,23
3657020,26
3657644,24
3658268,26
3658900,29
3659520,29
3660148,20
3660776,16
3661400,17
3662028,14
3662648,19
3663276,30
3663908,12
3664528,10
3665156,10
3665784,11
3666412,19
3667044,14
3667664,15
3668292,18
3668920,24
3669544,21
3670172,14
3670792,16
3671424,26
3672048,26
3672672,26
3673300,22
3673928,18
3674556,19
3675188,10
3675808,11
3676440,14
3677064,13
3677696,14
3678324,18
3678944,17
3679576,23
3680200,31
3680824,27
3681452,13
3682072,11
3682700,10
3683328,11
3683952,11
3684584,13
3685208,12
3685836,15
3686468,14
3687084,19
3687716,23
3688336,17
3688964,12
3689592,10
3690212,23
3690840,41
3691464,52
3692088,56
3692716,52
3693336,41
3693964,30
3694588,16
3695216,17
3695844,16
3696468,22
3697100,34
3697728,40
3698352,40
3698980,31
3699604,24
3700228,18
3700860,12
3701480,15
3702108,16
3702732,15
3703356,14
3703988,10
3704608,23
3705236,28
3705868,15
3706488,11
3707116,13
3707744,15
3708372,28
3709004,38
3709624,41
3710252,30
3710880,17
3711504,19
3712136,26
3712752,27
3713380,13
3714004,17
3714628,29
3715256,34
3715880,32
3716508,18
3717140,16
3717760,13
3718388,14
3719012,15
3719644,16
3720276,21
3720896,27
3721524,30
3722152,32
3722776,29
3723404,16
3724024,11
3724652,11
3725280,16
3725904,25
3726532,30
3727152,39
3727784,43
3728412,30
3729032,15
3729660,14
3730284,27
3730916,39
3731544,39
3732168,32
3732796,19
3733424,10
3734048,12
3734676,25
3735296,17
3735928,15
3736552,17
3737176,13
3737808,16
3738424,22
3739052,12
3739684,10
3740304,15
3740932,28
3741560,45
3742188,49
3742820,30
3743440,13
3744068,15
3744692,15
3745316,15
3745948,12
3746568,11
3747196,17
3747824,17
3748448,11
3749076,10
3749704,15
3750332,15
3750964,17
3751584,41
3752216,49
3752840,25
3753468,17
3754100,12
3754720,17
3755352,29
3755976,29
3756600,34
3757232,41
3757848,48
3758480,47
3759108,49
3759728,46
3760360,36
3760984,21
3761612,18
3762244,10
3762864,23
3763496,35
3764120,37
3764744,35
3765376,35
3765992,40
3766624,33
3767248,31
3767872,34
3768504,20
3769120,15
3769748,15
3770380,16
3771000,29
3771628,33
3772256,36
3772884,34
3773516,24
3774136,25
3774768,32
3775392,39
3776016,33
3776644,19
3777264,21
3777892,30
3778520,29
3779144,19
3779772,11
3780392,11
3781024,19
3781652,23
3782272,24
3782904,21
3783528,19
3784160,20
3784788,19
3785408,17
3786040,15
3786664,15
3787288,11
3787920,10
3788536,10
3789168,11
3789792,15
3790416,23
3791044,31
3791664,31
3792296,35
3792924,42
3793544,41
3794176,23
3794800,15
3795428,12
3796060,10
3796680,11
3797308,15
3797936,31
3798560,41
3799188,38
3799808,35
3800440,35
3801064,33
3801688,21
3802316,14
3802936,21
3803564,24
3804196,25
3804816,22
3805444,22
3806068,27
3806700,19
3807332,19
3807952,28
3808584,41
3809208,50
3809836,45
3810464,39
3811084,44
3811716,28
3812340,14
3812964,18
3813596,37
3814220,36
3814852,27
3815480,22
3816104,20
3816732,14
3817360,20
3817988,33
3818620,36
3819240,26
3819872,20
3820496,17
3821120,22
3821748,11
3822368,14
3823000,14
3823632,16
3824252,33
3824880,63
3825504,59
3826136,44
3826768,28
3827392,29
3828024,25
3828648,15
3829272,9
3829852,13
3830476,16
3831108,15
3831732,12
3832360,15
3832988,19
3833608,21
3834236,18
3834864,28
3835488,29
3836120,16
3836744,24
3837376,20
3838008,10
3838632,18
3839268,27
3839892,21
3840520,13
3841152,21
3841768,28
3842396,24
3843020,23
3843644,36
3844272,48
3844896,52
3845524,29
3846156,12
3846776,13
3847404,23
3848028,34
3848660,39
3849288,28
3849904,18
3850536,19
3851160,31
3851784,33
3852412,30
3853032,19
3853660,14
3854284,13
3854908,13
3855536,10
3856160,12
3856788,16
3857420,34
3858040,63
3858668,78
3859292,81
3859924,61
3860552,28
3861172,17
3861800,37
3862424,37
3863048,26
3863676,18
3864296,13
3864924,12
3865552,10
3866176,13
3866804,14
3867424,21
3868052,27
3868684,18
3869304,16
3869932,15
3870560,25
3871188,29
3871820,20
3872440,11
3873068,12
3873692,15
3874316,29
3874948,42
3875568,38
3876200,36
3876824,34
3877444,16
3878076,16
3878696,20
3879324,15
3879956,16
3880576,23
3881208,25
3881832,20
3882460,21
3883092,28
3883712,33
3884344,25
3884968,14
3885592,15
3886220,14
3886840,28
3887468,27
3888096,27
3888720,33
3889348,30
3889968,17
3890600,18
3891228,25
3891848,19
3892476,27
3893100,23
3893732,14
3894360,14
3894984,21
3895612,16
3896240,10
3896864,12
3897492,10
3898112,11
3898740,9
3899316,10
3899944,20
3900576,31
3901192,34
3901824,35
3902448,27
3903072,18
3903704,13
3904328,16
3904956,11
3905588,10
3906208,10
3906836,13
3907464,34
3908092,41
3908724,44
3909344,38
3909976,37
3910600,40
3911224,29
3911856,19
3912472,11
3913104,12
3913736,22
3914352,31
3914984,33
3915608,42
3916236,49
3916868,41
3917488,24
3918116,14
3918744,13
3919368,16
3920000,23
3920616,20
3921244,15
3921872,13
3922496,13
3923124,14
3923744,35
3924376,64
3925004,58
3925624,40
3926256,21
3926880,21
3927508,32
3928140,26
3928760,17
3929392,10
3930016,20
3930640,23
3931272,37
3931888,42
3932520,23
3933144,11
3933768,19
3934396,24
3935016,16
3935644,19
3936276,14
3936896,15
3937524,12
3938148,11
3938780,10
3939408,12
3940028,21
3940656,31
3941280,34
3941904,36
3942536,33
3943152,31
3943780,21
3944404,26
3945028,27
3945660,16
3946280,13
3946908,15
3947540,28
3948160,29
3948788,22
3949412,17
3950044,18
3950676,26
3951296,21
3951928,13
3952552,15
3953176,15
3953804,12
3954424,11
3955052,10
3955680,10
3956304,13
3956932,14
3957552,28
3958184,36
3958812,46
3959432,44
3960064,25
3960688,17
3961316,15
3961948,18
3962568,11
3963196,20
3963824,25
3964448,22
3965076,19
3965696,19
3966324,20
3966952,17
3967576,17
3968208,21
3968824,19
3969452,14
3970084,19
3970704,15
3971332,15
3971960,17
3972588,13
3973220,14
3973840,16
3974468,26
3975092,25
3975716,25
3976348,26
3976968,31
3977596,33
3978224,21
3978848,13
3979476,13
3980104,19
3980732,18
3981364,10
3981984,18
3982616,21
3983240,19
3983868,21
3984500,18
3985120,15
3985748,21
3986376,26
3987000,19
3987632,14
3988248,20
3988880,20
3989508,11
3990128,16
3990760,13
3991384,39
3992016,41
3992644,37
3993264,17
3993896,16
3994520,16
3995144,20
3995776,14
3996392,15
3997024,24
3997648,19
3998272,11
3998904,11
3999520,11
4000152,13
4000780,18
4001400,29
4002028,29
4002652,19
4003280,15
4003912,13
4004528,20
4005156,27
4005780,33
4006404,33
4007036,30
4007656,32
4008284,43
4008908,49
4009532,39
4010164,28
4010784,18
4011416,14
4012044,10
4012664,11
4013296,26
4013920,36
4014548,34
4015180,18
4015800,17
4016428,21
4017052,24
4017676,22
4018308,14
4018928,14
4019556,15
4020180,15
4020804,17
4021432,12
4022056,23
4022684,33
4023316,28
4023936,35
4024568,42
4025188,45
4025820,46
4026448,31
4027072,22
4027700,18
4028324,14
4028948,15
4029580,22
4030200,28
4030828,26
4031456,22
4032080,28
4032708,26
4033328,23
4033956,21
4034588,18
4035208,14
4035836,17
4036460,19
4037092,12
4037720,10
4038344,19
4038976,32
4039600,27
4040224,31
4040852,38
4041472,49
4042104,53
4042728,41
4043352,23
4043980,14
4044600,15
4045232,17
4045860,10
4046480,11
4047108,27
4047732,40
4048364,35
4048992,25
4049616,15
4050244,11
4050868,13
4051492,12
4052124,14
4052744,16
4053372,15
4054000,19
4054624,11
4055256,13
4055880,21
4056508,29
4057140,24
4057760,31
4058388,29
4059012,37
4059644,39
4060276,37
4060896,34
4061524,21
4062148,10
4062776,13
4063404,27
4064024,35
4064652,46
4065276,63
4065904,62
4066536,45
4067160,16
4067788,14
4068420,14
4069040,21
4069672,15
4070296,23
4070920,13
4071548,26
4072168,50
4072796,55
4073424,54
4074048,43
4074680,28
4075296,38
4075928,39
4076556,36
4077176,26
4077808,16
4078432,22
4079060,13
4079692,10
4080312,15
4080944,29
4081568,41
4082192,34
4082824,21
4083440,26
4084068,38
4084696,26
4085320,16
4085948,17
4086568,21
4087196,32
4087828,27
4088448,24
4089076,19
4089704,13
4090332,12
4090964,20
4091584,35
4092216,43
4092840,43
4093464,35
4094096,16
4094712,15
4095344,26
4095972,25
4096600,11
4097228,27
4097844,59
4098472,57
4099100,39
4099720,34
4100348,32
4100968,22
4101596,14
4102228,14
4102848,20
4103476,17
4104096,12
4104720,13
4105348,16
4105968,18
4106596,15
4107220,29
4107840,49
4108468,48
4109088,35
4109716,21
4110344,26
4110960,18
4111592,20
4112216,23
4112844,16
4113472,20
4114088,27
4114720,34
4115344,21
4115972,10
4116600,10
4117224,25
4117852,21
4118476,13
4119096,14
4119724,21
4120344,22
4120972,17
4121596,27
4122220,31
4122848,19
4123472,13
4124100,14
4124728,25
4125352,40
4125980,38
4126604,29
4127236,17
4127864,17
4128480,13
4129108,29
4129732,32
4130356,35
4130984,38
4131608,25
4132236,19
4132860,23
4133488,17
4134116,13
4134740,15
4135372,23
4136000,25
4136616,16
4137244,21
4137868,27
4138496,29
4139128,22
4139744,12
4140372,13
4140996,22
4141620,29
4142248,42
4142872,41
4143500,35
4144124,25
4144752,21
4145380,11
4146004,11
4146632,10
4147264,10
4147880,16
4148508,16
4149132,14
4149760,19
4150388,24
4151008,33
4151636,34
4152260,25
4152884,15
4153516,23
4154136,40
4154764,29
4155388,12
4156016,15
4156644,14
4157268,25
4157900,36
4158532,37
4159152,36
4159784,22
4160408,18
4161028,20
4161656,25
4162272,16
4162904,10
4163524,20
4164148,29
4164776,23
4165396,15
4166024,15
4166648,17
4167268,27
4167900,27
4168524,17
4169152,15
4169780,14
4170400,13
4171028,17
4171652,17
4172280,18
4172912,12
4173528,13
4174156,14
4174780,23
4175404,22
4176032,15
4176656,14
4177284,21
4177908,23
4178532,16
4179160,25
4179784,17
4180412,12
4181040,11
4181664,14
4182292,20
4182916,27
4183548,39
4184176,48
4184792,42
4185424,30
4186048,20
4186672,17
4187300,24
4187920,17
4188548,20
4189172,11
4189796,11
4190424,28
4191048,48
4191680,65
4192308,70
4192928,41
4193556,26
4194180,20
4194808,21
4195440,16
4196056,11
4196688,15
4197312,36
4197936,44
4198564,39
4199184,19
4199812,17
4200436,21
4201056,14
4201688,13
4202308,14
4202936,15
4203568,15
4204184,26
4204812,12
4205436,10
4206064,30
4206696,31
4207312,34
4207940,39
4208568,35
4209188,33
4209820,26
4210440,19
4211068,14
4211692,18
4212316,15
4212948,14
4213572,18
4214200,10
4214832,16
4215448,19
4216080,17
4216704,29
4217332,34
4217964,26
4218584,16
4219212,14
4219836,17
4220460,14
4221092,12
4221712,11
4222340,12
4222968,11
4223592,16
4224220,34
4224844,40
4225472,34
4226100,24
4226720,18
4227348,32
4227972,24
4228600,11
4229232,15
4229848,17
4230476,23
4231100,22
4231724,20
4232352,19
4232976,12
4233604,10
4234228,13
4234852,14
4235484,16
4236108,17
4236736,15
4237368,20
4237988,18
4238616,18
4239240,24
4239868,24
4240500,32
4241120,33
4241748,25
4242372,29
4242996,23
4243628,20
4244248,17
4244876,15
4245500,10
4246128,11
4246756,17
4247380,26
4248012,41
4248640,50
4249264,32
4249896,16
4250516,24
4251140,16
4251772,12
4252392,16
4253020,14
4253644,12
4254268,12
4254900,12
4255520,27
4256148,27
4256780,22
4257400,24
4258028,12
4258652,22
4259284,27
4259912,33
4260528,39
4261160,45
4261780,31
4262404,17
4263032,10
4263656,20
4264284,29
4264908,35
4265532,33
4266164,30
4266784,27
4267412,25
4268044,20
4268664,20
4269292,16
4269916,15
4270548,12
4271176,11
4271800,25
4272428,36
4273052,23
4273676,11
4274308,16
4274928,38
4275560,34
4276180,41
4276804,38
4277432,32
4278056,26
4278684,11
4279316,17
4279936,11
4280568,13
4281188,17
4281820,23
4282448,28
4283072,26
4283700,33
4284324,32
4284948,32
4285580,22
4286200,14
4286828,13
4287452,12
4288076,15
4288708,26
4289328,27
4289956,13
4290588,14
4291208,21
4291836,39
4292460,41
4293092,45
4293720,34
4294344,30
4294976,21
4295600,15
4296224,19
4296852,10
4297472,22
4298104,17
4298728,21
4299352,19
4299980,12
4300600,13
4301232,14
4301860,14
4302480,14
4303108,15
4303732,16
4304364,16
4304992,10
4305608,11
4306236,15
4306860,17
4307484,29
4308112,38
4308736,41
4309364,29
4309988,17
4310612,14
4311244,15
4311864,11
4312492,10
4313124,10
4313744,11
4314372,21
4314996,26
4315628,30
4316260,28
4316880,37
4317508,25
4318132,16
4318760,15
4319388,14
4320008,15
4320636,11
4321260,11
4321884,10
4322516,10
4323136,13
4323768,15
4324396,14
4325016,47
4325644,45
4326268,40
4326900,53
4327528,43
4328152,29
4328780,23
4329404,19
4330028,10
4330660,10
4331280,12
4331908,17
4332532,19
4333160,17
4333788,14
4334412,27
4335044,36
4335672,35
4336296,29
4336924,13
4337548,24
4338180,23
4338812,19
4339432,26
4340060,32
4340688,32
4341312,38
4341940,43
4342560,44
4343188,50
4343820,40
4344440,29
4345068,14
4345692,11
4346324,18
4346952,29
4347576,39
4348208,48
4348828,45
4349452,32
4350084,26
4350704,24
4351336,15
4351960,15
4352584,17
4353216,22
4353832,31
4354460,25
4355092,12
4355712,12
4356340,11
4356964,10
4357596,16
4358224,31
4358844,38
4359472,36
4360096,25
4360720,20
4361348,18
4361968,13
4362596,11
4363220,24
4363844,27
4364472,23
4365096,31
4365724,29
4366356,13
4366976,11
4367604,20
4368228,16
4368860,17
4369488,20
4370108,17
4370736,14
4371360,10
4371984,11
4372612,11
4373232,11
4373860,17
4374484,26
4375108,37
4375740,50
4376360,55
4376988,41
4377620,28
4378240,24
4378868,12
4379492,13
4380124,20
4380756,27
4381376,24
4382008,14
4382632,11
4383256,11
4383884,11
4384504,18
4385132,16
4385756,16
4386380,15
4387012,10
4387632,13
4388264,12
4388892,11
4389512,13
4390144,18
4390768,24
4391396,27
4392028,42
4392648,47
4393276,40
4393904,29
4394528,24
4395160,20
4395776,11
4396408,12
4397032,21
4397656,29
4398288,27
4398904,29
4399536,24
4400164,19
4400784,27
4401412,28
4402040,25
4402668,21
4403300,14
4403920,17
4404548,25
4405172,26
4405796,26
4406424,19
4407040,18
4407672,22
4408296,29
4408920,34
4409548,22
4410168,18
4410796,15
4411428,17
4412048,45
4412676,48
4413304,45
4413932,37
4414564,18
4415184,16
4415816,10
4416440,20
4417064,34
4417692,36
4418312,25
4418940,18
4419564,23
4420188,28
4420820,26
4421444,14
4422072,14
4422704,13
4423324,10
4423952,16
4424576,38
4425208,57
4425836,60
4426456,45
4427084,28
4427708,17
4428332,14
4428964,12
4429584,12
4430212,16
4430836,24
4431460,28
4432092,17
4432712,15
4433344,20
4433972,21
4434592,21
4435220,18
4435844,18
4436476,15
4437104,16
4437728,18
4438360,15
4438984,18
4439608,23
4440240,26
4440856,47
4441484,54
4442116,48
4442736,35
4443368,27
4443992,19
4444620,15
4445252,10
4445872,14
4446500,23
4447128,31
4447752,33
4448384,34
4449000,32
4449628,21
4450252,16
4450876,20
4451508,16
4452128,16
4452756,16
4453388,13
4454008,11
4454640,10
4455260,15
4455892,27
4456524,32
4457144,27
4457772,33
4458400,40
4459024,31
4459652,17
4460272,19
4460904,18
4461528,14
4462152,23
4462784,41
4463400,40
4464032,34
4464664,37
4465280,58
4465908,71
4466536,64
4467164,23
4467796,16
4468416,26
4469044,41
4469672,63
4470296,61
4470928,45
4471544,36
4472176,23
4472800,13
4473424,19
4474056,43
4474676,55
4475308,56
4475936,54
4476560,41
4477192,24
4477816,22
4478448,38
4479080,28
4479700,11
4480332,19
4480952,43
4481576,48
4482204,32
4482824,19
4483452,14
4484076,15
4484700,13
4485332,14
4485956,17
4486584,17
4487212,10
4487832,17
4488460,13
4489084,14
4489716,14
4490344,23
4490964,38
4491592,39
4492216,33
4492840,23
4493468,16
4494088,19
4494716,17
4495344,11
4495968,13
4496600,25
4497224,32
4497852,29
4498484,28
4499104,26
4499736,24
4500360,27
4500992,25
4501620,19
4502240,17
4502872,16
4503496,11
4504120,16
4504752,24
4505368,27
4506000,29
4506632,30
4507248,37
4507876,36
4508500,35
4509128,33
4509760,25
4510376,20
4511008,19
4511632,15
4512260,9
4512836,17
4513464,23
4514092,25
4514716,24
4515340,22
4515968,19
4516592,19
4517220,23
4517844,20
4518468,22
4519100,18
4519720,17
4520348,11
4520980,10
4521600,11
4522228,14
4522852,20
4523484,19
4524112,26
4524736,25
4525368,33
4525992,33
4526616,20
4527244,20
4527864,16
4528496,16
4529116,9
4529692,10
4530324,16
4530944,18
4531576,23
4532200,17
4532824,11
4533452,10
4534072,13
4534704,13
4535332,14
4535952,15
4536584,17
4537208,14
4537836,11
4538468,10
4539088,21
4539716,23
4540344,34
4540968,56
4541596,68
4542216,59
4542848,44
4543472,27
4544096,18
4544724,15
4545348,13
4545980,31
4546608,31
4547232,17
4547860,10
4548484,17
4549116,38
4549744,49
4550368,43
4551000,29
4551624,15
4552248,19
4552876,27
4553496,30
4554128,31
4554756,25
4555376,21
4556008,17
4556632,22
4557264,31
4557892,30
4558512,29
4559140,30
4559768,25
4560392,17
4561020,14
4561640,13
4562268,10
4562892,18
4563516,29
4564148,34
4564768,35
4565400,27
4566028,16
4566648,13
4567276,18
4567904,15
4568532,14
4569164,14
4569784,15
4570412,16
4571036,18
4571664,21
4572292,22
4572912,21
4573544,23
4574168,32
4574792,39
4575424,42
4576040,36
4576672,33
4577304,27
4577920,19
4578548,11
4579176,11
4579808,18
4580436,22
4581056,23
4581688,29
4582312,29
4582936,29
4583568,28
4584188,31
4584816,25
4585444,18
4586068,15
4586700,10
4587320,13
4587952,15
4588580,18
4589200,22
4589828,23
4590452,19
4591084,23
4591716,40
4592336,51
4592964,45
4593588,30
4594216,15
4594844,14
4595464,11
4596092,10
4596716,13
4597344,13
4597972,13
4598600,14
4599228,19
4599860,23
4600480,28
4601108,28
4601732,22
4602364,16
4602996,14
4603616,16
4604244,11
4604872,10
4605496,10
4606124,13
4606744,11
4607376,14
4608008,18
4608620,45
4609252,50
4609872,32
4610504,15
4611132,21
4611752,28
4612380,40
4613004,23
4613636,13
4614264,31
4614884,33
4615512,24
4616136,19
4616760,12
4617388,19
4618008,20
4618636,16
4619260,20
4619888,19
4620516,12
4621140,11
4621772,11
4622400,16
4623024,34
4623652,48
4624276,56
4624900,56
4625532,60
4626152,49
4626780,33
4627408,21
4628028,14
4628660,27
4629280,31
4629908,14
4630540,14
4631160,33
4631792,43
4632416,27
4633044,13
4633676,10
4634296,13
4634924,16
4635548,14
4636172,29
4636804,34
4637424,20
4638052,11
4638680,9
4639252,12
4639884,16
4640504,33
4641132,37
4641756,31
4642380,21
4643012,15
4643632,15
4644260,13
4644892,12
4645512,20
4646140,10
4646768,25
4647396,30
4648028,22
4648648,27
4649276,24
4649900,13
4650524,13
4651156,16
4651776,16
4652404,15
4653028,15
4653652,19
4654284,26
4654904,26
4655532,16
4656164,18
4656784,20
4657412,13
4658040,12
4658668,24
4659300,27
4659920,28
4660548,32
4661172,32
4661796,24
4662428,10
4663048,21
4663676,30
4664304,33
4664928,27
4665556,19
4666184,13
4666812,13
4667444,17
4668064,18
4668696,19
4669320,17
4669952,12
4670580,10
4671200,11
4671828,11
4672456,16
4673080,21
4673708,23
4674328,37
4674956,45
4675580,42
4676208,29
4676836,29
4677460,29
4678092,25
4678720,15
4679344,11
4679976,19
4680600,29
4681224,32
4681852,34
4682472,33
4683100,22
4683728,15
4684352,15
4684984,15
4685600,15
4686228,14
4686860,10
4687480,15
4688108,11
4688732,11
4689364,14
4689992,22
4690616,33
4691244,33
4691868,34
4692492,26
4693124,14
4693744,15
4694376,19
4695000,24
4695624,16
4696256,10
4696872,12
4697504,15
4698136,10
4698752,11
4699384,10
4700008,11
4700640,15
4701272,20
4701888,21
4702520,17
4703144,14
4703768,13
4704400,10
4705020,11
4705652,11
4706276,20
4706900,48
4707532,54
4708152,47
4708784,43
4709416,29
4710036,23
4710668,18
4711292,14
4711920,19
4712552,29
4713168,32
4713800,29
4714424,16
4715048,18
4715680,17
4716296,15
4716928,14
4717552,14
4718176,15
4718804,15
4719428,14
4720060,13
4720692,11
4721312,16
4721940,21
4722568,18
4723196,19
4723828,25
4724448,35
4725080,51
4725704,49
4726328,38
4726960,20
4727576,17
4728208,12
4728836,10
4729456,11
4730088,24
4730712,24
4731344,24
4731976,23
4732592,21
4733224,13
4733852,22
4734476,28
4735108,24
4735728,16
4736360,16
4736984,20
4737608,10
4738240,13
4738856,11
4739484,16
4740116,28
4740736,33
4741368,41
4741992,39
4742624,27
4743252,39
4743872,35
4744504,28
4745128,27
4745752,13
4746384,30
4747000,46
4747632,29
4748256,16
4748880,21
4749508,16
4750128,11
4750760,14
4751388,13
4752008,15
4752636,15
4753260,11
4753892,11
4754524,14
4755144,17
4755776,20
4756400,28
4757024,37
4757656,46
4758272,52
4758904,48
4759528,37
4760152,27
4760784,24
4761400,18
4762032,11
4762660,22
4763280,32
4763908,31
4764536,32
4765164,31
4765796,23
4766416,17
4767048,21
4767672,30
4768296,29
4768924,21
4769544,22
4770176,11
4770800,16
4771424,32
4772056,37
4772680,33
4773308,29
4773940,36
4774560,40
4775188,36
4775816,35
4776444,24
4777076,20
4777696,16
4778324,14
4778952,14
4779576,10
4780208,16
4780824,39
4781452,40
4782084,37
4782704,36
4783336,26
4783960,24
4784592,26
4785224,18
4785844,14
4786472,17
4787100,13
4787724,10
4788356,10
4788976,10
4789608,11
4790232,17
4790856,26
4791488,33
4792108,35
4792740,21
4793372,42
4793992,62
4794624,53
4795248,39
4795880,19
4796512,18
4797128,39
4797760,45
4798384,30
4799012,11
4799644,11
4800264,12
4800896,15
4801520,15
4802144,21
4802772,21
4803396,15
4804028,14
4804656,11
4805272,10
4805904,16
4806528,16
4807156,25
4807788,40
4808408,54
4809036,58
4809660,55
4810284,37
4810916,26
4811536,13
4812168,13
4812792,19
4813416,36
4814044,47
4814668,57
4815300,50
4815932,46
4816552,47
4817180,29
4817804,13
4818436,16
4819068,24
4819688,23
4820316,22
4820944,23
4821568,23
4822196,31
4822816,43
4823448,44
4824076,48
4824696,52
4825324,48
4825952,38
4826580,28
4827212,22
4827832,15
4828464,13
4829088,11
4829712,18
4830344,24
4830960,32
4831592,35
4832216,34
4832840,29
4833472,28
4834088,25
4834720,14
4835348,18
4835968,15
4836596,11
4837224,13
4837852,14
4838484,10
4839104,13
4839732,11
4840356,27
4840980,49
4841612,46
4842232,43
4842860,41
4843488,42
4844112,32
4844744,18
4845360,10
4845992,19
4846624,30
4847240,36
4847872,25
4848496,19
4849124,16
4849756,15
4850376,21
4851008,25
4851632,23
4852256,21
4852888,17
4853504,11
4854136,18
4854760,26
4855384,22
4856016,15
4856632,23
4857264,35
4857892,44
4858512,49
4859144,44
4859768,32
4860400,19
4861028,14
4861648,11
4862280,10
4862904,14
4863528,24
4864160,34
4864776,34
4865404,33
4866028,32
4866652,25
4867284,27
4867908,28
4868536,19
4869168,17
4869784,14
4870416,11
4871040,28
4871668,50
4872300,57
4872920,50
4873552,41
4874176,47
4874800,54
4875428,47
4876048,35
4876680,28
4877304,15
4877928,19
4878556,27
4879184,33
4879816,47
4880444,49
4881064,47
4881692,33
4882316,17
4882948,12
4883580,11
4884200,15
4884828,18
4885452,23
4886080,25
4886708,24
4887328,34
4887960,34
4888588,23
4889208,16
4889840,11
4890464,19
4891092,23
4891724,22
4892344,23
4892976,17
4893600,17
4894224,32
4894856,30
4895472,11
4896104,17
4896728,17
4897352,21
4897980,22
4898600,25
4899228,19
4899860,22
4900480,23
4901108,15
4901736,14
4902368,15
4903000,14
4903620,13
4904248,19
4904876,19
4905500,17
4906132,22
4906752,25
4907384,36
4908008,44
4908632,42
4909264,28
4909884,19
4910516,18
4911148,18
4911768,15
4912400,10
4913028,21
4913660,29
4914292,31
4914912,30
4915548,24
4916168,18
4916792,17
4917420,16
4918040,15
4918668,16
4919292,16
4919920,12
4920548,12
4921172,15
4921804,13
4922432,14
4923048,16
4923680,16
4924304,27
4924932,34
4925564,38
4926184,41
4926812,38
4927436,31
4928060,24
4928692,12
4929312,13
4929940,18
4930568,21
4931192,25
4931820,20
4932444,22
4933076,18
4933708,24
4934328,28
4934960,24
4935584,16
4936208,15
4936836,10
4937456,12
4938084,10
4938708,11
4939332,10
4939964,16
4940584,25
4941216,11
4941844,29
4942464,39
4943092,25
4943716,33
4944348,49
4944976,50
4945600,19
4946228,15
4946852,34
4947476,21
4948108,10
4948728,18
4949356,21
4949984,29
4950608,26
4951236,14
4951856,28
4952488,43
4953116,32
4953736,21
4954368,15
4954992,11
4955624,18
4956252,30
4956872,35
4957500,49
4958124,49
4958752,35
4959380,32
4960000,30
4960628,23
4961252,19
4961876,11
4962508,12
4963128,23
4963756,31
4964388,36
4965008,33
4965636,24
4966264,20
4966892,18
4967524,20
4968144,23
4968772,18
4969396,17
4970020,11
4970652,11
4971272,14
4971900,15
4972528,21
4973152,29
4973780,37
4974404,45
4975036,44
4975668,35
4976288,28
4976916,20
4977540,15
4978172,11
4978804,11
4979424,21
4980052,28
4980676,29
4981300,23
4981932,22
4982552,25
4983180,29
4983812,30
4984432,22
4985060,17
4985688,15
4986316,15
4986948,14
4987568,14
4988196,17
4988824,23
4989448,25
4990076,23
4990696,27
4991328,29
4991952,30
4992580,27
4993208,22
4993832,17
4994464,15
4995092,11
4995712,17
4996344,25
4996968,35
4997596,37
4998228,38
4998848,53
4999476,68
5000100,58
5000724,34
5001356,14
5001976,21
5002608,26
5003232,32
5003856,39
5004484,61
5005104,74
5005736,71
5006364,45
5006984,47
5007616,54
5008240,53
5008868,34
5009500,18
5010120,16
5010748,24
5011376,27
5012000,21
5012628,11
5013248,32
5013880,48
5014504,47
5015128,28
5015760,14
5016376,11
5017008,14
5017640,16
5018256,15
5018884,15
5019508,15
5020140,16
5020772,13
5021392,14
5022024,15
5022648,16
5023272,19
5023904,27
5024520,35
5025152,41
5025776,27
5026400,18
5027028,15
5027656,14
5028288,11
5028916,10
5029536,17
5030168,28
5030792,31
5031424,28
5032052,21
5032672,16
5033304,19
5033928,22
5034552,17
5035184,15
5035804,15
5036436,11
5037068,10
5037688,13
5038320,16
5038944,19
5039576,26
5040204,34
5040824,38
5041452,37
5042080,33
5042704,30
5043332,22
5043952,20
5044584,15
5045208,17
5045832,27
5046460,33
5047080,37
5047712,37
5048344,36
5048960,27
5049588,19
5050216,14
5050848,13
5051476,18
5052096,18
5052728,14
5053352,11
5053976,10
5054608,10
5055232,10
5055864,17
5056492,19
5057116,11
5057748,11
5058372,13
5059004,20
5059636,29
5060256,26
5060888,17
5061512,30
5062144,38
5062776,30
5063392,18
5064024,13
5064648,11
5065272,10
5065904,10
5066524,14
5067152,15
5067784,16
5068408,21
5069040,22
5069664,15
5070296,11
5070928,15
5071548,19
5072176,29
5072804,41
5073428,55
5074060,46
5074680,35
5075312,41
5075936,37
5076560,19
5077192,15
5077812,16
5078444,16
5079076,19
5079696,25
5080328,30
5080952,32
5081584,28
5082216,18
5082832,16
5083464,19
5084088,19
5084712,19
5085344,16
5085964,16
5086592,17
5087220,21
5087844,19
5088476,17
5089100,22
5089732,28
5090364,30
5090984,29
5091616,31
5092240,30
5092872,23
5093504,18
5094120,15
5094752,11
5095380,12
5096004,19
5096632,28
5097256,28
5097888,23
5098520,17
5099140,16
5099772,21
5100396,27
5101028,20
5101660,16
5102280,15
5102912,14
5103536,15
5104164,13
5104796,12
5105416,18
5106048,28
5106676,31
5107300,39
5107932,41
5108556,38
5109188,30
5109820,18
5110440,15
5111072,17
5111696,27
5112328,43
5112960,43
5113580,28
5114212,29
5114836,30
5115464,22
5116096,18
5116716,11
5117348,28
5117984,33
5118604,15
5119236,15
5119864,12
5120496,10
5121124,27
5121744,34
5122372,16
5122996,16
5123616,37
5124248,51
5124864,59
5125492,36
5126116,16
5126736,15
5127368,15
5127984,14
5128612,14
5129244,12
5129864,11
5130492,11
5131116,22
5131744,25
5132376,20
5132992,28
5133624,41
5134244,36
5134868,29
5135500,15
5136120,19
5136748,27
5137372,28
5137996,35
5138624,40
5139248,40
5139876,37
5140508,33
5141128,33
5141756,37
5142380,31
5143012,23
5143640,18
5144264,16
5144892,12
5145516,17
5146144,18
5146772,14
5147392,19
5148020,26
5148644,27
5149268,26
5149900,22
5150520,22
5151148,18
5151780,16
5152400,16
5153028,12
5153652,15
5154284,17
5154912,14
5155532,15
5156160,22
5156784,31
5157408,35
5158040,38
5158656,36
5159284,28
5159908,22
5160532,18
5161164,16
5161784,10
5162412,15
5163040,24
5163664,29
5164292,27
5164916,22
5165548,21
5166176,23
5166796,20
5167424,16
5168048,14
5168672,15
5169300,14
5169920,12
5170548,13
5171172,13
5171800,13
5172428,10
5173048,11
5173676,18
5174308,26
5174928,39
5175556,30
5176184,25
5176812,26
5177440,21
5178064,15
5178692,12
5179320,29
5179944,49
5180572,55
5181192,49
5181824,32
5182448,12
5183072,11
5183700,13
5184328,15
5184956,15
5185584,14
5186208,13
5186836,20
5187460,34
5188092,32
5188720,14
5189344,23
5189972,27
5190600,35
5191224,53
5191852,68
5192472,59
5193104,39
5193732,18
5194352,13
5194984,15
5195608,11
5196236,15
5196868,14
5197488,16
5198116,19
5198740,24
5199368,33
5199996,35
5200616,16
5201248,17
5201872,15
5202496,15
5203124,10
5203744,21
5204372,22
5205004,12
5205624,12
5206252,11
5206876,23
5207508,40
5208140,45
5208760,32
5209388,14
5210016,18
5210640,21
5211268,17
5211888,23
5212520,13
5213144,10
5213768,10
5214396,15
5215016,15
5215648,12
5216276,11
5216896,14
5217524,15
5218148,14
5218780,15
5219412,14
5220032,13
5220660,13
5221288,11
5221912,13
5222544,19
5223160,28
5223788,32
5224412,39
5225036,41
5225668,28
5226288,24
5226916,21
5227548,14
5228168,14
5228796,23
5229424,28
5230052,28
5230684,28
5231304,25
5231936,15
5232560,11
5233184,17
5233816,20
5234432,16
5235064,15
5235688,15
5236312,14
5236944,20
5237560,31
5238192,26
5238824,11
5239440,11
5240072,26
5240696,40
5241328,43
5241956,35
5242576,19
5243208,16
5243828,15
5244452,15
5245080,12
5245704,13
5246332,10
5246956,27
5247580,37
5248212,28
5248832,23
5249460,20
5250088,22
5250704,21
5251332,14
5251956,16
5252584,21
5253216,23
5253832,19
5254460,11
5255084,16
5255704,31
5256336,17
5256952,21
5257580,44
5258204,35
5258828,17
5259460,13
5260080,18
5260708,18
5261340,10
5261960,11
5262588,14
5263212,13
5263844,9
5264420,17
5265044,23
5265672,15
5266296,13
5266924,15
5267556,14
5268176,15
5268804,15
5269428,15
5270052,13
5270680,15
5271304,19
5271932,16
5272560,21
5273184,24
5273812,41
5274436,47
5275064,44
5275696,28
5276312,17
5276944,16
5277568,17
5278196,12
5278828,9
5279396,13
5280028,18
5280652,19
5281280,19
5281908,26
5282528,44
5283156,34
5283780,22
5284404,18
5285032,21
5285656,24
5286284,13
5286908,24
5287536,28
5288164,26
5288788,18
5289416,20
5290044,24
5290664,42
5291292,55
5291916,45
5292548,30
5293176,16
5293792,13
5294424,13
5295048,10
5295672,11
5296300,19
5296920,35
5297548,38
5298172,40
5298800,31
5299428,18
5300052,18
5300680,17
5301312,14
5301928,19
5302560,19
5303184,28
5303812,23
5304444,10
5305064,11
5305692,13
5306316,13
5306940,17
5307572,25
5308192,41
5308820,39
5309452,29
5310072,29
5310704,24
5311328,14
5311960,11
5312588,23
5313208,25
5313836,27
5314464,22
5315088,17
5315716,18
5316336,30
5316964,35
5317588,20
5318216,15
5318844,26
5319464,24
5320096,26
5320724,40
5321344,40
5321972,31
5322600,33
5323228,35
5323860,33
5324480,30
5325112,31
5325732,33
5326356,35
5326984,36
5327608,31
5328236,15
5328860,10
5329480,12
5330112,16
5330728,21
5331356,24
5331988,30
5332608,27
5333236,25
5333860,27
5334488,21
5335120,18
5335736,17
5336364,10
5336988,11
5337612,10
5338240,17
5338856,19
5339488,24
5340112,38
5340736,44
5341364,45
5341984,35
5342616,28
5343244,24
5343864,18
5344496,11
5345116,13
5345748,24
5346376,32
5347000,27
5347628,21
5348252,18
5348876,18
5349508,20
5350128,31
5350760,44
5351380,42
5352004,32
5352636,22
5353256,16
5353884,49
5354516,54
5355136,45
5355768,31
5356392,26
5357020,35
5357652,38
5358272,33
5358904,22
5359524,19
5360152,15
5360780,14
5361400,14
5362028,20
5362652,29
5363276,39
5363908,50
5364528,57
5365156,58
5365788,36
5366408,12
5367036,43
5367660,78
5368292,72
5368920,52
5369544,37
5370176,30
5370800,29
5371424,23
5372052,12
5372672,11
5373304,13
5373928,26
5374552,42
5375184,43
5375800,28
5376432,15
5377064,18
5377680,22
5378308,20
5378932,11
5379560,11
5380192,19
5380808,24
5381436,21
5382060,14
5382684,13
5383312,22
5383936,40
5384564,48
5385188,29
5385812,15
5386444,39
5387064,54
5387692,43
5388324,26
5388944,19
5389572,13
5390196,25
5390828,43
5391456,38
5392076,24
5392704,15
5393328,21
5393952,30
5394580,14
5395200,29
5395828,27
5396452,18
5397076,17
5397708,24
5398328,15
5398960,11
5399588,15
5400208,22
5400836,18
5401464,15
5402092,15
5402724,14
5403344,11
5403972,11
5404600,14
5405224,15
5405852,19
5406472,34
5407104,52
5407728,55
5408352,41
5408980,33
5409600,25
5410232,17
5410860,14
5411480,15
5412108,32
5412732,24
5413364,15
5413992,19
5414616,21
5415244,33
5415868,40
5416492,34
5417124,22
5417744,15
5418372,17
5418996,20
5419620,24
5420252,25
5420876,16
5421504,20
5422136,18
5422752,27
5423384,42
5424008,47
5424636,52
5425268,46
5425888,28
5426520,16
5427144,15
5427768,13
5428396,24
5429016,31
5429644,32
5430268,26
5430896,20
5431524,27
5432148,16
5432780,11
5433412,14
5434032,17
5434660,20
5435284,16
5435912,15
5436540,14
5437160,11
5437792,11
5438416,17
5439040,24
5439668,22
5440288,24
5440916,31
5441544,45
5442168,35
5442796,31
5443420,23
5444052,15
5444680,10
5445296,17
5445924,27
5446548,22
5447172,17
5447804,14
5448424,16
5449052,16
5449676,20
5450296,25
5450928,23
5451544,22
5452172,18
5452796,10
5453424,10
5454052,10
5454676,17
5455308,29
5455936,29
5456560,31
5457188,35
5457812,47
5458440,57
5459068,44
5459688,29
5460316,20
5460940,15
5461564,17
5462196,24
5462816,28
5463444,18
5464076,24
5464696,34
5465324,34
5465952,22
5466580,15
5467212,12
5467832,17
5468464,17
5469088,16
5469712,18
5470340,17
5470960,15
5471588,21
5472216,16
5472840,17
5473468,30
5474088,32
5474716,49
5475348,51
5475968,32
5476600,15
5477224,15
5477852,11
5478484,16
5479104,23
5479732,28
5480356,31
5480980,30
5481612,26
5482232,14
5482860,14
5483488,17
5484112,22
5484740,24
5485360,17
5485988,15
5486620,16
5487240,11
5487872,11
5488496,15
5489124,23
5489756,18
5490376,35
5491008,44
5491632,57
5492256,49
5492884,30
5493504,18
5494136,18
5494760,17
5495384,14
5496012,18
5496632,28
5497264,29
5497892,23
5498512,20
5499144,13
5499768,19
5500400,19
5501028,14
5501648,16
5502280,15
5502904,17
5503528,21
5504160,11
5504776,19
5505404,11
5506028,26
5506652,45
5507284,66
5507908,67
5508536,50
5509168,35
5509784,26
5510416,15
5511040,12
5511668,10
5512300,10
5512920,18
5513552,23
5514176,19
5514800,16
5515428,17
5516048,20
5516680,19
5517304,19
5517928,18
5518560,17
5519184,15
5519816,11
5520444,14
5521064,13
5521692,11
5522320,10
5522948,13
5523580,21
5524200,27
5524832,35
5525456,30
5526080,34
5526708,39
5527328,34
5527960,14
5528592,18
5529212,39
5529840,51
5530464,39
5531092,18
5531724,10
5532344,16
5532972,16
5533596,13
5534220,14
5534852,16
5535472,16
5536104,29
5536724,25
5537348,19
5537980,22
5538600,20
5539228,13
5539860,10
5540480,19
5541108,28
5541732,33
5542364,23
5542996,14
5543616,19
5544248,14
5544872,15
5545496,11
5546124,17
5546744,47
5547376,56
5548000,17
5548624,13
5549256,10
5549872,12
5550504,13
5551136,14
5551756,20
5552384,21
5553012,23
5553640,20
5554272,15
5554892,12
5555520,13
5556148,19
5556772,31
5557404,41
5558024,46
5558656,35
5559280,22
5559904,17
5560536,17
5561160,11
5561792,15
5562420,20
5563040,24
5563672,33
5564296,44
5564928,42
5565556,22
5566176,18
5566808,25
5567432,25
5568056,21
5568688,15
5569304,17
5569936,31
5570568,33
5571184,21
5571816,21
5572440,26
5573068,41
5573700,52
5574320,51
5574952,46
5575576,29
5576200,26
5576828,27
5577448,24
5578080,12
5578704,11
5579328,24
5579960,36
5580576,45
5581208,42
5581840,31
5582456,32
5583084,32
5583712,20
5584340,13
5584972,14
5585592,21
5586224,18
5586848,21
5587472,31
5588104,27
5588720,27
5589348,23
5589976,25
5590600,32
5591232,40
5591848,33
5592480,17
5593108,14
5593728,17
5594356,18
5594984,13
5595612,24
5596244,25
5596864,22
5597492,15
5598120,15
5598744,15
5599376,20
5599992,16
5600624,16
5601252,17
5601876,16
5602504,19
5603124,12
5603752,10
5604384,18
5605004,24
5605632,29
5606256,30
5606888,26
5607516,33
5608136,39
5608764,26
5609388,29
5610012,23
5610644,13
5611264,11
5611896,11
5612520,22
5613140,33
5613772,30
5614392,33
5615024,33
5615652,34
5616272,49
5616900,35
5617528,15
5618156,32
5618788,32
5619408,30
5620036,40
5620660,41
5621284,29
5621916,16
5622536,16
5623164,32
5623792,53
5624416,61
5625044,55
5625668,30
5626300,18
5626932,14
5627552,13
5628184,12
5628808,16
5629436,20
5630068,23
5630688,27
5631320,39
5631944,34
5632572,34
5633200,31
5633824,20
5634452,17
5635084,14
5635704,22
5636332,24
5636956,29
5637588,23
5638216,20
5638840,17
5639468,11
5640092,16
5640716,31
5641348,28
5641968,35
5642596,30
5643220,17
5643844,13
5644476,10
5645096,11
5645724,11
5646356,10
5646976,13
5647604,14
5648228,15
5648860,16
5649488,20
5650108,23
5650736,21
5651360,20
5651984,19
5652616,12
5653236,13
5653864,12
5654488,10
5655112,14
5655740,16
5656360,25
5656988,43
5657620,56
5658240,59
5658868,49
5659492,33
5660124,16
5660752,14
5661376,11
5662004,9
5662580,17
5663216,36
5663844,56
5664464,68
5665092,49
5665716,21
5666340,13
5666972,20
5667592,19
5668224,15
5668844,18
5669468,26
5670100,19
5670724,16
5671356,16
5671988,15
5672608,15
5673240,17
5673864,22
5674492,33
5675124,32
5675744,27
5676376,20
5677000,25
5677624,12
5678252,14
5678872,15
5679504,25
5680132,29
5680752,37
5681380,35
5682008,13
5682636,10
5683268,12
5683888,13
5684516,15
5685140,16
5685768,24
5686396,26
5687016,19
5687648,12
5688272,14
5688896,20
5689524,25
5690144,30
5690776,42
5691404,48
5692024,40
5692656,21
5693280,15
5693908,13
5694540,10
5695160,11
5695792,17
5696416,34
5697040,33
5697668,22
5698288,23
5698916,23
5699540,18
5700164,21
5700796,14
5701416,14
5702048,15
5702676,11
5703296,13
5703928,15
5704552,16
5705180,18
5705812,24
5706432,25
5707064,35
5707688,45
5708312,39
5708944,34
5709560,23
5710192,18
5710816,16
5711440,9
5712020,15
5712644,33
5713272,36
5713900,37
5714524,37
5715156,38
5715784,28
5716412,19
5717044,16
5717664,18
5718296,26
5718920,25
5719552,19
5720184,11
5720800,10
5721432,17
5722056,22
5722684,36
5723312,42
5723936,49
5724568,53
5725200,43
5725820,31
5726452,14
5727076,17
5727708,12
5728340,14
5728960,21
5729592,27
5730216,31
5730840,31
5731472,22
5732092,18
5732724,23
5733348,28
5733976,16
5734608,14
5735224,15
5735852,17
5736484,16
5737104,15
5737732,11
5738356,13
5738988,24
5739616,30
5740236,42
5740864,47
5741488,41
5742112,28
5742740,23
5743360,19
5743988,14
5744616,11
5745240,19
5745868,19
5746488,14
5747116,17
5747748,12
5748368,17
5748996,32
5749624,36
5750252,43
5750884,37
5751504,17
5752136,21
5752760,23
5753384,35
5754016,38
5754632,36
5755264,33
5755888,27
5756512,40
5757144,48
5757768,36
5758396,26
5759028,18
5759648,14
5760280,14
5760904,12
5761532,13
5762160,22
5762784,44
5763412,43
5764036,25
5764660,18
5765288,17
5765904,17
5766536,23
5767160,14
5767780,15
5768412,14
5769036,15
5769664,18
5770292,21
5770912,25
5771540,32
5772164,28
5772796,21
5773428,30
5774048,41
5774676,46
5775304,36
5775928,22
5776556,14
5777176,16
5777804,18
5778428,20
5779056,21
5779684,29
5780308,34
5780940,24
5781568,14
5782192,12
5782824,12
5783448,17
5784072,13
5784700,14
5785320,15
5785952,13
5786572,16
5787196,20
5787828,28
5788448,28
5789076,33
5789708,38
5790328,42
5790960,41
5791584,32
5792212,30
5792844,18
5793464,15
5794092,12
5794716,14
5795340,12
5795972,18
5796592,28
5797220,33
5797844,29
5798468,25
5799100,26
5799720,27
5800348,23
5800980,16
5801600,15
5802228,15
5802852,15
5803484,13
5804116,12
5804736,17
5805368,23
5805992,29
5806616,36
5807248,44
5807864,49
5808496,48
5809120,40
5809744,25
5810372,17
5810992,10
5811624,19
5812256,20
5812876,21
5813504,19
5814128,17
5814760,13
5815388,11
5816008,19
5816636,24
5817264,23
5817888,27
5818516,26
5819136,14
5819768,19
5820392,21
5821016,11
5821648,10
5822264,19
5822896,38
5823524,34
5824144,29
5824772,25
5825396,25
5826028,26
5826656,26
5827280,27
5827908,19
5828532,10
5829156,18
5829788,22
5830408,34
5831036,22
5831664,13
5832288,14
5832920,12
5833544,15
5834176,17
5834804,15
5835424,17
5836056,21
5836680,19
5837312,17
5837940,20
5838560,23
5839188,22
5839816,22
5840440,30
5841068,38
5841688,32
5842316,20
5842940,22
5843568,28
5844196,20
5844820,10
5845452,22
5846080,33
5846704,40
5847336,38
5847960,29
5848584,31
5849212,28
5849832,33
5850460,29
5851084,21
5851712,19
5852340,15
5852960,33
5853588,33
5854220,34
5854840,16
5855472,11
5856096,24
5856724,40
5857356,66
5857976,79
5858604,53
5859228,37
5859852,24
5860484,15
5861104,11
5861736,11
5862360,17
5862984,17
5863612,22
5864232,23
5864864,27
5865492,32
5866112,36
5866744,28
5867368,19
5868000,15
5868628,14
5869248,11
5869876,13
5870504,10
5871128,11
5871760,11
5872380,28
5873008,42
5873636,51
5874260,54
5874892,50
5875512,42
5876144,27
5876776,15
5877396,12
5878024,23
5878652,30
5879284,35
5879912,25
5880536,23
5881168,24
5881792,21
5882416,20
5883048,20
5883664,16
5884296,14
5884920,17
5885544,20
5886176,25
5886800,27
5887432,32
5888064,23
5888680,14
5889308,12
5889932,19
5890564,25
5891192,29
5891812,29
5892444,28
5893068,14
5893692,14
5894324,10
5894944,11
5895576,19
5896204,23
5896824,22
5897456,20
5898080,11
5898712,18
5899340,40
5899960,48
5900588,29
5901216,21
5901836,16
5902468,18
5903088,27
5903716,31
5904344,31
5904968,23
5905596,16
5906216,32
5906848,48
5907476,66
5908096,79
5908728,73
5909352,61
5909980,41
5910612,16
5911232,28
5911864,36
5912488,35
5913112,35
5913744,37
5914360,36
5914992,39
5915616,26
5916240,20
5916868,17
5917488,17
5918120,15
5918748,14
5919368,23
5919996,32
5920624,23
5921252,21
5921884,16
5922504,15
5923132,18
5923760,25
5924384,27
5925012,28
5925632,28
5926264,29
5926888,22
5927512,11
5928144,13
5928760,15
5929392,21
5930020,21
5930640,25
5931272,27
5931896,25
5932528,17
5933156,20
5933776,23
5934408,19
5935032,18
5935656,15
5936288,12
5936904,20
5937536,18
5938160,11
5938784,28
5939416,43
5940040,51
5940668,55
5941296,49
5941920,36
5942548,25
5943172,31
5943804,29
5944432,16
5945056,10
5945684,20
5946308,31
5946932,31
5947564,29
5948184,34
5948812,31
5949436,22
5950064,23
5950696,26
5951320,26
5951952,19
5952584,12
5953200,11
5953828,11
5954456,11
5955080,13
5955708,29
5956328,33
5956956,39
5957584,60
5958208,66
5958840,50
5959456,30
5960088,18
5960716,10
5961336,12
5961968,15
5962592,25
5963220,24
5963852,18
5964472,22
5965104,32
5965728,29
5966352,31
5966984,36
5967600,24
5968228,18
5968852,27
5969476,25
5970108,13
5970728,11
5971360,20
5971988,40
5972608,60
5973240,59
5973864,41
5974492,35
5975124,35
5975744,39
5976376,25
5977000,17
5977624,18
5978252,36
5978872,41
5979504,37
5980128,43
5980756,36
5981384,18
5982008,11
5982640,11
5983268,13
5983888,17
5984520,20
5985144,21
5985776,19
5986404,11
5987024,12
5987656,17
5988280,27
5988904,33
5989536,39
5990152,35
5990788,51
5991412,63
5992036,63
5992664,51
5993288,37
5993920,15
5994552,19
5995168,35
5995800,25
5996428,26
5997056,27
5997688,17
5998308,16
5998940,21
5999564,29
6000192,35
6000820,24
6001440,16
6002068,30
6002700,37
6003320,34
6003948,24
6004576,15
6005204,16
6005836,18
6006456,25
6007084,39
6007712,31
6008336,18
6008964,24
6009584,34
6010216,19
6010840,10
6011464,11
6012096,14
6012712,30
6013344,34
6013976,32
6014600,33
6015232,29
6015856,31
6016492,40
6017120,27
6017740,20
6018368,19
6018992,13
6019616,21
6020248,34
6020864,46
6021496,28
6022120,19
6022744,23
6023372,35
6023992,39
6024624,36
6025252,18
6025872,14
6026504,21
6027128,22
6027756,10
6028388,16
6029008,11
6029636,16
6030264,13
6030888,14
6031520,31
6032136,28
6032768,29
6033392,16
6034016,16
6034648,13
6035272,17
6035900,12
6036532,11
6037152,13
6037784,10
6038408,11
6039040,11
6039668,11
6040288,26
6040920,42
6041544,39
6042172,30
6042804,14
6043424,16
6044056,11
6044684,10
6045304,19
6045936,31
6046560,19
6047192,9
6047772,11
6048396,27
6049028,21
6049652,15
6050284,28
6050912,19
6051536,16
6052168,16
6052792,15
6053416,23
6054048,21
6054668,14
6055296,13
6055924,24
6056548,42
6057180,58
6057804,62
6058436,41
6059068,29
6059688,22
6060320,14
6060944,15
6061576,18
6062208,24
6062824,35
6063456,35
6064080,18
6064704,22
6065332,13
6065952,11
6066584,15
6067212,16
6067832,15
6068464,17
6069088,14
6069720,14
6070348,11
6070968,11
6071600,25
6072224,34
6072848,42
6073480,57
6074100,71
6074732,62
6075356,35
6075984,19
6076612,16
6077232,13
6077864,10
6078496,14
6079120,19
6079752,29
6080380,42
6081008,46
6081636,30
6082256,12
6082888,13
6083508,15
6084136,22
6084764,22
6085384,16
6086012,11
6086640,13
6087264,25
6087892,28
6088520,15
6089148,12
6089780,12
6090400,25
6091028,27
6091656,16
6092288,15
6092916,19
6093536,31
6094168,10
6094788,28
6095416,24
6096044,20
6096664,14
6097292,14
6097920,12
6098544,15
6099176,11
6099800,17
6100432,19
6101060,18
6101680,14
6102312,20
6102936,17
6103560,14
6104192,18
6104812,28
6105440,31
6106068,24
6106692,28
6107324,48
6107944,42
6108576,17
6109208,15
6109824,16
6110456,15
6111080,9
6111660,20
6112296,29
6112916,19
6113544,15
6114172,21
6114804,27
6115432,27
6116056,25
6116688,26
6117312,21
6117936,14
6118568,22
6119192,24
6119824,26
6120456,22
6121072,14
6121704,12
6122328,14
6122960,26
6123592,49
6124208,58
6124840,38
6125464,25
6126088,21
6126720,16
6127336,10
6127968,11
6128596,33
6129220,46
6129852,28
6130472,19
6131104,17
6131740,14
6132360,18
6132992,25
6133620,36
6134252,31
6134884,16
6135504,12
6136136,14
6136764,13
6137388,10
6138020,28
6138640,25
6139272,32
6139900,50
6140532,70
6141164,75
6141788,60
6142420,37
6143052,18
6143676,14
6144308,21
6144932,33
6145556,23
6146184,11
6146804,21
6147432,25
6148056,10
6148680,19
6149308,28
6149928,30
6150556,26
6151188,20
6151808,15
6152436,10
6153060,13
6153692,11
6154320,10
6154944,14
6155572,33
6156196,37
6156824,37
6157452,44
6158072,49
6158704,42
6159328,24
6159952,15
6160584,12
6161200,11
6161828,24
6162460,35
6163080,40
6163712,29
6164336,23
6164964,23
6165596,28
6166216,31
6166848,21
6167472,17
6168096,21
6168724,18
6169344,15
6169976,36
6170600,36
6171224,21
6171852,12
6172472,20
6173104,21
6173732,26
6174352,35
6174984,28
6175608,15
6176240,14
6176868,16
6177488,24
6178116,15
6178744,21
6179368,51
6179996,44
6180616,31
6181248,29
6181872,17
6182496,21
6183124,35
6183752,29
6184380,21
6185012,18
6185632,29
6186260,35
6186884,24
6187516,10
6188148,10
6188768,17
6189400,13
6190024,17
6190648,47
6191280,58
6191896,49
6192528,22
6193160,20
6193780,19
6194408,48
6195036,65
6195668,36
6196296,16
6196920,10
6197548,13
6198176,32
6198800,25
6199428,12
6200048,15
6200680,16
6201304,41
6201928,38
6202560,18
6203176,12
6203808,11
6204440,14
6205056,21
6205688,43
6206312,33
6206944,30
6207576,13
6208192,15
6208824,15
6209448,15
6210072,26
6210704,14
6211320,19
6211948,16
6212576,14
6213200,11
6213828,21
6214448,32
6215080,23
6215712,11
6216328,31
6216960,29
6217584,15
6218216,15
6218848,22
6219468,32
6220100,14
6220724,54
6221348,63
6221980,13
6222600,52
6223232,60
6223856,68
6224480,56
6225112,45
6225736,34
6226368,20
6227000,27
6227616,11
6228248,17
6228872,19
6229500,12
6230132,10
6230752,39
6231384,25
6232008,23
6232632,42
6233264,16
6233884,47
6234512,43
6235144,18
6235764,14
6236392,13
6237020,14
6237648,12
6238280,13
6238900,11
6239532,19
6240156,22
6240780,21
6241412,23
6242032,23
6242660,27
6243288,21
6243912,11
6244540,16
6245160,11
6245792,13
6246420,13
6247040,17
6247668,18
6248292,30
6248924,35
6249552,23
6250172,15
6250804,15
6251428,15
6252052,14
6252680,10
6253304,13
6253936,15
6254560,17
6255184,21
6255816,21
6256432,26
6257064,28
6257692,30
6258312,33
6258944,45
6259568,32
6260196,16
6260828,10
6261448,21
6262080,40
6262704,48
