tempo_arduino_micro_s,valor_ADC
500,47
1004,45
1504,36
2000,21
2504,15
3000,16
3508,17
4000,16
4504,9
5000,16
5500,28
6000,28
6500,26
7004,22
7500,28
8000,29
8500,36
9000,29
9500,23
10000,35
10516,42
11036,34
11564,16
12084,20
12612,38
13132,46
13660,45
14180,40
14708,16
15228,10
15756,13
16276,39
16796,67
17316,76
17836,69
18356,46
18876,37
19396,25
19916,16
20436,14
20956,16
21476,30
21996,39
22516,42
23036,42
23564,41
24084,34
24612,39
25132,42
25660,37
26180,25
26708,13
27228,14
27756,15
28276,14
28804,19
29324,31
29852,28
30372,18
30900,14
31420,11
31948,34
32472,54
32996,65
33516,65
34044,55
34564,57
35092,60
35612,49
36140,43
36660,41
37188,41
37708,31
38236,14
38760,10
39284,26
39804,54
40332,66
40852,54
41372,35
41892,25
42412,17
42932,14
43452,14
43972,14
44492,14
45012,14
45532,18
46052,20
46572,19
47092,17
47612,14
48140,12
48660,12
49188,31
49708,44
50236,47
50760,51
51284,56
51804,45
52332,29
52852,19
53380,15
53900,15
54428,25
54948,36
55476,41
55996,31
56524,31
57044,33
57572,36
58096,38
58620,34
59140,34
59668,30
60188,17
60716,14
61240,15
61764,14
62284,18
62812,32
63332,33
63860,35
64384,29
64908,16
65428,14
65948,25
66468,44
66988,53
67508,62
68028,49
68548,25
69068,25
69588,29
70108,23
70628,12
71148,23
71672,33
72192,31
72716,24
73236,20
73764,26
74284,24
74812,29
75332,23
75860,21
76384,23
76908,30
77428,35
77956,29
78480,17
79004,15
79528,19
80052,32
80572,38
81100,40
81620,36
82148,47
82668,62
83196,65
83720,67
84244,65
84764,51
85292,27
85812,17
86340,13
86860,20
87388,20
87908,24
88436,28
88956,31
89484,29
90004,23
90524,20
91044,19
91564,22
92084,21
92604,23
93124,21
93644,18
94164,15
94684,14
95204,14
95724,12
96248,18
96764,22
97292,20
97812,18
98340,15
98860,17
99388,23
99908,32
100436,46
101000,52
101584,51
102156,30
102736,13
103304,37
103880,54
104456,75
105024,47
105600,14
106168,11
106744,16
107312,21
107896,19
108464,11
109040,11
109624,14
110192,12
110768,14
111336,17
111920,15
112492,19
113072,12
113640,19
114216,11
114800,11
115368,30
115952,51
116524,54
117104,44
117676,51
118252,35
118832,16
119400,19
119984,27
120556,50
121136,35
121704,14
122288,14
122856,36
123436,55
124016,65
124584,57
125168,49
125736,32
126320,21
126888,11
127464,18
128048,31
128616,29
129192,35
129760,34
130344,26
130912,26
131496,21
132064,23
132640,34
133224,44
133792,47
134368,46
134936,28
135520,15
136088,18
136664,20
137240,23
137808,21
138392,16
138960,31
139544,37
140112,40
140696,25
141268,14
141840,18
142424,22
142992,38
143576,44
144144,31
144728,23
145296,19
145872,17
146448,16
147016,45
147600,52
148168,37
148752,24
149320,52
149904,73
150476,84
151048,84
151632,74
152204,47
152784,23
153356,16
153936,14
154512,12
155088,26
155672,37
156244,50
156824,50
157392,35
157976,17
158548,18
159128,18
159700,26
160276,22
160856,18
161424,19
162000,13
162568,12
163144,12
163716,11
164296,14
164872,10
165440,11
166016,34
166584,34
167168,34
167736,56
168320,73
168888,53
169456,41
170032,50
170600,45
171184,22
171756,11
172336,25
172904,39
173488,50
174056,47
174636,35
175216,23
175784,13
176368,15
176936,14
177520,16
178088,20
178664,22
179248,15
179816,30
180392,40
180960,11
181544,19
182112,42
182696,60
183264,73
183844,66
184424,56
184992,55
185568,38
186140,24
186720,25
187288,20
187864,10
188448,30
189016,54
189600,66
190168,43
190752,15
191324,12
191904,15
192476,27
193048,24
193632,18
194200,15
194784,14
195352,14
195936,12
196504,16
197080,35
197664,27
198232,18
198816,14
199384,26
199968,41
200540,43
201120,37
201688,19
202264,31
202848,26
203416,23
204000,11
204572,28
205152,21
205720,29
206288,37
206864,28
207432,17
208016,10
208584,10
209160,16
209728,38
210312,33
210880,32
211456,27
212040,16
212608,39
213184,43
213752,34
214336,25
214908,30
215488,33
216056,45
216632,51
217216,38
217788,31
218368,45
218936,40
219520,16
220088,22
220664,24
221248,27
221816,28
222400,32
222968,33
223552,46
224124,53
224704,46
225272,30
225852,16
226432,14
227000,13
227584,21
228152,20
228736,24
229308,41
229884,41
230464,32
231032,32
231616,29
232188,23
232768,31
233340,39
233920,53
234488,55
235064,30
235648,14
236216,27
236800,23
237368,21
237944,23
238516,27
239092,21
239672,15
240244,18
240824,10
241392,11
241976,21
242544,32
243128,25
243700,19
244272,19
244856,18
245424,17
246008,9
246524,10
247104,12
247672,22
248256,15
248824,26
249400,51
249984,61
250552,70
251136,77
251708,66
252288,45
252856,16
253432,15
254016,13
254588,18
255168,19
255740,11
256320,15
256896,29
257472,30
258040,24
258616,21
259192,22
259760,24
260344,21
260912,20
261496,16
262064,15
262640,13
263224,16
263792,17
264376,19
264944,24
265528,23
266096,37
266680,40
267248,28
267824,29
268408,16
268976,14
269560,16
270128,14
270712,21
271284,31
271860,32
272440,20
273008,12
273592,11
274164,10
274744,11
275316,10
275896,11
276468,16
277044,18
277624,19
278196,15
278776,23
279348,29
279928,21
280500,18
281072,19
281656,18
282224,13
282800,19
283368,26
283952,22
284524,14
285104,17
285676,17
286252,13
286832,14
287400,12
287984,17
288556,29
289136,28
289704,26
290280,10
290864,13
291436,11
292016,10
292584,14
293168,14
293736,14
294320,15
294892,16
295464,18
296048,16
296616,13
297200,10
297768,10
298352,11
298924,11
299500,42
300080,62
300652,61
301232,61
301804,50
302384,27
302956,17
303536,16
304116,38
304692,71
305272,72
305844,44
306424,17
306996,10
307576,13
308152,10
308732,12
309312,11
309884,15
310464,14
311036,14
311616,14
312196,14
312776,17
313352,24
313924,28
314504,28
315076,24
315656,25
316228,35
316808,45
317388,73
317964,70
318544,46
319116,21
319696,15
320276,24
320856,29
321424,38
322000,43
322584,53
323152,66
323736,72
324308,58
324888,39
325456,22
326040,13
326612,14
327184,13
327768,15
328336,15
328912,14
329480,24
330064,35
330632,41
331216,19
331792,22
332364,45
332944,64
333512,63
334096,71
334664,62
335248,46
335816,35
336396,19
336976,15
337544,11
338128,12
338696,22
339280,35
339848,43
340424,29
341000,27
341568,46
342152,58
342724,50
343304,43
343872,35
344456,20
345024,16
345604,26
346184,24
346752,18
347336,25
347908,27
348488,28
349056,32
349640,32
350216,30
350788,55
351368,73
351940,62
352520,45
353096,27
353680,21
354248,11
354824,19
355408,32
355980,36
356560,29
357132,28
357712,26
358284,33
358864,35
359448,26
360016,19
360600,18
361168,20
361752,14
362320,34
362904,32
363476,18
364052,22
364632,23
365204,11
365784,10
366356,12
366936,23
367508,38
368084,54
368664,35
369232,16
369816,22
370384,20
370968,10
371540,16
372120,27
372692,29
373268,27
373848,26
374416,26
375000,33
375572,48
376152,34
376724,16
377300,13
377880,14
378452,14
379032,17
379604,25
380184,45
380756,46
381336,33
381916,24
382492,36
383072,48
383644,55
384228,54
384800,44
385384,31
385952,22
386532,16
387112,13
387684,34
388264,51
388836,51
389416,42
389988,33
390568,25
391136,20
391716,22
392296,30
392868,27
393448,27
394020,21
394600,17
395172,27
395748,30
396328,32
396900,22
397480,16
398052,19
398632,25
399212,27
399792,43
400372,53
400948,50
401528,38
402100,31
402680,19
403252,14
403832,14
404404,25
404980,39
405560,37
406132,32
406712,26
407284,23
407864,13
408436,11
409016,15
409588,25
410164,22
410744,22
411312,17
411896,19
412464,24
413048,18
413616,25
414192,27
414776,25
415344,27
415928,27
416500,43
417080,51
417648,52
418232,36
418804,20
419376,15
419960,14
420528,14
421112,9
421632,15
422208,35
422780,42
423360,46
423928,31
424508,11
425088,23
425656,17
426240,15
426808,24
427392,16
427964,14
428540,18
429120,15
429688,11
430272,11
430840,26
431424,44
431996,34
432576,38
433160,32
433732,27
434312,23
434884,20
435464,13
436032,15
436616,18
437184,15
437764,18
438344,18
438916,10
439496,18
440068,30
440648,22
441216,11
441800,16
442376,35
442948,47
443528,46
444096,24
444680,18
445252,35
445832,43
446404,40
446976,30
447560,24
448132,17
448712,21
449280,34
449864,43
450436,41
451016,25
451592,15
452164,14
452744,15
453316,22
453896,19
454468,12
455048,14
455616,38
456196,44
456776,42
457348,41
457928,31
458500,26
459080,32
459652,26
460232,12
460808,14
461380,15
461960,18
462532,17
463112,16
463684,19
464264,27
464832,34
465408,29
465992,26
466564,31
467144,32
467716,38
468296,36
468868,32
469448,34
470024,43
470596,40
471176,21
471748,10
472328,24
472896,34
473480,32
474052,32
474628,34
475208,42
475776,40
476360,36
476932,30
477512,25
478084,15
478664,34
479240,38
479812,34
480392,28
480964,17
481544,15
482116,19
482696,39
483268,52
483844,56
484424,52
484996,35
485576,18
486148,13
486728,13
487304,13
487888,17
488464,34
489036,41
489616,36
490184,33
490768,27
491340,29
491920,43
492496,43
493072,41
493656,39
494228,25
494808,15
495376,23
495960,40
496532,30
497108,15
497688,11
498256,34
498840,47
499412,51
499992,51
500564,51
501144,44
501716,26
502292,14
502872,19
503444,14
504024,18
504596,24
505176,11
505748,18
506324,22
506904,24
507476,22
508056,13
508628,12
509208,14
509788,18
510368,15
510940,18
511516,18
512100,16
512668,10
513248,10
513816,18
514400,23
514968,30
515544,37
516128,47
516696,40
517280,14
517848,11
518432,29
519000,50
519584,41
520156,24
520728,14
521312,11
521884,11
522464,21
523032,23
523616,26
524184,36
524760,48
525344,36
525916,19
526496,13
527064,14
527648,15
528216,15
528800,17
529368,11
529948,10
530528,11
531100,18
531680,25
532260,24
532840,48
533408,66
533988,72
534568,71
535140,55
535720,38
536292,18
536872,13
537444,25
538024,29
538592,30
539172,28
539752,27
540324,33
540904,41
541472,42
542056,35
542628,28
543204,21
543784,18
544356,13
544936,22
545504,37
546088,40
546656,27
547240,16
547808,22
548388,25
548968,33
549540,66
550120,53
550692,37
551272,35
551844,22
552420,13
553000,16
553568,20
554152,15
554724,12
555304,14
555876,19
556456,17
557028,19
557604,24
558184,34
558756,43
559336,45
559908,36
560488,22
561068,26
561644,36
562224,19
562796,16
563376,19
563948,15
564528,28
565096,61
565680,74
566252,61
566828,49
567408,45
567980,46
568560,46
569140,37
569720,24
570292,16
570868,11
571448,14
572020,27
572600,26
573172,32
573752,39
574332,34
574912,26
575496,29
576068,41
576648,44
577216,32
577800,19
578368,15
578952,17
579524,31
580100,32
580680,22
581252,23
581832,32
582404,44
582984,56
583556,53
584136,43
584720,38
585292,34
585872,27
586444,17
587024,16
587596,15
588176,42
588756,38
589332,24
589912,11
590484,20
591064,17
591636,23
592216,43
592796,46
593372,28
593952,13
594524,15
595104,17
595676,12
596256,13
596828,13
597408,13
597980,14
598556,33
599136,49
599708,56
600288,54
600868,56
601448,37
602020,16
602596,13
603176,14
603748,15
604328,15
604900,20
605480,24
606052,17
606632,14
607212,30
607788,18
608368,11
608940,15
609520,12
610100,15
610680,22
611260,22
611836,23
612420,17
612992,12
613568,26
614144,41
614724,34
615296,42
615880,51
616456,59
617028,64
617608,58
618176,38
618760,19
619340,14
619920,13
620492,15
621068,15
621648,23
622220,26
622800,33
623372,36
623952,38
624532,39
625108,27
625688,21
626260,19
626840,18
627412,15
627992,16
628564,15
629144,19
629716,24
630292,28
630872,25
631444,21
632024,30
632604,35
633184,45
633764,39
634340,42
634920,42
635492,38
636072,20
636648,17
637224,14
637804,15
638384,26
638964,39
639540,45
640124,34
640692,17
641272,18
641840,27
642424,32
642996,45
643572,35
644152,16
644724,14
645304,15
645872,18
646456,23
647024,19
647608,13
648180,11
648752,11
649336,23
649908,48
650488,70
651060,76
651640,53
652212,53
652788,42
653368,20
653940,13
654520,20
655092,40
655672,43
656248,43
656832,47
657400,42
657968,41
658552,35
659124,18
659704,14
660272,12
660856,17
661424,24
662004,22
662584,31
663156,27
663736,25
664308,34
664888,25
665456,30
666040,29
666608,14
667184,14
667768,26
668336,35
668920,39
669488,42
670072,24
670644,12
671220,10
671800,19
672372,16
672952,15
673524,13
674104,11
674672,18
675256,29
675824,32
676404,26
676984,26
677552,33
678136,20
678708,17
679288,32
679856,36
680436,24
681016,15
681584,15
682168,21
682736,34
683320,46
683892,52
684472,49
685044,37
685620,26
686200,15
686768,14
687352,23
687924,32
688504,36
689076,36
689652,34
690232,26
690804,26
691384,30
691952,32
692536,19
693108,21
693688,20
694268,14
694844,27
695424,24
695996,15
696576,19
697152,35
697736,32
698304,18
698884,19
699464,35
700036,37
700616,25
701188,20
701768,22
702348,19
702928,15
703512,19
704084,29
704664,16
705232,14
705816,23
706388,40
706968,36
707548,30
708124,37
708704,27
709276,14
709856,13
710428,14
711008,19
711580,15
712156,15
712736,14
713308,11
713888,16
714460,16
715040,25
715612,44
716192,58
716772,49
717348,48
717928,43
718500,35
719080,35
719652,29
720232,20
720808,11
721384,15
721968,28
722536,55
723120,69
723692,50
724272,37
724844,38
725424,40
725996,38
726572,27
727152,14
727724,14
728304,15
728876,22
729456,25
730028,25
730604,32
731184,34
731756,38
732336,33
732908,37
733488,52
734060,55
734640,42
735220,30
735796,21
736380,13
736948,21
737528,19
738108,16
738688,13
739260,27
739836,30
740416,19
740988,15
741568,21
742140,22
742720,32
743296,31
743880,18
744456,18
745028,29
745608,26
746176,25
746760,26
747332,18
747912,12
748492,10
749068,14
749648,30
750220,28
750800,31
751372,31
751952,22
752532,34
753108,28
753688,23
754260,17
754840,16
755412,40
755992,58
756564,60
757144,52
757724,31
758300,14
758880,10
759452,10
760032,14
760612,12
761192,14
761772,15
762348,31
762928,39
763500,42
764080,39
764656,28
765232,19
765812,15
766392,30
766972,40
767552,46
768132,36
768700,25
769280,16
769848,14
770432,14
771004,24
771580,38
772160,45
772732,41
773312,26
773884,17
774464,11
775036,11
775616,10
776200,11
776772,13
777352,13
777924,13
778504,14
779076,19
779656,14
780236,16
780812,12
781392,14
781964,14
782544,13
783116,25
783696,36
784276,58
784852,74
785432,62
786004,32
786584,19
787156,18
787736,14
788316,31
788896,46
789476,45
790052,44
790632,45
791204,36
791784,32
792364,21
792944,15
793524,12
794100,14
794680,22
795252,18
795832,14
796408,18
796984,18
797564,10
798144,10
798728,13
799300,32
799880,48
800456,62
801032,71
801604,54
802184,33
802756,19
803332,17
803912,18
804484,12
805064,10
805636,17
806216,23
806788,42
807368,50
807944,46
808516,38
809096,36
809668,22
810248,13
810820,14
811400,18
811980,21
812556,27
813136,23
813708,20
814288,16
814868,10
815448,12
816028,22
816604,27
817184,30
817756,27
818336,14
818912,13
819488,14
820064,37
820640,59
821208,50
821784,16
822368,11
822936,18
823520,23
824088,30
824672,29
825240,36
825816,27
826400,22
826968,15
827552,13
828120,18
828704,19
829276,18
829856,17
830424,21
831000,16
831584,11
832156,13
832736,25
833304,26
833888,33
834456,45
835032,50
835616,54
836184,43
836768,30
837340,16
837920,23
838492,35
839072,40
839644,58
840220,69
840800,56
841368,48
841952,31
842524,21
843104,14
843676,13
844252,20
844832,25
845400,24
845976,29
846544,25
847128,23
847700,18
848280,20
848848,22
849424,27
850008,34
850576,47
851160,44
851732,30
852312,21
852884,23
853456,17
854040,11
854612,14
855192,21
855764,32
856344,36
856916,28
857496,16
858068,18
858644,19
859224,19
859796,24
860376,26
860956,17
861536,13
862108,14
862684,11
863264,10
863836,12
864416,15
864988,21
865568,43
866140,72
866720,88
867292,100
867920,79
868496,39
869068,21
869648,13
870220,19
870800,16
871376,24
871956,32
872536,31
873108,27
873688,24
874256,26
874840,19
875412,15
875988,19
876568,20
877140,14
877720,14
878292,15
878872,13
879444,10
880024,9
880544,13
881116,17
881696,10
882264,10
882848,24
883420,36
884000,53
884568,56
885152,44
885724,39
886300,29
886880,19
887448,11
888032,18
888604,27
889184,33
889756,26
890332,29
890912,29
891484,28
892064,34
892636,44
893216,46
893796,36
894376,27
894956,22
895532,15
896116,29
896684,34
897264,37
897836,54
898416,53
898988,53
899564,57
900144,53
900716,47
901296,37
901868,24
902448,19
903016,18
903600,13
904172,23
904744,35
905328,51
905900,47
906480,24
907056,19
907640,23
908212,24
908788,27
909368,30
909940,20
910520,16
911092,14
911672,31
912252,39
912832,36
913404,34
913980,34
914560,41
915132,34
915712,42
916292,56
916872,65
917452,58
918028,44
918608,41
919180,40
919760,38
920340,27
920920,11
921500,27
922076,44
922656,56
923228,57
923808,50
924380,42
924960,31
925532,21
926112,17
926684,18
927260,14
927840,14
928412,14
928992,13
929564,10
930144,11
930716,10
931292,11
931872,14
932444,21
933024,41
933596,55
934176,66
934756,65
935336,45
935908,27
936484,18
937064,15
937636,10
938216,17
938788,34
939368,45
939948,38
940524,39
941104,39
941680,37
942256,20
942828,18
943408,24
943980,44
944564,52
945140,35
945716,12
946296,23
946868,34
947448,34
948028,40
948608,42
949180,50
949756,65
950336,89
950912,79
951488,45
952060,18
952640,17
953220,25
953800,29
954384,33
954956,46
955536,54
956112,39
956692,18
957268,14
957848,15
958428,24
959004,28
959588,13
960160,13
960736,31
961308,42
961888,51
962460,43
963036,30
963616,21
964188,15
964768,16
965340,17
965920,26
966492,50
967072,53
967644,44
968220,33
968800,18
969372,17
969952,19
970532,14
971112,21
971692,42
972268,46
972848,29
973420,24
974000,25
974572,19
975152,15
975724,19
976304,27
976884,20
977460,19
978040,35
978612,31
979192,26
979772,23
980352,15
980932,14
981508,16
982092,19
982664,30
983240,41
983812,45
984392,43
984964,32
985544,18
986120,14
986692,14
987272,13
987844,11
988424,18
988996,30
989576,33
990148,32
990724,31
991304,32
991876,38
992460,30
993028,26
993608,17
994176,14
994760,13
995336,15
995908,11
996488,20
997060,19
997640,29
998220,26
998800,24
999380,37
999956,50
1000536,57
1001152,54
1001784,41
1002404,29
1003028,20
1003660,16
1004280,16
1004908,28
1005528,26
1006152,26
1006780,16
1007400,25
1008028,52
1008656,66
1009272,73
1009904,70
1010528,58
1011156,23
1011788,14
1012408,25
1013036,29
1013660,41
1014284,65
1014916,67
1015536,58
1016164,64
1016788,66
1017412,69
1018044,55
1018664,27
1019292,16
1019924,12
1020544,14
1021172,12
1021796,17
1022428,33
1023056,34
1023680,25
1024312,16
1024932,24
1025552,33
1026180,35
1026796,33
1027428,19
1028048,14
1028668,13
1029296,15
1029912,16
1030540,18
1031164,21
1031784,20
1032412,23
1033036,40
1033664,57
1034292,63
1034908,51
1035540,36
1036160,24
1036788,15
1037416,15
1038040,30
1038668,35
1039292,31
1039912,31
1040544,25
1041160,26
1041788,27
1042408,22
1043032,22
1043660,20
1044280,20
1044908,14
1045536,16
1046152,24
1046780,26
1047404,24
1048032,26
1048660,22
1049280,13
1049908,11
1050528,23
1051152,45
1051780,39
1052400,41
1053028,15
1053648,18
1054272,11
1054900,19
1055520,18
1056148,13
1056776,21
1057392,14
1058020,10
1058644,22
1059272,22
1059900,13
1060520,13
1061148,15
1061772,25
1062400,17
1063028,12
1063648,23
1064276,34
1064900,31
1065524,29
1066152,42
1066768,53
1067396,56
1068020,49
1068640,29
1069272,17
1069892,13
1070524,13
1071152,10
1071768,17
1072400,31
1073024,29
1073652,30
1074280,30
1074896,35
1075528,35
1076148,31
1076772,29
1077400,18
1078016,14
1078644,17
1079268,23
1079892,27
1080520,31
1081136,30
1081768,25
1082396,25
1083016,40
1083644,53
1084268,55
1084896,42
1085524,24
1086144,17
1086772,14
1087396,11
1088016,17
1088644,26
1089260,33
1089892,34
1090512,31
1091136,27
1091764,30
1092384,29
1093012,23
1093640,16
1094264,15
1094892,14
1095516,14
1096144,15
1096776,17
1097392,17
1098020,22
1098644,27
1099268,40
1099900,51
1100520,56
1101148,55
1101772,36
1102396,23
1103024,15
1103648,15
1104276,16
1104908,30
1105528,36
1106156,32
1106780,27
1107408,39
1108040,36
1108656,35
1109284,30
1109908,21
1110536,13
1111164,16
1111784,15
1112412,21
1113036,33
1113660,37
1114292,25
1114912,16
1115540,18
1116172,22
1116792,36
1117420,40
1118048,34
1118676,35
1119308,28
1119928,18
1120560,15
1121180,33
1121804,51
1122436,46
1123056,32
1123684,20
1124308,10
1124932,13
1125560,20
1126184,28
1126812,17
1127444,13
1128064,19
1128692,15
1129312,12
1129940,13
1130572,10
1131192,12
1131820,20
1132444,25
1133068,38
1133696,50
1134320,67
1134948,67
1135572,20
1136196,31
1136824,36
1137448,12
1138076,10
1138704,16
1139328,30
1139956,14
1140580,12
1141208,28
1141840,55
1142456,53
1143084,31
1143708,16
1144332,34
1144960,34
1145584,42
1146216,45
1146840,39
1147464,34
1148092,31
1148712,36
1149340,31
1149972,21
1150592,26
1151220,26
1151844,19
1152476,14
1153104,14
1153720,16
1154348,10
1154972,22
1155596,30
1156224,26
1156840,15
1157468,10
1158092,17
1158712,26
1159344,38
1159960,41
1160588,31
1161212,18
1161840,13
1162468,19
1163092,30
1163720,41
1164348,43
1164968,39
1165596,31
1166220,38
1166848,54
1167480,52
1168096,32
1168724,16
1169348,14
1169968,18
1170600,16
1171216,15
1171844,21
1172468,36
1173092,48
1173720,55
1174344,51
1174972,40
1175604,25
1176224,13
1176852,32
1177476,40
1178108,37
1178736,34
1179360,32
1179988,23
1180612,18
1181236,21
1181864,22
1182488,27
1183116,40
1183740,50
1184368,53
1184996,34
1185620,16
1186248,14
1186876,14
1187496,11
1188124,13
1188748,19
1189380,27
1190008,21
1190624,17
1191256,34
1191880,59
1192504,65
1193132,42
1193752,21
1194380,18
1195004,26
1195632,19
1196260,25
1196884,40
1197516,46
1198144,33
1198764,26
1199392,32
1200016,37
1200644,45
1201272,46
1201892,29
1202520,17
1203144,13
1203768,24
1204396,30
1205016,36
1205644,33
1206268,27
1206896,35
1207524,41
1208148,58
1208780,24
1209408,17
1210028,16
1210656,17
1211280,27
1211908,28
1212540,34
1213160,33
1213788,24
1214412,17
1215036,16
1215668,14
1216288,29
1216916,46
1217548,59
1218168,52
1218796,43
1219420,29
1220052,15
1220680,15
1221296,29
1221928,40
1222552,31
1223176,20
1223804,18
1224424,19
1225052,23
1225676,28
1226300,32
1226932,18
1227552,15
1228180,16
1228812,16
1229428,11
1230056,10
1230680,11
1231308,14
1231940,11
1232560,11
1233188,11
1233812,25
1234436,37
1235068,26
1235688,34
1236316,42
1236940,43
1237564,19
1238192,18
1238816,41
1239444,33
1240076,18
1240696,12
1241324,19
1241948,18
1242576,11
1243204,14
1243824,13
1244452,14
1245076,19
1245700,13
1246332,16
1246952,18
1247580,18
1248204,12
1248828,17
1249456,36
1250080,53
1250708,59
1251336,45
1251956,31
1252584,29
1253208,31
1253836,35
1254468,28
1255088,13
1255716,42
1256340,39
1256964,32
1257596,22
1258216,35
1258844,49
1259468,54
1260092,37
1260724,20
1261344,15
1261972,14
1262604,14
1263224,19
1263852,29
1264476,31
1265108,21
1265736,17
1266360,23
1266988,30
1267616,42
1268236,41
1268868,22
1269488,14
1270116,15
1270740,15
1271364,12
1271996,24
1272616,22
1273244,17
1273876,18
1274496,24
1275124,31
1275752,29
1276380,23
1277012,16
1277632,14
1278260,20
1278888,18
1279512,14
1280144,12
1280756,33
1281388,21
1282008,18
1282628,49
1283256,70
1283872,68
1284500,52
1285128,50
1285744,62
1286372,43
1286996,15
1287624,10
1288252,9
1288820,14
1289452,26
1290076,30
1290704,24
1291332,10
1291952,12
1292580,23
1293204,28
1293828,26
1294456,19
1295080,15
1295708,11
1296332,11
1296952,12
1297584,22
1298200,30
1298828,22
1299452,22
1300080,29
1300708,23
1301332,30
1301960,37
1302588,38
1303208,28
1303836,18
1304460,13
1305088,11
1305720,9
1306284,13
1306916,32
1307540,54
1308164,67
1308796,54
1309416,35
1310044,19
1310668,14
1311292,20
1311924,22
1312544,15
1313172,12
1313800,13
1314416,41
1315044,48
1315668,47
1316296,44
1316924,34
1317544,39
1318172,47
1318796,27
1319424,15
1320052,13
1320668,12
1321300,11
1321920,11
1322540,21
1323172,29
1323792,29
1324420,29
1325044,28
1325664,27
1326296,30
1326916,25
1327548,20
1328176,16
1328792,15
1329420,14
1330044,14
1330672,27
1331300,35
1331916,37
1332548,41
1333168,50
1333788,41
1334416,32
1335036,19
1335668,23
1336288,24
1336912,31
1337540,16
1338160,17
1338788,39
1339416,43
1340032,34
1340664,33
1341288,34
1341916,31
1342544,22
1343168,19
1343796,14
1344420,15
1345044,19
1345672,34
1346288,33
1346916,29
1347540,25
1348160,11
1348788,11
1349408,17
1350036,34
1350664,50
1351288,59
1351916,39
1352540,23
1353168,15
1353796,15
1354416,16
1355044,18
1355664,28
1356292,23
1356924,32
1357540,46
1358172,38
1358792,26
1359416,23
1360044,24
1360660,19
1361288,13
1361912,15
1362536,27
1363164,28
1363788,33
1364416,39
1365044,42
1365664,49
1366292,54
1366916,45
1367544,45
1368172,53
1368792,49
1369420,23
1370044,15
1370668,33
1371296,44
1371912,45
1372540,31
1373164,14
1373788,13
1374416,34
1375040,37
1375668,41
1376300,31
1376920,23
1377548,23
1378172,16
1378800,15
1379428,34
1380048,34
1380676,20
1381300,13
1381924,25
1382552,36
1383176,54
1383804,76
1384428,85
1385048,62
1385680,38
1386296,20
1386924,13
1387552,18
1388176,26
1388804,26
1389424,21
1390056,19
1390684,25
1391304,34
1391936,51
1392560,57
1393184,38
1393812,23
1394432,13
1395060,14
1395684,14
1396308,11
1396936,19
1397552,28
1398184,24
1398812,27
1399432,41
1400060,37
1400684,24
1401312,32
1401940,40
1402560,59
1403188,57
1403812,38
1404436,17
1405064,11
1405688,29
1406316,43
1406940,63
1407564,63
1408196,50
1408812,24
1409440,15
1410068,16
1410688,17
1411316,16
1411940,15
1412568,14
1413196,20
1413816,29
1414444,22
1415068,23
1415688,28
1416320,39
1416936,41
1417564,43
1418188,49
1418812,55
1419440,47
1420064,32
1420692,17
1421324,14
1421944,39
1422572,43
1423196,41
1423828,39
1424456,21
1425072,16
1425704,21
1426328,26
1426952,35
1427580,30
1428200,19
1428828,17
1429452,22
1430076,16
1430708,22
1431328,37
1431956,29
1432588,32
1433208,45
1433840,59
1434460,62
1435088,47
1435720,35
1436336,26
1436964,13
1437588,34
1438216,40
1438844,48
1439464,50
1440092,38
1440712,35
1441336,29
1441964,10
1442584,16
1443212,14
1443832,13
1444456,16
1445084,19
1445708,17
1446336,21
1446964,22
1447584,13
1448212,11
1448836,35
1449464,67
1450092,95
1450712,94
1451340,71
1451964,41
1452588,38
1453216,25
1453840,15
1454468,16
1455092,29
1455716,38
1456344,38
1456968,34
1457596,31
1458224,35
1458848,34
1459476,31
1460100,27
1460728,17
1461360,14
1461976,14
1462604,15
1463228,24
1463852,14
1464480,12
1465104,14
1465732,11
1466356,48
1466980,74
1467608,75
1468232,61
1468860,48
1469492,30
1470112,18
1470740,11
1471364,13
1471996,23
1472628,27
1473248,32
1473876,22
1474500,16
1475124,23
1475756,19
1476376,16
1477004,18
1477628,20
1478256,20
1478884,18
1479508,11
1480136,12
1480764,18
1481384,38
1482012,45
1482636,43
1483264,55
1483896,38
1484512,25
1485140,28
1485764,25
1486388,14
1487016,14
1487632,11
1488260,25
1488884,14
1489508,12
1490136,12
1490760,19
1491388,31
1492016,39
1492640,43
1493268,39
1493892,37
1494520,32
1495148,14
1495768,32
1496396,42
1497020,30
1497644,22
1498272,26
1498888,19
1499516,26
1500140,36
1500764,49
1501396,73
1502020,72
1502652,53
1503280,18
1503900,19
1504532,28
1505152,33
1505784,33
1506412,23
1507032,22
1507660,16
1508284,17
1508908,13
1509540,16
1510160,27
1510792,34
1511416,44
1512040,23
1512668,17
1513292,62
1513920,77
1514552,67
1515168,47
1515800,30
1516424,36
1517052,43
1517684,34
1518304,24
1518932,14
1519560,15
1520184,16
1520812,10
1521432,20
1522060,38
1522684,35
1523312,22
1523940,12
1524564,13
1525196,23
1525824,29
1526444,30
1527072,26
1527696,17
1528324,13
1528956,14
1529576,11
1530208,10
1530832,11
1531456,21
1532088,34
1532704,40
1533336,51
1533968,53
1534584,37
1535216,11
1535840,24
1536472,26
1537100,32
1537720,41
1538348,21
1538972,10
1539596,10
1540224,20
1540840,23
1541468,14
1542092,11
1542716,17
1543344,20
1543964,13
1544592,14
1545220,15
1545840,31
1546468,33
1547092,11
1547720,10
1548352,10
1548968,12
1549596,42
1550220,55
1550852,48
1551480,35
1552096,25
1552728,17
1553348,16
1553972,27
1554604,26
1555224,20
1555852,10
1556476,19
1557104,32
1557732,48
1558356,60
1558988,47
1559616,35
1560240,25
1560868,14
1561492,24
1562120,21
1562748,30
1563368,25
1563996,22
1564620,37
1565244,48
1565876,50
1566496,35
1567124,32
1567756,32
1568376,18
1569004,16
1569628,28
1570256,26
1570884,13
1571504,11
1572132,16
1572756,17
1573384,11
1574012,16
1574632,11
1575260,21
1575884,32
1576508,36
1577140,40
1577760,31
1578388,23
1579020,12
1579640,21
1580268,33
1580892,45
1581524,45
1582152,42
1582772,47
1583400,55
1584024,61
1584648,37
1585280,12
1585896,15
1586528,14
1587152,15
1587776,22
1588404,34
1589024,47
1589652,61
1590284,80
1590904,62
1591532,21
1592160,17
1592788,14
1593420,14
1594040,14
1594668,23
1595296,24
1595920,30
1596548,28
1597168,28
1597800,15
1598424,28
1599048,42
1599676,43
1600296,42
1600924,54
1601552,62
1602168,53
1602796,34
1603420,19
1604048,12
1604676,18
1605296,39
1605924,41
1606548,24
1607172,20
1607804,22
1608424,32
1609052,32
1609672,29
1610296,17
1610924,22
1611544,22
1612172,16
1612796,11
1613424,12
1614052,10
1614676,41
1615304,57
1615936,40
1616556,36
1617184,40
1617808,34
1618436,20
1619064,13
1619688,17
1620316,14
1620940,18
1621564,12
1622192,9
1622764,13
1623396,26
1624020,27
1624644,28
1625272,24
1625892,11
1626520,29
1627148,26
1627768,15
1628396,21
1629020,15
1629652,15
1630280,11
1630896,13
1631528,12
1632152,21
1632776,52
1633404,66
1634024,81
1634652,79
1635276,46
1635900,25
1636532,16
1637152,18
1637780,12
1638412,26
1639028,45
1639656,53
1640276,47
1640904,47
1641532,40
1642152,29
1642780,13
1643400,17
1644028,18
1644656,14
1645272,20
1645900,19
1646524,11
1647144,11
1647772,11
1648392,11
1649020,24
1649640,47
1650260,67
1650888,66
1651508,56
1652140,33
1652768,15
1653384,16
1654012,26
1654636,31
1655264,29
1655892,26
1656512,29
1657140,55
1657764,35
1658384,17
1659012,12
1659632,13
1660260,12
1660880,15
1661504,15
1662132,14
1662752,21
1663380,22
1664008,25
1664628,11
1665256,11
1665876,22
1666508,39
1667136,63
1667752,70
1668380,61
1669004,53
1669632,52
1670260,32
1670880,13
1671508,16
1672128,29
1672752,43
1673380,38
1674000,17
1674628,18
1675252,29
1675872,19
1676500,17
1677124,33
1677752,28
1678380,19
1679000,16
1679628,12
1680252,21
1680880,33
1681508,34
1682128,31
1682756,38
1683376,39
1684000,38
1684628,26
1685244,18
1685872,18
1686496,18
1687116,20
1687748,10
1688368,19
1688996,26
1689624,23
1690240,23
1690868,17
1691488,15
1692116,19
1692744,20
1693368,30
1693996,33
1694620,21
1695240,14
1695872,15
1696488,16
1697116,10
1697740,16
1698360,11
1698992,38
1699608,69
1700236,84
1700860,69
1701488,26
1702116,13
1702740,21
1703368,33
1703996,27
1704616,11
1705244,36
1705868,41
1706496,30
1707124,34
1707744,27
1708372,20
1708996,26
1709620,18
1710248,13
1710864,14
1711492,14
1712116,14
1712740,12
1713368,18
1713992,26
1714624,25
1715252,22
1715872,39
1716500,38
1717124,30
1717752,33
1718384,35
1719000,37
1719628,37
1720252,23
1720876,12
1721508,22
1722128,32
1722756,34
1723380,33
1724004,51
1724632,71
1725256,47
1725884,31
1726512,27
1727136,21
1727764,18
1728388,33
1729016,40
1729648,30
1730264,27
1730892,40
1731516,43
1732136,37
1732768,39
1733384,39
1734016,52
1734640,57
1735260,37
1735892,26
1736512,24
1737144,17
1737772,14
1738392,28
1739020,25
1739644,25
1740276,30
1740904,42
1741524,35
1742156,23
1742776,26
1743400,31
1744028,20
1744644,18
1745276,17
1745896,11
1746520,11
1747152,11
1747768,20
1748396,21
1749028,26
1749648,41
1750276,61
1750900,74
1751532,63
1752160,39
1752776,18
1753408,16
1754032,14
1754656,17
1755284,28
1755904,37
1756532,47
1757156,37
1757780,17
1758412,16
1759032,16
1759660,19
1760292,15
1760912,15
1761540,14
1762164,14
1762792,17
1763420,20
1764040,33
1764668,44
1765288,47
1765912,57
1766540,58
1767160,53
1767788,38
1768412,15
1769032,15
1769660,13
1770280,23
1770908,43
1771536,59
1772160,56
1772788,29
1773412,10
1774040,11
1774672,10
1775288,14
1775920,21
1776544,26
1777168,20
1777796,15
1778416,19
1779044,18
1779668,13
1780292,30
1780924,26
1781544,21
1782172,15
1782804,38
1783424,58
1784052,62
1784676,67
1785304,47
1785936,28
1786552,22
1787180,17
1787808,18
1788432,41
1789060,43
1789680,36
1790308,25
1790932,23
1791560,27
1792188,27
1792804,22
1793436,15
1794064,18
1794680,22
1795308,19
1795932,21
1796560,22
1797192,15
1797808,13
1798436,15
1799060,21
1799684,45
1800316,58
1800936,63
1801564,48
1802188,27
1802812,16
1803440,14
1804064,19
1804692,25
1805320,36
1805944,50
1806572,41
1807196,37
1807824,40
1808452,28
1809072,30
1809700,24
1810324,14
1810948,23
1811580,30
1812200,29
1812828,27
1813452,15
1814076,13
1814704,11
1815324,17
1815952,28
1816580,42
1817200,61
1817828,53
1818452,27
1819080,14
1819708,14
1820328,22
1820956,27
1821580,15
1822212,10
1822840,11
1823456,19
1824088,20
1824708,13
1825332,25
1825960,32
1826584,28
1827212,26
1827836,21
1828460,20
1829088,14
1829712,12
1830340,10
1830972,17
1831592,25
1832220,33
1832844,40
1833476,46
1834104,58
1834728,58
1835356,48
1835980,29
1836608,16
1837236,14
1837856,21
1838484,35
1839116,46
1839736,35
1840368,21
1840988,20
1841620,22
1842248,13
1842864,10
1843496,13
1844116,14
1844740,14
1845368,14
1845992,11
1846620,11
1847244,10
1847864,18
1848496,22
1849112,15
1849740,24
1850364,19
1850984,21
1851616,15
1852240,24
1852868,17
1853496,14
1854120,15
1854748,21
1855372,31
1856000,35
1856628,19
1857248,10
1857876,13
1858500,15
1859124,14
1859752,13
1860376,13
1861004,15
1861628,14
1862256,18
1862884,32
1863508,35
1864140,35
1864768,41
1865384,40
1866012,44
1866636,52
1867268,49
1867896,52
1868512,32
1869144,19
1869768,14
1870388,14
1871020,17
1871640,21
1872268,25
1872892,30
1873520,33
1874148,33
1874772,31
1875404,29
1876032,26
1876648,32
1877280,31
1877904,27
1878532,17
1879164,11
1879784,19
1880412,21
1881036,25
1881660,23
1882292,30
1882912,43
1883540,57
1884172,56
1884792,45
1885420,33
1886044,30
1886676,18
1887304,13
1887924,21
1888552,43
1889176,56
1889800,45
1890428,31
1891048,25
1891676,17
1892300,18
1892924,33
1893556,45
1894176,27
1894808,17
1895436,18
1896056,15
1896684,21
1897308,44
1897936,34
1898568,35
1899184,35
1899816,51
1900440,65
1901064,69
1901692,46
1902312,21
1902944,15
1903568,15
1904192,26
1904820,10
1905440,16
1906068,25
1906700,24
1907320,25
1907948,25
1908572,22
1909204,24
1909832,32
1910452,25
1911080,15
1911704,14
1912328,17
1912956,18
1913576,21
1914208,14
1914832,15
1915456,21
1916088,33
1916704,39
1917336,46
1917968,41
1918584,22
1919216,18
1919840,15
1920472,15
1921100,12
1921720,21
1922348,29
1922972,35
1923596,44
1924224,29
1924844,30
1925472,27
1926096,29
1926716,25
1927348,16
1927968,16
1928596,19
1929228,27
1929848,26
1930476,27
1931100,36
1931732,49
1932360,37
1932980,39
1933608,55
1934232,44
1934856,23
1935484,14
1936104,32
1936732,26
1937356,15
1937980,28
1938608,26
1939228,13
1939856,31
1940484,33
1941104,32
1941732,28
1942356,25
1942988,13
1943620,14
1944240,16
1944868,15
1945496,14
1946120,12
1946748,14
1947368,15
1947996,18
1948620,31
1949244,43
1949876,48
1950496,46
1951124,49
1951756,34
1952376,23
1953004,14
1953628,15
1954256,11
1954888,18
1955504,20
1956136,22
1956760,25
1957384,29
1958012,28
1958632,29
1959260,17
1959884,14
1960508,14
1961140,14
1961760,16
1962388,13
1963020,14
1963640,15
1964268,11
1964892,11
1965524,14
1966152,28
1966776,40
1967404,48
1968028,46
1968648,32
1969276,25
1969896,22
1970524,15
1971148,14
1971772,24
1972404,30
1973024,31
1973652,27
1974280,25
1974904,31
1975532,44
1976156,45
1976788,25
1977416,15
1978032,15
1978664,15
1979288,13
1979908,19
1980540,14
1981160,13
1981788,11
1982412,15
1983036,14
1983668,60
1984288,88
1984916,73
1985544,32
1986168,15
1986796,19
1987420,35
1988048,42
1988680,14
1989296,22
1989924,23
1990548,19
1991172,16
1991804,16
1992424,26
1993052,32
1993676,28
1994300,28
1994932,18
1995552,16
1996180,16
1996812,22
1997428,42
1998060,41
1998684,37
1999312,42
1999944,40
2000564,33
2001192,27
2001816,20
2002440,14
2003068,14
2003688,19
2004316,14
2004940,11
2005564,28
2006192,34
2006816,35
2007444,27
2008076,22
2008696,29
2009324,27
2009948,31
2010576,29
2011204,21
2011824,17
2012452,15
2013076,16
2013700,17
2014332,30
2014952,40
2015580,37
2016208,37
2016828,34
2017460,32
2018080,21
2018708,20
2019336,41
2019960,19
2020588,27
2021212,35
2021844,26
2022472,10
2023088,11
2023720,15
2024344,11
2024968,15
2025596,16
2026216,18
2026844,26
2027468,30
2028096,34
2028724,34
2029344,12
2029972,35
2030604,40
2031224,41
2031852,47
2032480,43
2033108,40
2033740,28
2034360,45
2034992,45
2035616,17
2036240,16
2036868,13
2037488,11
2038116,12
2038744,25
2039368,35
2039996,26
2040616,15
2041248,15
2041880,21
2042496,27
2043124,26
2043752,18
2044380,15
2045012,16
2045632,23
2046260,23
2046888,21
2047512,21
2048144,22
2048760,26
2049384,24
2050008,42
2050628,47
2051256,40
2051872,25
2052500,21
2053128,16
2053744,15
2054372,17
2054996,12
2055624,20
2056252,40
2056868,37
2057500,17
2058120,10
2058752,25
2059380,38
2060000,35
2060628,21
2061248,18
2061872,16
2062500,11
2063120,12
2063748,33
2064372,47
2064992,46
2065620,33
2066244,32
2066872,43
2067500,56
2068120,52
2068748,43
2069372,40
2070000,28
2070628,14
2071248,27
2071876,39
2072500,42
2073124,31
2073752,23
2074368,17
2074996,17
2075620,23
2076240,23
2076872,19
2077488,17
2078116,14
2078744,15
2079368,18
2079996,23
2080620,21
2081248,17
2081876,20
2082496,18
2083124,28
2083748,45
2084368,51
2085000,35
2085616,24
2086244,18
2086868,14
2087492,12
2088120,20
2088736,31
2089364,45
2089992,38
2090616,33
2091244,19
2091864,18
2092496,19
2093124,24
2093744,22
2094372,14
2094996,16
2095620,21
2096252,22
2096872,22
2097500,16
2098124,11
2098744,23
2099376,44
2099992,50
2100620,36
2101244,38
2101872,47
2102500,33
2103124,22
2103752,14
2104380,19
2105000,30
2105628,53
2106252,63
2106880,38
2107508,30
2108128,37
2108756,29
2109380,13
2110004,31
2110636,38
2111256,28
2111884,16
2112508,12
2113136,13
2113764,12
2114388,12
2115016,25
2115644,40
2116264,55
2116892,54
2117516,58
2118148,52
2118776,46
2119392,32
2120020,21
2120644,19
2121264,10
2121896,39
2122512,44
2123140,39
2123764,34
2124388,29
2125020,31
2125644,41
2126272,48
2126900,48
2127520,29
2128148,13
2128772,14
2129400,15
2130032,23
2130648,36
2131276,34
2131900,31
2132524,35
2133152,48
2133768,57
2134396,50
2135020,41
2135644,27
2136276,15
2136900,16
2137528,11
2138156,10
2138776,22
2139404,19
2140028,10
2140660,13
2141288,19
2141904,31
2142532,37
2143156,34
2143780,27
2144412,22
2145032,17
2145660,14
2146284,10
2146908,11
2147536,12
2148152,17
2148784,40
2149412,68
2150032,79
2150664,71
2151284,60
2151916,42
2152544,23
2153160,14
2153788,15
2154412,16
2155036,30
2155664,29
2156288,31
2156916,31
2157540,24
2158164,11
2158792,12
2159412,16
2160040,21
2160668,28
2161284,47
2161916,41
2162540,18
2163168,24
2163796,43
2164416,49
2165044,39
2165668,36
2166292,45
2166920,51
2167544,64
2168172,71
2168796,57
2169420,39
2170052,26
2170672,15
2171300,14
2171932,30
2172552,39
2173180,33
2173804,34
2174436,23
2175064,10
2175684,11
2176312,15
2176936,24
2177556,20
2178188,14
2178808,15
2179436,14
2180060,12
2180680,11
2181312,11
2181928,12
2182556,16
2183188,26
2183808,36
2184436,39
2185060,25
2185688,21
2186320,35
2186936,34
2187564,13
2188188,16
2188812,37
2189440,38
2190056,41
2190688,46
2191312,49
2191936,44
2192564,36
2193184,29
2193812,20
2194444,18
2195064,25
2195692,33
2196316,37
2196948,39
2197580,37
2198200,35
2198828,35
2199452,42
2200076,52
2200708,50
2201328,39
2201960,19
2202580,14
2203204,14
2203832,13
2204456,17
2205084,28
2205716,28
2206336,24
2206964,31
2207588,31
2208220,35
2208848,36
2209472,34
2210100,26
2210724,17
2211348,16
2211980,26
2212600,31
2213228,30
2213852,24
2214476,33
2215104,32
2215724,37
2216352,51
2216980,46
2217600,45
2218228,46
2218852,31
2219484,18
2220112,13
2220732,15
2221360,19
2221984,23
2222612,29
2223240,36
2223860,38
2224488,32
2225112,30
2225736,34
2226364,46
2226984,31
2227616,22
2228244,20
2228864,18
2229492,15
2230116,19
2230748,24
2231380,23
2232000,36
2232628,59
2233252,72
2233880,83
2234508,76
2235128,53
2235760,30
2236384,21
2237008,15
2237636,16
2238256,22
2238888,37
2239516,48
2240136,40
2240768,39
2241388,33
2242020,33
2242648,24
2243264,17
2243892,13
2244516,15
2245140,15
2245768,24
2246384,32
2247016,29
2247640,32
2248264,24
2248892,27
2249512,44
2250144,45
2250772,52
2251392,41
2252024,28
2252648,17
2253276,14
2253904,18
2254528,26
2255156,31
2255780,36
2256404,31
2257032,21
2257648,19
2258280,21
2258900,32
2259524,37
2260152,26
2260776,15
2261404,18
2262036,25
2262656,17
2263284,11
2263908,10
2264540,12
2265168,29
2265788,48
2266416,60
2267040,68
2267664,71
2268292,48
2268912,21
2269540,13
2270164,20
2270788,27
2271420,40
2272040,46
2272668,31
2273300,20
2273920,17
2274548,21
2275172,32
2275804,37
2276432,30
2277056,23
2277684,16
2278308,19
2278936,33
2279564,41
2280184,30
2280812,23
2281436,15
2282060,21
2282692,38
2283312,44
2283940,57
2284572,63
2285192,48
2285820,35
2286448,28
2287076,16
2287704,10
2288328,28
2288956,41
2289580,36
2290204,28
2290836,31
2291456,34
2292084,37
2292708,41
2293336,41
2293964,29
2294584,17
2295212,14
2295840,17
2296464,31
2297092,36
2297716,37
2298348,34
2298976,22
2299592,37
2300224,38
2300848,49
2301472,59
2302100,48
2302720,22
2303348,14
2303976,28
2304600,39
2305228,56
2305848,85
2306476,59
2307104,30
2307728,12
2308356,10
2308980,13
2309612,18
2310240,22
2310856,14
2311488,17
2312112,25
2312736,38
2313364,46
2313984,34
2314612,24
2315236,21
2315860,28
2316492,40
2317112,51
2317740,50
2318372,30
2318992,21
2319620,17
2320244,14
2320876,10
2321504,19
2322120,30
2322752,33
2323376,36
2324000,41
2324628,50
2325248,47
2325876,37
2326500,26
2327124,15
2327752,14
2328376,15
2329004,20
2329636,18
2330256,15
2330884,25
2331508,33
2332136,39
2332768,50
2333388,57
2334016,55
2334640,45
2335264,32
2335892,29
2336512,26
2337140,16
2337764,14
2338388,27
2339016,44
2339640,48
2340268,43
2340900,36
2341520,45
2342148,53
2342776,39
2343404,25
2344036,14
2344656,18
2345284,18
2345908,30
2346532,33
2347164,14
2347784,10
2348412,13
2349036,30
2349664,62
2350292,74
2350916,72
2351548,58
2352180,32
2352800,14
2353428,21
2354056,11
2354684,12
2355316,28
2355936,38
2356564,26
2357188,17
2357812,14
2358444,12
2359064,26
2359692,36
2360316,28
2360944,22
2361572,20
2362200,16
2362828,20
2363460,34
2364080,35
2364708,28
2365336,32
2365960,40
2366588,45
2367208,53
2367836,58
2368464,44
2369088,27
2369716,14
2370336,15
2370968,21
2371596,32
2372216,37
2372844,31
2373468,22
2374100,21
2374732,30
2375352,33
2375984,24
2376608,19
2377232,15
2377860,14
2378480,26
2379108,23
2379732,13
2380360,25
2380988,31
2381608,25
2382236,34
2382868,54
2383488,65
2384116,67
2384740,53
2385372,34
2386004,16
2386624,17
2387252,19
2387876,10
2388500,24
2389128,29
2389752,32
2390384,33
2391008,34
2391632,36
2392264,37
2392880,32
2393512,29
2394144,22
2394764,16
2395392,15
2396020,29
2396648,20
2397280,18
2397900,21
2398528,34
2399156,40
2399780,51
2400412,60
2401032,69
2401660,57
2402284,41
2402908,17
2403536,14
2404160,15
2404788,20
2405420,26
2406040,29
2406668,21
2407292,19
2407924,22
2408552,31
2409168,27
2409800,29
2410424,27
2411048,18
2411676,14
2412296,15
2412924,24
2413548,22
2414172,11
2414804,11
2415428,15
2416060,11
2416688,46
2417304,65
2417932,71
2418556,56
2419188,39
2419816,30
2420440,25
2421068,13
2421692,10
2422316,10
2422948,11
2423568,31
2424200,28
2424824,28
2425448,31
2426076,34
2426700,41
2427332,38
2427964,28
2428584,25
2429212,13
2429840,11
2430468,15
2431100,16
2431720,11
2432352,35
2432976,61
2433596,70
2434228,70
2434848,69
2435476,56
2436108,40
2436728,27
2437360,11
2437984,19
2438612,35
2439244,35
2439864,28
2440492,25
2441116,20
2441740,19
2442372,14
2442992,21
2443620,36
2444248,41
2444872,45
2445500,19
2446120,17
2446748,39
2447380,44
2448000,39
2448628,40
2449252,56
2449884,64
2450516,65
2451136,54
2451768,28
2452392,22
2453016,21
2453648,14
2454264,12
2454896,22
2455520,32
2456144,42
2456776,44
2457392,38
2458028,36
2458656,30
2459272,17
2459900,17
2460524,16
2461152,15
2461780,14
2462400,23
2463028,28
2463652,16
2464276,10
2464904,10
2465520,13
2466148,31
2466772,66
2467396,87
2468024,62
2468640,20
2469272,19
2469900,30
2470520,26
2471148,36
2471772,36
2472404,25
2473032,15
2473648,12
2474280,11
2474900,29
2475528,41
2476156,44
2476776,15
2477408,13
2478032,27
2478656,39
2479284,54
2479904,51
2480536,29
2481164,12
2481784,13
2482412,25
2483036,47
2483668,56
2484296,55
2484916,37
2485544,33
2486168,21
2486792,15
2487420,15
2488040,37
2488668,41
2489292,39
2489916,36
2490544,38
2491168,35
2491800,29
2492428,24
2493048,17
2493676,13
2494300,14
2494932,15
2495564,18
2496184,22
2496812,37
2497436,41
2498060,29
2498688,22
2499312,24
2499940,33
2500564,51
2501188,57
2501816,32
2502440,17
2503068,13
2503700,14
2504320,11
2504948,20
2505572,34
2506204,37
2506836,34
2507456,32
2508088,39
2508712,42
2509336,32
2509964,14
2510584,15
2511212,17
2511836,17
2512464,17
2513092,16
2513712,21
2514340,24
2514972,37
2515592,46
2516220,44
2516848,38
2517476,38
2518108,28
2518728,18
2519356,16
2519984,16
2520608,13
2521236,15
2521856,28
2522484,39
2523108,38
2523736,33
2524364,23
2524984,19
2525612,21
2526244,25
2526864,18
2527492,15
2528120,15
2528748,21
2529380,19
2530000,23
2530628,22
2531252,21
2531876,29
2532508,33
2533128,32
2533760,25
2534384,49
2535008,47
2535640,47
2536264,25
2536892,15
2537524,10
2538144,14
2538776,32
2539400,46
2540032,39
2540660,25
2541280,18
2541908,19
2542536,31
2543160,43
2543788,35
2544408,39
2545036,18
2545664,26
2546288,45
2546916,53
2547544,53
2548172,38
2548804,33
2549424,42
2550056,47
2550680,54
2551304,57
2551936,37
2552556,24
2553184,16
2553808,14
2554432,14
2555064,21
2555680,28
2556312,41
2556944,43
2557560,34
2558192,33
2558820,36
2559452,31
2560084,22
2560700,14
2561328,19
2561948,16
2562572,21
2563200,22
2563816,34
2564444,32
2565068,31
2565688,24
2566320,19
2566936,24
2567564,26
2568188,17
2568816,14
2569444,14
2570064,15
2570696,18
2571324,10
2571944,10
2572572,21
2573196,32
2573824,31
2574456,29
2575072,34
2575700,46
2576324,42
2576948,22
2577576,14
2578196,20
2578824,16
2579448,13
2580072,19
2580700,31
2581324,33
2581952,32
2582580,34
2583200,51
2583828,53
2584452,48
2585080,40
2585708,40
2586328,36
2586956,31
2587580,13
2588200,13
2588832,18
2589448,30
2590076,42
2590700,53
2591324,52
2591956,33
2592580,28
2593208,28
2593836,18
2594456,19
2595084,15
2595708,13
2596340,17
2596968,25
2597584,27
2598212,19
2598840,13
2599460,22
2600092,39
2600712,55
2601340,57
2601964,43
2602588,31
2603216,27
2603832,28
2604464,11
2605092,20
2605712,33
2606340,33
2606964,43
2607596,40
2608224,41
2608848,32
2609476,11
2610100,14
2610724,14
2611356,16
2611976,16
2612604,14
2613228,24
2613852,17
2614480,10
2615104,25
2615732,42
2616364,56
2616984,63
2617612,48
2618236,30
2618868,29
2619496,26
2620120,18
2620748,11
2621376,17
2622000,32
2622628,38
2623248,35
2623876,29
2624500,19
2625120,29
2625748,30
2626372,31
2627000,29
2627632,37
2628248,36
2628876,16
2629496,21
2630128,35
2630756,42
2631376,41
2632004,34
2632628,30
2633248,31
2633880,39
2634496,49
2635124,40
2635748,27
2636372,17
2637000,13
2637624,10
2638252,15
2638880,19
2639496,22
2640128,24
2640748,18
2641376,21
2642008,16
2642624,23
2643252,37
2643872,46
2644492,41
2645120,14
2645744,25
2646372,42
2646996,57
2647620,51
2648248,38
2648864,27
2649492,33
2650124,40
2650744,35
2651372,38
2651996,20
2652624,14
2653256,16
2653872,15
2654500,10
2655124,10
2655748,14
2656380,14
2657000,21
2657628,20
2658252,23
2658876,25
2659504,27
2660120,35
2660752,49
2661380,57
2662000,33
2662628,11
2663252,33
2663880,48
2664508,31
2665128,25
2665752,38
2666376,62
2667004,79
2667632,72
2668256,44
2668884,28
2669504,22
2670128,16
2670756,14
2671376,19
2672004,37
2672628,35
2673248,22
2673880,24
2674500,36
2675132,38
2675764,26
2676384,18
2677012,18
2677636,19
2678264,17
2678892,18
2679512,33
2680140,39
2680764,32
2681388,18
2682016,14
2682640,31
2683268,53
2683892,78
2684516,84
2685144,66
2685768,43
2686396,24
2687028,13
2687648,16
2688280,26
2688900,35
2689528,36
2690156,34
2690776,37
2691404,32
2692028,37
2692648,34
2693280,35
2693896,24
2694524,15
2695148,14
2695768,20
2696400,28
2697016,32
2697644,33
2698272,28
2698896,19
2699524,28
2700148,37
2700776,47
2701408,43
2702024,29
2702652,21
2703276,19
2703900,14
2704532,18
2705152,39
2705780,55
2706404,54
2707028,49
2707656,27
2708272,21
2708904,27
2709532,22
2710152,24
2710780,18
2711404,20
2712036,33
2712664,40
2713288,37
2713916,24
2714540,25
2715164,31
2715796,21
2716416,35
2717044,48
2717668,38
2718292,26
2718920,28
2719544,41
2720172,29
2720800,12
2721420,13
2722052,42
2722676,49
2723304,41
2723932,41
2724552,41
2725180,36
2725804,17
2726424,14
2727052,14
2727672,16
2728300,18
2728924,17
2729548,24
2730176,30
2730796,22
2731424,15
2732052,31
2732672,48
2733300,46
2733924,47
2734556,41
2735184,21
2735804,15
2736432,13
2737056,15
2737680,11
2738308,12
2738928,12
2739556,21
2740180,27
2740804,17
2741432,16
2742052,27
2742680,29
2743312,31
2743928,27
2744560,19
2745184,14
2745812,13
2746440,20
2747064,24
2747692,18
2748316,13
2748940,15
2749568,30
2750192,49
2750820,57
2751448,47
2752072,26
2752700,20
2753320,17
2753948,21
2754580,17
2755200,13
2755828,10
2756452,13
2757080,13
2757712,25
2758328,28
2758960,27
2759584,21
2760208,16
2760836,14
2761456,14
2762084,13
2762708,12
2763332,15
2763964,11
2764584,13
2765216,24
2765844,32
2766464,44
2767092,47
2767716,49
2768344,39
2768972,26
2769592,15
2770220,25
2770844,16
2771468,11
2772100,10
2772720,21
2773348,43
2773972,49
2774596,48
2775228,46
2775848,39
2776476,27
2777108,12
2777728,17
2778356,18
2778980,12
2779612,16
2780240,23
2780864,11
2781492,35
2782116,57
2782740,79
2783372,87
2783992,89
2784624,77
2785248,51
2785872,35
2786500,18
2787120,13
2787748,14
2788380,25
2789000,37
2789628,50
2790252,66
2790884,54
2791512,31
2792132,13
2792760,11
2793384,15
2794008,16
2794636,14
2795256,14
2795884,18
2796508,19
2797132,14
2797764,10
2798384,11
2799012,21
2799644,45
2800264,57
2800892,63
2801516,49
2802148,39
2802776,19
2803396,19
2804024,21
2804648,17
2805272,32
2805900,46
2806520,52
2807148,41
2807772,14
2808396,10
2809024,10
2809648,15
2810276,17
2810908,16
2811528,15
2812156,14
2812780,13
2813412,18
2814044,16
2814664,19
2815296,21
2815920,31
2816544,40
2817172,50
2817792,65
2818420,72
2819044,51
2819664,29
2820296,16
2820912,13
2821540,25
2822172,29
2822792,37
2823420,48
2824044,45
2824672,53
2825304,41
2825920,27
2826548,21
2827172,17
2827796,14
2828424,15
2829048,15
2829676,18
2830300,17
2830924,17
2831552,18
2832176,32
2832804,53
2833432,74
2834056,76
2834684,61
2835308,38
2835940,21
2836568,13
2837184,15
2837816,24
2838440,39
2839064,45
2839692,38
2840312,31
2840944,26
2841568,27
2842192,33
2842820,28
2843440,15
2844068,14
2844700,16
2845320,16
2845948,11
2846576,11
2847204,17
2847832,31
2848456,49
2849084,58
2849708,62
2850332,56
2850960,48
2851584,37
2852212,19
2852836,15
2853460,16
2854092,16
2854712,24
2855340,16
2855972,13
2856592,18
2857224,23
2857844,27
2858476,33
2859108,34
2859728,32
2860360,21
2860984,15
2861608,14
2862236,13
2862856,13
2863488,17
2864112,16
2864736,12
2865364,12
2865992,25
2866620,54
2867252,70
2867872,59
2868500,45
2869120,33
2869752,21
2870380,14
2871000,12
2871628,25
2872252,38
2872876,35
2873508,24
2874128,24
2874756,32
2875380,31
2876004,14
2876636,15
2877260,14
2877888,14
2878520,21
2879136,18
2879768,13
2880392,11
2881020,14
2881648,16
2882264,44
2882892,86
2883516,99
2884140,82
2884768,41
2885384,18
2886016,22
2886636,41
2887260,15
2887892,10
2888512,17
2889144,33
2889772,32
2890392,15
2891020,12
2891644,13
2892276,19
2892904,17
2893520,17
2894148,17
2894772,15
2895396,14
2896024,19
2896640,29
2897268,25
2897892,19
2898516,21
2899144,22
2899768,35
2900396,47
2901028,51
2901648,40
2902276,24
2902900,16
2903532,14
2904164,10
2904784,21
2905412,30
2906040,24
2906664,19
2907292,18
2907912,25
2908544,25
2909168,24
2909792,27
2910420,19
2911044,16
2911672,14
2912304,17
2912928,25
2913556,22
2914180,25
2914812,21
2915440,23
2916064,27
2916692,33
2917316,44
2917940,48
2918572,30
2919192,21
2919820,14
2920444,14
2921072,19
2921700,33
2922324,39
2922952,29
2923584,12
2924200,9
2924780,15
2925408,21
2926036,20
2926668,18
2927288,22
2927916,19
2928544,16
2929168,23
2929796,20
2930416,11
2931044,15
2931668,22
2932292,32
2932924,24
2933544,39
2934176,47
2934804,44
2935424,44
2936056,42
2936680,21
2937308,19
2937940,32
2938560,53
2939188,58
2939816,38
2940440,12
2941068,10
2941688,18
2942316,12
2942944,13
2943568,12
2944200,18
2944816,19
2945444,17
2946076,16
2946696,13
2947324,10
2947948,10
2948580,21
2949208,39
2949832,51
2950460,49
2951084,51
2951704,32
2952336,27
2952952,21
2953580,14
2954208,15
2954828,24
2955460,34
2956080,32
2956708,34
2957340,34
2957960,25
2958588,17
2959212,10
2959844,21
2960472,19
2961096,16
2961724,13
2962348,14
2962972,15
2963604,14
2964224,13
2964852,13
2965476,24
2966100,43
2966728,47
2967352,46
2967984,45
2968612,34
2969232,25
2969864,22
2970484,15
2971116,13
2971744,23
2972360,36
2972992,23
2973616,17
2974236,15
2974868,18
2975488,24
2976116,23
2976740,22
2977364,18
2977992,16
2978612,15
2979240,19
2979868,16
2980488,17
2981116,24
2981740,33
2982372,48
2983000,50
2983624,49
2984252,52
2984876,25
2985500,13
2986132,16
2986752,15
2987384,12
2988008,29
2988632,42
2989260,40
2989880,27
2990512,15
2991140,11
2991760,12
2992388,11
2993016,14
2993644,13
2994272,13
2994896,17
2995524,18
2996148,11
2996772,10
2997404,10
2998024,15
2998652,31
2999276,41
2999900,45
3000532,64
3001156,64
3001788,51
3002416,37
3003040,22
3003668,14
3004296,24
3004924,30
3005556,23
3006176,15
3006808,17
3007432,39
3008056,34
3008684,20
3009304,19
3009932,16
3010556,16
3011184,14
3011816,16
3012440,19
3013068,14
3013700,11
3014320,14
3014952,15
3015576,17
3016200,39
3016828,49
3017448,52
3018080,53
3018704,44
3019328,31
3019960,16
3020576,13
3021208,20
3021840,31
3022456,46
3023088,49
3023712,44
3024344,21
3024972,10
3025592,9
3026172,15
3026800,17
3027432,27
3028060,22
3028680,15
3029308,15
3029936,34
3030560,47
3031192,38
3031808,23
3032440,27
3033064,44
3033688,54
3034316,58
3034936,50
3035568,32
3036196,16
3036816,14
3037444,12
3038072,21
3038700,37
3039332,47
3039952,39
3040584,34
3041208,29
3041836,35
3042464,22
3043084,14
3043712,15
3044340,15
3044964,15
3045592,19
3046220,19
3046848,22
3047480,15
3048096,17
3048728,25
3049352,42
3049984,57
3050612,58
3051232,59
3051864,35
3052488,13
3053112,15
3053744,14
3054360,14
3054992,31
3055624,40
3056240,46
3056872,47
3057496,57
3058128,45
3058756,35
3059376,37
3060008,28
3060632,15
3061256,26
3061888,51
3062504,65
3063136,47
3063760,31
3064384,25
3065016,18
3065632,17
3066264,27
3066896,44
3067512,61
3068144,44
3068768,21
3069400,14
3070032,13
3070652,11
3071284,16
3071908,19
3072536,15
3073164,12
3073784,15
3074412,15
3075036,20
3075660,24
3076288,26
3076904,22
3077536,18
3078164,18
3078784,15
3079412,14
3080036,12
3080668,14
3081296,13
3081912,14
3082540,29
3083164,49
3083788,59
3084420,55
3085040,39
3085668,29
3086292,21
3086916,14
3087548,12
3088168,17
3088796,30
3089428,38
3090048,32
3090676,26
3091300,29
3091932,29
3092564,23
3093184,16
3093812,13
3094436,16
3095060,13
3095692,11
3096312,10
3096944,15
3097568,16
3098192,17
3098820,29
3099440,48
3100068,57
3100700,62
3101320,49
3101952,33
3102576,24
3103208,14
3103836,16
3104456,17
3105088,21
3105712,30
3106336,29
3106968,25
3107584,24
3108216,24
3108840,20
3109464,15
3110092,16
3110712,16
3111344,15
3111972,14
3112592,22
3113224,39
3113848,43
3114476,30
3115108,24
3115728,23
3116356,33
3116984,39
3117608,56
3118236,44
3118856,25
3119484,14
3120112,17
3120736,12
3121364,14
3121988,31
3122620,51
3123252,32
3123872,25
3124500,16
3125124,14
3125752,25
3126384,19
3127004,13
3127636,15
3128260,16
3128884,24
3129512,19
3130132,10
3130764,19
3131388,32
3132016,46
3132644,59
3133272,67
3133904,65
3134532,59
3135152,47
3135784,31
3136408,23
3137032,15
3137660,12
3138280,24
3138908,54
3139536,80
3140156,69
3140788,44
3141408,30
3142040,26
3142668,38
3143288,31
3143920,13
3144544,18
3145172,18
3145804,26
3146424,35
3147052,38
3147680,40
3148304,40
3148936,34
3149552,47
3150184,55
3150808,58
3151432,44
3152064,33
3152680,26
3153308,20
3153940,11
3154560,19
3155188,30
3155816,39
3156444,32
3157076,36
3157696,34
3158328,22
3158952,22
3159576,36
3160208,40
3160824,27
3161456,18
3162080,14
3162704,27
3163336,41
3163952,51
3164584,43
3165216,27
3165836,25
3166468,37
3167092,44
3167724,39
3168352,28
3168976,25
3169604,25
3170232,23
3170856,11
3171488,19
3172104,36
3172736,43
3173360,30
3173988,27
3174620,21
3175244,25
3175872,30
3176504,30
3177120,19
3177748,17
3178376,26
3179004,23
3179636,24
3180256,29
3180888,34
3181512,30
3182136,25
3182768,23
3183384,26
3184016,26
3184644,16
3185264,31
3185896,38
3186520,36
3187152,19
3187784,12
3188400,16
3189032,37
3189656,44
3190284,37
3190916,36
3191536,39
3192168,34
3192792,21
3193416,13
3194048,20
3194672,17
3195304,13
3195936,12
3196552,12
3197184,15
3197812,18
3198444,19
3199072,28
3199696,39
3200332,50
3200952,49
3201576,55
3202204,47
3202824,35
3203452,20
3204076,10
3204696,15
3205328,24
3205944,31
3206572,31
3207200,34
3207816,37
3208448,39
3209068,39
3209700,32
3210328,18
3210944,15
3211576,16
3212200,14
3212824,11
3213452,12
3214072,23
3214700,26
3215328,37
3215952,44
3216580,50
3217200,49
3217828,52
3218460,40
3219080,18
3219708,13
3220332,16
3220964,18
3221592,11
3222212,15
3222840,26
3223464,35
3224088,40
3224716,38
3225336,32
3225968,23
3226588,27
3227212,21
3227840,14
3228464,15
3229092,15
3229724,18
3230344,23
3230976,24
3231600,19
3232228,17
3232860,26
3233480,43
3234108,56
3234732,48
3235356,27
3235988,18
3236608,17
3237236,13
3237860,15
3238484,23
3239112,31
3239736,27
3240364,31
3240996,28
3241616,23
3242244,11
3242868,15
3243496,12
3244128,16
3244744,14
3245376,14
3246000,11
3246624,10
3247252,20
3247872,13
3248504,9
3249076,11
3249704,40
3250332,73
3250952,88
3251584,69
3252208,41
3252832,20
3253460,19
3254084,11
3254716,15
3255344,25
3255968,35
3256600,38
3257224,38
3257852,36
3258484,38
3259104,38
3259736,36
3260360,31
3260984,23
3261612,15
3262232,15
3262864,21
3263492,26
3264112,33
3264740,48
3265364,37
3265996,43
3266624,50
3267248,41
3267876,23
3268500,15
3269128,15
3269756,16
3270376,15
3271008,22
3271632,28
3272256,25
3272884,25
3273504,23
3274136,24
3274768,18
3275384,14
3276016,11
3276640,15
3277272,13
3277900,13
3278520,17
3279148,33
3279768,36
3280392,30
3281020,25
3281636,27
3282264,29
3282888,51
3283508,56
3284136,52
3284760,35
3285388,19
3286008,14
3286632,19
3287260,27
3287884,34
3288512,26
3289140,25
3289760,29
3290388,36
3291008,34
3291636,41
3292268,42
3292884,26
3293512,12
3294136,15
3294760,22
3295388,27
3296008,34
3296636,34
3297256,24
3297880,17
3298508,16
3299128,18
3299756,32
3300384,42
3301000,52
3301632,39
3302256,35
3302884,16
3303512,14
3304132,12
3304760,11
3305384,25
3306004,40
3306636,54
3307256,53
3307884,32
3308508,16
3309132,11
3309760,14
3310376,16
3311008,15
3311636,18
3312256,14
3312884,19
3313508,16
3314136,15
3314768,17
3315384,30
3316012,43
3316636,58
3317260,64
3317888,47
3318512,35
3319140,19
3319764,14
3320388,17
3321016,16
3321636,24
3322264,36
3322892,48
3323512,29
3324140,19
3324764,29
3325396,23
3326024,16
3326644,18
3327272,18
3327896,16
3328520,26
3329148,18
3329768,16
3330396,13
3331016,16
3331640,12
3332268,16
3332888,24
3333516,41
3334140,69
3334764,61
3335392,39
3336016,20
3336644,13
3337272,13
3337888,21
3338516,27
3339140,32
3339772,27
3340400,24
3341016,19
3341644,20
3342268,18
3342892,18
3343520,19
3344136,16
3344764,14
3345388,14
3346012,11
3346640,19
3347256,32
3347884,35
3348516,40
3349136,42
3349764,53
3350388,64
3351020,59
3351648,33
3352268,31
3352896,29
3353520,19
3354144,13
3354772,29
3355392,48
3356020,50
3356644,43
3357268,35
3357900,26
3358520,30
3359148,16
3359780,12
3360400,19
3361028,17
3361648,16
3362276,16
3362908,10
3363528,16
3364156,15
3364780,15
3365400,21
3366032,41
3366648,55
3367276,61
3367900,59
3368524,37
3369152,15
3369768,13
3370396,15
3371028,24
3371648,30
3372276,25
3372900,23
3373528,24
3374160,26
3374776,28
3375404,23
3376028,20
3376652,24
3377280,16
3377900,16
3378528,15
3379152,15
3379776,20
3380404,22
3381024,26
3381652,26
3382280,33
3382900,51
3383528,63
3384152,64
3384780,48
3385408,24
3386032,14
3386660,13
3387284,11
3387908,12
3388540,29
3389160,47
3389788,43
3390412,35
3391036,39
3391668,42
3392288,31
3392916,15
3393544,14
3394164,16
3394792,17
3395416,15
3396044,13
3396672,16
3397296,21
3397924,13
3398548,37
3399172,59
3399804,80
3400424,95
3401052,104
3401732,70
3402352,44
3402980,16
3403604,23
3404232,27
3404860,29
3405476,42
3406108,43
3406732,31
3407360,16
3407988,10
3408608,10
3409236,11
3409860,13
3410484,14
3411112,16
3411736,15
3412364,13
3412988,14
3413616,18
3414244,20
3414868,24
3415500,29
3416128,40
3416752,43
3417380,48
3418008,44
3418628,27
3419260,13
3419880,18
3420508,13
3421132,10
3421756,12
3422388,30
3423008,50
3423636,59
3424268,52
3424888,46
3425516,39
3426140,23
3426772,13
3427400,13
3428024,18
3428652,14
3429276,11
3429904,25
3430532,39
3431152,51
3431780,45
3432404,39
3433028,43
3433656,47
3434280,45
3434908,18
3435540,12
3436160,15
3436788,16
3437416,11
3438044,10
3438676,18
3439296,19
3439928,25
3440552,27
3441176,17
3441804,17
3442424,19
3443052,16
3443676,13
3444300,13
3444928,14
3445548,12
3446176,11
3446804,14
3447424,18
3448052,26
3448676,31
3449304,38
3449936,44
3450552,44
3451184,41
3451808,24
3452432,14
3453060,15
3453680,21
3454308,24
3454936,34
3455560,30
3456192,19
3456808,13
3457436,16
3458064,22
3458680,25
3459312,31
3459936,26
3460564,17
3461192,18
3461816,17
3462444,24
3463068,30
3463692,33
3464320,35
3464936,35
3465568,41
3466192,53
3466816,65
3467444,62
3468064,42
3468692,17
3469324,12
3469944,14
3470572,13
3471196,13
3471828,31
3472460,28
3473080,20
3473708,37
3474332,43
3474956,36
3475588,14
3476208,13
3476836,12
3477460,23
3478084,30
3478716,20
3479336,11
3479968,11
3480596,10
3481216,12
3481848,20
3482468,17
3483096,18
3483728,25
3484344,50
3484972,45
3485596,30
3486220,28
3486848,20
3487472,10
3488100,15
3488724,33
3489348,39
3489976,23
3490592,14
3491224,16
3491852,23
3492472,21
3493100,18
3493724,16
3494356,16
3494988,17
3495608,16
3496236,10
3496860,21
3497484,25
3498116,20
3498736,20
3499364,49
3499988,71
3500616,55
3501244,58
3501864,50
3502496,47
3503124,27
3503744,16
3504376,22
3505000,27
3505628,34
3506260,42
3506880,44
3507508,40
3508136,25
3508756,19
3509388,20
3510008,18
3510636,13
3511264,17
3511888,18
3512520,16
3513136,17
3513768,14
3514396,10
3515016,19
3515648,15
3516272,25
3516900,57
3517532,67
3518152,45
3518784,31
3519408,24
3520032,23
3520660,20
3521280,13
3521908,17
3522532,31
3523156,36
3523788,37
3524408,32
3525036,26
3525668,24
3526288,26
3526916,24
3527540,19
3528172,14
3528800,14
3529416,19
3530048,24
3530672,29
3531296,25
3531924,24
3532544,33
3533176,40
3533796,64
3534420,80
3535052,57
3535672,41
3536300,26
3536932,14
3537552,16
3538180,51
3538808,69
3539436,63
3540068,52
3540688,35
3541316,29
3541940,28
3542568,19
3543196,14
3543816,14
3544444,13
3545068,19
3545692,28
3546324,27
3546948,25
3547576,20
3548204,21
3548824,33
3549452,49
3550076,57
3550708,62
3551340,58
3551960,50
3552592,32
3553216,17
3553840,14
3554468,14
3555088,25
3555720,36
3556344,40
3556968,46
3557596,50
3558224,58
3558856,54
3559484,40
3560104,21
3560732,14
3561356,19
3561988,26
3562620,30
3563240,21
3563872,11
3564496,12
3565120,29
3565748,51
3566368,68
3567000,66
3567628,60
3568248,53
3568876,39
3569500,25
3570132,14
3570764,19
3571384,49
3572012,47
3572636,36
3573264,25
3573892,20
3574512,15
3575144,12
3575768,12
3576392,19
3577024,26
3577640,24
3578272,15
3578904,18
3579520,22
3580152,16
3580776,11
3581408,11
3582040,19
3582660,39
3583292,53
3583916,71
3584544,64
3585172,36
3585792,23
3586420,17
3587044,14
3587668,10
3588296,23
3588920,37
3589548,37
3590180,28
3590800,25
3591428,26
3592052,22
3592684,21
3593312,17
3593936,16
3594564,15
3595188,14
3595816,15
3596444,20
3597064,22
3597692,22
3598316,11
3598944,13
3599572,45
3600200,65
3600828,65
3601456,40
3602076,19
3602704,13
3603328,15
3603956,15
3604588,24
3605208,30
3605836,30
3606460,23
3607080,19
3607708,23
3608328,49
3608956,43
3609580,33
3610204,14
3610832,26
3611456,33
3612084,24
3612716,16
3613336,11
3613964,13
3614588,12
3615220,22
3615848,40
3616468,50
3617096,53
3617720,61
3618340,45
3618972,47
3619592,36
3620220,33
3620844,19
3621468,10
3622096,22
3622724,30
3623352,41
3623980,39
3624600,33
3625228,37
3625852,43
3626484,51
3627112,29
3627728,14
3628360,25
3628984,38
3629608,35
3630236,28
3630856,19
3631484,15
3632108,23
3632732,35
3633364,49
3633988,47
3634620,38
3635248,26
3635872,18
3636500,14
3637124,16
3637752,25
3638384,38
3639004,52
3639632,44
3640260,18
3640880,14
3641512,20
3642132,20
3642760,20
3643384,24
3644008,20
3644636,14
3645264,17
3645892,17
3646524,28
3647144,36
3647776,32
3648400,27
3649028,33
3649656,46
3650280,34
3650908,34
3651532,29
3652156,18
3652788,14
3653408,18
3654036,22
3654668,10
3655288,26
3655916,30
3656544,32
3657172,31
3657804,25
3658424,22
3659052,15
3659676,15
3660304,13
3660932,18
3661552,17
3662180,17
3662804,11
3663428,10
3664060,10
3664680,12
3665308,16
3665940,20
3666560,25
3667188,33
3667812,59
3668444,59
3669076,46
3669696,28
3670328,21
3670952,15
3671576,15
3672208,32
3672824,33
3673456,32
3674080,27
3674704,24
3675336,25
3675952,25
3676584,23
3677216,18
3677836,13
3678468,14
3679092,19
3679724,23
3680352,15
3680976,19
3681604,26
3682228,29
3682852,37
3683484,38
3684104,43
3684732,33
3685360,22
3685984,20
3686616,21
3687236,16
3687868,9
3688436,13
3689064,19
3689692,26
3690312,33
3690944,37
3691572,44
3692192,50
3692820,38
3693444,19
3694072,21
3694700,23
3695320,15
3695948,13
3696576,19
3697200,26
3697828,30
3698448,16
3699076,20
3699700,29
3700324,53
3700956,74
3701580,64
3702212,38
3702840,15
3703464,15
3704092,15
3704716,21
3705348,27
3705980,32
3706600,43
3707228,37
3707852,32
3708476,31
3709108,28
3709728,23
3710356,18
3710988,16
3711608,15
3712240,14
3712860,11
3713492,10
3714120,16
3714740,41
3715368,59
3715992,70
3716616,64
3717244,52
3717864,46
3718492,27
3719116,14
3719740,13
3720372,14
3720992,9
3721568,12
3722200,13
3722824,17
3723452,27
3724072,25
3724704,23
3725332,23
3725952,24
3726584,39
3727208,30
3727836,15
3728468,14
3729088,18
3729716,20
3730340,19
3730968,15
3731596,10
3732216,11
3732844,21
3733468,31
3734092,39
3734724,42
3735344,40
3735976,39
3736608,35
3737224,23
3737856,12
3738476,29
3739108,38
3739740,42
3740360,36
3740988,32
3741612,34
3742236,36
3742868,30
3743488,13
3744120,15
3744740,15
3745364,16
3745996,21
3746616,25
3747244,31
3747876,20
3748496,20
3749124,39
3749748,51
3750380,51
3751012,44
3751632,27
3752264,17
3752888,15
3753512,16
3754144,11
3754760,19
3755392,37
3756016,35
3756640,16
3757272,10
3757896,12
3758528,20
3759156,12
3759776,14
3760408,14
3761032,17
3761664,16
3762292,11
3762912,22
3763544,23
3764168,25
3764792,30
3765420,24
3766040,34
3766672,49
3767300,53
3767920,44
3768552,26
3769176,16
3769804,14
3770436,14
3771056,21
3771684,32
3772312,41
3772936,52
3773568,54
3774184,45
3774816,25
3775440,17
3776064,19
3776692,20
3777312,17
3777940,13
3778572,22
3779192,33
3779824,30
3780448,34
3781076,27
3781708,24
3782328,32
3782960,47
3783584,50
3784208,55
3784836,43
3785456,37
3786088,28
3786712,22
3787336,12
3787968,22
3788588,31
3789216,28
3789848,23
3790464,26
3791096,24
3791720,33
3792352,25
3792980,20
3793600,15
3794228,16
3794852,15
3795480,13
3796108,16
3796728,21
3797356,21
3797984,21
3798608,26
3799240,42
3799856,50
3800488,37
3801116,26
3801736,31
3802364,29
3802992,19
3803620,15
3804252,24
3804872,59
3805500,77
3806128,75
3806752,62
3807384,27
3808000,12
3808632,10
3809256,12
3809880,15
3810508,18
3811128,19
3811760,16
3812388,16
3813008,22
3813640,31
3814264,36
3814896,34
3815524,35
3816144,38
3816776,46
3817400,52
3818024,47
3818656,29
3819272,16
3819904,14
3820528,14
3821152,22
3821784,33
3822408,43
3823036,27
3823668,17
3824288,19
3824920,24
3825544,23
3826176,21
3826808,13
3827424,16
3828056,22
3828680,17
3829304,13
3829936,11
3830552,17
3831184,11
3831816,10
3832440,30
3833072,70
3833696,90
3834328,89
3834960,62
3835580,39
3836208,21
3836836,15
3837460,26
3838092,47
3838712,55
3839348,59
3839972,46
3840600,30
3841228,18
3841848,15
3842476,13
3843104,14
3843728,15
3844356,16
3844980,19
3845612,19
3846240,17
3846860,23
3847488,28
3848112,22
3848736,17
3849364,37
3849984,48
3850612,53
3851236,53
3851860,47
3852488,30
3853112,14
3853740,15
3854372,18
3854992,20
3855620,29
3856244,34
3856876,34
3857504,33
3858124,31
3858752,25
3859376,25
3860000,21
3860628,17
3861248,22
3861876,17
3862500,17
3863124,23
3863756,22
3864376,15
3865004,17
3865636,24
3866256,37
3866884,40
3867508,46
3868140,43
3868768,27
3869392,19
3870024,15
3870648,13
3871272,19
3871904,27
3872520,39
3873152,47
3873776,47
3874400,37
3875028,20
3875656,11
3876284,14
3876916,16
3877536,20
3878168,24
3878792,35
3879420,27
3880052,16
3880672,15
3881304,15
3881928,26
3882552,43
3883180,45
3883800,46
3884432,36
3885060,16
3885680,15
3886312,15
3886936,16
3887564,23
3888196,27
3888816,24
3889444,14
3890072,15
3890696,19
3891328,28
3891944,27
3892572,20
3893196,14
3893820,13
3894452,14
3895072,13
3895700,13
3896332,14
3896952,19
3897580,17
3898208,21
3898836,33
3899468,48
3900088,53
3900720,53
3901344,34
3901968,24
3902600,18
3903216,15
3903848,13
3904472,10
3905096,13
3905724,20
3906344,31
3906976,33
3907604,16
3908224,24
3908852,31
3909480,34
3910108,34
3910740,20
3911360,15
3911992,16
3912616,24
3913240,24
3913872,32
3914488,36
3915116,37
3915744,34
3916368,38
3917000,41
3917616,41
3918244,29
3918876,18
3919496,15
3920128,14
3920752,25
3921380,21
3922012,16
3922632,10
3923260,14
3923888,21
3924512,21
3925140,29
3925760,37
3926392,25
3927016,25
3927640,15
3928272,20
3928892,27
3929520,25
3930152,13
3930776,16
3931408,18
3932032,18
3932664,29
3933292,48
3933912,57
3934544,51
3935168,42
3935792,28
3936420,19
3937040,15
3937668,14
3938292,22
3938916,42
3939548,58
3940172,71
3940800,71
3941428,50
3942048,27
3942680,15
3943300,13
3943932,15
3944560,13
3945184,18
3945812,35
3946436,42
3947060,40
3947692,46
3948312,37
3948944,35
3949564,42
3950192,52
3950824,55
3951448,41
3952076,24
3952708,16
3953328,15
3953956,10
3954580,12
3955208,18
3955836,26
3956456,26
3957084,26
3957712,26
3958336,36
3958968,35
3959584,34
3960216,37
3960844,27
3961464,15
3962096,15
3962720,23
3963348,24
3963980,27
3964600,29
3965232,29
3965856,38
3966480,48
3967108,48
3967728,44
3968360,30
3968984,22
3969608,21
3970236,16
3970856,9
3971436,16
3972064,25
3972688,35
3973320,38
3973936,35
3974564,28
3975196,32
3975816,38
3976444,33
3977068,22
3977700,15
3978328,14
3978952,27
3979580,20
3980208,15
3980832,17
3981460,18
3982080,25
3982708,43
3983336,57
3983960,76
3984592,74
3985208,46
3985840,27
3986468,16
3987088,14
3987720,19
3988344,36
3988976,40
3989604,42
3990224,38
3990856,14
3991480,11
3992104,13
3992736,20
3993356,25
3993988,15
3994608,15
3995232,18
3995864,20
3996488,14
3997116,16
3997748,22
3998368,26
3999000,24
3999624,36
4000256,58
4000884,56
4001504,38
4002132,24
4002756,13
4003380,16
4004008,10
4004632,13
4005260,20
4005884,33
4006512,41
4007140,25
4007764,17
4008392,24
4009024,27
4009640,24
4010268,21
4010892,16
4011524,14
4012152,13
4012772,12
4013400,23
4014028,27
4014652,25
4015280,27
4015896,42
4016528,53
4017156,63
4017776,60
4018404,40
4019028,25
4019660,14
4020288,17
4020904,12
4021536,21
4022160,27
4022788,33
4023420,38
4024040,36
4024668,32
4025292,29
4025916,28
4026548,28
4027168,21
4027796,14
4028428,14
4029048,17
4029676,18
4030300,24
4030932,27
4031564,18
4032184,15
4032812,27
4033436,51
4034060,71
4034692,55
4035312,32
4035940,17
4036564,19
4037188,30
4037820,28
4038440,16
4039068,10
4039700,10
4040320,14
4040948,20
4041572,23
4042204,20
4042836,18
4043456,15
4044088,17
4044712,20
4045336,18
4045964,10
4046584,12
4047212,11
4047836,10
4048460,13
4049092,42
4049712,84
4050340,95
4050972,84
4051592,65
4052224,52
4052848,27
4053476,22
4054108,14
4054728,20
4055356,41
4055984,45
4056608,43
4057236,40
4057856,31
4058484,29
4059108,24
4059732,21
4060364,18
4060984,14
4061612,20
4062244,26
4062864,28
4063496,21
4064120,11
4064748,12
4065380,14
4066000,21
4066628,27
4067252,42
4067880,42
4068508,40
4069128,36
4069760,26
4070384,17
4071008,10
4071640,27
4072264,50
4072892,51
4073524,39
4074144,29
4074776,29
4075400,29
4076032,22
4076660,19
4077280,17
4077908,14
4078536,17
4079160,23
4079792,24
4080412,26
4081040,29
4081672,16
4082288,17
4082920,29
4083544,42
4084172,67
4084804,74
4085424,58
4086056,22
4086680,20
4087304,29
4087936,20
4088552,21
4089184,27
4089808,32
4090432,31
4091064,15
4091680,11
4092312,15
4092944,23
4093564,16
4094192,14
4094820,14
4095452,19
4096084,24
4096700,27
4097328,21
4097948,17
4098572,16
4099200,32
4099812,47
4100444,50
4101064,46
4101688,31
4102316,18
4102936,15
4103564,13
4104188,12
4104808,19
4105436,31
4106060,39
4106688,41
4107316,36
4107936,38
4108564,42
4109188,41
4109816,41
4110444,23
4111064,15
4111692,23
4112316,23
4112940,23
4113568,16
4114184,16
4114816,24
4115440,29
4116060,58
4116692,70
4117312,73
4117944,72
4118572,54
4119192,28
4119820,18
4120444,14
4121072,11
4121704,40
4122320,65
4122948,58
4123572,43
4124192,23
4124824,16
4125440,16
4126068,19
4126692,21
4127316,14
4127944,19
4128564,25
4129192,30
4129820,21
4130440,28
4131068,31
4131692,22
4132320,23
4132952,27
4133568,33
4134196,39
4134820,37
4135444,21
4136076,13
4136696,16
4137324,17
4137948,19
4138572,28
4139200,26
4139816,16
4140448,13
4141076,12
4141696,22
4142324,29
4142948,30
4143580,27
4144208,19
4144824,16
4145456,13
4146080,21
4146700,38
4147332,44
4147952,37
4148580,28
4149204,35
4149824,49
4150456,58
4151072,48
4151700,40
4152332,34
4152952,17
4153580,18
4154204,31
4154836,31
4155464,43
4156088,54
4156716,54
4157344,47
4157968,37
4158596,33
4159216,21
4159844,13
4160472,16
4161092,22
4161720,21
4162344,19
4162972,27
4163600,29
4164216,29
4164844,37
4165468,53
4166096,67
4166724,74
4167344,72
4167972,41
4168596,15
4169220,14
4169852,17
4170472,17
4171100,20
4171724,34
4172348,46
4172980,42
4173600,32
4174228,18
4174856,13
4175472,12
4176104,21
4176728,27
4177356,21
4177984,16
4178608,14
4179236,27
4179856,31
4180484,24
4181112,18
4181736,20
4182364,28
4182988,39
4183612,55
4184244,60
4184864,36
4185492,19
4186124,15
4186744,17
4187372,11
4187996,10
4188628,15
4189256,34
4189872,38
4190504,37
4191128,27
4191752,27
4192384,21
4193000,15
4193628,13
4194252,14
4194876,20
4195504,19
4196128,16
4196756,12
4197388,12
4198008,10
4198636,13
4199260,29
4199888,49
4200520,62
4201136,57
4201764,33
4202388,23
4203012,24
4203644,14
4204264,18
4204892,24
4205516,25
4206136,24
4206768,25
4207384,25
4208012,28
4208636,31
4209264,33
4209892,26
4210516,18
4211148,16
4211776,14
4212400,11
4213028,10
4213652,13
4214280,33
4214908,42
4215528,42
4216156,53
4216784,61
4217408,63
4218036,52
4218656,37
4219284,24
4219916,18
4220536,12
4221164,15
4221788,29
4222420,35
4223048,36
4223672,44
4224304,48
4224924,35
4225548,26
4226176,21
4226800,14
4227428,15
4228052,18
4228676,26
4229304,30
4229920,22
4230552,23
4231180,21
4231800,21
4232428,25
4233052,35
4233684,47
4234312,46
4234928,25
4235560,16
4236184,21
4236808,40
4237436,33
4238056,26
4238688,24
4239312,22
4239936,14
4240568,11
4241184,10
4241812,14
4242444,26
4243064,34
4243692,29
4244316,24
4244948,16
4245576,23
4246200,41
4246828,47
4247452,45
4248076,35
4248708,36
4249328,53
4249960,65
4250580,68
4251204,47
4251832,26
4252452,14
4253080,14
4253712,14
4254328,10
4254960,15
4255584,25
4256212,32
4256844,27
4257464,39
4258092,53
4258716,51
4259340,38
4259972,30
4260592,17
4261220,16
4261844,23
4262468,35
4263096,34
4263712,32
4264340,23
4264968,20
4265588,28
4266220,35
4266844,34
4267476,37
4268104,35
4268724,20
4269352,14
4269976,17
4270600,23
4271228,33
4271848,39
4272476,29
4273104,13
4273724,12
4274356,28
4274976,14
4275604,29
4276236,46
4276856,37
4277484,27
4278108,19
4278740,14
4279368,26
4279988,46
4280616,41
4281240,24
4281864,24
4282492,34
4283112,40
4283740,50
4284364,45
4284988,40
4285620,37
4286240,32
4286868,29
4287500,11
4288120,19
4288748,34
4289372,43
4290000,40
4290632,30
4291248,28
4291876,42
4292500,60
4293128,53
4293756,28
4294376,16
4295008,16
4295632,28
4296256,21
4296884,10
4297504,11
4298136,17
4298764,26
4299384,49
4300016,60
4300640,64
4301272,47
4301900,34
4302520,33
4303148,20
4303772,14
4304396,10
4305028,26
4305648,33
4306276,31
4306900,17
4307524,10
4308152,15
4308772,16
4309400,17
4310032,18
4310648,14
4311280,15
4311904,14
4312532,20
4313164,22
4313784,25
4314412,19
4315036,21
4315660,27
4316292,44
4316912,55
4317540,53
4318168,37
4318792,29
4319420,18
4320040,14
4320668,13
4321296,31
4321920,37
4322548,38
4323172,40
4323800,38
4324432,39
4325048,47
4325680,41
4326304,21
4326928,14
4327556,16
4328176,14
4328804,12
4329428,31
4330052,31
4330684,30
4331304,34
4331936,30
4332564,39
4333184,53
4333812,59
4334436,56
4335068,38
4335700,23
4336320,15
4336948,19
4337572,26
4338200,33
4338828,39
4339448,40
4340076,35
4340700,36
4341328,55
4341956,64
4342576,66
4343204,53
4343836,17
4344456,23
4345084,49
4345708,58
4346340,59
4346968,61
4347592,60
4348224,49
4348848,40
4349472,41
4350100,50
4350720,51
4351352,39
4351976,26
4352600,17
4353232,13
4353848,17
4354476,29
4355108,36
4355728,39
4356356,33
4356980,21
4357612,15
4358240,25
4358860,33
4359488,35
4360112,23
4360736,16
4361364,14
4361984,15
4362612,11
4363236,12
4363860,15
4364492,12
4365112,12
4365740,21
4366372,43
4366992,51
4367620,53
4368244,51
4368876,34
4369504,20
4370124,21
4370752,26
4371376,21
4372000,11
4372628,18
4373248,20
4373876,19
4374504,19
4375128,23
4375756,19
4376376,22
4377004,18
4377636,15
4378256,13
4378884,15
4379508,22
4380140,15
4380772,10
4381392,11
4382024,15
4382648,25
4383272,38
4383904,45
4384520,42
4385152,33
4385776,28
4386400,19
4387028,15
4387652,17
4388284,23
4388912,30
4389536,29
4390168,27
4390792,24
4391424,24
4392052,32
4392672,35
4393304,25
4393928,16
4394552,15
4395184,19
4395800,19
4396432,16
4397064,11
4397680,21
4398312,29
4398936,50
4399568,68
4400196,66
4400816,67
4401444,59
4402068,44
4402696,33
4403328,25
4403944,11
4404572,17
4405196,22
4405820,26
4406448,32
4407072,38
4407700,28
4408332,16
4408952,14
4409580,19
4410208,19
4410836,22
4411468,16
4412088,15
4412716,28
4413344,27
4413968,26
4414596,27
4415216,39
4415848,47
4416472,49
4417096,49
4417724,36
4418344,19
4418972,14
4419604,14
4420224,15
4420852,17
4421476,30
4422108,33
4422740,32
4423360,40
4423992,33
4424616,27
4425240,21
4425868,19
4426488,19
4427116,15
4427740,14
4428364,14
4428996,12
4429616,33
4430244,42
4430872,30
4431496,25
4432124,29
4432748,50
4433380,53
4434012,46
4434632,33
4435260,22
4435884,16
4436508,14
4437136,12
4437760,25
4438388,47
4439016,67
4439640,65
4440272,37
4440888,19
4441520,14
4442148,10
4442768,14
4443396,12
4444024,21
4444652,21
4445284,17
4445904,21
4446536,26
4447160,20
4447784,16
4448416,16
4449032,27
4449660,46
4450284,52
4450912,44
4451540,36
4452164,31
4452796,35
4453428,18
4454048,13
4454680,31
4455304,35
4455932,31
4456564,20
4457184,18
4457812,27
4458440,24
4459064,21
4459692,22
4460312,23
4460944,29
4461572,23
4462192,12
4462824,13
4463448,13
4464076,10
4464708,10
4465328,12
4465956,35
4466584,45
4467208,55
4467836,68
4468456,47
4469088,38
4469712,42
4470336,24
4470968,11
4471584,23
4472216,35
4472848,45
4473464,36
4474096,40
4474724,64
4475352,50
4475984,34
4476604,16
4477236,24
4477860,34
4478484,36
4479116,35
4479740,27
4480372,35
4480992,36
4481616,26
4482248,31
4482864,43
4483492,51
4484124,44
4484744,26
4485372,24
4485996,17
4486628,14
4487256,11
4487880,13
4488508,24
4489132,29
4489756,25
4490388,24
4491008,30
4491640,33
4492264,31
4492888,29
4493516,27
4494136,24
4494764,17
4495396,12
4496016,18
4496644,27
4497268,31
4497900,26
4498528,26
4499152,32
4499784,40
4500408,45
4501032,55
4501664,41
4502280,27
4502912,14
4503536,15
4504160,15
4504792,15
4505416,21
4506048,25
4506676,32
4507296,29
4507924,26
4508548,24
4509176,19
4509804,19
4510424,26
4511052,19
4511676,17
4512300,13
4512932,20
4513552,23
4514180,32
4514804,47
4515428,59
4516060,70
4516684,56
4517312,37
4517940,31
4518560,35
4519188,27
4519812,18
4520444,15
4521072,29
4521696,36
4522324,41
4522948,33
4523572,27
4524204,32
4524824,34
4525452,20
4526076,16
4526704,15
4527332,14
4527960,13
4528588,13
4529220,10
4529840,13
4530468,17
4531096,25
4531720,28
4532348,28
4532968,37
4533596,50
4534224,49
4534848,24
4535476,16
4536096,19
4536724,17
4537356,10
4537976,10
4538604,13
4539232,18
4539860,27
4540492,12
4541112,10
4541744,13
4542368,22
4542992,23
4543624,13
4544240,15
4544872,15
4545496,13
4546120,23
4546752,30
4547368,25
4547996,17
4548628,14
4549248,33
4549876,54
4550504,58
4551132,45
4551764,34
4552384,26
4553012,14
4553640,21
4554264,31
4554892,21
4555512,15
4556144,12
4556768,15
4557392,22
4558024,36
4558644,40
4559272,40
4559904,32
4560520,27
4561152,16
4561776,17
4562404,29
4563036,38
4563656,47
4564284,37
4564912,27
4565536,21
4566164,41
4566784,64
4567416,65
4568040,45
4568664,28
4569292,21
4569912,21
4570544,11
4571172,20
4571792,49
4572424,62
4573048,61
4573676,43
4574308,28
4574928,38
4575560,29
4576184,18
4576808,14
4577436,14
4578056,17
4578688,25
4579312,15
4579936,15
4580568,35
4581192,54
4581824,49
4582452,51
4583072,48
4583704,55
4584328,67
4584956,58
4585588,46
4586208,20
4586840,14
4587464,20
4588088,39
4588720,50
4589336,50
4589968,42
4590596,29
4591216,30
4591848,28
4592472,29
4593100,29
4593732,20
4594352,16
4594984,13
4595608,32
4596232,43
4596860,38
4597480,39
4598112,40
4598736,40
4599360,55
4599988,56
4600608,50
4601240,43
4601872,31
4602488,19
4603116,13
4603744,17
4604372,28
4605004,31
4605624,34
4606256,38
4606880,37
4607504,31
4608136,26
4608752,22
4609380,21
4610004,16
4610624,16
4611256,14
4611872,13
4612500,16
4613128,21
4613752,19
4614380,13
4615004,18
4615636,29
4616264,42
4616888,55
4617516,56
4618144,47
4618768,36
4619396,14
4620016,16
4620644,32
4621268,41
4621892,31
4622524,30
4623144,41
4623776,31
4624404,15
4625024,11
4625652,11
4626276,13
4626908,25
4627536,26
4628160,24
4628788,12
4629412,10
4630036,12
4630668,23
4631288,32
4631916,29
4632544,33
4633168,38
4633796,49
4634416,55
4635044,35
4635676,14
4636296,21
4636924,21
4637548,16
4638180,20
4638812,34
4639432,27
4640064,14
4640684,10
4641308,15
4641936,24
4642560,37
4643188,29
4643812,17
4644436,14
4645068,16
4645688,20
4646316,22
4646948,19
4647568,19
4648196,21
4648820,18
4649452,26
4650080,36
4650704,38
4651332,33
4651960,32
4652584,23
4653212,16
4653832,12
4654464,16
4655088,29
4655712,37
4656340,21
4656964,12
4657596,10
4658228,10
4658848,26
4659480,20
4660104,15
4660732,14
4661364,14
4661984,14
4662612,11
4663236,13
4663860,14
4664492,11
4665112,10
4665744,15
4666372,30
4666992,38
4667624,33
4668248,16
4668876,24
4669508,34
4670128,25
4670756,11
4671380,10
4672008,15
4672636,14
4673256,18
4673884,19
4674508,21
4675132,27
4675764,26
4676384,26
4677012,15
4677644,19
4678264,24
4678896,26
4679520,24
4680148,19
4680780,18
4681400,11
4682028,14
4682652,13
4683280,29
4683908,42
4684528,39
4685160,37
4685784,27
4686408,19
4687036,22
4687656,13
4688288,14
4688916,28
4689536,35
4690168,43
4690792,47
4691420,57
4692052,42
4692672,32
4693300,19
4693928,13
4694552,25
4695180,43
4695800,52
4696432,39
4697056,23
4697680,13
4698308,11
4698928,11
4699560,10
4700188,29
4700808,51
4701436,44
4702064,37
4702696,24
4703324,14
4703944,11
4704576,10
4705204,14
4705828,25
4706460,30
4707080,35
4707712,36
4708336,27
4708960,14
4709592,15
4710216,18
4710848,15
4711476,14
4712096,20
4712724,26
4713348,32
4713980,29
4714612,17
4715232,20
4715864,34
4716488,44
4717112,55
4717744,54
4718360,36
4718992,27
4719624,16
4720240,16
4720872,26
4721496,35
4722128,41
4722756,40
4723376,31
4724004,26
4724628,33
4725256,45
4725884,47
4726504,36
4727136,17
4727760,17
4728384,22
4729016,29
4729632,29
4730260,33
4730892,26
4731512,28
4732144,36
4732768,51
4733400,62
4734032,60
4734652,40
4735280,25
4735908,14
4736532,17
4737164,12
4737784,16
4738412,20
4739036,27
4739664,27
4740292,28
4740912,23
4741544,30
4742172,31
4742792,28
4743424,17
4744048,15
4744676,21
4745308,23
4745928,25
4746560,20
4747184,25
4747808,22
4748440,23
4749056,35
4749688,42
4750312,43
4750936,39
4751568,23
4752188,16
4752816,14
4753444,16
4754064,13
4754692,16
4755320,19
4755948,18
4756580,20
4757200,24
4757828,29
4758456,30
4759080,32
4759712,30
4760328,18
4760960,14
4761584,17
4762208,21
4762840,27
4763464,26
4764096,25
4764724,26
4765344,33
4765976,40
4766600,33
4767232,32
4767860,35
4768480,30
4769112,24
4769736,17
4770360,14
4770992,23
4771608,40
4772240,57
4772872,59
4773492,39
4774120,30
4774748,26
4775376,19
4776008,15
4776624,14
4777256,19
4777880,27
4778504,31
4779136,29
4779756,21
4780384,20
4781012,28
4781636,29
4782268,35
4782888,44
4783520,51
4784148,54
4784768,37
4785400,22
4786024,16
4786656,14
4787284,15
4787904,16
4788536,15
4789160,21
4789784,31
4790416,32
4791032,27
4791664,25
4792292,23
4792916,31
4793548,39
4794168,21
4794800,14
4795432,16
4796052,13
4796680,14
4797308,12
4797940,16
4798572,32
4799192,54
4799828,71
4800452,76
4801076,64
4801708,40
4802328,22
4802956,13
4803580,16
4804208,18
4804836,26
4805460,36
4806092,39
4806720,27
4807344,15
4807976,14
4808600,21
4809224,17
4809852,14
4810472,13
4811100,13
4811728,15
4812352,12
4812984,11
4813600,11
4814228,10
4814860,15
4815480,21
4816108,48
4816732,60
4817364,62
4817992,41
4818612,24
4819240,15
4819864,15
4820488,10
4821116,14
4821736,22
4822368,42
4822992,43
4823616,32
4824248,19
4824864,12
4825492,10
4826124,13
4826744,13
4827372,14
4828000,17
4828628,15
4829260,10
4829880,16
4830512,21
4831136,17
4831760,19
4832392,28
4833008,25
4833640,35
4834264,41
4834888,46
4835516,40
4836136,22
4836764,13
4837396,19
4838016,25
4838648,22
4839268,18
4839900,23
4840532,20
4841152,12
4841780,13
4842404,13
4843028,13
4843660,14
4844280,21
4844908,27
4845532,27
4846156,24
4846788,16
4847408,11
4848036,11
4848668,9
4849236,10
4849872,20
4850488,36
4851120,37
4851752,25
4852368,16
4853000,16
4853624,26
4854256,33
4854884,30
4855504,38
4856136,45
4856760,28
4857384,11
4858016,10
4858632,11
4859264,14
4859888,16
4860512,14
4861144,15
4861768,19
4862400,20
4863028,16
4863648,27
4864284,31
4864904,30
4865536,31
4866164,50
4866784,62
4867412,58
4868036,44
4868660,28
4869292,17
4869912,13
4870544,13
4871172,21
4871792,31
4872424,35
4873048,35
4873676,31
4874308,40
4874928,53
4875556,48
4876184,42
4876808,38
4877436,26
4878056,15
4878688,18
4879312,34
4879936,34
4880568,44
4881188,41
4881816,37
4882448,38
4883064,48
4883696,61
4884320,58
4884948,42
4885580,28
4886200,21
4886832,14
4887456,13
4888080,29
4888708,39
4889328,31
4889960,27
4890584,26
4891208,36
4891836,32
4892456,28
4893088,18
4893720,14
4894336,14
4894968,17
4895592,22
4896224,25
4896852,28
4897472,26
4898100,25
4898728,25
4899352,40
4899980,46
4900600,53
4901232,32
4901856,18
4902480,16
4903108,13
4903728,21
4904360,34
4904988,45
4905608,39
4906236,23
4906864,24
4907496,25
4908128,24
4908744,19
4909376,19
4910004,17
4910628,14
4911260,18
4911880,16
4912516,18
4913140,23
4913764,26
4914396,29
4915024,28
4915656,38
4916284,50
4916904,54
4917532,58
4918156,45
4918784,16
4919416,14
4920032,13
4920664,12
4921288,18
4921908,27
4922540,30
4923160,40
4923788,43
4924412,37
4925040,31
4925668,21
4926292,19
4926924,18
4927552,22
4928176,18
4928804,13
4929428,27
4930052,37
4930684,30
4931304,13
4931932,19
4932556,19
4933180,53
4933812,92
4934432,90
4935060,52
4935692,30
4936312,14
4936940,25
4937564,45
4938196,32
4938828,11
4939448,11
4940076,11
4940704,10
4941328,21
4941956,30
4942576,49
4943204,40
4943828,22
4944456,15
4945084,12
4945704,21
4946332,22
4946964,20
4947584,35
4948212,53
4948836,50
4949468,50
4950100,52
4950720,58
4951352,41
4951976,21
4952600,14
4953232,13
4953848,13
4954480,16
4955104,34
4955728,43
4956360,34
4956976,26
4957604,26
4958236,24
4958856,17
4959488,13
4960112,14
4960740,13
4961372,15
4961992,21
4962620,14
4963244,11
4963868,10
4964500,14
4965120,26
4965748,30
4966376,28
4967000,35
4967628,43
4968248,36
4968876,33
4969508,32
4970128,25
4970756,14
4971384,10
4972012,10
4972644,12
4973264,19
4973892,22
4974520,22
4975144,25
4975772,26
4976392,29
4977024,23
4977648,18
4978268,19
4978900,12
4979524,15
4980152,18
4980784,20
4981404,30
4982036,33
4982660,45
4983288,54
4983920,62
4984536,59
4985168,37
4985792,21
4986416,13
4987044,22
4987664,36
4988296,36
4988920,29
4989544,21
4990176,19
4990800,15
4991432,15
4992064,14
4992680,20
4993308,25
4993932,34
4994564,24
4995192,13
4995816,21
4996448,25
4997072,20
4997696,39
4998324,42
4998944,31
4999572,41
5000204,61
5000824,66
5001452,38
5002076,21
5002708,20
5003340,25
5003960,18
5004592,22
5005216,31
5005840,33
5006472,30
5007088,31
5007720,23
5008344,19
5008968,17
5009596,16
5010216,15
5010848,20
5011476,16
5012096,15
5012728,18
5013352,24
5013984,25
5014612,25
5015232,24
5015864,36
5016488,44
5017112,45
5017744,45
5018360,35
5018992,25
5019616,21
5020240,14
5020868,15
5021488,30
5022116,37
5022748,30
5023368,27
5024000,27
5024620,30
5025252,32
5025884,32
5026504,32
5027136,23
5027760,19
5028384,15
5029016,12
5029632,26
5030264,34
5030888,33
5031512,40
5032144,51
5032764,55
5033396,52
5034028,42
5034648,17
5035280,13
5035904,16
5036536,15
5037168,10
5037784,15
5038416,28
5039044,35
5039668,29
5040300,24
5040920,25
5041548,26
5042180,28
5042800,24
5043432,13
5044056,18
5044684,22
5045316,24
5045936,26
5046568,32
5047192,38
5047816,32
5048448,28
5049064,31
5049696,42
5050320,54
5050944,53
5051576,29
5052192,14
5052824,17
5053456,18
5054072,17
5054704,29
5055332,39
5055964,36
5056596,26
5057216,21
5057848,21
5058472,22
5059096,24
5059728,18
5060344,17
5060976,19
5061600,16
5062224,12
5062856,21
5063476,25
5064104,29
5064736,35
5065356,42
5065988,56
5066612,68
5067244,65
5067876,36
5068496,24
5069128,16
5069752,15
5070380,15
5071012,26
5071632,49
5072264,55
5072892,44
5073516,31
5074148,21
5074772,20
5075404,17
5076036,22
5076656,31
5077288,26
5077912,19
5078536,15
5079168,27
5079792,27
5080424,36
5081048,29
5081672,35
5082300,63
5082920,68
5083552,61
5084180,62
5084800,35
5085428,24
5086056,25
5086688,24
5087320,10
5087936,21
5088568,30
5089196,31
5089820,29
5090452,26
5091072,19
5091704,21
5092328,37
5092952,43
5093584,27
5094204,15
5094836,14
5095468,20
5096088,22
5096716,19
5097344,23
5097976,30
5098608,35
5099224,41
5099856,42
5100480,42
5101104,34
5101736,23
5102356,15
5102988,13
5103612,20
5104240,39
5104872,40
5105500,37
5106132,34
5106764,28
5107384,17
5108016,10
5108640,12
5109264,13
5109896,23
5110516,20
5111148,18
5111772,14
5112400,22
5113032,33
5113652,45
5114284,42
5114916,38
5115536,36
5116172,43
5116796,47
5117428,42
5118064,28
5118684,26
5119316,21
5119944,15
5120572,11
5121200,18
5121816,24
5122444,31
5123068,31
5123692,31
5124320,37
5124940,49
5125572,37
5126200,20
5126816,14
5127448,14
5128068,15
5128700,15
5129328,22
5129944,44
5130576,48
5131196,41
5131824,27
5132452,33
5133072,48
5133700,49
5134324,48
5134948,34
5135580,23
5136204,14
5136832,16
5137460,18
5138080,25
5138708,31
5139332,31
5139964,35
5140592,38
5141216,36
5141844,36
5142468,38
5143092,31
5143720,23
5144340,17
5144968,13
5145592,15
5146216,21
5146844,35
5147468,41
5148100,35
5148728,29
5149352,42
5149984,56
5150608,67
5151236,60
5151868,48
5152488,38
5153116,26
5153740,13
5154364,16
5154996,34
5155616,44
5156244,40
5156876,38
5157496,35
5158128,29
5158752,30
5159380,28
5160012,26
5160632,23
5161264,19
5161884,14
5162508,15
5163140,18
5163760,22
5164388,41
5165012,41
5165636,48
5166268,56
5166888,59
5167516,61
5168148,47
5168768,35
5169396,27
5170020,18
5170652,14
5171284,36
5171904,53
5172532,49
5173156,41
5173780,33
5174408,24
5175032,19
5175660,17
5176288,19
5176912,16
5177540,15
5178160,18
5178788,16
5179420,10
5180040,12
5180668,23
5181296,26
5181924,13
5182556,32
5183176,54
5183808,63
5184432,58
5185056,45
5185684,31
5186304,20
5186932,14
5187556,20
5188180,28
5188812,34
5189432,33
5190060,27
5190692,27
5191312,31
5191944,40
5192568,54
5193196,51
5193828,36
5194448,15
5195076,17
5195704,25
5196328,49
5196960,54
5197576,46
5198208,41
5198832,43
5199456,55
5200088,60
5200708,54
5201340,44
5201968,30
5202592,28
5203220,20
5203844,11
5204472,32
5205100,51
5205720,45
5206352,33
5206976,25
5207600,32
5208228,43
5208848,39
5209476,31
5210104,21
5210728,14
5211356,13
5211980,14
5212612,17
5213244,28
5213864,29
5214492,27
5215120,28
5215748,41
5216380,52
5217000,56
5217628,49
5218252,30
5218880,19
5219508,14
5220128,14
5220756,16
5221388,24
5222008,32
5222640,34
5223260,33
5223892,27
5224520,28
5225144,24
5225772,21
5226396,20
5227020,15
5227652,14
5228272,18
5228900,27
5229524,21
5230152,18
5230780,18
5231400,25
5232032,26
5232660,34
5233280,47
5233908,50
5234536,37
5235164,23
5235796,16
5236416,15
5237048,12
5237672,21
5238296,44
5238928,41
5239544,38
5240176,45
5240800,43
5241424,33
5242056,31
5242676,30
5243304,14
5243936,30
5244552,49
5245180,44
5245804,47
5246432,42
5247064,27
5247680,19
5248308,17
5248932,26
5249552,41
5250184,52
5250800,56
5251428,40
5252052,31
5252676,23
5253304,14
5253920,25
5254548,37
5255176,51
5255800,53
5256428,47
5257052,40
5257680,29
5258308,22
5258928,13
5259556,15
5260180,24
5260804,22
5261432,18
5262056,23
5262684,22
5263308,16
5263932,11
5264564,18
5265184,20
5265812,32
5266444,41
5267064,42
5267692,37
5268316,31
5268948,26
5269576,16
5270196,15
5270824,15
5271448,28
5272072,43
5272700,42
5273320,41
5273948,45
5274572,33
5275196,16
5275828,16
5276448,18
5277076,21
5277708,16
5278328,17
5278956,22
5279580,33
5280212,32
5280840,27
5281464,38
5282092,47
5282716,50
5283340,46
5283968,45
5284584,49
5285212,51
5285836,42
5286460,28
5287088,11
5287704,24
5288332,40
5288956,40
5289584,35
5290212,35
5290836,38
5291468,43
5292096,40
5292716,33
5293344,25
5293968,20
5294600,15
5295228,14
5295848,11
5296476,19
5297100,37
5297724,48
5298356,55
5298976,68
5299604,74
5300236,65
5300856,61
5301484,43
5302108,27
5302740,17
5303368,13
5303988,13
5304616,17
5305240,28
5305864,37
5306496,38
5307112,43
5307740,48
5308368,47
5308992,40
5309620,30
5310240,21
5310868,15
5311500,14
5312120,27
5312748,39
5313372,41
5314004,38
5314632,27
5315248,20
5315880,31
5316504,42
5317128,49
5317756,29
5318376,14
5319008,17
5319632,14
5320256,17
5320884,13
5321504,18
5322136,31
5322764,28
5323384,24
5324016,18
5324640,15
5325268,10
5325900,15
5326520,17
5327148,17
5327772,21
5328392,25
5329024,11
5329640,11
5330268,12
5330892,19
5331516,23
5332144,38
5332760,50
5333392,57
5334020,66
5334640,55
5335268,29
5335892,18
5336524,14
5337152,16
5337772,27
5338400,21
5339024,19
5339652,19
5340284,22
5340904,31
5341532,36
5342156,25
5342780,20
5343412,19
5344032,19
5344660,17
5345288,16
5345912,32
5346540,46
5347164,32
5347796,15
5348424,14
5349044,35
5349672,39
5350296,42
5350920,37
5351552,21
5352172,17
5352800,16
5353424,15
5354048,16
5354676,11
5355296,11
5355924,20
5356556,18
5357176,18
5357804,24
5358428,34
5359060,37
5359692,32
5360312,19
5360940,13
5361564,13
5362192,10
5362820,16
5363440,25
5364068,28
5364692,23
5365316,25
5365948,46
5366568,58
5367196,59
5367828,48
5368448,34
5369076,17
5369700,14
5370332,14
5370960,25
5371580,37
5372208,42
5372832,42
5373456,41
5374088,29
5374704,18
5375336,16
5375964,14
5376588,15
5377216,16
5377840,15
5378468,14
5379096,24
5379720,41
5380348,42
5380972,38
5381604,31
5382232,35
5382848,47
5383480,52
5384104,49
5384728,34
5385356,26
5385976,17
5386604,13
5387228,11
5387852,13
5388480,22
5389104,33
5389732,42
5390364,42
5390984,46
5391612,48
5392240,47
5392868,50
5393496,34
5394120,13
5394748,21
5395372,48
5395996,60
5396628,50
5397248,37
5397876,27
5398500,27
5399124,43
5399756,50
5400376,55
5401004,42
5401636,22
5402256,15
5402884,13
5403508,15
5404140,21
5404768,32
5405392,46
5406024,48
5406648,39
5407272,26
5407900,21
5408520,15
5409148,13
5409772,14
5410396,18
5411024,18
5411648,18
5412276,10
5412908,26
5413528,47
5414156,59
5414784,60
5415412,43
5416040,45
5416664,41
5417292,41
5417916,28
5418540,13
5419172,13
5419792,15
5420420,11
5421048,24
5421672,33
5422300,40
5422924,34
5423556,30
5424188,15
5424808,11
5425436,11
5426060,13
5426692,13
5427324,14
5427944,18
5428572,18
5429196,18
5429820,14
5430448,12
5431064,13
5431696,27
5432324,44
5432944,51
5433572,48
5434200,40
5434828,19
5435460,14
5436080,15
5436708,13
5437336,11
5437960,14
5438588,41
5439208,54
5439840,52
5440464,32
5441088,23
5441716,16
5442336,18
5442964,23
5443596,15
5444216,15
5444844,13
5445468,13
5446096,12
5446728,17
5447344,25
5447972,35
5448600,44
5449220,61
5449852,70
5450472,65
5451100,32
5451724,23
5452348,26
5452980,25
5453600,23
5454228,11
5454856,25
5455480,38
5456108,57
5456732,57
5457364,39
5457992,33
5458608,27
5459240,23
5459860,16
5460484,14
5461116,14
5461736,17
5462368,21
5462992,20
5463616,23
5464244,27
5464864,35
5465492,40
5466124,48
5466744,54
5467372,51
5468000,33
5468628,19
5469260,14
5469880,20
5470508,27
5471132,27
5471760,32
5472392,34
5473008,34
5473636,32
5474260,25
5474884,25
5475516,23
5476136,18
5476764,13
5477396,18
5478016,25
5478648,24
5479268,21
5479900,16
5480528,14
5481152,19
5481780,32
5482404,53
5483028,66
5483660,62
5484280,49
5484908,33
5485532,15
5486160,15
5486788,19
5487408,25
5488036,25
5488668,18
5489288,13
5489916,11
5490540,13
5491172,16
5491804,24
5492424,27
5493052,21
5493676,15
5494304,14
5494932,14
5495552,12
5496184,17
5496808,18
5497432,11
5498060,11
5498680,22
5499312,34
5499940,39
5500560,49
5501192,53
5501816,44
5502444,31
5503076,20
5503696,11
5504328,21
5504952,30
5505576,36
5506204,34
5506824,27
5507452,19
5508076,26
5508704,39
5509332,42
5509956,28
5510588,16
5511216,14
5511840,14
5512468,11
5513096,10
5513724,21
5514356,29
5514976,33
5515608,55
5516232,72
5516856,63
5517484,42
5518104,24
5518736,17
5519364,15
5519984,18
5520616,14
5521240,12
5521868,29
5522500,34
5523120,33
5523752,33
5524376,37
5525000,40
5525628,33
5526248,21
5526880,14
5527504,19
5528128,23
5528760,22
5529376,26
5530008,28
5530640,28
5531256,31
5531884,37
5532508,46
5533140,47
5533768,43
5534392,37
5535024,24
5535648,14
5536272,14
5536900,11
5537520,20
5538148,34
5538776,49
5539400,47
5540028,38
5540648,29
5541276,27
5541908,24
5542528,25
5543156,23
5543780,16
5544412,16
5545044,28
5545664,34
5546292,29
5546916,23
5547544,21
5548172,19
5548792,29
5549424,40
5550048,48
5550672,49
5551304,42
5551920,35
5552552,35
5553184,30
5553804,14
5554432,16
5555060,40
5555692,62
5556320,60
5556944,47
5557576,21
5558200,15
5558824,13
5559456,15
5560072,13
5560704,15
5561328,16
5561952,21
5562584,28
5563208,35
5563836,30
5564468,24
5565088,25
5565720,40
5566344,44
5566976,38
5567608,25
5568228,14
5568856,21
5569480,16
5570104,13
5570736,15
5571352,25
5571980,37
5572608,35
5573232,35
5573860,33
5574488,30
5575116,23
5575748,22
5576368,26
5576996,28
5577620,43
5578248,39
5578876,20
5579496,12
5580128,45
5580752,59
5581376,61
5582008,55
5582624,59
5583256,75
5583888,70
5584504,45
5585132,37
5585760,32
5586388,22
5587020,20
5587640,13
5588268,13
5588896,34
5589520,34
5590148,35
5590768,25
5591400,24
5592024,29
5592648,37
5593280,44
5593896,35
5594528,25
5595156,14
5595776,18
5596408,25
5597032,27
5597664,31
5598292,34
5598912,47
5599544,51
5600168,54
5600792,54
5601424,31
5602040,15
5602668,13
5603292,13
5603916,11
5604548,18
5605168,28
5605796,27
5606428,28
5607048,23
5607676,19
5608300,20
5608932,23
5609560,28
5610184,31
5610816,23
5611440,15
5612064,19
5612692,33
5613312,25
5613940,15
5614568,13
5615192,19
5615820,31
5616440,31
5617072,41
5617700,54
5618320,57
5618952,48
5619576,40
5620204,25
5620836,11
5621456,33
5622088,48
5622708,48
5623336,32
5623964,27
5624584,18
5625212,13
5625840,19
5626464,23
5627092,24
5627720,16
5628348,13
5628980,14
5629600,24
5630228,29
5630856,24
5631488,25
5632120,31
5632736,41
5633364,50
5633988,45
5634612,27
5635240,22
5635856,22
5636488,20
5637108,12
5637736,15
5638364,20
5638988,28
5639620,32
5640248,32
5640872,30
5641500,27
5642124,21
5642756,21
5643384,15
5644008,13
5644636,14
5645260,15
5645884,21
5646516,20
5647136,15
5647768,11
5648396,10
5649016,15
5649644,25
5650268,52
5650900,51
5651528,27
5652152,22
5652784,25
5653408,24
5654032,11
5654660,24
5655280,32
5655908,36
5656536,26
5657160,14
5657788,10
5658408,11
5659036,11
5659668,12
5660288,17
5660916,14
5661540,14
5662172,19
5662800,20
5663424,19
5664052,23
5664676,25
5665300,34
5665928,38
5666552,36
5667180,34
5667808,27
5668432,20
5669060,13
5669680,15
5670308,15
5670940,14
5671560,18
5672192,19
5672816,24
5673444,23
5674076,14
5674696,22
5675328,20
5675952,15
5676576,12
5677208,14
5677824,15
5678456,14
5679080,15
5679704,19
5680336,15
5680952,10
5681584,11
5682212,28
5682832,53
5683464,64
5684088,61
5684716,47
5685348,31
5685968,16
5686596,14
5687220,19
5687844,33
5688476,48
5689096,58
5689728,61
5690352,59
5690976,43
5691604,35
5692228,15
5692860,19
5693492,34
5694112,41
5694740,39
5695368,20
5695996,10
5696628,13
5697248,29
5697876,46
5698500,45
5699128,49
5699756,52
5700376,55
5701008,46
5701632,24
5702256,15
5702888,13
5703512,16
5704144,21
5704772,22
5705392,22
5706024,21
5706648,24
5707272,21
5707904,24
5708520,25
5709152,27
5709776,29
5710400,20
5711032,15
5711652,15
5712284,13
5712916,18
5713536,18
5714168,27
5714792,27
5715424,29
5716052,39
5716672,47
5717304,47
5717928,23
5718552,16
5719184,18
5719804,18
5720432,13
5721060,10
5721684,13
5722316,13
5722936,14
5723568,17
5724196,21
5724816,31
5725444,33
5726072,36
5726704,30
5727336,22
5727956,20
5728588,12
5729212,21
5729836,30
5730468,32
5731088,32
5731720,43
5732348,54
5732976,58
5733608,55
5734232,44
5734864,20
5735496,13
5736112,15
5736740,18
5737364,25
5737992,28
5738620,24
5739240,21
5739868,21
5740492,22
5741116,24
5741748,18
5742368,21
5743000,17
5743628,17
5744248,14
5744876,14
5745500,13
5746132,23
5746764,24
5747384,25
5748012,23
5748636,24
5749260,37
5749892,41
5750512,37
5751144,24
5751768,18
5752392,14
5753024,13
5753640,15
5754268,22
5754900,28
5755520,27
5756148,26
5756776,24
5757408,18
5758036,14
5758656,11
5759288,13
5759912,12
5760536,14
5761168,14
5761784,15
5762412,13
5763036,16
5763660,16
5764288,14
5764912,18
5765540,27
5766172,38
5766792,46
5767420,51
5768044,33
5768672,24
5769304,33
5769920,35
5770552,20
5771176,10
5771800,30
5772432,53
5773048,47
5773676,39
5774300,37
5774924,49
5775556,32
5776176,15
5776804,15
5777432,14
5778056,14
5778684,11
5779308,24
5779940,38
5780568,39
5781184,32
5781816,21
5782440,21
5783064,24
5783692,39
5784312,53
5784944,44
5785568,30
5786192,29
5786820,17
5787440,13
5788068,30
5788700,42
5789320,39
5789948,36
5790576,31
5791204,31
5791836,29
5792456,30
5793084,26
5793708,20
5794332,15
5794964,13
5795584,21
5796216,31
5796840,31
5797464,28
5798092,28
5798712,28
5799340,33
5799972,44
5800592,59
5801220,44
5801844,27
5802476,21
5803108,18
5803728,12
5804356,14
5804984,37
5805608,49
5806236,42
5806856,36
5807484,31
5808112,31
5808736,25
5809364,17
5809988,14
5810620,13
5811252,13
5811872,13
5812500,13
5813124,13
5813756,21
5814388,28
5815008,30
5815640,41
5816264,47
5816888,58
5817516,47
5818136,28
5818764,21
5819392,16
5820016,16
5820644,11
5821272,16
5821900,21
5822532,27
5823152,37
5823784,32
5824408,37
5825032,45
5825660,45
5826280,33
5826908,22
5827532,15
5828156,14
5828788,24
5829408,38
5830040,50
5830668,50
5831288,45
5831920,37
5832544,48
5833172,70
5833804,71
5834424,61
5835056,34
5835680,13
5836304,14
5836936,11
5837552,12
5838180,25
5838808,42
5839432,39
5840060,32
5840680,29
5841308,30
5841940,23
5842560,15
5843188,15
5843812,15
5844444,15
5845076,14
5845696,14
5846328,14
5846952,14
5847576,11
5848208,30
5848824,50
5849452,64
5850080,63
5850704,50
5851332,22
5851952,14
5852584,19
5853212,20
5853832,18
5854464,22
5855088,27
5855720,27
5856352,26
5856968,22
5857596,15
5858224,16
5858848,13
5859476,14
5860096,14
5860724,15
5861352,15
5861976,12
5862608,10
5863224,14
5863852,22
5864484,24
5865104,26
5865736,37
5866360,37
5866988,44
5867620,32
5868240,26
5868868,17
5869492,19
5870120,15
5870748,9
5871316,16
5871952,29
5872576,23
5873204,16
5873832,12
5874456,14
5875088,14
5875720,18
5876340,24
5876968,22
5877596,16
5878228,14
5878856,16
5879480,17
5880112,18
5880736,23
5881360,24
5881992,31
5882612,47
5883240,56
5883864,55
5884492,38
5885124,22
5885744,17
5886376,14
5887008,13
5887628,33
5888260,39
5888884,40
5889512,48
5890140,40
5890760,29
5891388,25
5892016,22
5892640,19
5893268,14
5893888,15
5894520,19
5895144,15
5895768,34
5896400,47
5897016,48
5897648,53
5898276,56
5898896,61
5899524,49
5900148,36
5900780,48
5901408,42
5902032,35
5902664,20
5903288,24
5903912,47
5904540,64
5905160,63
5905792,39
5906416,23
5907040,14
5907668,24
5908296,39
5908924,40
5909556,35
5910176,21
5910808,15
5911432,26
5912064,32
5912692,22
5913312,24
5913944,37
5914568,43
5915192,33
5915824,41
5916440,52
5917072,59
5917704,31
5918324,19
5918956,14
5919580,14
5920212,12
5920840,12
5921456,19
5922088,25
5922712,26
5923336,28
5923964,23
5924584,16
5925212,17
5925840,15
5926464,14
5927092,15
5927712,13
5928344,14
5928972,10
5929592,11
5930224,16
5930848,17
5931480,19
5932108,11
5932728,43
5933360,77
5933984,101
5934660,80
5935288,51
5935904,31
5936536,19
5937168,10
5937788,20
5938420,30
5939044,37
5939676,37
5940304,29
5940928,25
5941556,32
5942180,23
5942804,22
5943436,14
5944056,14
5944684,14
5945308,11
5945932,13
5946564,26
5947184,34
5947816,32
5948444,34
5949064,47
5949696,54
5950320,52
5950948,32
5951580,13
5952200,14
5952832,13
5953456,14
5954080,17
5954708,30
5955328,38
5955956,43
5956580,44
5957208,31
5957836,26
5958456,28
5959084,20
5959716,14
5960336,23
5960964,29
5961588,22
5962220,17
5962852,14
5963472,24
5964104,33
5964728,39
5965352,51
5965984,51
5966600,27
5967228,22
5967856,20
5968480,15
5969108,14
5969736,16
5970364,18
5970996,24
5971616,25
5972244,17
5972872,10
5973500,12
5974132,12
5974752,17
5975384,25
5976008,26
5976632,18
5977264,14
5977884,16
5978512,15
5979144,17
5979764,26
5980396,35
5981020,28
5981652,26
5982280,22
5982904,28
5983536,42
5984160,40
5984784,28
5985412,18
5986032,17
5986660,15
5987288,12
5987912,25
5988540,35
5989160,33
5989792,25
5990420,24
5991040,24
5991668,18
5992296,11
5992924,16
5993556,13
5994176,14
5994808,14
5995432,15
5996056,21
5996688,23
5997304,24
5997936,26
5998564,26
5999188,35
5999820,39
6000440,43
6001072,44
6001700,31
6002320,23
6002952,16
6003576,12
6004204,28
6004836,56
6005456,59
6006088,33
6006712,21
6007336,11
6007968,15
6008584,25
6009216,27
6009840,22
6010464,16
6011096,14
6011720,17
6012352,21
6012980,19
6013600,28
6014232,27
6014856,38
6015488,57
6016120,76
6016736,76
6017368,51
6017992,20
6018616,18
6019244,16
6019864,15
6020492,21
6021120,44
6021744,60
6022376,57
6023000,51
6023628,40
6024260,34
6024880,31
6025508,17
6026136,17
6026760,14
6027392,13
6028008,22
6028640,31
6029264,30
6029888,35
6030520,42
6031136,43
6031768,37
6032400,40
6033016,43
6033648,47
6034272,29
6034904,13
6035532,14
6036152,14
6036784,13
6037408,11
6038032,12
6038664,14
6039284,18
6039912,17
6040540,17
6041164,27
6041796,33
6042416,33
6043044,23
6043676,14
6044296,14
6044924,15
6045552,27
6046180,18
6046812,10
6047432,10
6048064,13
6048688,24
6049312,33
6049940,38
6050560,45
6051188,31
6051816,16
6052440,13
6053072,15
6053692,17
6054324,10
6054956,32
6055576,43
6056208,38
6056832,18
6057464,10
6058096,10
6058712,11
6059344,15
6059972,14
6060596,16
6061228,18
6061848,22
6062480,17
6063108,13
6063728,15
6064360,17
6064984,13
6065612,34
6066244,48
6066864,49
6067496,42
6068120,21
6068744,15
6069376,13
6069992,15
6070624,23
6071248,38
6071872,43
6072504,53
6073124,45
6073752,25
6074384,10
6075004,10
6075636,16
6076260,19
6076892,14
6077524,13
6078144,15
6078776,19
6079400,25
6080024,29
6080656,30
6081272,36
6081904,47
6082528,54
6083152,56
6083784,51
6084400,35
6085028,26
6085660,19
6086280,15
6086912,17
6087536,32
6088168,38
6088796,32
6089416,29
6090048,25
6090672,22
6091296,17
6091928,10
6092548,13
6093176,13
6093804,14
6094428,16
6095056,16
6095676,11
6096308,20
6096936,16
6097560,11
6098192,11
6098816,21
6099448,37
6100076,67
6100696,73
6101328,40
6101952,25
6102576,21
6103208,20
6103824,10
6104456,22
6105080,51
6105704,51
6106336,47
6106960,42
6107588,32
6108220,23
6108840,12
6109468,16
6110096,28
6110724,21
6111356,18
6111976,21
6112612,20
6113236,17
6113860,17
6114492,14
6115112,20
6115744,38
6116376,48
6116996,50
6117628,45
6118252,35
6118884,22
6119516,14
6120136,12
6120768,25
6121392,39
6122016,37
6122648,34
6123268,31
6123900,31
6124524,44
6125148,46
6125780,47
6126408,49
6127036,53
6127668,28
6128288,17
6128920,34
6129548,54
6130176,56
6130808,47
6131432,43
6132064,53
6132692,66
6133316,71
6133948,60
6134568,42
6135200,32
6135832,25
6136452,20
6137084,13
6137708,15
6138340,29
6138972,32
6139592,31
6140224,28
6140852,30
6141476,29
6142108,25
6142732,27
6143364,26
6143988,24
6144616,16
6145248,11
6145868,13
6146500,21
6147128,29
6147748,27
6148376,34
6149000,54
6149628,46
6150260,48
6150880,38
6151508,27
6152132,18
6152756,13
6153388,12
6154008,15
6154636,22
6155260,31
6155888,37
6156516,37
6157144,37
6157772,38
6158404,24
6159024,24
6159656,19
6160280,17
6160904,13
6161532,16
6162152,25
6162780,39
6163408,34
6164032,23
6164660,26
6165280,43
6165908,65
6166540,68
6167160,65
6167788,47
6168416,30
6169044,17
6169676,13
6170296,17
6170924,25
6171548,35
6172172,40
6172804,42
6173424,33
6174056,23
6174680,27
6175304,29
6175936,35
6176556,30
6177184,19
6177816,15
6178432,15
6179060,22
6179688,29
6180316,31
6180948,32
6181568,30
6182200,46
6182824,49
6183448,46
6184080,33
6184696,23
6185328,17
6185952,14
6186576,15
6187204,10
6187824,13
6188456,14
6189084,14
6189704,17
6190336,24
6190960,33
6191592,40
6192220,49
6192840,43
6193468,31
6194096,14
6194720,17
6195352,16
6195968,15
6196596,15
6197224,12
6197848,21
6198476,31
6199096,55
6199728,79
6200356,88
6200976,71
6201608,52
6202228,27
6202860,13
6203492,14
6204112,24
6204744,37
6205368,46
6205992,41
6206624,31
6207240,33
6207872,38
6208500,31
6209124,23
6209752,16
6210376,16
6211008,14
6211640,21
6212260,24
6212888,19
6213512,15
6214144,16
6214776,26
6215396,31
6216028,40
6216652,59
6217276,61
6217908,50
6218528,41
6219160,25
6219792,13
6220412,13
6221044,28
6221668,38
6222296,32
6222928,20
6223552,13
6224184,12
6224808,15
6225432,23
6226064,27
6226680,18
6227312,13
6227936,15
6228560,14
6229188,22
6229808,31
6230440,27
6231068,20
6231688,19
6232316,34
6232944,45
6233576,50
6234208,44
6234824,34
6235456,17
6236080,18
6236708,33
6237336,34
6237960,33
6238592,40
6239216,42
6239840,36
6240472,41
6241096,41
6241728,25
6242356,13
6242976,14
6243608,21
6244232,25
6244860,15
6245492,12
6246112,19
6246744,38
6247368,46
6247992,41
6248620,27
6249240,29
6249868,31
6250492,37
6251120,38
6251752,28
6252376,21
6253004,15
6253636,10
6254256,19
6254888,28
6255512,28
6256136,29
6256764,24
6257384,29
6258016,41
6258640,44
6259264,32
6259892,16
6260512,14
6261140,13
6261772,16
6262392,33
6263024,52
