tempo_arduino_micro_s,valor_ADC
500,21
1004,21
1504,14
2000,11
2508,10
3000,10
3508,10
4000,12
4508,9
5000,12
5500,12
6000,17
6500,26
7004,26
7500,30
8000,39
8500,25
9000,17
9500,13
10000,10
10516,10
11036,11
11564,12
12084,10
12612,13
13132,22
13660,30
14180,31
14708,31
15228,30
15756,30
16276,21
16796,21
17316,17
17836,14
18356,13
18876,12
19396,38
19916,36
20436,11
20956,28
21476,50
21996,43
22516,19
23036,21
23564,27
24084,21
24612,14
25132,14
25660,15
26180,20
26708,18
27228,10
27756,13
28276,17
28804,30
29324,21
29852,21
30372,55
30900,62
31420,37
31948,13
32468,14
32996,13
33516,16
34044,17
34564,14
35092,12
35612,14
36140,15
36660,22
37188,21
37708,23
38236,23
38760,21
39284,19
39804,18
40332,18
40852,18
41372,14
41892,18
42412,17
42932,22
43452,31
43972,20
44492,16
45012,12
45532,21
46052,21
46572,17
47092,12
47612,12
48140,25
48660,42
49188,46
49708,33
50236,27
50760,20
51284,15
51804,16
52332,13
52852,20
53380,39
53900,39
54428,37
54948,39
55476,42
55996,45
56524,37
57044,23
57572,12
58096,14
58620,14
59140,15
59668,14
60188,12
60716,10
61240,10
61764,28
62284,31
62812,36
63332,33
63860,25
64384,22
64908,25
65428,34
65948,41
66468,34
66988,17
67508,23
68028,55
68548,70
69068,62
69588,42
70108,23
70628,10
71148,11
71668,12
72192,14
72716,19
73236,40
73764,59
74284,45
74812,28
75332,15
75860,14
76380,16
76908,12
77428,18
77956,24
78476,17
79004,12
79528,20
80052,21
80572,14
81100,10
81620,11
82148,16
82668,30
83196,48
83716,49
84244,43
84764,33
85292,14
85812,16
86340,25
86860,33
87388,44
87908,42
88436,35
88956,30
89484,19
90004,17
90524,22
91044,17
91564,14
92084,19
92604,44
93124,48
93644,34
94164,13
94684,22
95204,33
95724,28
96248,22
96764,20
97292,28
97812,32
98340,25
98860,20
99388,18
99908,30
100436,41
101004,17
101584,50
102156,53
102736,38
103304,20
103880,13
104456,18
105024,27
105600,30
106168,33
106744,38
107312,31
107896,29
108464,30
109040,24
109624,17
110192,16
110768,32
111336,35
111920,23
112492,44
113072,95
113640,59
114216,19
114800,20
115368,27
115952,13
116520,25
117104,34
117676,19
118252,16
118832,19
119400,11
119984,19
120556,35
121136,44
121704,73
122288,76
122856,72
123436,56
124016,35
124584,26
125168,21
125736,15
126320,13
126888,16
127464,19
128048,22
128616,13
129192,13
129760,27
130344,36
130912,40
131496,57
132064,49
132640,27
133216,14
133784,18
134360,19
134928,11
135512,15
136084,15
136656,31
137232,39
137800,42
138384,46
138952,46
139536,45
140104,46
140688,31
141260,21
141832,15
142416,19
142984,15
143568,9
144084,12
144664,14
145232,11
145808,12
146376,18
146956,23
147536,28
148104,26
148688,25
149256,19
149840,16
150408,16
150992,15
151568,10
152140,13
152720,13
153292,10
153872,9
154388,11
154968,29
155536,43
156112,48
156696,45
157268,27
157848,17
158416,19
159000,17
159572,14
160152,18
160720,13
161296,11
161872,14
162440,13
163024,33
163596,45
164176,30
164744,23
165320,26
165896,17
166464,18
167048,20
167616,17
168192,14
168760,13
169336,39
169904,49
170480,34
171064,13
171632,11
172216,20
172784,28
173368,34
173936,44
174520,52
175088,43
175664,48
176248,46
176816,27
177400,13
177968,12
178552,18
179124,27
179700,39
180280,42
180848,46
181432,51
182004,53
182584,23
183152,14
183736,19
184308,17
184884,11
185464,13
186032,11
186616,10
187184,11
187768,19
188336,40
188912,47
189496,45
190064,47
190648,30
191220,18
191800,20
192372,15
192952,41
193520,57
194096,33
194680,11
195248,25
195832,30
196404,39
196984,44
197552,48
198132,30
198712,18
199284,11
199864,16
200432,19
201016,14
201584,12
202168,17
202740,21
203316,14
203896,10
204468,11
205048,11
205616,24
206192,30
206760,49
207336,60
207912,59
208484,31
209064,16
209632,12
210208,25
210776,24
211360,11
211928,12
212496,16
213080,30
213648,22
214232,19
214804,19
215384,25
215952,16
216532,21
217112,15
217684,17
218264,14
218832,13
219408,11
219976,15
220560,13
221128,11
221704,32
222288,45
222856,55
223440,55
224012,42
224592,52
225164,47
225744,37
226320,20
226888,11
227472,24
228040,30
228624,20
229196,25
229776,28
230348,27
230924,30
231504,29
232076,38
232656,41
233224,32
233808,19
234376,19
234960,18
235536,14
236104,16
236688,18
237260,18
237840,13
238412,19
238992,25
239564,28
240140,47
240720,60
241288,51
241872,28
242444,34
243024,24
243596,25
244176,16
244752,11
245324,16
245904,12
246472,18
247056,31
247624,24
248208,17
248776,22
249352,25
249936,29
250504,30
251088,17
251656,14
252240,25
252808,14
253392,21
253968,35
254540,40
255120,38
255692,14
256272,12
256848,25
257424,33
257992,24
258568,17
259152,20
259720,25
260304,24
260872,31
261456,23
262024,13
262608,14
263184,16
263752,24
264336,40
264904,31
265488,28
266056,17
266640,15
267208,26
267784,37
268360,43
268928,21
269512,13
270080,30
270664,40
271232,43
271816,53
272392,53
272960,41
273544,30
274116,26
274696,19
275268,21
275848,23
276416,17
276996,15
277576,34
278148,33
278728,25
279296,25
279880,31
280452,29
281032,27
281608,30
282176,29
282752,17
283324,15
283904,13
284476,20
285056,25
285628,29
286200,21
286784,16
287352,19
287936,18
288508,27
289088,39
289656,38
290240,20
290808,11
291384,24
291968,51
292540,54
293120,33
293692,12
294272,23
294844,25
295416,27
296000,31
296568,30
297152,31
297724,37
298304,37
298876,38
299456,42
300040,43
300612,27
301192,24
301764,14
302344,11
302916,13
303496,56
304068,70
304644,51
305224,61
305796,81
306376,77
306948,52
307528,32
308104,20
308688,16
309264,21
309832,13
310416,14
310984,39
311568,32
312140,12
312720,12
313292,21
313868,35
314448,35
315020,18
315600,23
316172,40
316752,51
317324,51
317904,21
318488,25
319060,54
319640,46
320212,38
320792,30
321360,24
321944,20
322512,30
323092,50
323672,51
324244,51
324824,44
325392,40
325976,23
326548,11
327120,14
327704,26
328272,37
328848,53
329416,43
330000,20
330568,16
331152,13
331724,14
332296,18
332880,19
333448,17
334024,18
334592,13
335176,17
335748,17
336328,11
336904,11
337472,15
338056,25
338624,26
339208,25
339776,23
340352,20
340920,23
341496,22
342080,16
342648,16
343232,18
343800,23
344384,16
344952,11
345536,17
346108,23
346680,28
347264,32
347836,35
348416,37
348992,35
349576,29
350148,17
350724,14
351304,12
351876,16
352456,27
353028,12
353608,28
354176,47
354760,77
355336,83
355908,55
356488,34
357056,35
357640,43
358212,40
358792,40
359368,17
359944,19
360528,15
361096,23
361680,29
362248,23
362832,25
363404,27
363984,23
364560,21
365132,47
365712,62
366284,40
366864,15
367436,15
368016,31
368584,38
369164,40
369744,41
370312,23
370896,9
371416,12
371992,12
372564,27
373144,38
373716,43
374292,42
374872,28
375444,19
376024,23
376592,23
377176,14
377748,14
378324,27
378904,23
379472,40
380056,57
380628,48
381208,25
381780,14
382360,15
382932,15
383508,23
384092,25
384660,10
385240,12
385808,34
386392,52
386964,56
387540,47
388120,38
388692,35
389272,49
389840,49
390424,28
390992,15
391576,13
392148,16
392720,16
393304,10
393876,26
394456,41
395028,51
395608,41
396188,32
396764,26
397344,21
397916,30
398496,30
399068,18
399648,14
400220,22
400800,19
401368,13
401944,11
402528,17
403100,26
403680,20
404256,31
404840,45
405408,48
405988,48
406568,38
407140,16
407720,13
408292,26
408872,32
409444,24
410024,12
410600,17
411168,36
411744,29
412312,25
412896,22
413464,17
414040,16
414608,20
415184,35
415768,42
416336,32
416920,16
417488,21
418064,12
418632,14
419216,37
419784,54
420364,40
420944,14
421512,15
422096,19
422664,53
423248,77
423816,72
424400,55
424976,40
425544,25
426120,15
426688,10
427272,12
427844,24
428424,31
428996,38
429572,37
430152,35
430724,28
431304,34
431876,52
432456,55
433032,27
433616,18
434192,27
434764,26
435344,18
435912,20
436496,24
437064,36
437648,49
438220,57
438796,43
439376,30
439948,28
440528,26
441096,28
441680,17
442248,14
442832,13
443408,15
443980,25
444560,21
445132,11
445712,12
446284,16
446864,20
447436,23
448012,24
448592,25
449160,23
449744,29
450316,27
450896,21
451464,11
452048,13
452624,20
453196,34
453776,38
454348,38
454928,41
455508,39
456088,26
456664,17
457240,26
457824,27
458396,24
458976,17
459548,14
460128,19
460700,18
461276,20
461856,30
462428,40
463008,49
463580,46
464160,34
464728,16
465312,14
465884,14
466460,15
467040,15
467612,17
468192,28
468764,30
469344,29
469916,30
470492,34
471072,33
471644,32
472224,45
472796,43
473376,28
473956,14
474536,16
475108,28
475684,46
476264,31
476836,17
477416,46
477988,43
478568,31
479148,11
479724,34
480304,48
480876,44
481456,34
482024,17
482608,16
483176,40
483760,40
484340,21
484916,11
485496,12
486068,11
486648,10
487224,11
487808,17
488380,25
488952,30
489536,38
490108,44
490688,41
491260,25
491840,17
492408,26
492992,13
493560,19
494140,34
494720,35
495288,27
495872,23
496444,13
497024,15
497592,18
498172,13
498752,15
499324,16
499904,16
500476,15
501056,21
501628,14
502208,16
502780,22
503356,11
503936,21
504508,34
505088,30
505660,31
506240,21
506812,16
507388,31
507968,33
508540,21
509120,13
509692,31
510272,39
510852,17
511432,15
512020,31
512588,32
513168,12
513736,16
514320,28
514888,32
515472,18
516040,15
516616,21
517200,27
517768,33
518352,25
518924,15
519504,21
520076,40
520656,45
521232,39
521804,35
522384,33
522956,30
523536,26
524104,22
524688,22
525260,26
525832,16
526416,10
526984,11
527568,11
528140,11
528720,11
529288,21
529872,19
530448,43
531020,64
531600,54
532172,22
532752,14
533324,19
533904,16
534476,34
535052,50
535632,42
536204,31
536784,13
537356,13
537936,11
538512,32
539092,57
539672,56
540244,34
540824,33
541392,26
541976,23
542548,19
543128,11
543708,24
544284,27
544864,25
545432,22
546016,20
546584,19
547168,17
547740,18
548316,19
548896,18
549468,18
550048,18
550620,16
551200,11
551772,25
552352,45
552932,30
553508,12
554088,23
554660,40
555240,39
555812,31
556392,24
556972,17
557548,27
558128,43
558700,44
559280,35
559852,26
560432,18
561012,11
561592,11
562164,10
562740,10
563320,14
563892,12
564472,11
565044,18
565624,27
566196,48
566772,42
567352,26
567924,14
568504,18
569076,23
569656,13
570224,23
570808,14
571388,37
571964,53
572544,57
573120,63
573696,27
574276,13
574856,13
575428,35
576004,45
576584,27
577152,14
577736,26
578304,28
578888,19
579456,14
580040,11
580616,13
581188,17
581768,14
582340,18
582920,34
583500,32
584080,22
584656,14
585236,29
585816,28
586388,19
586968,27
587540,42
588120,16
588692,40
589268,46
589848,25
590420,24
591000,26
591572,48
592152,58
592732,42
593312,31
593884,27
594460,18
595040,10
595612,16
596192,36
596764,43
597344,49
597916,54
598492,43
599072,28
599644,16
600224,16
600796,19
601376,11
601956,19
602536,33
603108,22
603684,11
604264,13
604836,14
605416,37
605988,56
606568,40
607148,17
607724,15
608304,14
608876,14
609456,13
610028,13
610608,15
611188,16
611772,10
612348,10
612928,12
613504,13
614080,29
614656,43
615232,40
615816,27
616388,18
616964,14
617544,14
618116,13
618696,11
619268,11
619848,12
620420,12
621000,16
621576,19
622148,16
622728,40
623300,50
623880,42
624460,18
625040,16
625612,25
626188,16
626768,15
627340,20
627920,10
628492,16
629072,26
629644,17
630224,14
630808,33
631380,36
631960,22
632536,14
633112,32
633692,25
634272,16
634852,18
635428,14
636008,10
636580,17
637160,14
637740,18
638320,26
638900,31
639476,59
640060,57
640628,47
641208,22
641776,14
642360,16
642932,11
643512,12
644084,34
644656,51
645240,40
645808,52
646392,37
646964,12
647544,23
648116,19
648688,17
649272,14
649844,15
650424,15
650996,15
651576,9
652096,10
652672,13
653244,10
653820,11
654400,24
654968,24
655552,26
656120,38
656704,36
657272,42
657856,33
658424,27
659000,22
659584,15
660152,18
660736,15
661304,10
661888,15
662456,24
663032,22
663616,22
664188,36
664768,32
665340,28
665920,28
666488,17
667064,18
667632,20
668208,14
668792,17
669364,26
669944,11
670516,16
671096,15
671668,24
672244,36
672824,44
673392,40
673976,38
674548,40
675128,35
675700,26
676280,15
676848,12
677424,22
678008,31
678580,34
679160,45
679728,42
680312,29
680884,22
681456,15
682040,16
682608,21
683192,22
683764,21
684344,12
684916,18
685496,39
686068,44
686644,36
687224,31
687796,26
688376,22
688956,17
689536,13
690108,24
690684,14
691264,14
691832,27
692416,28
692988,14
693568,29
694140,66
694720,76
695292,54
695868,26
696448,11
697020,18
697600,22
698168,36
698752,49
699324,30
699900,22
700480,32
701052,14
701632,22
702204,29
702784,13
703356,13
703936,32
704524,17
705092,11
705672,26
706244,27
706824,14
707392,23
707976,25
708548,24
709124,36
709704,67
710276,86
710856,57
711428,34
712008,14
712584,30
713168,27
713752,19
714324,14
714904,26
715476,28
716056,21
716636,22
717220,24
717792,19
718372,10
718952,11
719524,13
720104,9
720620,10
721200,23
721772,43
722352,44
722924,35
723500,23
724080,14
724648,19
725232,24
725804,27
726384,11
726956,21
727532,15
728112,10
728684,11
729264,16
729836,11
730416,16
730988,20
731568,19
732140,17
732716,23
733296,42
733868,41
734448,14
735028,25
735608,16
736188,10
736764,11
737344,11
737912,15
738496,23
739068,58
739648,75
740220,64
740800,40
741368,26
741948,23
742528,23
743096,15
743680,9
744200,16
744776,13
745348,12
745928,10
746504,18
747076,27
747656,31
748228,36
748808,24
749376,16
749960,13
750532,15
751108,11
751688,13
752260,30
752840,35
753412,27
753992,22
754572,23
755152,19
755740,21
756312,53
756888,57
757460,72
758040,72
758620,67
759200,65
759780,40
760356,15
760936,10
761508,13
762088,15
762668,24
763248,25
763828,25
764404,21
764984,16
765556,23
766136,23
766712,15
767292,14
767868,11
768452,11
769032,16
769604,16
770184,20
770756,22
771336,21
771908,20
772488,23
773060,33
773636,24
774216,16
774788,14
775368,15
775940,16
776520,11
777100,10
777680,14
778264,19
778832,39
779416,34
779988,15
780568,17
781148,17
781728,13
782300,13
782876,14
783456,14
784028,16
784608,17
785180,38
785760,24
786340,12
786916,10
787496,16
788068,13
788648,13
789220,16
789800,23
790372,38
790956,35
791532,26
792108,15
792688,10
793260,15
793844,33
794420,31
795000,27
795572,35
796148,38
796732,13
797304,21
797880,17
798456,13
799032,17
799612,22
800192,22
800776,33
801348,24
801928,11
802496,22
803080,49
803652,59
804232,51
804804,33
805376,14
805960,20
806532,22
807112,17
807684,55
808264,60
808836,58
809416,26
810000,16
810572,23
811152,18
811724,13
812304,9
812824,12
813400,36
813972,52
814548,33
815128,16
815700,12
816280,17
816852,22
817432,21
818004,11
818584,13
819156,11
819732,10
820312,16
820880,24
821464,39
822032,65
822616,65
823184,45
823760,40
824344,38
824912,16
825496,24
826068,11
826648,20
827216,15
827800,11
828368,24
828944,35
829528,27
830096,17
830680,9
831200,11
831776,13
832348,15
832928,16
833496,15
834072,15
834656,11
835224,14
835808,29
836380,22
836960,13
837528,22
838108,29
838688,34
839256,23
839840,14
840408,15
840992,15
841560,23
842144,17
842716,11
843292,16
843872,26
844444,18
845024,22
845592,15
846176,11
846744,22
847320,19
847904,15
848476,17
849056,14
849624,15
850208,15
850780,19
851360,16
851928,12
852508,18
853088,16
853660,27
854240,29
854812,29
855392,13
855964,40
856540,69
857120,70
857692,52
858272,35
858844,22
859424,23
859996,17
860576,11
861156,11
861732,10
862312,18
862884,35
863464,33
864036,15
864616,13
865188,16
865764,16
866344,15
866916,16
867496,14
868068,10
868648,13
869220,16
869800,12
870372,11
870948,11
871528,15
872100,22
872680,22
873248,17
873832,16
874404,16
874976,15
875560,15
876132,11
876712,17
877284,11
877864,11
878436,13
879016,21
879588,24
880164,19
880744,33
881316,53
881896,53
882468,24
883048,15
883620,18
884192,11
884776,18
885348,29
885928,38
886500,32
887080,29
887652,25
888232,22
888812,32
889388,41
889968,34
890540,19
891120,14
891700,15
892280,21
892852,29
893428,20
894008,11
894580,27
895160,16
895736,10
896316,11
896892,15
897472,21
898044,18
898620,16
899200,32
899768,31
900352,23
900924,12
901504,15
902076,11
902652,11
903232,11
903804,10
904384,13
904952,22
905536,39
906108,44
906688,22
907260,12
907836,16
908416,14
908988,15
909568,13
910140,17
910720,11
911300,18
911876,22
912456,33
913028,30
913608,12
914180,10
914760,13
915332,25
915912,32
916488,35
917060,27
917640,12
918212,21
918792,22
919372,32
919952,15
920532,15
921108,14
921688,13
922260,43
922840,29
923412,20
923992,37
924564,44
925140,28
925720,14
926292,10
926872,22
927444,22
928024,10
928592,23
929176,15
929748,22
930324,38
930904,23
931476,15
932056,15
932636,17
933216,21
933796,23
934372,11
934956,18
935528,18
936104,12
936676,12
937256,12
937836,17
938416,31
938996,32
939572,34
940152,35
940728,33
941308,25
941884,20
942464,13
943044,12
943620,10
944200,18
944772,26
945352,31
945924,28
946504,23
947076,21
947656,25
948240,19
948812,15
949392,16
949964,15
950544,15
951124,13
951704,10
952284,10
952860,10
953440,11
954012,11
954592,16
955172,22
955752,33
956332,45
956908,39
957488,36
958060,29
958640,25
959216,14
959792,12
960372,9
960900,15
961476,27
962052,15
962632,13
963204,11
963784,11
964356,12
964936,14
965508,26
966088,53
966664,54
967236,35
967816,11
968388,30
968968,45
969536,42
970120,35
970700,13
971276,11
971856,14
972428,29
973008,24
973588,26
974168,21
974740,23
975316,26
975896,10
976468,18
977048,23
977620,19
978200,13
978772,11
979352,15
979932,23
980508,15
981088,15
981660,23
982240,32
982820,23
983400,16
983980,32
984556,34
985136,26
985708,10
986288,13
986856,11
987440,9
987960,18
988536,26
989116,46
989692,57
990272,47
990844,34
991424,22
991996,24
992580,18
993156,11
993736,12
994320,16
994892,17
995472,21
996044,23
996624,17
997196,13
997776,12
998356,15
998932,15
999512,20
1000084,24
1000708,14
1001332,11
1001960,13
1002588,12
1003208,13
1003836,10
1004460,14
1005080,24
1005712,40
1006328,42
1006956,33
1007580,26
1008204,26
1008832,17
1009456,13
1010084,11
1010712,23
1011332,27
1011960,22
1012584,15
1013212,13
1013840,18
1014464,19
1015092,20
1015716,16
1016340,21
1016968,21
1017584,12
1018216,15
1018840,25
1019464,17
1020092,21
1020712,21
1021344,21
1021972,38
1022592,40
1023224,24
1023848,14
1024476,17
1025104,14
1025720,13
1026348,10
1026968,11
1027588,13
1028216,10
1028836,15
1029464,16
1030088,21
1030708,20
1031340,25
1031960,27
1032588,25
1033212,16
1033832,15
1034460,15
1035084,11
1035712,22
1036340,10
1036960,13
1037588,20
1038208,15
1038836,10
1039464,26
1040080,32
1040708,25
1041332,34
1041952,30
1042580,30
1043196,28
1043828,15
1044452,15
1045072,19
1045700,19
1046320,33
1046948,41
1047576,28
1048192,15
1048820,36
1049444,36
1050072,17
1050700,12
1051320,24
1051948,14
1052568,22
1053192,21
1053820,14
1054440,17
1055068,11
1055692,26
1056312,61
1056944,37
1057560,24
1058188,35
1058812,42
1059432,29
1060064,16
1060684,10
1061312,16
1061944,29
1062560,32
1063188,24
1063812,16
1064440,15
1065068,16
1065684,14
1066312,15
1066936,20
1067560,23
1068188,26
1068804,33
1069432,22
1070056,18
1070680,13
1071308,22
1071928,49
1072556,69
1073188,72
1073808,64
1074436,35
1075060,19
1075688,13
1076316,12
1076936,17
1077564,10
1078188,14
1078812,35
1079440,33
1080056,17
1080684,11
1081308,15
1081928,35
1082560,40
1083176,41
1083804,33
1084436,14
1085056,12
1085684,11
1086308,10
1086936,13
1087564,11
1088184,24
1088812,47
1089432,77
1090056,73
1090684,54
1091304,35
1091932,25
1092552,10
1093176,10
1093808,11
1094424,35
1095052,52
1095676,25
1096304,12
1096932,18
1097556,11
1098184,25
1098816,25
1099432,23
1100060,22
1100684,13
1101316,13
1101944,14
1102564,11
1103192,32
1103816,49
1104440,48
1105068,33
1105688,35
1106316,35
1106940,15
1107568,15
1108196,15
1108820,15
1109448,12
1110076,11
1110696,24
1111324,23
1111948,22
1112580,21
1113208,21
1113832,27
1114460,23
1115084,15
1115708,13
1116340,14
1116960,15
1117588,11
1118220,12
1118840,12
1119468,11
1120092,11
1120720,19
1121352,26
1121968,28
1122596,43
1123220,48
1123844,51
1124476,42
1125096,31
1125724,23
1126348,11
1126976,21
1127604,35
1128224,35
1128852,34
1129480,34
1130096,51
1130724,52
1131348,43
1131976,20
1132608,14
1133224,21
1133852,16
1134476,13
1135104,15
1135736,20
1136356,15
1136984,57
1137608,58
1138228,80
1138860,67
1139480,50
1140108,31
1140732,29
1141360,47
1141988,47
1142612,38
1143244,13
1143872,22
1144492,43
1145120,49
1145744,43
1146372,28
1147004,26
1147624,19
1148252,17
1148876,16
1149500,16
1150128,21
1150744,36
1151376,32
1152004,16
1152620,34
1153248,39
1153872,29
1154500,32
1155132,44
1155752,49
1156380,53
1157004,44
1157632,26
1158264,14
1158880,17
1159508,11
1160132,12
1160756,13
1161384,10
1162000,9
1162580,14
1163208,34
1163828,38
1164460,38
1165080,25
1165708,15
1166332,14
1166960,19
1167588,15
1168212,12
1168840,10
1169468,10
1170088,14
1170716,18
1171340,11
1171968,18
1172596,58
1173216,69
1173844,75
1174468,74
1175092,36
1175720,12
1176340,12
1176968,10
1177592,19
1178216,24
1178844,43
1179468,54
1180096,42
1180728,38
1181344,28
1181972,13
1182596,21
1183228,26
1183856,18
1184480,31
1185108,27
1185732,19
1186356,16
1186984,14
1187608,31
1188236,46
1188860,44
1189488,35
1190116,35
1190740,34
1191368,15
1192000,16
1192616,12
1193244,11
1193868,24
1194500,26
1195128,25
1195748,25
1196376,21
1197000,14
1197624,11
1198252,14
1198872,17
1199500,44
1200124,18
1200752,29
1201380,34
1202004,24
1202632,14
1203260,24
1203880,15
1204508,19
1205128,22
1205760,25
1206388,54
1207008,78
1207640,83
1208260,71
1208888,47
1209516,22
1210136,11
1210764,14
1211388,22
1212016,32
1212644,36
1213268,35
1213900,40
1214528,28
1215152,14
1215784,16
1216408,15
1217032,24
1217660,32
1218280,45
1218908,43
1219532,34
1220156,15
1220784,38
1221404,51
1222032,55
1222664,69
1223280,68
1223912,57
1224536,47
1225164,32
1225796,22
1226416,15
1227044,11
1227668,11
1228296,16
1228924,32
1229540,23
1230172,21
1230792,27
1231416,44
1232044,77
1232664,74
1233292,43
1233912,21
1234536,43
1235168,41
1235792,32
1236420,16
1237048,24
1237672,41
1238300,46
1238924,63
1239556,57
1240184,33
1240804,25
1241432,14
1242056,15
1242680,21
1243308,16
1243928,12
1244556,10
1245180,21
1245808,33
1246436,35
1247060,27
1247688,12
1248320,15
1248936,17
1249564,13
1250188,16
1250816,14
1251448,12
1252064,11
1252692,11
1253316,16
1253940,15
1254572,35
1255192,67
1255820,69
1256444,46
1257072,14
1257700,17
1258324,14
1258952,12
1259584,10
1260200,24
1260832,17
1261452,15
1262084,27
1262712,18
1263332,18
1263960,13
1264588,13
1265212,12
1265840,14
1266460,15
1267088,19
1267720,16
1268336,13
1268964,16
1269588,22
1270220,30
1270852,38
1271472,54
1272100,56
1272724,25
1273352,16
1273980,27
1274600,15
1275228,16
1275852,18
1276476,12
1277108,10
1277728,17
1278356,25
1278988,55
1279608,51
1280240,33
1280860,15
1281488,19
1282116,44
1282732,37
1283364,17
1283984,22
1284612,25
1285240,11
1285856,15
1286484,12
1287104,23
1287728,44
1288356,46
1288976,49
1289604,35
1290224,12
1290848,15
1291476,16
1292100,25
1292728,29
1293356,10
1293976,30
1294604,44
1295228,23
1295856,17
1296484,24
1297100,21
1297732,16
1298356,15
1298976,28
1299608,16
1300224,25
1300852,33
1301476,20
1302100,17
1302728,21
1303344,22
1303976,29
1304604,37
1305224,38
1305852,35
1306476,29
1307104,25
1307736,17
1308352,13
1308984,11
1309604,13
1310228,19
1310860,24
1311476,19
1312108,22
1312728,28
1313348,40
1313976,39
1314600,51
1315228,42
1315856,33
1316472,19
1317100,21
1317724,17
1318352,22
1318980,25
1319600,45
1320228,46
1320848,55
1321476,59
1322104,59
1322728,35
1323356,13
1323976,17
1324600,30
1325228,34
1325848,20
1326476,15
1327100,44
1327720,33
1328352,21
1328972,11
1329600,16
1330232,23
1330848,40
1331476,58
1332100,30
1332728,15
1333356,14
1333976,19
1334604,29
1335224,42
1335848,63
1336476,58
1337096,36
1337724,39
1338344,49
1338968,47
1339596,30
1340216,20
1340844,17
1341472,14
1342088,15
1342716,17
1343340,23
1343968,32
1344600,40
1345216,40
1345844,25
1346468,27
1347088,18
1347720,18
1348336,18
1348964,16
1349588,22
1350208,21
1350840,17
1351456,15
1352084,13
1352712,13
1353328,15
1353960,19
1354580,23
1355208,17
1355840,11
1356456,23
1357084,47
1357708,54
1358336,45
1358964,20
1359584,11
1360212,25
1360836,31
1361456,23
1362084,19
1362700,21
1363332,28
1363952,32
1364576,28
1365204,22
1365824,26
1366456,33
1367084,17
1367704,11
1368332,15
1368952,10
1369584,12
1370212,22
1370832,44
1371460,55
1372084,59
1372708,49
1373336,30
1373960,21
1374588,17
1375212,19
1375836,20
1376464,16
1377088,12
1377716,11
1378344,18
1378964,17
1379592,27
1380216,37
1380844,65
1381472,70
1382096,57
1382724,35
1383348,15
1383972,22
1384600,31
1385216,27
1385848,17
1386468,36
1387092,46
1387724,60
1388344,62
1388972,56
1389600,31
1390224,16
1390852,24
1391476,20
1392108,13
1392736,10
1393352,14
1393980,14
1394604,10
1395228,20
1395856,42
1396472,59
1397100,51
1397724,26
1398348,14
1398980,18
1399600,15
1400228,16
1400860,12
1401480,12
1402108,17
1402732,29
1403364,36
1403992,39
1404608,52
1405240,56
1405864,42
1406484,26
1407116,20
1407736,15
1408368,16
1408988,13
1409612,10
1410240,14
1410856,20
1411484,27
1412116,36
1412736,49
1413364,46
1413988,21
1414616,15
1415244,16
1415864,18
1416492,15
1417116,14
1417740,25
1418368,28
1418984,18
1419616,15
1420236,25
1420860,35
1421492,34
1422112,36
1422740,27
1423372,12
1423992,16
1424620,20
1425244,25
1425876,27
1426504,12
1427124,34
1427752,27
1428376,11
1429000,13
1429628,34
1430248,50
1430876,38
1431504,24
1432128,14
1432756,13
1433376,16
1434008,15
1434636,22
1435256,26
1435884,15
1436508,24
1437136,23
1437764,34
1438384,72
1439012,90
1439636,85
1440260,64
1440892,34
1441508,16
1442140,15
1442760,12
1443384,36
1444012,48
1444628,38
1445260,35
1445880,37
1446504,61
1447132,35
1447756,15
1448384,48
1449012,54
1449632,33
1450260,18
1450880,15
1451512,12
1452140,11
1452760,15
1453388,10
1454012,11
1454636,16
1455268,10
1455888,13
1456516,33
1457140,57
1457764,57
1458392,55
1459016,44
1459648,22
1460276,10
1460896,18
1461524,19
1462148,24
1462776,27
1463408,21
1464024,28
1464652,49
1465276,51
1465900,32
1466528,32
1467152,48
1467780,40
1468404,11
1469028,41
1469660,56
1470280,61
1470912,65
1471540,47
1472160,43
1472788,37
1473412,29
1474040,28
1474672,30
1475288,29
1475916,16
1476540,12
1477164,24
1477792,28
1478408,46
1479036,47
1479660,42
1480284,46
1480912,44
1481528,52
1482160,40
1482788,38
1483408,20
1484036,13
1484660,53
1485292,95
1485920,98
1486536,68
1487164,27
1487788,28
1488412,33
1489040,32
1489656,32
1490288,33
1490908,23
1491532,15
1492160,11
1492784,11
1493412,18
1494044,22
1494664,26
1495292,35
1495916,39
1496548,31
1497176,23
1497792,22
1498424,24
1499044,26
1499668,17
1500300,14
1500920,17
1501548,15
1502172,11
1502796,12
1503428,16
1504048,23
1504676,35
1505308,43
1505928,35
1506556,23
1507180,21
1507812,30
1508444,30
1509064,27
1509692,14
1510316,14
1510944,29
1511572,27
1512192,24
1512820,22
1513444,16
1514068,21
1514700,28
1515320,28
1515952,29
1516580,23
1517200,11
1517828,11
1518452,11
1519084,19
1519712,13
1520336,19
1520964,48
1521588,56
1522212,61
1522844,42
1523464,29
1524092,29
1524716,25
1525340,19
1525972,12
1526596,10
1527224,20
1527856,20
1528472,13
1529104,16
1529728,23
1530356,40
1530988,49
1531608,44
1532236,22
1532864,19
1533488,31
1534116,15
1534736,22
1535368,33
1535992,33
1536616,18
1537248,24
1537868,16
1538496,20
1539128,38
1539744,51
1540372,59
1540996,57
1541624,57
1542256,34
1542872,14
1543500,10
1544124,13
1544748,18
1545376,25
1545996,34
1546624,31
1547248,35
1547872,40
1548500,41
1549124,24
1549752,15
1550384,12
1551000,19
1551632,15
1552256,13
1552884,10
1553516,24
1554136,37
1554764,39
1555388,41
1556012,36
1556644,16
1557264,16
1557892,20
1558516,31
1559140,13
1559768,11
1560392,11
1561020,36
1561652,22
1562268,13
1562900,14
1563520,19
1564152,24
1564780,43
1565400,81
1566028,89
1566652,31
1567276,41
1567908,72
1568528,30
1569156,17
1569780,44
1570404,78
1571032,93
1571656,77
1572288,55
1572916,40
1573536,31
1574164,17
1574792,14
1575420,12
1576052,12
1576672,44
1577300,52
1577924,37
1578548,35
1579180,54
1579800,59
1580428,57
1581052,80
1581680,85
1582308,55
1582932,20
1583564,22
1584196,52
1584816,57
1585444,53
1586068,37
1586696,12
1587324,23
1587944,66
1588572,110
1589252,90
1589872,57
1590500,20
1591124,19
1591756,19
1592388,10
1593008,11
1593636,33
1594260,49
1594888,36
1595516,28
1596136,26
1596768,13
1597392,11
1598016,15
1598644,33
1599264,16
1599896,19
1600524,13
1601140,18
1601772,11
1602392,19
1603020,26
1603648,12
1604272,13
1604900,29
1605524,40
1606148,56
1606780,59
1607400,49
1608028,30
1608652,15
1609272,27
1609900,10
1610520,17
1611148,14
1611772,10
1612400,21
1613028,31
1613652,29
1614280,28
1614908,25
1615528,29
1616156,22
1616780,24
1617408,16
1618040,11
1618656,11
1619284,12
1619908,29
1620532,50
1621160,47
1621776,21
1622408,12
1623028,21
1623652,49
1624284,47
1624908,33
1625536,13
1626168,10
1626784,15
1627416,13
1628040,15
1628668,21
1629300,18
1629920,20
1630548,17
1631172,22
1631800,20
1632428,18
1633048,15
1633676,11
1634300,10
1634928,11
1635556,10
1636180,16
1636812,27
1637440,35
1638064,43
1638696,26
1639316,33
1639940,24
1640568,19
1641184,15
1641812,15
1642432,19
1643052,22
1643680,16
1644300,15
1644928,15
1645552,21
1646172,24
1646804,24
1647424,19
1648052,17
1648680,14
1649296,16
1649924,19
1650544,23
1651172,21
1651800,27
1652420,29
1653052,24
1653672,12
1654296,11
1654924,11
1655544,13
1656172,31
1656796,44
1657416,37
1658048,36
1658664,35
1659292,29
1659920,19
1660536,12
1661164,15
1661788,19
1662416,26
1663044,36
1663664,35
1664292,37
1664916,31
1665540,25
1666168,24
1666784,17
1667412,15
1668036,29
1668656,26
1669284,10
1669900,15
1670528,29
1671152,40
1671776,48
1672404,39
1673024,34
1673656,33
1674284,16
1674900,55
1675532,79
1676152,53
1676784,13
1677412,22
1678032,33
1678660,46
1679284,35
1679908,14
1680536,14
1681152,29
1681780,37
1682404,19
1683024,22
1683652,34
1684272,17
1684900,17
1685528,28
1686144,53
1686772,41
1687396,24
1688024,22
1688652,30
1689272,17
1689900,20
1690520,26
1691144,44
1691772,40
1692392,21
1693020,14
1693640,64
1694264,76
1694892,38
1695512,26
1696140,10
1696764,10
1697384,11
1698012,14
1698636,20
1699264,16
1699892,14
1700508,11
1701140,21
1701760,43
1702388,51
1703020,32
1703640,19
1704268,18
1704892,19
1705512,12
1706144,23
1706760,17
1707388,13
1708012,15
1708636,23
1709264,16
1709888,16
1710516,59
1711148,65
1711768,33
1712396,11
1713020,16
1713652,18
1714280,21
1714896,21
1715528,19
1716152,14
1716772,26
1717404,28
1718024,11
1718652,16
1719276,21
1719900,13
1720532,17
1721152,37
1721784,55
1722412,52
1723032,47
1723660,43
1724284,28
1724912,35
1725540,24
1726160,11
1726788,18
1727412,25
1728036,28
1728664,28
1729280,30
1729908,33
1730532,31
1731156,31
1731784,28
1732400,26
1733032,13
1733660,30
1734280,24
1734908,11
1735532,11
1736164,14
1736792,10
1737408,27
1738036,17
1738660,35
1739284,48
1739916,58
1740536,46
1741164,24
1741788,18
1742412,13
1743040,29
1743656,32
1744284,35
1744912,41
1745536,35
1746164,17
1746788,17
1747416,17
1748044,22
1748664,20
1749292,15
1749916,16
1750540,19
1751168,39
1751784,62
1752416,63
1753040,40
1753664,21
1754292,24
1754912,30
1755540,16
1756168,15
1756792,26
1757420,40
1758044,40
1758676,14
1759308,46
1759928,31
1760560,14
1761180,10
1761804,25
1762432,38
1763056,45
1763684,30
1764308,25
1764932,12
1765560,16
1766176,13
1766804,15
1767432,31
1768056,41
1768684,40
1769304,29
1769936,12
1770564,10
1771184,12
1771812,27
1772436,46
1773060,47
1773692,19
1774312,13
1774940,15
1775564,12
1776188,10
1776816,10
1777440,13
1778068,29
1778696,42
1779320,32
1779948,21
1780572,13
1781204,14
1781832,13
1782448,14
1783076,14
1783700,14
1784328,22
1784956,28
1785576,27
1786208,15
1786828,11
1787456,27
1788084,34
1788704,41
1789332,38
1789964,34
1790584,29
1791212,23
1791840,17
1792468,11
1793100,16
1793720,23
1794348,27
1794972,28
1795592,28
1796224,38
1796840,45
1797472,48
1798092,40
1798716,23
1799348,13
1799968,19
1800596,12
1801228,10
1801848,16
1802476,16
1803100,12
1803728,12
1804356,40
1804976,64
1805604,87
1806224,98
1806852,73
1807484,42
1808104,22
1808732,10
1809352,19
1809976,26
1810604,26
1811224,35
1811852,19
1812476,11
1813100,12
1813728,23
1814352,31
1814980,22
1815612,26
1816232,36
1816860,30
1817484,12
1818116,18
1818744,17
1819360,13
1819988,31
1820612,53
1821236,42
1821868,33
1822488,29
1823116,24
1823740,30
1824368,28
1824996,18
1825620,12
1826248,14
1826876,18
1827496,18
1828124,23
1828748,31
1829380,35
1830008,26
1830628,25
1831256,31
1831880,16
1832504,19
1833132,15
1833752,53
1834380,43
1835004,21
1835632,65
1836260,54
1836888,12
1837516,11
1838144,28
1838768,58
1839396,75
1840020,50
1840644,24
1841276,22
1841896,35
1842528,32
1843152,11
1843776,28
1844404,14
1845020,15
1845652,11
1846280,11
1846896,29
1847524,35
1848148,23
1848780,16
1849408,15
1850024,14
1850652,11
1851276,13
1851908,15
1852536,11
1853156,33
1853784,43
1854408,43
1855028,45
1855660,40
1856280,27
1856908,20
1857532,13
1858152,13
1858784,12
1859408,20
1860036,19
1860664,16
1861280,14
1861912,11
1862536,19
1863164,31
1863796,34
1864416,29
1865044,33
1865668,30
1866292,21
1866920,16
1867536,21
1868164,18
1868788,26
1869412,29
1870044,26
1870668,46
1871296,52
1871924,42
1872544,30
1873172,19
1873796,18
1874428,15
1875056,16
1875676,15
1876304,13
1876928,11
1877552,18
1878184,33
1878800,26
1879428,33
1880052,48
1880676,37
1881308,14
1881932,13
1882560,18
1883192,35
1883812,29
1884440,19
1885064,11
1885692,36
1886320,65
1886944,65
1887572,54
1888196,61
1888820,75
1889452,57
1890072,42
1890700,31
1891324,24
1891952,14
1892580,13
1893204,41
1893836,79
1894468,102
1895140,58
1895764,12
1896388,18
1897012,25
1897640,21
1898264,41
1898892,20
1899516,31
1900144,32
1900772,38
1901400,47
1902028,44
1902660,32
1903280,25
1903912,21
1904536,28
1905160,47
1905788,27
1906408,15
1907036,15
1907664,15
1908288,14
1908916,10
1909536,10
1910168,12
1910796,14
1911416,19
1912048,18
1912672,40
1913300,41
1913932,22
1914552,29
1915184,22
1915808,18
1916432,16
1917064,10
1917680,12
1918308,13
1918936,10
1919560,12
1920192,14
1920808,21
1921436,42
1922064,52
1922684,50
1923312,48
1923936,39
1924564,25
1925196,15
1925816,24
1926444,34
1927064,17
1927688,14
1928316,10
1928936,10
1929564,16
1930188,21
1930812,29
1931444,22
1932064,14
1932692,15
1933324,14
1933944,10
1934572,13
1935196,23
1935828,16
1936460,19
1937080,43
1937708,54
1938332,49
1938956,39
1939588,18
1940208,21
1940836,16
1941460,36
1942084,47
1942716,27
1943336,12
1943964,29
1944596,34
1945216,36
1945848,32
1946468,25
1947100,24
1947728,25
1948344,16
1948976,18
1949596,35
1950220,17
1950852,15
1951472,25
1952100,25
1952724,22
1953348,27
1953976,30
1954600,36
1955228,43
1955860,36
1956480,24
1957108,17
1957732,14
1958364,13
1958992,13
1959616,29
1960244,35
1960868,34
1961492,33
1962124,20
1962744,14
1963372,17
1964000,37
1964624,36
1965252,16
1965872,33
1966504,44
1967132,26
1967752,11
1968380,11
1969004,13
1969632,15
1970264,13
1970880,12
1971508,27
1972132,67
1972756,54
1973384,19
1974008,25
1974636,26
1975260,17
1975884,34
1976516,56
1977136,41
1977764,15
1978392,12
1979016,15
1979644,10
1980268,15
1980900,15
1981528,12
1982144,20
1982776,15
1983400,17
1984024,11
1984652,12
1985272,16
1985900,10
1986524,10
1987148,10
1987776,12
1988400,18
1989028,41
1989660,78
1990280,86
1990908,53
1991532,27
1992164,12
1992792,14
1993416,32
1994044,33
1994668,26
1995292,21
1995924,22
1996544,20
1997176,33
1997796,43
1998420,40
1999052,26
1999672,28
2000300,25
2000932,50
2001552,57
2002180,45
2002804,30
2003432,31
2004064,40
2004680,40
2005308,33
2005932,21
2006556,19
2007188,22
2007808,23
2008436,13
2009060,17
2009684,31
2010312,38
2010928,24
2011556,12
2012188,10
2012808,31
2013436,30
2014060,19
2014688,15
2015320,14
2015940,18
2016568,17
2017192,13
2017816,14
2018444,14
2019064,16
2019692,10
2020316,14
2020940,30
2021572,30
2022192,42
2022824,39
2023452,28
2024072,29
2024700,21
2025324,11
2025956,26
2026584,34
2027200,27
2027832,29
2028456,23
2029080,14
2029708,11
2030328,12
2030956,17
2031584,15
2032208,15
2032836,14
2033456,12
2034084,10
2034716,10
2035336,13
2035964,11
2036588,35
2037220,35
2037852,13
2038472,11
2039100,17
2039728,21
2040352,23
2040980,46
2041600,66
2042228,49
2042852,24
2043480,11
2044108,19
2044728,24
2045360,18
2045988,16
2046608,17
2047240,32
2047864,35
2048496,32
2049124,53
2049740,38
2050368,11
2050992,20
2051612,31
2052240,27
2052860,21
2053488,39
2054112,56
2054736,52
2055364,33
2055984,31
2056612,32
2057240,27
2057856,14
2058484,19
2059108,17
2059736,12
2060364,10
2060984,15
2061612,11
2062232,20
2062856,45
2063484,45
2064104,19
2064732,13
2065352,15
2065976,15
2066604,14
2067224,11
2067852,10
2068472,11
2069096,20
2069724,37
2070348,46
2070976,46
2071604,41
2072224,40
2072852,27
2073476,19
2074104,20
2074736,19
2075352,12
2075980,21
2076604,40
2077228,29
2077856,22
2078476,18
2079104,16
2079728,22
2080352,30
2080980,35
2081600,22
2082228,21
2082856,14
2083472,14
2084100,11
2084724,11
2085352,22
2085980,23
2086600,23
2087228,29
2087852,28
2088472,35
2089104,39
2089720,39
2090348,36
2090968,27
2091592,14
2092220,16
2092840,10
2093468,10
2094096,10
2094712,18
2095340,29
2095964,20
2096596,17
2097224,16
2097840,14
2098472,13
2099092,13
2099720,16
2100348,10
2100968,13
2101596,18
2102220,13
2102840,13
2103472,27
2104088,26
2104716,29
2105340,20
2105968,19
2106596,27
2107220,31
2107848,25
2108476,12
2109096,25
2109724,41
2110348,32
2110980,29
2111608,24
2112224,13
2112856,16
2113476,28
2114100,36
2114728,37
2115352,17
2115980,17
2116604,20
2117232,18
2117860,10
2118484,10
2119112,10
2119744,19
2120360,46
2120988,51
2121612,54
2122240,53
2122868,35
2123488,25
2124116,21
2124740,16
2125364,11
2125996,21
2126616,27
2127244,18
2127868,20
2128496,33
2129124,49
2129748,44
2130380,33
2131008,26
2131624,18
2132252,14
2132876,17
2133504,16
2134136,16
2134752,18
2135380,24
2136004,27
2136628,28
2137256,40
2137872,38
2138504,27
2139124,23
2139748,13
2140380,13
2141004,21
2141632,27
2142260,10
2142880,13
2143508,18
2144132,28
2144764,29
2145392,23
2146008,31
2146636,26
2147260,14
2147884,15
2148512,16
2149128,15
2149760,15
2150384,11
2151008,19
2151636,24
2152260,22
2152888,23
2153520,28
2154136,32
2154764,36
2155388,33
2156020,26
2156648,29
2157264,17
2157896,17
2158520,31
2159144,11
2159772,12
2160392,15
2161020,25
2161644,40
2162268,40
2162896,36
2163512,25
2164144,28
2164772,30
2165392,29
2166020,24
2166644,13
2167272,18
2167904,26
2168524,31
2169152,36
2169776,34
2170400,56
2171028,66
2171648,62
2172276,42
2172900,27
2173524,17
2174152,15
2174772,18
2175400,24
2176028,20
2176644,11
2177272,12
2177896,11
2178524,35
2179156,51
2179776,37
2180404,16
2181028,13
2181652,15
2182280,16
2182904,17
2183532,18
2184156,13
2184780,12
2185408,14
2186032,17
2186660,24
2187292,23
2187912,21
2188540,41
2189168,57
2189796,54
2190424,34
2191048,25
2191676,16
2192300,16
2192924,26
2193556,34
2194176,26
2194804,13
2195428,10
2196052,11
2196684,19
2197304,21
2197932,19
2198564,16
2199184,27
2199816,26
2200440,13
2201068,11
2201700,13
2202320,17
2202948,15
2203572,22
2204196,23
2204824,39
2205440,54
2206072,46
2206696,42
2207320,35
2207952,21
2208568,15
2209196,13
2209828,10
2210448,11
2211076,13
2211704,35
2212332,48
2212960,46
2213584,39
2214212,27
2214836,22
2215460,15
2216092,14
2216712,14
2217340,11
2217964,11
2218588,10
2219216,11
2219840,14
2220468,11
2221100,12
2221720,35
2222348,56
2222976,60
2223604,40
2224236,16
2224856,25
2225484,13
2226108,45
2226732,36
2227364,14
2227984,27
2228612,40
2229236,30
2229860,12
2230492,15
2231116,13
2231744,14
2232376,13
2232996,14
2233624,18
2234248,14
2234876,11
2235508,14
2236128,24
2236760,12
2237384,35
2238008,67
2238640,74
2239256,33
2239888,15
2240520,15
2241136,15
2241764,10
2242388,15
2243020,27
2243648,29
2244264,25
2244896,19
2245520,24
2246148,35
2246780,22
2247400,16
2248028,18
2248652,30
2249276,44
2249908,34
2250528,15
2251156,22
2251788,15
2252408,26
2253036,31
2253660,12
2254288,12
2254920,24
2255536,33
2256164,41
2256788,31
2257412,17
2258044,14
2258664,13
2259292,16
2259916,21
2260536,19
2261168,11
2261784,12
2262412,15
2263036,24
2263664,38
2264292,46
2264916,45
2265548,27
2266176,14
2266800,12
2267428,25
2268052,45
2268676,49
2269308,32
2269928,25
2270556,40
2271180,48
2271808,49
2272436,40
2273056,31
2273684,18
2274316,14
2274936,12
2275564,10
2276188,14
2276820,27
2277448,35
2278068,33
2278696,25
2279320,31
2279944,45
2280572,60
2281192,48
2281820,27
2282444,19
2283068,14
2283700,26
2284320,43
2284948,53
2285580,52
2286200,35
2286828,48
2287452,60
2288084,53
2288712,38
2289336,21
2289964,14
2290588,18
2291212,15
2291844,10
2292464,11
2293096,14
2293720,18
2294344,17
2294972,15
2295592,20
2296220,25
2296852,16
2297472,27
2298100,47
2298724,45
2299356,25
2299984,14
2300608,13
2301236,15
2301864,26
2302488,35
2303116,33
2303736,40
2304368,43
2304988,42
2305612,61
2306240,54
2306864,32
2307492,14
2308120,22
2308744,23
2309372,21
2309996,23
2310624,14
2311256,15
2311872,19
2312500,13
2313124,12
2313748,23
2314380,12
2315000,17
2315628,19
2316252,15
2316876,18
2317508,14
2318128,11
2318756,13
2319388,14
2320008,13
2320636,15
2321260,13
2321888,19
2322520,24
2323136,32
2323768,30
2324388,15
2325012,11
2325644,25
2326264,35
2326892,20
2327516,12
2328140,16
2328772,18
2329392,33
2330024,34
2330652,27
2331272,13
2331900,14
2332524,14
2333156,16
2333788,26
2334408,16
2335036,13
2335660,18
2336288,12
2336916,18
2337536,25
2338164,39
2338788,47
2339412,42
2340044,28
2340664,21
2341292,15
2341924,12
2342544,14
2343172,15
2343796,13
2344428,10
2345060,36
2345680,47
2346308,27
2346932,11
2347556,17
2348188,13
2348808,45
2349436,50
2350060,24
2350688,20
2351316,13
2351944,38
2352576,61
2353204,66
2353824,58
2354456,58
2355080,48
2355712,29
2356340,22
2356960,19
2357588,16
2358212,11
2358836,25
2359468,34
2360088,32
2360716,16
2361340,24
2361968,33
2362596,11
2363220,33
2363852,37
2364484,22
2365104,18
2365736,14
2366360,13
2366984,11
2367612,10
2368232,16
2368860,22
2369484,13
2370108,30
2370740,66
2371360,78
2371988,64
2372620,38
2373240,20
2373868,15
2374492,16
2375124,17
2375756,10
2376376,15
2377004,11
2377628,16
2378252,13
2378880,25
2379504,58
2380136,61
2380760,48
2381384,47
2382012,30
2382632,20
2383260,25
2383892,34
2384512,45
2385140,45
2385764,38
2386396,24
2387028,26
2387648,28
2388276,40
2388900,32
2389524,18
2390156,14
2390776,15
2391408,17
2392032,11
2392656,9
2393232,12
2393860,19
2394492,26
2395116,31
2395740,24
2396372,15
2396996,13
2397628,14
2398256,21
2398876,31
2399508,21
2400132,10
2400760,12
2401392,11
2402008,11
2402640,11
2403264,17
2403888,27
2404516,36
2405136,29
2405764,28
2406388,42
2407016,30
2407644,15
2408268,14
2408896,10
2409528,10
2410144,11
2410772,30
2411400,31
2412028,11
2412660,22
2413280,17
2413908,13
2414536,19
2415160,34
2415788,30
2416408,18
2417036,11
2417660,10
2418288,15
2418916,13
2419540,11
2420172,47
2420800,68
2421424,55
2422052,29
2422676,12
2423304,17
2423932,23
2424552,14
2425180,21
2425808,35
2426432,40
2427060,14
2427680,10
2428308,12
2428940,20
2429560,32
2430192,38
2430816,21
2431448,14
2432076,14
2432696,15
2433324,10
2433948,12
2434572,10
2435200,12
2435824,20
2436452,33
2437080,43
2437704,39
2438332,27
2438952,14
2439580,15
2440212,19
2440832,19
2441460,13
2442084,22
2442716,15
2443348,22
2443968,34
2444600,37
2445224,25
2445848,15
2446476,27
2447096,21
2447728,21
2448352,51
2448976,61
2449604,42
2450224,17
2450856,17
2451484,27
2452104,18
2452736,18
2453360,15
2453988,26
2454620,38
2455240,42
2455872,35
2456496,25
2457120,15
2457752,18
2458368,28
2458996,21
2459620,20
2460244,13
2460872,12
2461488,12
2462116,19
2462748,15
2463368,21
2463996,35
2464620,32
2465252,22
2465880,18
2466496,29
2467124,33
2467748,21
2468372,11
2469004,10
2469624,13
2470252,24
2470876,31
2471500,31
2472132,29
2472752,33
2473380,39
2474012,18
2474632,25
2475260,27
2475884,41
2476516,47
2477148,14
2477768,18
2478396,16
2479020,23
2479644,31
2480276,19
2480896,15
2481524,21
2482148,18
2482772,15
2483400,23
2484024,17
2484652,12
2485280,18
2485896,35
2486528,38
2487152,24
2487780,11
2488412,12
2489032,25
2489660,15
2490284,13
2490908,16
2491536,16
2492156,11
2492784,36
2493408,28
2494032,23
2494664,12
2495280,14
2495912,17
2496540,19
2497160,19
2497788,13
2498412,15
2499044,16
2499672,13
2500292,11
2500920,12
2501544,13
2502168,13
2502796,10
2503416,12
2504044,12
2504668,11
2505292,27
2505924,26
2506544,27
2507172,24
2507804,20
2508424,15
2509056,10
2509676,15
2510308,17
2510936,30
2511560,34
2512188,25
2512812,25
2513436,11
2514068,16
2514688,15
2515316,14
2515940,16
2516568,14
2517196,10
2517816,11
2518448,17
2519076,18
2519696,29
2520324,38
2520948,41
2521580,35
2522212,33
2522832,33
2523464,23
2524088,17
2524712,15
2525340,11
2525960,14
2526592,26
2527216,39
2527840,43
2528472,41
2529096,21
2529724,15
2530356,38
2530976,51
2531608,24
2532232,15
2532860,14
2533492,11
2534112,17
2534744,37
2535368,43
2535992,14
2536624,43
2537240,55
2537872,49
2538504,39
2539120,18
2539752,17
2540376,16
2541008,16
2541636,10
2542256,15
2542884,11
2543508,31
2544136,24
2544764,17
2545384,13
2546016,14
2546640,14
2547264,24
2547892,24
2548512,18
2549144,16
2549772,13
2550392,12
2551024,15
2551648,10
2552280,15
2552908,28
2553528,19
2554160,16
2554784,15
2555408,20
2556040,17
2556660,16
2557292,31
2557916,43
2558540,45
2559176,35
2559796,11
2560428,20
2561056,34
2561672,33
2562300,18
2562924,11
2563552,13
2564180,12
2564796,17
2565428,14
2566052,17
2566672,18
2567300,23
2567920,22
2568548,16
2569172,12
2569792,13
2570424,13
2571040,10
2571668,17
2572296,22
2572916,19
2573544,15
2574164,14
2574796,12
2575424,15
2576040,16
2576668,13
2577292,14
2577920,10
2578552,11
2579168,17
2579796,15
2580420,17
2581044,17
2581676,16
2582296,19
2582924,24
2583548,36
2584176,25
2584804,11
2585428,11
2586056,18
2586688,23
2587304,29
2587932,17
2588556,16
2589188,15
2589816,14
2590432,14
2591064,14
2591688,13
2592312,20
2592940,20
2593560,15
2594188,18
2594812,26
2595440,25
2596068,27
2596692,19
2597320,21
2597952,14
2598572,18
2599200,27
2599824,27
2600452,19
2601084,10
2601704,13
2602332,15
2602956,18
2603580,21
2604208,28
2604824,27
2605452,19
2606076,18
2606704,21
2607332,15
2607956,12
2608588,10
2609220,10
2609840,16
2610468,16
2611092,10
2611720,12
2612348,10
2612968,13
2613596,18
2614220,20
2614844,24
2615476,19
2616096,16
2616724,15
2617356,12
2617976,34
2618604,32
2619228,20
2619860,10
2620488,11
2621112,19
2621744,17
2622364,25
2622988,29
2623616,26
2624240,33
2624868,31
2625488,22
2626108,16
2626740,10
2627356,21
2627988,19
2628616,11
2629232,12
2629860,28
2630484,37
2631112,17
2631740,13
2632360,16
2632988,22
2633608,22
2634236,11
2634868,25
2635488,39
2636116,18
2636740,25
2637364,34
2637996,36
2638616,39
2639244,37
2639868,33
2640496,33
2641124,19
2641748,10
2642376,18
2643004,16
2643624,11
2644252,14
2644872,18
2645500,29
2646132,26
2646752,27
2647380,20
2648004,15
2648624,13
2649256,13
2649872,11
2650500,10
2651124,10
2651748,11
2652376,10
2653000,10
2653628,17
2654256,21
2654880,27
2655508,20
2656132,17
2656760,19
2657388,14
2658008,14
2658636,22
2659260,27
2659884,17
2660512,14
2661128,18
2661756,31
2662380,24
2663008,17
2663636,21
2664256,22
2664884,17
2665512,14
2666136,37
2666764,41
2667388,40
2668016,24
2668644,10
2669264,13
2669892,10
2670516,27
2671136,31
2671768,33
2672384,31
2673016,23
2673636,16
2674260,14
2674888,11
2675504,10
2676136,12
2676764,10
2677384,10
2678012,13
2678636,16
2679264,17
2679896,19
2680512,16
2681140,15
2681764,17
2682388,19
2683016,16
2683632,20
2684264,12
2684888,19
2685508,17
2686140,16
2686760,34
2687388,53
2688020,58
2688636,43
2689264,24
2689888,15
2690516,35
2691144,30
2691768,11
2692396,22
2693020,15
2693644,10
2694272,10
2694892,12
2695520,17
2696144,22
2696764,24
2697396,22
2698016,16
2698644,13
2699272,14
2699896,17
2700524,15
2701148,11
2701776,13
2702408,12
2703024,14
2703652,19
2704276,32
2704900,39
2705528,26
2706152,23
2706780,22
2707404,29
2708028,25
2708656,17
2709272,10
2709904,13
2710532,17
2711152,20
2711780,15
2712404,19
2713036,27
2713664,39
2714280,50
2714912,37
2715532,19
2716164,17
2716792,12
2717408,27
2718040,37
2718664,12
2719288,11
2719916,14
2720536,19
2721164,29
2721788,32
2722416,19
2723044,28
2723668,23
2724296,50
2724924,55
2725544,30
2726172,13
2726796,28
2727424,28
2728052,13
2728672,13
2729300,21
2729924,20
2730544,16
2731176,14
2731792,18
2732424,28
2733048,20
2733672,17
2734300,14
2734924,34
2735552,33
2736184,11
2736800,22
2737428,16
2738052,11
2738684,21
2739312,33
2739928,37
2740560,26
2741180,34
2741808,15
2742436,28
2743056,49
2743684,28
2744308,11
2744932,14
2745564,11
2746188,15
2746816,18
2747444,15
2748064,15
2748692,22
2749316,25
2749948,27
2750576,17
2751200,12
2751828,11
2752456,17
2753076,12
2753708,11
2754328,17
2754956,31
2755580,34
2756208,21
2756836,14
2757460,17
2758092,10
2758720,13
2759340,18
2759968,19
2760592,14
2761220,13
2761852,23
2762472,24
2763100,24
2763728,28
2764352,20
2764980,17
2765600,13
2766228,11
2766856,15
2767472,19
2768104,16
2768724,10
2769356,18
2769984,39
2770600,39
2771232,24
2771852,19
2772484,22
2773112,22
2773732,16
2774360,14
2774988,22
2775612,24
2776240,18
2776860,35
2777488,32
2778120,11
2778736,21
2779364,29
2779988,26
2780620,19
2781252,16
2781872,17
2782500,16
2783128,13
2783752,15
2784384,24
2785000,31
2785628,35
2786252,30
2786876,21
2787504,11
2788128,14
2788756,19
2789388,19
2790008,15
2790636,24
2791260,20
2791892,14
2792520,14
2793140,11
2793768,11
2794392,12
2795016,10
2795644,10
2796264,19
2796892,30
2797516,18
2798140,13
2798772,21
2799392,17
2800020,14
2800652,12
2801272,11
2801900,11
2802524,17
2803156,11
2803784,11
2804408,14
2805036,14
2805660,19
2806284,33
2806916,38
2807536,23
2808164,11
2808788,17
2809412,36
2810044,38
2810664,20
2811292,14
2811924,14
2812544,11
2813172,14
2813800,21
2814428,23
2815060,20
2815680,19
2816312,19
2816932,24
2817556,27
2818184,29
2818808,28
2819436,27
2820060,24
2820684,33
2821312,32
2821928,21
2822556,13
2823188,14
2823808,19
2824436,23
2825060,17
2825688,16
2826320,19
2826936,21
2827564,17
2828188,10
2828812,20
2829440,30
2830056,21
2830684,14
2831308,13
2831932,19
2832564,19
2833184,11
2833812,16
2834444,26
2835064,22
2835692,11
2836316,25
2836948,31
2837576,37
2838200,25
2838828,13
2839452,14
2840076,16
2840708,18
2841328,20
2841956,13
2842580,13
2843204,17
2843832,19
2844456,28
2845084,34
2845716,36
2846336,34
2846968,45
2847588,36
2848220,19
2848848,16
2849472,21
2850100,35
2850724,29
2851348,28
2851976,26
2852600,23
2853228,17
2853852,11
2854476,11
2855108,32
2855728,50
2856356,40
2856988,36
2857608,37
2858236,27
2858860,21
2859492,10
2860124,13
2860744,14
2861376,23
2862000,31
2862624,30
2863256,46
2863872,37
2864504,20
2865128,15
2865752,17
2866384,11
2867000,14
2867632,11
2868264,15
2868880,27
2869508,33
2870132,30
2870760,40
2871388,44
2872008,42
2872636,29
2873260,25
2873884,19
2874512,15
2875132,10
2875760,16
2876384,21
2877008,27
2877636,32
2878256,35
2878884,36
2879516,46
2880136,40
2880764,16
2881384,30
2882016,55
2882644,27
2883260,11
2883892,21
2884512,40
2885136,43
2885764,40
2886384,39
2887012,57
2887636,63
2888260,59
2888888,37
2889512,24
2890140,28
2890772,30
2891392,21
2892020,9
2892592,20
2893220,27
2893852,28
2894472,27
2895100,23
2895724,20
2896352,19
2896984,17
2897600,22
2898228,23
2898852,25
2899476,16
2900104,10
2900728,14
2901356,11
2901980,15
2902604,23
2903236,36
2903856,41
2904484,33
2905116,27
2905736,33
2906364,32
2906988,17
2907620,13
2908248,22
2908872,22
2909500,20
2910124,13
2910748,10
2911376,12
2912000,13
2912628,17
2913252,46
2913876,42
2914508,15
2915128,21
2915756,17
2916388,15
2917008,19
2917636,25
2918264,27
2918892,25
2919520,24
2920144,39
2920772,39
2921396,31
2922020,22
2922648,17
2923272,17
2923900,17
2924524,11
2925148,10
2925780,17
2926404,21
2927032,16
2927664,15
2928280,16
2928912,15
2929536,15
2930164,20
2930796,22
2931416,21
2932044,17
2932668,13
2933292,11
2933924,11
2934544,13
2935172,19
2935800,19
2936424,15
2937052,16
2937676,22
2938308,23
2938936,18
2939560,28
2940188,26
2940816,37
2941444,33
2942076,11
2942696,42
2943328,46
2943952,38
2944576,29
2945208,14
2945824,16
2946452,11
2947084,14
2947704,17
2948332,23
2948960,17
2949588,15
2950216,16
2950840,13
2951468,22
2952092,35
2952716,45
2953344,42
2953968,38
2954596,34
2955220,25
2955844,15
2956476,16
2957096,14
2957724,12
2958356,13
2958976,14
2959604,28
2960228,35
2960860,17
2961488,10
2962104,10
2962736,12
2963360,19
2963980,17
2964612,18
2965232,27
2965860,35
2966484,23
2967108,21
2967736,16
2968360,13
2968988,13
2969620,32
2970236,57
2970868,76
2971492,67
2972120,39
2972748,26
2973368,29
2973996,22
2974620,13
2975244,12
2975876,10
2976496,11
2977124,13
2977748,25
2978372,35
2979004,35
2979624,32
2980252,35
2980884,27
2981504,14
2982132,24
2982756,33
2983388,26
2984016,11
2984640,13
2985268,29
2985892,45
2986516,51
2987148,51
2987768,54
2988396,43
2989020,28
2989644,15
2990276,14
2990896,16
2991524,11
2992156,12
2992776,25
2993404,35
2994028,35
2994660,27
2995292,22
2995912,24
2996540,29
2997164,25
2997788,15
2998420,13
2999040,14
2999668,13
3000296,17
3000920,14
3001548,11
3002168,17
3002796,23
3003428,32
3004048,39
3004676,44
3005304,29
3005932,23
3006564,17
3007184,19
3007816,15
3008440,11
3009064,13
3009692,21
3010312,30
3010944,25
3011568,28
3012192,40
3012820,47
3013444,49
3014076,34
3014704,18
3015328,17
3015960,36
3016584,46
3017212,30
3017844,15
3018464,11
3019092,17
3019720,33
3020344,37
3020976,42
3021592,38
3022224,28
3022852,32
3023472,38
3024104,27
3024728,13
3025356,17
3025988,26
3026608,24
3027236,17
3027860,19
3028488,25
3029116,18
3029736,16
3030368,15
3030992,16
3031620,14
3032248,14
3032872,17
3033504,11
3034132,15
3034752,15
3035384,13
3036008,20
3036636,22
3037268,24
3037888,34
3038520,36
3039144,35
3039768,33
3040400,34
3041016,28
3041648,17
3042272,11
3042896,23
3043524,38
3044144,53
3044772,29
3045404,14
3046024,11
3046656,13
3047280,15
3047908,15
3048540,18
3049160,17
3049788,21
3050412,20
3051040,15
3051668,11
3052288,12
3052916,15
3053540,25
3054168,37
3054796,39
3055416,18
3056048,13
3056676,14
3057296,17
3057924,11
3058552,20
3059180,17
3059812,17
3060432,14
3061064,13
3061688,27
3062312,36
3062944,40
3063564,36
3064192,42
3064820,33
3065444,17
3066076,13
3066700,33
3067332,40
3067964,32
3068584,25
3069216,11
3069840,14
3070472,34
3071104,64
3071724,64
3072356,38
3072980,26
3073600,35
3074228,42
3074848,34
3075476,11
3076104,13
3076728,15
3077356,20
3077980,25
3078612,33
3079240,36
3079856,26
3080488,21
3081112,17
3081736,13
3082364,14
3082984,16
3083612,15
3084236,15
3084860,13
3085488,12
3086104,16
3086736,33
3087364,36
3087984,24
3088612,23
3089236,26
3089868,19
3090496,16
3091120,11
3091752,24
3092376,27
3093000,21
3093628,18
3094248,18
3094876,16
3095504,14
3096128,13
3096756,16
3097376,17
3098008,14
3098636,13
3099256,14
3099884,11
3100508,11
3101140,11
3101772,15
3102392,19
3103024,32
3103648,51
3104272,56
3104900,40
3105520,13
3106148,16
3106776,14
3107400,19
3108028,18
3108648,12
3109276,21
3109908,21
3110528,25
3111156,26
3111784,31
3112416,47
3113044,43
3113664,30
3114292,21
3114916,16
3115540,20
3116172,30
3116792,37
3117424,41
3118048,33
3118672,31
3119304,32
3119920,39
3120552,36
3121184,26
3121800,26
3122428,29
3123056,22
3123684,14
3124316,11
3124936,11
3125564,11
3126188,17
3126812,24
3127444,26
3128064,24
3128692,19
3129316,15
3129940,19
3130572,16
3131192,13
3131824,15
3132452,14
3133072,12
3133704,11
3134328,10
3134956,13
3135588,10
3136208,11
3136836,19
3137460,49
3138084,59
3138716,52
3139336,33
3139964,28
3140592,22
3141216,11
3141844,19
3142468,28
3143100,25
3143728,26
3144352,37
3144980,33
3145604,21
3146236,16
3146868,16
3147488,13
3148120,15
3148744,25
3149368,20
3150000,15
3150620,13
3151248,11
3151880,23
3152500,29
3153132,27
3153756,29
3154388,38
3155020,38
3155640,57
3156272,53
3156896,44
3157520,34
3158152,16
3158768,11
3159400,23
3160024,29
3160648,24
3161276,17
3161896,14
3162524,23
3163156,27
3163776,27
3164408,32
3165032,26
3165664,23
3166292,14
3166912,18
3167544,13
3168168,19
3168792,29
3169424,43
3170040,54
3170672,39
3171296,19
3171920,18
3172552,27
3173168,42
3173800,51
3174432,47
3175056,31
3175684,11
3176308,21
3176940,35
3177572,38
3178192,31
3178824,21
3179448,16
3180072,18
3180704,16
3181320,24
3181952,45
3182576,45
3183200,12
3183832,11
3184456,11
3185088,17
3185716,40
3186336,49
3186968,57
3187592,62
3188224,62
3188852,57
3189472,38
3190104,27
3190728,19
3191352,14
3191984,25
3192604,29
3193236,37
3193868,42
3194488,31
3195120,17
3195744,15
3196376,18
3197008,18
3197624,21
3198256,21
3198880,14
3199504,20
3200136,15
3200752,16
3201380,21
3202004,24
3202624,27
3203256,35
3203872,48
3204500,39
3205128,29
3205752,25
3206380,29
3207004,21
3207632,11
3208264,13
3208880,21
3209508,24
3210132,31
3210760,35
3211388,36
3212008,36
3212636,35
3213260,36
3213884,23
3214516,15
3215136,14
3215764,20
3216396,15
3217016,15
3217644,17
3218268,13
3218896,21
3219524,39
3220144,55
3220772,49
3221396,30
3222024,16
3222652,12
3223272,17
3223900,21
3224528,27
3225152,22
3225780,10
3226400,10
3227028,12
3227656,27
3228276,33
3228904,32
3229528,28
3230156,22
3230788,16
3231408,17
3232036,14
3232660,15
3233284,11
3233916,12
3234536,12
3235168,10
3235792,13
3236416,30
3237044,51
3237664,60
3238292,49
3238924,22
3239544,15
3240172,13
3240796,12
3241428,10
3242056,11
3242676,14
3243304,14
3243928,19
3244552,32
3245184,39
3245800,23
3246428,19
3247052,17
3247676,15
3248308,14
3248928,16
3249556,17
3250188,31
3250808,32
3251440,23
3252060,25
3252692,33
3253324,40
3253944,33
3254572,28
3255196,30
3255824,40
3256452,30
3257072,21
3257700,12
3258324,24
3258948,19
3259580,18
3260200,13
3260828,17
3261460,15
3262080,18
3262708,23
3263336,36
3263968,27
3264600,28
3265216,33
3265848,13
3266472,14
3267096,21
3267724,25
3268344,27
3268972,30
3269600,33
3270224,43
3270852,36
3271472,25
3272104,12
3272732,13
3273352,15
3273984,20
3274608,13
3275240,13
3275868,11
3276488,11
3277120,16
3277740,17
3278364,21
3278992,21
3279608,19
3280236,19
3280856,13
3281480,13
3282108,14
3282724,15
3283352,14
3283984,16
3284600,13
3285228,10
3285848,21
3286476,11
3287104,17
3287720,35
3288348,40
3288968,50
3289600,39
3290224,19
3290848,13
3291476,11
3292100,12
3292720,11
3293352,11
3293968,13
3294596,17
3295220,14
3295844,11
3296472,23
3297096,35
3297724,31
3298352,15
3298976,15
3299604,10
3300228,10
3300856,17
3301484,32
3302104,37
3302732,39
3303356,34
3303980,40
3304608,50
3305224,43
3305852,23
3306476,15
3307100,14
3307732,10
3308352,14
3308984,29
3309612,38
3310232,27
3310860,21
3311484,22
3312116,15
3312744,11
3313360,22
3313988,34
3314612,27
3315236,17
3315864,13
3316480,15
3317112,12
3317736,34
3318360,54
3318988,44
3319608,48
3320236,39
3320868,22
3321488,16
3322116,18
3322740,15
3323368,13
3324000,13
3324616,11
3325244,12
3325868,21
3326492,12
3327124,11
3327744,11
3328376,11
3328996,18
3329620,23
3330248,23
3330864,19
3331492,18
3332120,14
3332744,12
3333372,12
3333996,10
3334624,11
3335252,12
3335872,13
3336500,18
3337124,29
3337748,40
3338376,37
3338992,29
3339624,16
3340244,14
3340868,16
3341496,23
3342112,13
3342744,47
3343372,58
3343992,55
3344620,34
3345244,17
3345876,13
3346504,18
3347120,31
3347752,29
3348376,17
3349000,17
3349628,12
3350248,11
3350876,11
3351500,18
3352124,24
3352756,10
3353376,17
3354004,44
3354636,50
3355256,40
3355884,38
3356508,46
3357140,28
3357768,11
3358388,21
3359016,28
3359640,19
3360264,11
3360892,9
3361460,12
3362092,10
3362716,14
3363336,23
3363968,22
3364584,17
3365212,14
3365836,11
3366460,18
3367088,23
3367704,24
3368332,17
3368956,11
3369580,12
3370208,19
3370832,32
3371460,28
3372092,18
3372712,16
3373340,15
3373964,13
3374596,11
3375224,13
3375844,10
3376472,14
3377096,17
3377720,16
3378348,10
3378968,19
3379596,23
3380220,23
3380848,27
3381476,24
3382096,18
3382728,11
3383356,10
3383976,11
3384604,13
3385228,18
3385860,28
3386488,27
3387104,29
3387732,41
3388356,43
3388980,38
3389612,22
3390232,15
3390860,11
3391484,10
3392112,14
3392740,21
3393364,21
3393992,22
3394620,21
3395240,23
3395868,27
3396492,30
3397120,29
3397748,26
3398368,21
3399000,14
3399624,20
3400248,28
3400876,32
3401496,29
3402124,27
3402748,14
3403376,11
3404004,25
3404628,48
3405256,50
3405888,35
3406504,31
3407132,33
3407756,29
3408388,15
3409016,15
3409632,28
3410264,32
3410884,29
3411508,22
3412140,15
3412760,11
3413388,14
3414012,14
3414640,22
3415268,23
3415892,11
3416524,10
3417152,11
3417772,21
3418400,29
3419024,23
3419652,13
3420284,14
3420904,48
3421532,72
3422156,69
3422780,56
3423412,30
3424032,13
3424660,25
3425292,32
3425912,27
3426540,25
3427164,35
3427796,27
3428428,24
3429048,16
3429676,13
3430304,13
3430928,19
3431556,17
3432176,13
3432804,13
3433428,25
3434052,29
3434684,32
3435304,28
3435936,32
3436564,35
3437184,30
3437812,28
3438436,23
3439068,28
3439700,16
3440320,14
3440948,13
3441572,11
3442196,11
3442828,30
3443448,34
3444076,23
3444700,18
3445324,11
3445952,22
3446568,14
3447200,18
3447828,22
3448448,22
3449076,12
3449700,11
3450328,13
3450960,18
3451576,25
3452204,32
3452828,39
3453452,38
3454084,40
3454704,35
3455336,22
3455960,15
3456584,15
3457212,13
3457832,21
3458460,32
3459092,42
3459712,57
3460340,43
3460964,24
3461596,24
3462224,20
3462844,12
3463472,14
3464096,23
3464720,25
3465348,22
3465968,13
3466596,11
3467220,12
3467844,29
3468476,39
3469096,30
3469724,19
3470356,26
3470976,32
3471608,33
3472228,43
3472860,22
3473488,15
3474112,11
3474740,16
3475368,28
3475988,18
3476620,18
3477240,29
3477868,31
3478496,21
3479120,15
3479748,17
3480368,14
3480996,15
3481628,14
3482244,15
3482872,11
3483496,10
3484128,12
3484756,22
3485376,28
3486004,27
3486628,27
3487252,19
3487884,24
3488504,35
3489132,41
3489756,43
3490380,31
3491008,11
3491632,15
3492260,22
3492892,20
3493512,21
3494140,21
3494764,26
3495396,26
3496024,28
3496648,33
3497276,19
3497900,17
3498524,20
3499156,21
3499776,15
3500404,12
3501032,13
3501656,15
3502284,14
3502904,14
3503532,20
3504164,21
3504784,14
3505412,14
3506036,17
3506668,27
3507300,48
3507920,41
3508548,24
3509172,12
3509796,13
3510428,24
3511048,28
3511676,31
3512304,37
3512928,31
3513560,27
3514184,25
3514812,18
3515444,17
3516064,26
3516696,35
3517320,33
3517952,24
3518580,14
3519200,11
3519832,24
3520456,30
3521080,27
3521712,23
3522328,17
3522956,14
3523580,14
3524208,19
3524836,13
3525460,10
3526088,9
3526664,10
3527288,12
3527920,20
3528544,21
3529172,23
3529804,22
3530424,19
3531052,14
3531676,14
3532300,12
3532932,12
3533552,13
3534180,13
3534804,15
3535428,17
3536056,28
3536680,37
3537308,38
3537936,28
3538560,15
3539188,15
3539812,22
3540444,25
3541072,37
3541696,68
3542328,61
3542952,22
3543576,37
3544204,43
3544824,29
3545452,27
3546076,25
3546700,28
3547332,26
3547952,19
3548584,15
3549212,13
3549832,15
3550464,11
3551088,16
3551716,31
3552348,32
3552968,21
3553596,22
3554220,39
3554848,33
3555476,26
3556096,23
3556724,21
3557352,13
3557976,13
3558608,25
3559224,24
3559852,13
3560484,10
3561104,10
3561732,17
3562360,33
3562988,52
3563620,44
3564240,33
3564868,25
3565492,16
3566116,10
3566748,28
3567368,47
3567996,37
3568624,33
3569248,35
3569876,28
3570504,32
3571132,36
3571764,26
3572384,26
3573016,22
3573640,17
3574272,12
3574900,9
3575468,13
3576104,14
3576728,11
3577352,13
3577984,17
3578600,22
3579232,30
3579856,27
3580480,21
3581112,17
3581728,14
3582360,12
3582992,11
3583616,12
3584248,12
3584872,17
3585500,22
3586132,23
3586752,16
3587380,11
3588004,17
3588628,30
3589256,55
3589876,37
3590504,24
3591128,13
3591752,53
3592380,70
3593000,64
3593628,45
3594260,37
3594880,33
3595508,12
3596132,19
3596764,30
3597396,29
3598016,34
3598648,19
3599272,17
3599896,25
3600528,27
3601144,29
3601772,35
3602396,39
3603020,39
3603652,35
3604272,33
3604900,22
3605532,14
3606152,14
3606780,14
3607404,10
3608032,13
3608664,18
3609280,20
3609908,21
3610532,22
3611156,16
3611784,20
3612408,27
3613036,33
3613660,30
3614284,21
3614912,17
3615536,13
3616164,13
3616792,24
3617416,28
3618044,20
3618668,21
3619296,25
3619928,33
3620544,36
3621172,32
3621796,30
3622420,29
3623048,27
3623672,20
3624300,15
3624924,21
3625548,26
3626180,26
3626800,14
3627428,21
3628060,28
3628680,19
3629308,16
3629932,21
3630564,22
3631192,20
3631816,17
3632448,11
3633072,14
3633696,13
3634324,11
3634944,11
3635576,12
3636200,25
3636820,21
3637452,14
3638072,13
3638700,13
3639332,18
3639952,29
3640584,38
3641208,60
3641836,30
3642468,10
3643088,25
3643716,44
3644344,52
3644968,47
3645596,32
3646216,21
3646844,21
3647468,21
3648092,29
3648720,26
3649344,16
3649972,11
3650600,14
3651224,12
3651852,10
3652476,18
3653108,21
3653736,38
3654360,56
3654992,56
3655616,41
3656240,26
3656868,16
3657488,11
3658116,13
3658744,21
3659368,23
3659996,26
3660624,29
3661252,31
3661884,28
3662504,24
3663132,20
3663760,19
3664388,19
3665020,15
3665640,11
3666268,11
3666892,10
3667516,17
3668148,19
3668768,25
3669396,38
3670028,42
3670648,43
3671280,23
3671904,20
3672532,20
3673164,19
3673784,16
3674412,13
3675036,22
3675664,25
3676292,28
3676912,30
3677544,28
3678168,23
3678792,23
3679424,21
3680044,20
3680672,15
3681300,15
3681920,15
3682548,13
3683176,13
3683804,15
3684436,16
3685056,13
3685688,17
3686312,28
3686936,33
3687564,32
3688184,24
3688812,22
3689436,19
3690056,14
3690688,14
3691304,20
3691932,28
3692564,24
3693184,14
3693812,21
3694436,34
3695068,60
3695696,91
3696312,90
3696944,46
3697568,18
3698192,33
3698820,39
3699440,48
3700068,64
3700692,72
3701316,77
3701948,70
3702568,51
3703196,34
3703828,23
3704448,15
3705076,19
3705700,29
3706332,40
3706960,38
3707584,24
3708212,10
3708836,31
3709460,36
3710092,22
3710712,17
3711344,16
3711968,18
3712592,12
3713224,14
3713840,14
3714468,15
3715100,14
3715720,16
3716348,11
3716976,10
3717604,23
3718232,25
3718856,18
3719484,11
3720108,17
3720732,36
3721364,50
3721984,43
3722612,34
3723240,31
3723864,19
3724492,10
3725112,15
3725740,25
3726372,27
3726992,23
3727624,21
3728248,19
3728876,21
3729504,24
3730128,23
3730756,21
3731380,17
3732004,15
3732636,10
3733256,11
3733884,11
3734512,12
3735136,21
3735764,40
3736392,31
3737020,25
3737652,30
3738272,25
3738900,26
3739524,27
3740152,16
3740784,13
3741404,10
3742036,11
3742660,20
3743284,21
3743916,21
3744536,16
3745168,17
3745796,20
3746416,27
3747044,20
3747672,14
3748300,15
3748932,11
3749552,13
3750184,18
3750808,21
3751432,12
3752060,10
3752680,23
3753312,39
3753936,43
3754560,25
3755192,13
3755808,14
3756440,13
3757072,13
3757688,15
3758320,14
3758944,19
3759576,31
3760204,39
3760824,31
3761452,18
3762080,17
3762704,14
3763336,14
3763952,20
3764584,35
3765208,24
3765832,11
3766460,20
3767080,39
3767712,29
3768340,10
3768960,13
3769588,34
3770212,40
3770844,45
3771476,30
3772096,33
3772728,47
3773352,37
3773976,15
3774608,10
3775224,11
3775856,11
3776480,11
3777104,11
3777732,12
3778352,21
3778984,25
3779612,26
3780232,27
3780860,20
3781488,21
3782116,26
3782748,22
3783368,17
3784000,18
3784620,14
3785248,35
3785876,57
3786496,63
3787128,63
3787752,56
3788376,41
3789008,29
3789624,25
3790252,16
3790884,18
3791504,31
3792136,27
3792760,21
3793388,15
3794020,12
3794640,20
3795268,23
3795892,21
3796516,24
3797148,22
3797768,14
3798400,15
3799024,14
3799648,15
3800280,11
3800904,12
3801532,11
3802164,20
3802784,33
3803416,31
3804040,29
3804668,19
3805300,17
3805920,19
3806552,14
3807176,13
3807800,14
3808432,14
3809056,13
3809688,12
3810316,14
3810936,17
3811568,17
3812192,19
3812820,21
3813452,20
3814072,28
3814704,21
3815328,15
3815952,24
3816584,28
3817200,17
3817832,15
3818456,20
3819080,18
3819712,23
3820328,42
3820960,60
3821588,56
3822208,24
3822840,20
3823464,24
3824096,31
3824724,30
3825344,17
3825976,12
3826600,23
3827224,26
3827852,20
3828472,14
3829104,11
3829728,16
3830352,21
3830984,19
3831604,20
3832236,11
3832868,10
3833488,25
3834120,33
3834744,14
3835376,33
3836008,36
3836628,29
3837260,30
3837884,40
3838512,48
3839144,38
3839764,28
3840396,12
3841020,14
3841648,13
3842276,10
3842900,18
3843528,28
3844156,36
3844776,48
3845404,38
3846032,17
3846660,16
3847288,19
3847912,13
3848544,15
3849164,11
3849792,11
3850420,18
3851040,17
3851668,15
3852300,12
3852920,49
3853548,55
3854172,55
3854804,63
3855432,67
3856052,51
3856680,29
3857304,15
3857928,11
3858556,22
3859176,32
3859808,31
3860432,24
3861056,23
3861684,34
3862304,32
3862936,35
3863564,44
3864184,25
3864812,15
3865436,11
3866068,21
3866700,49
3867320,54
3867948,37
3868576,34
3869200,37
3869828,39
3870448,35
3871080,33
3871704,28
3872328,16
3872956,14
3873576,14
3874208,12
3874836,14
3875456,11
3876084,11
3876708,21
3877340,27
3877972,26
3878592,30
3879220,37
3879848,38
3880472,24
3881100,14
3881720,15
3882348,17
3882972,16
3883600,11
3884228,10
3884848,25
3885476,40
3886108,56
3886728,61
3887360,48
3887984,27
3888616,17
3889244,15
3889864,14
3890496,11
3891120,11
3891744,12
3892376,17
3892992,25
3893624,21
3894248,20
3894872,29
3895500,37
3896120,41
3896748,33
3897380,22
3898000,17
3898628,13
3899252,18
3899884,20
3900516,19
3901136,24
3901768,33
3902392,33
3903016,20
3903648,14
3904264,19
3904896,31
3905520,35
3906144,30
3906776,15
3907396,17
3908028,25
3908660,26
3909280,24
3909908,10
3910536,10
3911164,16
3911796,34
3912416,47
3913044,26
3913668,25
3914296,47
3914924,46
3915544,27
3916176,11
3916804,14
3917424,22
3918052,21
3918680,11
3919308,14
3919940,31
3920560,46
3921192,49
3921816,61
3922440,63
3923068,48
3923688,25
3924316,15
3924944,27
3925568,34
3926200,26
3926816,22
3927448,16
3928076,16
3928696,21
3929328,26
3929952,26
3930584,21
3931212,16
3931832,14
3932464,11
3933088,11
3933712,11
3934340,16
3934960,19
3935588,12
3936216,30
3936840,66
3937468,72
3938088,37
3938716,27
3939348,38
3939968,33
3940596,27
3941220,14
3941852,20
3942484,32
3943104,26
3943732,29
3944356,40
3944980,48
3945608,22
3946224,14
3946856,23
3947480,29
3948104,21
3948732,20
3949352,18
3949984,15
3950612,12
3951232,17
3951864,19
3952488,37
3953116,46
3953748,50
3954368,47
3954996,26
3955624,15
3956248,17
3956876,16
3957496,10
3958128,17
3958752,18
3959376,16
3960004,14
3960624,14
3961256,21
3961884,28
3962504,26
3963136,25
3963760,29
3964388,14
3965020,22
3965640,24
3966268,15
3966896,15
3967520,14
3968152,19
3968768,31
3969396,37
3970020,41
3970644,39
3971276,33
3971896,27
3972524,14
3973156,18
3973776,15
3974404,27
3975028,34
3975660,24
3976288,16
3976912,11
3977540,11
3978168,18
3978792,21
3979420,17
3980040,13
3980668,14
3981296,14
3981920,15
3982548,14
3983176,13
3983808,13
3984436,10
3985056,15
3985684,20
3986308,22
3986940,22
3987572,30
3988192,28
3988824,13
3989448,17
3990072,19
3990700,13
3991320,11
3991952,19
3992584,16
3993204,14
3993836,10
3994460,21
3995088,53
3995716,42
3996336,20
3996964,15
3997588,15
3998216,28
3998848,49
3999464,35
4000096,28
4000716,24
4001340,21
4001968,37
4002588,39
4003216,38
4003844,36
4004464,31
4005092,21
4005716,18
4006348,18
4006976,11
4007600,21
4008228,42
4008852,39
4009480,25
4010108,12
4010728,13
4011356,40
4011984,39
4012608,32
4013240,12
4013856,16
4014488,19
4015116,18
4015736,18
4016364,19
4016988,16
4017620,11
4018248,10
4018864,21
4019492,34
4020116,37
4020740,34
4021372,22
4021992,19
4022620,21
4023244,19
4023868,10
4024500,18
4025120,22
4025748,25
4026380,26
4027000,36
4027628,53
4028252,43
4028884,14
4029512,14
4030136,15
4030768,19
4031392,22
4032016,28
4032644,16
4033264,11
4033892,14
4034516,26
4035144,23
4035772,22
4036392,48
4037020,52
4037652,55
4038272,49
4038904,32
4039528,23
4040156,16
4040788,11
4041408,11
4042036,11
4042664,12
4043288,11
4043916,10
4044536,16
4045168,15
4045788,14
4046412,14
4047044,14
4047664,14
4048292,14
4048924,12
4049544,11
4050176,10
4050800,11
4051428,10
4052060,10
4052680,15
4053308,19
4053932,25
4054560,28
4055188,32
4055808,49
4056436,38
4057064,37
4057688,29
4058316,10
4058936,20
4059564,26
4060196,36
4060816,45
4061444,32
4062068,20
4062700,21
4063332,22
4063952,21
4064584,15
4065208,14
4065832,19
4066460,20
4067080,19
4067712,17
4068336,20
4068960,23
4069588,29
4070216,36
4070848,39
4071476,34
4072096,28
4072724,19
4073352,17
4073980,12
4074612,10
4075232,18
4075864,23
4076488,32
4077112,35
4077744,28
4078360,17
4078992,17
4079620,14
4080240,14
4080868,14
4081492,14
4082124,11
4082756,14
4083376,12
4084004,14
4084628,17
4085256,22
4085884,18
4086504,19
4087132,16
4087760,30
4088384,19
4089016,31
4089632,51
4090264,51
4090896,49
4091512,33
4092144,15
4092768,10
4093400,11
4094032,11
4094652,17
4095284,23
4095908,34
4096536,32
4097164,29
4097780,29
4098408,25
4099032,15
4099652,29
4100280,30
4100900,37
4101532,54
4102160,47
4102776,36
4103404,23
4104028,26
4104656,13
4105284,14
4105900,21
4106532,20
4107156,13
4107780,13
4108412,22
4109032,16
4109660,11
4110284,33
4110904,38
4111536,18
4112152,12
4112780,15
4113404,13
4114032,17
4114660,15
4115284,11
4115912,16
4116540,18
4117160,18
4117788,14
4118408,14
4119040,16
4119668,24
4120288,34
4120916,25
4121540,14
4122164,16
4122792,19
4123412,20
4124040,13
4124664,11
4125284,19
4125916,23
4126540,28
4127168,22
4127796,14
4128416,17
4129044,19
4129668,13
4130296,14
4130924,14
4131544,16
4132172,12
4132796,13
4133420,15
4134052,16
4134672,26
4135300,32
4135924,30
4136548,21
4137180,11
4137800,13
4138432,23
4139060,16
4139680,28
4140308,45
4140932,40
4141560,26
4142192,13
4142808,11
4143436,23
4144060,23
4144684,24
4145312,24
4145932,18
4146560,14
4147184,15
4147808,22
4148436,28
4149060,16
4149688,10
4150320,14
4150936,25
4151564,41
4152188,47
4152820,40
4153448,19
4154068,16
4154696,25
4155320,44
4155944,41
4156572,23
4157192,11
4157824,28
4158448,38
4159068,44
4159700,22
4160324,11
4160952,19
4161580,26
4162200,11
4162828,20
4163452,19
4164080,19
4164708,14
4165328,13
4165956,19
4166580,21
4167204,12
4167832,17
4168448,45
4169076,60
4169700,53
4170324,45
4170952,38
4171568,35
4172196,16
4172828,14
4173444,15
4174076,19
4174700,21
4175328,16
4175956,13
4176576,15
4177204,15
4177828,28
4178452,42
4179080,53
4179704,31
4180332,18
4180956,17
4181580,13
4182208,20
4182824,26
4183456,25
4184084,19
4184704,19
4185332,17
4185956,13
4186584,15
4187216,28
4187832,42
4188460,37
4189084,34
4189708,25
4190336,12
4190960,10
4191588,10
4192212,11
4192836,25
4193468,30
4194088,30
4194716,26
4195348,18
4195968,16
4196596,12
4197220,13
4197852,16
4198480,17
4199100,11
4199732,11
4200356,13
4200976,10
4201604,15
4202220,17
4202852,17
4203476,21
4204100,20
4204728,17
4205344,20
4205976,22
4206604,16
4207224,13
4207852,10
4208476,12
4209108,11
4209736,13
4210356,17
4210984,13
4211608,12
4212232,16
4212860,16
4213480,15
4214108,19
4214732,25
4215356,17
4215988,10
4216608,11
4217236,13
4217868,18
4218488,25
4219116,34
4219740,42
4220372,41
4221000,30
4221624,22
4222252,15
4222876,14
4223500,11
4224132,11
4224752,15
4225380,39
4226004,30
4226624,17
4227252,15
4227872,11
4228500,19
4229128,36
4229752,26
4230380,20
4231004,18
4231636,15
4232264,10
4232888,11
4233516,11
4234140,10
4234764,17
4235396,32
4236016,40
4236644,42
4237268,33
4237892,13
4238524,28
4239144,22
4239776,21
4240404,30
4241024,13
4241652,16
4242276,18
4242904,13
4243532,10
4244152,12
4244780,17
4245404,28
4246028,27
4246660,19
4247280,13
4247908,13
4248532,11
4249160,11
4249788,12
4250408,14
4251036,17
4251664,21
4252288,30
4252916,39
4253540,45
4254172,41
4254800,28
4255424,21
4256052,23
4256676,18
4257300,11
4257928,10
4258552,16
4259180,28
4259808,38
4260432,35
4261060,27
4261680,24
4262308,17
4262940,16
4263560,14
4264188,13
4264812,13
4265440,11
4266068,11
4266688,15
4267316,14
4267940,11
4268564,26
4269192,39
4269816,39
4270444,52
4271068,61
4271692,60
4272324,42
4272944,18
4273572,11
4274204,14
4274824,24
4275452,29
4276076,45
4276708,34
4277336,19
4277956,11
4278584,11
4279208,17
4279832,17
4280464,14
4281080,15
4281708,12
4282332,11
4282956,20
4283584,28
4284208,25
4284836,23
4285468,12
4286088,14
4286716,27
4287340,17
4287972,15
4288604,20
4289224,14
4289852,18
4290476,16
4291100,17
4291732,18
4292352,12
4292980,10
4293604,15
4294228,14
4294860,10
4295480,22
4296112,29
4296740,19
4297360,13
4297988,14
4298616,14
4299244,18
4299876,12
4300496,12
4301128,17
4301748,24
4302372,27
4303004,32
4303624,38
4304252,26
4304876,17
4305500,24
4306132,25
4306752,17
4307384,12
4308012,10
4308632,11
4309260,11
4309884,19
4310516,27
4311144,34
4311768,47
4312396,54
4313020,45
4313648,28
4314276,16
4314896,15
4315524,13
4316148,10
4316776,13
4317404,12
4318028,35
4318660,54
4319292,62
4319912,61
4320544,53
4321168,43
4321796,34
4322428,28
4323048,25
4323676,17
4324300,9
4324872,21
4325508,24
4326128,21
4326756,26
4327380,25
4328004,23
4328632,24
4329256,25
4329884,18
4330516,16
4331136,16
4331768,11
4332392,11
4333020,11
4333652,22
4334272,27
4334900,27
4335528,28
4336152,14
4336780,24
4337400,39
4338028,40
4338652,31
4339280,15
4339908,14
4340528,25
4341156,39
4341788,40
4342408,25
4343036,11
4343660,9
4344240,12
4344868,22
4345488,28
4346116,42
4346744,29
4347372,17
4348004,26
4348624,39
4349256,41
4349880,48
4350504,44
4351136,24
4351752,20
4352388,35
4353008,42
4353632,34
4354260,19
4354884,18
4355512,22
4356140,18
4356760,11
4357388,13
4358012,15
4358644,12
4359272,12
4359892,15
4360520,22
4361144,41
4361768,43
4362396,26
4363016,12
4363644,16
4364268,14
4364892,13
4365520,12
4366144,11
4366772,11
4367404,12
4368024,22
4368652,27
4369276,37
4369904,36
4370536,31
4371156,23
4371784,14
4372412,14
4373036,13
4373664,10
4374284,10
4374912,13
4375540,18
4376164,18
4376792,16
4377420,12
4378048,10
4378680,10
4379296,20
4379928,23
4380552,35
4381184,39
4381812,20
4382432,25
4383064,18
4383688,10
4384312,14
4384940,18
4385560,33
4386188,60
4386812,88
4387440,100
4388120,88
4388744,63
4389376,50
4390004,36
4390624,11
4391252,21
4391880,39
4392504,42
4393132,30
4393752,28
4394380,24
4395008,16
4395632,17
4396264,19
4396888,20
4397516,22
4398148,26
4398768,12
4399400,15
4400024,11
4400648,13
4401276,12
4401896,11
4402528,15
4403152,17
4403776,31
4404408,29
4405024,34
4405652,35
4406284,28
4406904,29
4407532,13
4408156,22
4408788,23
4409416,25
4410040,24
4410668,17
4411296,12
4411920,11
4412548,16
4413168,33
4413800,40
4414424,40
4415048,12
4415676,28
4416296,34
4416928,31
4417556,35
4418176,26
4418804,37
4419428,43
4420060,43
4420688,36
4421312,26
4421940,17
4422568,17
4423192,14
4423824,13
4424440,23
4425068,16
4425692,12
4426316,16
4426944,21
4427568,22
4428196,14
4428828,20
4429448,20
4430076,16
4430700,17
4431332,15
4431960,12
4432584,11
4433212,11
4433836,19
4434464,28
4435092,31
4435712,37
4436344,49
4436968,57
4437592,30
4438220,14
4438840,15
4439468,17
4440100,16
4440720,11
4441348,19
4441976,23
4442604,17
4443236,26
4443856,44
4444488,40
4445108,23
4445736,22
4446364,16
4446984,15
4447612,17
4448240,19
4448864,19
4449492,19
4450116,16
4450748,12
4451376,11
4452000,14
4452628,21
4453256,28
4453884,33
4454516,27
4455136,21
4455764,24
4456388,24
4457012,12
4457644,13
4458264,15
4458892,17
4459516,21
4460144,13
4460776,15
4461400,17
4462032,13
4462660,15
4463280,15
4463912,15
4464536,16
4465160,11
4465788,11
4466408,11
4467036,11
4467664,14
4468288,14
4468916,26
4469536,50
4470168,55
4470796,45
4471416,32
4472048,14
4472672,21
4473304,14
4473932,12
4474552,19
4475184,11
4475808,13
4476432,12
4477064,17
4477680,32
4478312,39
4478936,38
4479564,23
4480196,18
4480816,17
4481444,17
4482072,19
4482692,14
4483320,13
4483944,13
4484572,14
4485204,18
4485824,40
4486452,64
4487076,73
4487700,47
4488328,20
4488952,18
4489580,22
4490204,19
4490832,13
4491460,10
4492080,11
4492708,11
4493340,10
4493960,15
4494592,13
4495216,11
4495844,14
4496476,14
4497096,22
4497724,23
4498352,13
4498976,12
4499604,10
4500224,11
4500856,11
4501480,12
4502104,17
4502736,15
4503352,21
4503984,27
4504616,20
4505236,20
4505868,26
4506488,28
4507120,24
4507748,16
4508368,13
4508996,16
4509620,21
4510244,27
4510872,16
4511496,15
4512124,19
4512748,24
4513372,19
4514004,19
4514628,18
4515256,14
4515884,22
4516504,14
4517132,17
4517756,31
4518388,20
4519016,29
4519640,46
4520268,44
4520892,48
4521516,37
4522148,32
4522768,25
4523396,21
4524024,19
4524648,14
4525276,10
4525900,11
4526532,11
4527164,14
4527784,34
4528416,58
4529036,67
4529668,39
4530296,18
4530920,15
4531552,20
4532176,22
4532796,20
4533428,18
4534048,11
4534676,12
4535308,38
4535928,61
4536560,49
4537184,43
4537812,29
4538444,18
4539064,15
4539696,13
4540320,13
4540944,15
4541572,19
4542192,11
4542824,10
4543448,11
4544072,20
4544700,30
4545320,31
4545948,24
4546580,14
4547200,15
4547828,15
4548452,13
4549084,15
4549712,16
4550336,17
4550968,16
4551592,20
4552216,29
4552844,28
4553464,19
4554096,18
4554720,16
4555344,25
4555976,36
4556596,33
4557224,18
4557856,13
4558472,19
4559104,15
4559728,22
4560360,21
4560988,16
4561608,14
4562236,25
4562860,23
4563484,15
4564116,13
4564736,16
4565364,15
4565992,11
4566616,12
4567248,14
4567864,15
4568492,21
4569124,26
4569744,35
4570372,34
4571000,23
4571628,25
4572260,16
4572880,16
4573508,16
4574136,11
4574760,19
4575388,27
4576008,35
4576636,41
4577264,37
4577888,41
4578516,64
4579144,52
4579772,17
4580404,41
4581024,66
4581656,57
4582280,40
4582912,25
4583540,15
4584160,17
4584788,27
4585416,33
4586040,40
4586672,34
4587292,25
4587920,17
4588552,16
4589168,19
4589800,22
4590424,15
4591052,10
4591684,18
4592304,37
4592936,36
4593560,21
4594184,19
4594816,27
4595432,21
4596060,25
4596684,15
4597308,21
4597940,19
4598560,27
4599188,18
4599820,14
4600440,19
4601068,16
4601696,15
4602324,20
4602956,32
4603576,41
4604208,32
4604832,30
4605456,21
4606084,19
4606704,11
4607336,16
4607960,27
4608588,26
4609216,20
4609832,10
4610464,22
4611092,34
4611712,31
4612340,21
4612964,17
4613596,14
4614224,14
4614844,12
4615472,19
4616096,29
4616720,31
4617348,28
4617968,30
4618596,27
4619220,32
4619844,31
4620472,28
4621096,20
4621724,16
4622356,16
4622976,23
4623604,12
4624228,11
4624860,10
4625488,16
4626108,22
4626736,36
4627360,46
4627984,35
4628616,12
4629232,17
4629860,21
4630484,20
4631108,18
4631740,16
4632360,21
4632988,17
4633620,11
4634240,11
4634868,26
4635492,35
4636124,33
4636752,30
4637376,24
4638008,27
4638632,22
4639256,16
4639888,15
4640504,13
4641132,11
4641756,15
4642380,24
4643012,20
4643632,13
4644260,15
4644892,12
4645512,15
4646140,18
4646768,19
4647396,14
4648028,20
4648648,22
4649276,11
4649900,15
4650524,15
4651156,21
4651776,25
4652404,15
4653028,15
4653656,17
4654284,18
4654904,23
4655532,23
4656164,26
4656784,19
4657412,9
4657988,21
4658624,27
4659252,30
4659872,36
4660500,33
4661124,37
4661756,53
4662384,33
4663008,15
4663640,16
4664264,20
4664888,29
4665516,39
4666136,37
4666768,27
4667400,14
4668016,12
4668644,17
4669272,22
4669900,29
4670532,27
4671152,15
4671784,14
4672408,27
4673032,24
4673660,11
4674280,21
4674908,24
4675532,13
4676156,16
4676788,10
4677408,13
4678036,11
4678668,18
4679288,17
4679916,16
4680544,17
4681172,14
4681804,10
4682424,10
4683052,17
4683676,20
4684300,17
4684932,39
4685552,47
4686180,57
4686804,59
4687428,37
4688060,28
4688680,21
4689308,16
4689940,10
4690560,15
4691188,14
4691816,15
4692444,23
4693076,28
4693696,23
4694328,21
4694952,29
4695576,37
4696208,40
4696824,30
4697456,17
4698080,14
4698704,21
4699336,28
4699952,25
4700584,20
4701216,10
4701832,16
4702464,27
4703088,43
4703720,46
4704352,42
4704968,46
4705596,38
4706224,18
4706848,11
4707480,15
4708096,22
4708728,26
4709352,33
4709976,27
4710608,24
4711228,26
4711856,25
4712484,18
4713104,15
4713736,15
4714360,13
4714988,21
4715620,33
4716240,27
4716868,15
4717492,11
4718120,11
4718748,18
4719368,25
4720000,20
4720620,23
4721248,29
4721876,21
4722500,27
4723132,13
4723764,16
4724384,30
4725016,35
4725640,27
4726272,28
4726900,18
4727520,10
4728152,11
4728776,28
4729400,32
4730032,27
4730648,15
4731280,19
4731908,33
4732528,30
4733160,30
4733784,29
4734416,23
4735044,24
4735664,29
4736296,35
4736920,42
4737544,38
4738172,26
4738792,22
4739424,28
4740048,21
4740672,14
4741300,10
4741920,15
4742552,17
4743180,29
4743800,34
4744432,53
4745056,62
4745684,57
4746316,31
4746936,15
4747568,22
4748192,27
4748816,14
4749444,10
4750064,21
4750696,48
4751320,58
4751944,59
4752576,36
4753196,37
4753828,33
4754456,34
4755080,30
4755712,17
4756336,12
4756968,11
4757596,14
4758216,23
4758848,30
4759472,30
4760096,28
4760724,22
4761344,23
4761976,27
4762600,25
4763224,36
4763852,39
4764472,26
4765104,11
4765732,16
4766352,31
4766984,31
4767608,31
4768240,29
4768868,18
4769488,15
4770116,21
4770744,13
4771368,15
4772000,24
4772616,35
4773248,49
4773872,51
4774496,35
4775124,21
4775748,11
4776380,17
4777012,28
4777632,31
4778260,21
4778888,21
4779516,19
4780148,19
4780768,18
4781400,14
4782028,11
4782652,18
4783284,12
4783904,11
4784536,11
4785168,14
4785788,17
4786416,10
4787044,14
4787676,17
4788304,36
4788928,39
4789560,31
4790184,21
4790808,13
4791440,13
4792060,13
4792692,15
4793316,11
4793940,20
4794572,30
4795192,23
4795824,17
4796456,16
4797076,16
4797708,16
4798332,13
4798964,11
4799596,12
4800220,17
4800848,21
4801472,40
4802096,57
4802724,46
4803344,41
4803972,36
4804596,24
4805220,16
4805852,18
4806476,10
4807104,14
4807736,22
4808356,26
4808984,17
4809608,19
4810236,23
4810868,19
4811488,29
4812120,47
4812744,33
4813368,24
4814000,20
4814616,18
4815244,24
4815868,16
4816496,11
4817124,16
4817748,11
4818380,19
4819008,12
4819632,34
4820260,61
4820888,79
4821512,70
4822140,58
4822760,40
4823392,21
4824016,20
4824636,26
4825268,19
4825888,13
4826516,20
4827148,24
4827768,29
4828400,24
4829024,15
4829652,15
4830284,16
4830904,15
4831536,13
4832160,15
4832784,15
4833416,13
4834032,20
4834660,21
4835284,27
4835908,25
4836540,20
4837160,16
4837788,15
4838420,15
4839040,16
4839668,12
4840292,11
4840924,11
4841556,22
4842176,31
4842808,27
4843432,15
4844056,15
4844684,12
4845304,16
4845932,15
4846560,16
4847184,15
4847816,16
4848432,12
4849064,19
4849692,21
4850312,20
4850944,21
4851568,25
4852200,34
4852828,40
4853448,41
4854080,27
4854704,21
4855328,17
4855960,14
4856576,10
4857208,11
4857832,19
4858456,24
4859088,28
4859704,34
4860336,37
4860968,32
4861584,30
4862216,22
4862840,13
4863472,20
4864104,16
4864720,14
4865348,10
4865972,10
4866596,16
4867224,17
4867848,11
4868476,14
4869100,11
4869728,12
4870356,19
4870984,23
4871612,34
4872244,46
4872864,38
4873496,19
4874120,25
4874752,36
4875380,26
4876000,12
4876628,18
4877256,18
4877880,21
4878508,23
4879128,22
4879760,22
4880388,13
4881008,19
4881636,12
4882260,17
4882892,22
4883524,18
4884144,11
4884776,11
4885400,11
4886024,25
4886652,30
4887272,29
4887904,35
4888528,30
4889152,21
4889784,11
4890400,10
4891028,17
4891660,24
4892280,35
4892912,25
4893536,19
4894164,28
4894796,32
4895416,33
4896048,25
4896668,22
4897292,29
4897924,24
4898544,14
4899176,13
4899800,30
4900424,37
4901056,35
4901676,40
4902304,45
4902936,54
4903560,56
4904192,45
4904816,33
4905448,27
4906076,16
4906696,10
4907328,17
4907952,23
4908576,31
4909208,33
4909828,34
4910460,29
4911084,27
4911712,19
4912344,23
4912968,15
4913600,14
4914228,15
4914848,12
4915484,16
4916104,28
4916736,24
4917364,10
4917984,13
4918612,41
4919236,39
4919860,48
4920492,39
4921112,36
4921740,35
4922364,34
4922992,13
4923620,20
4924244,23
4924876,19
4925504,11
4926124,10
4926752,11
4927376,21
4928004,21
4928632,30
4929256,32
4929884,25
4930508,28
4931132,19
4931764,12
4932384,23
4933012,26
4933644,22
4934264,29
4934896,40
4935520,49
4936148,51
4936780,48
4937400,40
4938028,33
4938652,21
4939276,14
4939908,10
4940528,14
4941160,23
4941780,26
4942404,27
4943036,23
4943656,22
4944284,26
4944916,28
4945536,26
4946168,21
4946788,17
4947420,14
4948052,12
4948672,13
4949300,14
4949924,11
4950552,16
4951180,14
4951800,21
4952432,28
4953056,37
4953680,37
4954308,34
4954928,22
4955556,18
4956188,11
4956808,13
4957436,15
4958060,15
4958692,13
4959324,14
4959944,15
4960576,19
4961200,33
4961824,38
4962452,28
4963072,16
4963700,15
4964328,15
4964952,11
4965580,21
4966200,30
4966832,23
4967460,32
4968080,48
4968708,48
4969332,41
4969960,29
4970592,25
4971208,20
4971840,23
4972464,18
4973088,27
4973716,32
4974336,22
4974968,11
4975592,13
4976216,11
4976844,34
4977464,62
4978092,54
4978724,32
4979344,15
4979972,14
4980600,15
4981228,12
4981860,22
4982480,33
4983108,39
4983736,31
4984360,29
4984988,42
4985608,48
4986236,52
4986864,42
4987488,19
4988120,15
4988744,16
4989376,15
4990004,10
4990624,19
4991256,38
4991880,56
4992512,64
4993140,64
4993760,39
4994388,11
4995016,14
4995640,20
4996268,23
4996888,26
4997516,29
4998144,30
4998768,24
4999396,16
5000020,11
5000652,10
5001280,12
5001904,21
5002536,27
5003160,29
5003784,25
5004416,22
5005032,19
5005660,27
5006288,29
5006912,21
5007540,11
5008160,11
5008788,11
5009420,16
5010040,35
5010668,49
5011296,41
5011924,30
5012556,24
5013176,18
5013808,19
5014432,26
5015056,22
5015688,11
5016304,11
5016936,22
5017560,25
5018188,40
5018816,43
5019440,34
5020072,30
5020700,20
5021320,15
5021952,18
5022576,33
5023208,27
5023836,16
5024456,18
5025088,44
5025712,50
5026336,51
5026968,37
5027584,26
5028216,26
5028840,17
5029464,13
5030096,13
5030712,17
5031344,20
5031976,15
5032592,14
5033224,15
5033848,30
5034480,46
5035112,58
5035732,50
5036364,44
5036988,53
5037612,61
5038244,36
5038864,19
5039496,15
5040120,19
5040744,21
5041372,15
5042000,13
5042628,12
5043260,13
5043880,18
5044508,19
5045132,27
5045764,27
5046392,19
5047016,19
5047648,18
5048272,11
5048896,11
5049524,11
5050144,13
5050776,22
5051408,31
5052028,39
5052656,43
5053284,39
5053916,28
5054548,22
5055168,14
5055800,14
5056428,11
5057052,13
5057684,19
5058304,26
5058936,26
5059560,19
5060184,17
5060816,24
5061432,27
5062064,21
5062696,14
5063312,16
5063944,21
5064572,14
5065200,10
5065832,21
5066456,31
5067088,12
5067712,37
5068336,51
5068968,40
5069592,51
5070224,48
5070856,48
5071472,29
5072104,14
5072732,12
5073360,12
5073992,14
5074612,10
5075244,10
5075868,13
5076492,11
5077124,10
5077744,19
5078376,26
5079004,29
5079628,21
5080260,14
5080880,13
5081512,10
5082140,11
5082760,12
5083392,11
5084016,15
5084648,11
5085276,13
5085896,40
5086528,39
5087152,27
5087776,31
5088408,31
5089032,22
5089664,12
5090288,11
5090912,16
5091544,18
5092168,16
5092800,13
5093428,10
5094048,14
5094680,10
5095308,13
5095936,14
5096568,14
5097192,15
5097824,12
5098448,10
5099072,11
5099704,16
5100324,10
5100952,17
5101584,13
5102204,19
5102836,39
5103460,34
5104092,13
5104724,28
5105344,15
5105976,15
5106600,14
5107224,22
5107856,31
5108476,31
5109108,20
5109736,18
5110360,14
5110992,10
5111616,19
5112252,26
5112884,44
5113504,47
5114140,21
5114764,27
5115396,46
5116028,43
5116648,32
5117284,21
5117908,25
5118536,30
5119168,28
5119788,25
5120424,23
5121052,18
5121668,14
5122300,14
5122920,20
5123548,27
5124180,21
5124800,28
5125428,31
5126048,23
5126672,17
5127300,17
5127920,25
5128548,31
5129172,24
5129796,15
5130424,14
5131040,19
5131672,45
5132300,49
5132920,51
5133548,31
5134172,27
5134800,33
5135432,37
5136048,39
5136676,29
5137300,13
5137924,32
5138556,44
5139176,28
5139808,13
5140432,24
5141056,17
5141684,12
5142304,10
5142932,11
5143564,11
5144184,11
5144812,11
5145436,14
5146068,28
5146696,36
5147320,27
5147948,20
5148572,15
5149196,24
5149828,34
5150448,24
5151076,22
5151700,15
5152328,21
5152956,54
5153576,58
5154208,42
5154836,20
5155456,16
5156084,18
5156708,16
5157340,29
5157972,34
5158592,46
5159220,60
5159844,37
5160468,16
5161100,10
5161720,13
5162348,13
5162972,15
5163596,13
5164224,21
5164848,34
5165476,26
5166108,26
5166728,30
5167356,29
5167980,22
5168612,16
5169244,49
5169864,67
5170492,41
5171120,21
5171744,17
5172372,14
5172992,20
5173620,42
5174244,36
5174868,19
5175500,28
5176120,28
5176748,11
5177380,10
5178000,11
5178628,13
5179252,15
5179884,20
5180512,24
5181136,15
5181768,13
5182388,27
5183016,40
5183644,21
5184264,10
5184892,12
5185516,15
5186140,30
5186772,31
5187396,25
5188024,27
5188652,23
5189272,16
5189900,35
5190528,27
5191156,12
5191788,22
5192408,51
5193036,40
5193660,20
5194284,10
5194916,18
5195536,17
5196168,16
5196792,17
5197416,15
5198048,13
5198672,16
5199300,21
5199932,43
5200552,49
5201180,50
5201808,21
5202436,34
5203068,95
5203688,101
5204368,77
5204988,54
5205608,40
5206240,26
5206864,17
5207492,11
5208124,24
5208744,37
5209372,41
5210000,40
5210628,31
5211260,35
5211880,58
5212512,48
5213136,56
5213760,43
5214388,20
5215008,40
5215640,47
5216268,35
5216888,18
5217516,19
5218140,24
5218772,19
5219404,10
5220024,15
5220652,36
5221280,69
5221904,65
5222536,48
5223152,39
5223780,19
5224404,14
5225028,13
5225660,24
5226280,42
5226908,46
5227540,32
5228160,22
5228788,31
5229416,44
5230044,28
5230676,15
5231296,14
5231928,17
5232552,11
5233176,17
5233808,52
5234424,65
5235056,61
5235680,45
5236304,43
5236936,44
5237552,30
5238184,16
5238812,14
5239432,11
5240064,15
5240688,32
5241320,43
5241948,23
5242568,12
5243200,10
5243820,11
5244444,11
5245072,17
5245692,17
5246320,15
5246944,23
5247568,24
5248196,13
5248812,13
5249440,15
5250068,12
5250688,12
5251316,12
5251940,28
5252568,46
5253196,48
5253816,38
5254444,24
5255064,20
5255688,14
5256316,10
5256936,12
5257564,11
5258188,18
5258812,21
5259440,24
5260064,19
5260692,22
5261324,22
5261944,20
5262572,17
5263196,19
5263828,25
5264456,20
5265080,11
5265708,14
5266332,18
5266956,20
5267584,14
5268204,15
5268832,33
5269456,45
5270076,41
5270708,36
5271328,19
5271956,17
5272588,12
5273208,18
5273836,47
5274460,62
5275092,22
5275720,31
5276340,49
5276968,23
5277592,11
5278216,12
5278844,14
5279464,23
5280092,15
5280716,15
5281340,10
5281968,17
5282584,26
5283212,16
5283836,10
5284464,15
5285092,24
5285716,25
5286344,24
5286976,22
5287592,16
5288220,14
5288844,18
5289472,20
5290104,28
5290720,34
5291348,11
5291972,17
5292596,12
5293228,26
5293848,42
5294476,60
5295100,38
5295728,21
5296356,15
5296980,14
5297608,23
5298240,27
5298856,34
5299488,49
5300108,40
5300740,31
5301368,39
5301992,47
5302620,42
5303244,29
5303868,21
5304500,19
5305120,19
5305748,18
5306380,20
5307000,13
5307628,15
5308252,21
5308884,23
5309512,19
5310132,14
5310760,19
5311388,25
5312012,29
5312640,31
5313256,27
5313888,28
5314512,22
5315136,11
5315764,16
5316384,36
5317016,47
5317644,48
5318264,55
5318896,26
5319516,25
5320148,15
5320780,16
5321400,17
5322032,13
5322656,11
5323280,13
5323908,32
5324528,31
5325160,11
5325780,18
5326404,11
5327032,22
5327648,27
5328280,35
5328908,31
5329528,14
5330156,22
5330780,33
5331408,37
5332036,16
5332656,35
5333284,50
5333908,26
5334536,23
5335164,66
5335784,71
5336412,56
5337036,49
5337660,41
5338288,28
5338904,17
5339536,15
5340164,11
5340784,28
5341412,41
5342036,33
5342668,31
5343300,28
5343920,21
5344552,13
5345176,14
5345800,14
5346428,16
5347048,21
5347676,11
5348300,26
5348924,33
5349556,37
5350176,34
5350808,27
5351436,24
5352056,23
5352684,19
5353308,23
5353940,24
5354568,22
5355188,20
5355816,16
5356440,10
5357068,10
5357696,10
5358316,18
5358944,31
5359568,31
5360196,29
5360824,37
5361440,39
5362072,17
5362700,15
5363320,20
5363948,17
5364572,12
5365204,10
5365832,11
5366456,13
5367084,16
5367708,28
5368332,38
5368960,41
5369584,46
5370216,36
5370840,27
5371464,20
5372092,14
5372712,13
5373344,12
5373972,14
5374592,21
5375224,40
5375848,45
5376480,32
5377108,23
5377728,21
5378356,27
5378980,29
5379604,16
5380232,15
5380852,13
5381480,18
5382104,17
5382728,24
5383356,44
5383976,47
5384604,33
5385236,47
5385856,58
5386484,51
5387108,48
5387740,31
5388368,17
5388992,16
5389620,11
5390244,15
5390868,37
5391496,30
5392120,21
5392748,19
5393372,21
5393996,16
5394628,12
5395248,18
5395876,22
5396508,32
5397128,36
5397756,18
5398380,12
5399012,25
5399644,31
5400264,42
5400892,36
5401520,31
5402144,16
5402772,14
5403392,16
5404020,21
5404644,25
5405268,14
5405900,14
5406520,17
5407152,16
5407780,16
5408400,23
5409028,18
5409652,10
5410280,12
5410908,23
5411528,29
5412156,22
5412780,14
5413404,16
5414036,15
5414656,11
5415284,10
5415908,10
5416532,11
5417164,14
5417784,12
5418412,40
5419044,50
5419664,50
5420292,37
5420920,21
5421548,19
5422180,19
5422800,11
5423428,19
5424056,27
5424676,19
5425308,14
5425928,34
5426556,43
5427184,44
5427808,29
5428436,23
5429060,13
5429692,15
5430320,23
5430940,12
5431568,15
5432192,11
5432824,13
5433452,19
5434072,17
5434700,40
5435328,55
5435952,64
5436584,50
5437200,30
5437832,18
5438456,15
5439080,13
5439708,20
5440336,11
5440964,17
5441592,22
5442212,14
5442840,11
5443464,19
5444092,26
5444720,28
5445344,25
5445972,19
5446596,14
5447220,13
5447852,11
5448472,12
5449100,17
5449724,16
5450352,18
5450980,22
5451604,22
5452236,20
5452864,33
5453480,32
5454112,24
5454732,19
5455364,20
5455992,20
5456612,13
5457240,16
5457864,27
5458488,24
5459120,27
5459736,35
5460364,22
5460988,27
5461616,27
5462244,24
5462868,19
5463500,16
5464132,12
5464752,12
5465380,20
5466008,21
5466632,19
5467260,11
5467880,37
5468512,57
5469132,43
5469756,28
5470388,16
5471008,25
5471640,25
5472268,24
5472888,16
5473516,10
5474140,18
5474772,29
5475404,32
5476024,29
5476652,25
5477276,19
5477904,12
5478532,13
5479152,13
5479780,13
5480408,15
5481028,11
5481660,10
5482280,11
5482908,15
5483540,14
5484160,15
5484788,23
5485416,29
5486044,25
5486676,22
5487296,20
5487928,23
5488552,25
5489176,27
5489804,10
5490424,17
5491052,14
5491676,11
5492300,11
5492932,13
5493552,23
5494184,24
5494812,20
5495432,24
5496064,25
5496688,19
5497316,15
5497948,12
5498568,30
5499196,27
5499824,15
5500448,11
5501080,11
5501696,10
5502328,22
5502952,47
5503576,42
5504208,29
5504824,15
5505452,13
5506084,25
5506704,33
5507332,14
5507956,32
5508588,21
5509220,17
5509840,36
5510468,36
5511092,37
5511716,17
5512348,30
5512968,29
5513596,17
5514224,16
5514848,26
5515480,35
5516104,43
5516736,39
5517364,36
5517984,39
5518616,38
5519240,21
5519872,15
5520504,14
5521120,20
5521748,19
5522376,15
5523000,11
5523632,18
5524248,28
5524880,27
5525500,20
5526128,17
5526760,22
5527384,25
5528016,27
5528644,36
5529264,23
5529896,13
5530520,13
5531144,11
5531772,10
5532392,13
5533020,18
5533648,18
5534272,35
5534900,53
5535520,49
5536152,43
5536780,26
5537400,28
5538028,23
5538652,18
5539284,11
5539912,12
5540536,25
5541164,28
5541792,26
5542416,20
5543044,14
5543664,20
5544296,31
5544920,31
5545544,17
5546176,14
5546792,18
5547424,13
5548052,10
5548672,11
5549304,11
5549928,13
5550560,15
5551188,27
5551808,35
5552440,38
5553064,42
5553688,47
5554320,41
5554936,27
5555568,14
5556192,22
5556816,41
5557444,48
5558064,55
5558696,69
5559324,43
5559944,29
5560576,17
5561200,27
5561832,15
5562460,14
5563080,21
5563712,44
5564336,37
5564960,20
5565592,11
5566208,25
5566840,55
5567464,59
5568088,41
5568720,27
5569336,14
5569968,23
5570600,50
5571216,51
5571844,26
5572468,11
5573100,11
5573728,14
5574352,14
5574984,12
5575608,27
5576232,46
5576860,43
5577480,22
5578112,15
5578736,22
5579360,15
5579992,18
5580616,15
5581248,17
5581876,18
5582496,15
5583124,12
5583752,15
5584380,12
5585012,13
5585632,33
5586264,44
5586888,45
5587508,36
5588140,37
5588760,31
5589392,13
5590020,12
5590640,27
5591272,35
5591896,29
5592524,24
5593156,32
5593776,37
5594404,26
5595028,15
5595656,14
5596288,14
5596904,20
5597532,14
5598160,11
5598784,14
5599416,11
5600036,18
5600664,35
5601292,34
5601912,23
5602540,23
5603164,13
5603796,12
5604428,14
5605048,16
5605676,16
5606304,19
5606928,11
5607556,14
5608176,10
5608804,9
5609376,11
5610008,13
5610636,12
5611256,16
5611888,38
5612512,57
5613136,31
5613764,24
5614384,25
5615016,11
5615644,41
5616264,57
5616892,63
5617516,57
5618148,35
5618780,30
5619400,44
5620028,39
5620652,24
5621276,23
5621908,34
5622528,13
5623156,27
5623784,40
5624408,32
5625036,10
5625656,13
5626284,12
5626916,23
5627536,42
5628168,39
5628792,18
5629424,13
5630052,15
5630672,12
5631304,17
5631932,22
5632556,18
5633188,14
5633808,11
5634436,11
5635060,25
5635684,46
5636312,45
5636936,39
5637568,25
5638196,15
5638816,15
5639444,12
5640068,20
5640696,22
5641328,10
5641944,17
5642576,19
5643200,24
5643824,17
5644452,19
5645072,21
5645700,23
5646324,22
5646948,23
5647580,13
5648204,11
5648832,10
5649464,13
5650080,10
5650712,12
5651336,24
5651964,38
5652596,53
5653216,31
5653844,25
5654468,34
5655092,42
5655720,34
5656344,13
5656972,22
5657596,36
5658224,34
5658856,38
5659480,38
5660108,42
5660740,39
5661360,43
5661988,52
5662616,35
5663240,21
5663868,16
5664488,31
5665116,38
5665740,45
5666364,37
5666996,16
5667616,15
5668244,53
5668876,76
5669496,87
5670124,68
5670752,61
5671380,49
5672012,32
5672632,11
5673264,32
5673888,53
5674512,33
5675140,11
5675760,11
5676392,21
5677016,36
5677640,25
5678268,19
5678888,17
5679516,21
5680148,14
5680768,15
5681396,11
5682024,12
5682652,15
5683284,14
5683904,36
5684532,52
5685156,45
5685780,33
5686412,20
5687032,19
5687664,23
5688288,24
5688912,14
5689544,27
5690160,39
5690792,27
5691420,11
5692040,18
5692672,13
5693296,11
5693928,17
5694556,24
5695176,22
5695808,20
5696432,18
5697056,15
5697684,11
5698304,10
5698932,11
5699556,15
5700184,23
5700812,28
5701432,37
5702064,42
5702692,41
5703312,29
5703944,19
5704568,15
5705196,14
5705828,12
5706448,19
5707076,41
5707704,43
5708328,25
5708960,22
5709576,12
5710208,31
5710832,18
5711456,14
5712088,12
5712712,15
5713344,14
5713972,11
5714592,11
5715224,11
5715848,11
5716476,11
5717108,14
5717728,14
5718360,30
5718984,40
5719612,45
5720244,36
5720864,25
5721496,18
5722128,30
5722744,31
5723376,32
5724000,42
5724632,49
5725260,21
5725880,11
5726512,12
5727136,27
5727764,19
5728396,34
5729016,66
5729648,64
5730272,37
5730896,39
5731528,47
5732144,18
5732776,13
5733408,14
5734032,42
5734664,54
5735288,38
5735920,24
5736548,13
5737168,13
5737796,22
5738420,37
5739044,17
5739676,10
5740296,10
5740924,16
5741548,24
5742172,19
5742804,16
5743428,23
5744056,27
5744688,25
5745304,21
5745936,24
5746560,28
5747188,14
5747820,22
5748440,42
5749068,43
5749696,38
5750320,39
5750952,41
5751568,37
5752200,36
5752824,40
5753448,33
5754080,20
5754704,19
5755336,16
5755964,10
5756584,17
5757216,24
5757840,39
5758472,41
5759100,31
5759720,26
5760352,34
5760976,41
5761600,46
5762228,40
5762848,19
5763476,14
5764108,16
5764728,17
5765356,12
5765980,25
5766612,40
5767240,34
5767856,41
5768488,59
5769112,55
5769736,56
5770364,52
5770984,40
5771612,22
5772236,16
5772860,19
5773492,22
5774112,24
5774740,32
5775372,35
5775992,29
5776620,45
5777244,49
5777876,45
5778504,29
5779128,26
5779756,34
5780384,36
5781008,32
5781636,12
5782256,12
5782884,21
5783508,31
5784136,47
5784764,44
5785384,49
5786016,33
5786644,14
5787264,28
5787892,31
5788516,18
5789148,14
5789776,19
5790396,18
5791024,11
5791652,21
5792276,35
5792904,16
5793528,15
5794156,38
5794784,36
5795408,26
5796036,14
5796656,19
5797284,21
5797916,22
5798536,13
5799164,13
5799788,19
5800420,16
5801052,18
5801672,21
5802300,25
5802924,60
5803548,62
5804180,51
5804800,48
5805428,38
5806052,30
5806680,12
5807308,14
5807928,12
5808560,12
5809188,22
5809808,32
5810440,35
5811064,31
5811696,43
5812324,45
5812944,27
5813572,17
5814200,25
5814824,24
5815456,18
5816072,12
5816704,21
5817328,26
5817952,19
5818580,47
5819208,68
5819836,54
5820468,34
5821088,16
5821720,14
5822344,11
5822972,14
5823604,10
5824224,18
5824852,35
5825476,41
5826100,38
5826732,40
5827352,23
5827980,13
5828608,24
5829232,47
5829860,37
5830488,14
5831116,16
5831748,12
5832368,45
5832996,56
5833624,56
5834248,51
5834876,37
5835496,17
5836128,15
5836752,15
5837376,20
5838008,14
5838628,24
5839256,67
5839888,107
5840556,60
5841180,12
5841808,29
5842436,33
5843068,15
5843688,12
5844316,11
5844944,14
5845568,19
5846196,22
5846816,23
5847448,11
5848076,42
5848696,62
5849324,46
5849952,13
5850580,51
5851212,32
5851832,22
5852464,57
5853088,122
5853764,39
5854392,37
5855008,94
5855640,130
5856324,119
5856996,68
5857624,15
5858248,33
5858872,29
5859500,58
5860120,88
5860748,52
5861380,33
5862000,85
5862632,84
5863256,66
5863884,44
5864516,44
5865136,22
5865764,15
5866392,11
5867016,30
5867648,11
5868264,12
5868896,23
5869520,35
5870144,41
5870776,18
5871392,74
5872024,63
5872656,15
5873272,70
5873904,79
5874532,44
5875164,26
5875796,11
5876416,23
5877048,45
5877672,87
5878296,99
5878928,75
5879548,58
5880180,22
5880804,40
5881428,47
5882060,41
5882680,26
5883312,23
5883944,28
5884564,36
5885192,41
5885820,29
5886452,18
5887084,24
5887704,19
5888340,19
5888960,11
5889584,29
5890216,64
5890832,87
5891464,59
5892088,11
5892712,34
5893344,20
5893968,26
5894596,43
5895228,14
5895848,30
5896480,40
5897104,79
5897736,22
5898364,26
5898984,91
5899612,114
5900296,91
5900912,72
5901540,60
5902164,65
5902796,41
5903424,12
5904048,14
5904676,13
5905300,18
5905928,25
5906556,41
5907176,65
5907808,87
5908432,63
5909056,13
5909684,30
5910304,22
5910936,15
5911564,17
5912184,25
5912816,18
5913440,15
5914072,17
5914700,17
5915320,11
5915952,34
5916576,45
5917200,17
5917832,53
5918448,70
5919080,88
5919704,76
5920328,83
5920956,42
5921576,20
5922204,40
5922836,32
5923456,19
5924084,13
5924708,32
5925340,47
5925972,11
5926592,20
5927220,19
5927844,27
5928468,40
5929100,68
5929720,40
5930348,27
5930972,14
5931600,15
5932228,29
5932848,49
5933476,64
5934108,62
5934728,43
5935360,25
5935984,49
5936616,70
5937248,18
5937864,55
5938496,38
5939120,26
5939744,12
5940376,16
5940992,14
5941624,30
5942248,49
5942872,57
5943500,102
5944172,93
5944796,43
5945428,16
5946048,86
5946676,87
5947304,89
5947928,76
5948556,70
5949176,14
5949808,21
5950432,13
5951056,27
5951684,44
5952304,57
5952932,32
5953564,19
5954184,15
5954812,14
5955436,14
5956068,12
5956700,30
5957320,16
5957952,34
5958576,39
5959200,16
5959832,19
5960448,29
5961076,29
5961700,47
5962324,64
5962956,38
5963576,34
5964208,25
5964836,18
5965456,24
5966084,15
5966708,47
5967340,59
5967972,82
5968592,70
5969224,36
5969848,31
5970472,32
5971104,26
5971720,44
5972352,36
5972976,16
5973600,28
5974232,101
5974908,138
5975588,58
5976216,13
5976832,51
5977464,64
5978092,45
5978716,22
5979348,15
5979972,14
5980604,49
5981236,117
5981908,136
5982588,26
5983208,43
5983832,68
5984464,114
5985132,127
5985812,74
5986440,43
5987056,47
5987688,41
5988312,23
5988936,15
5989568,14
5990184,27
5990816,25
5991448,36
5992068,45
5992696,34
5993320,25
5993952,33
5994580,53
5995200,40
5995832,26
5996456,15
5997080,19
5997712,28
5998328,43
5998960,44
5999588,41
6000212,31
6000844,27
6001464,19
6002092,15
6002724,27
6003344,55
6003972,47
6004596,28
6005228,18
6005860,52
6006480,52
6007108,70
6007736,53
6008360,14
6008988,33
6009608,18
6010236,22
6010864,39
6011488,15
6012120,19
6012744,39
6013376,25
6014008,11
6014624,15
6015256,17
6015884,23
6016516,23
6017148,10
6017768,15
6018396,23
6019024,12
6019648,19
6020280,19
6020896,54
6021528,55
6022160,57
6022776,22
6023404,52
6024032,85
6024660,105
6025344,39
6025960,14
6026592,15
6027216,31
6027840,23
6028468,14
6029088,14
6029716,20
6030348,16
6030968,19
6031600,28
6032224,27
6032852,10
6033484,12
6034104,11
6034736,21
6035360,13
6035984,14
6036616,16
6037232,19
6037864,44
6038492,35
6039116,54
6039748,66
6040368,24
6041000,10
6041632,11
6042248,35
6042876,60
6043504,47
6044132,23
6044764,31
6045384,53
6046016,54
6046640,24
6047264,11
6047896,17
6048512,11
6049144,36
6049768,44
6050392,26
6051024,23
6051644,28
6052272,26
6052904,16
6053524,14
6054156,16
6054780,16
6055412,21
6056044,22
6056664,20
6057296,18
6057920,30
6058544,39
6059176,12
6059796,17
6060428,22
6061052,16
6061680,15
6062312,51
6062936,67
6063568,35
6064196,95
6064816,78
6065444,71
6066072,65
6066696,54
6067328,36
6067944,22
6068576,18
6069200,16
6069824,13
6070452,24
6071072,16
6071704,27
6072336,14
6072952,20
6073584,33
6074208,41
6074840,32
6075472,11
6076092,20
6076720,33
6077348,37
6077976,35
6078608,25
6079224,21
6079856,17
6080484,11
6081108,12
6081736,12
6082360,12
6082992,19
6083620,19
6084240,20
6084868,17
6085492,27
6086124,16
6086756,12
6087376,21
6088008,18
6088628,12
6089256,13
6089884,16
6090504,14
6091136,20
6091760,12
6092384,14
6093016,23
6093640,49
6094268,31
6094900,12
6095520,15
6096152,37
6096776,40
6097404,13
6098036,50
6098656,15
6099288,83
6099912,39
6100536,23
6101164,74
6101784,102
6102468,88
6103096,85
6103712,67
6104344,21
6104968,18
6105596,40
6106232,54
6106848,57
6107480,31
6108104,20
6108728,22
6109360,28
6109976,26
6110608,20
6111240,14
6111864,15
6112496,32
6113124,25
6113756,12
6114384,12
6115008,12
6115640,21
6116264,20
6116888,23
6117520,16
6118136,18
6118772,56
6119396,57
6120020,36
6120652,22
6121272,15
6121904,13
6122536,23
6123156,16
6123788,18
6124412,24
6125044,23
6125676,32
6126296,59
6126928,35
6127552,19
6128176,15
6128808,18
6129428,22
6130060,30
6130684,29
6131312,11
6131944,14
6132568,15
6133200,23
6133832,34
6134452,29
6135084,27
6135708,35
6136332,19
6136964,16
6137584,14
6138220,13
6138844,13
6139472,17
6140104,23
6140724,40
6141356,29
6141992,10
6142612,10
6143244,23
6143872,29
6144504,27
6145132,22
6145752,17
6146380,15
6147004,16
6147628,22
6148260,20
6148880,17
6149508,53
6150132,52
6150756,28
6151388,41
6152012,113
6152692,99
6153316,71
6153936,39
6154564,26
6155188,31
6155816,29
6156444,41
6157064,16
6157692,13
6158316,12
6158940,11
6159572,11
6160196,13
6160828,15
6161456,13
6162076,19
6162704,29
6163328,18
6163956,11
6164588,11
6165208,11
6165836,12
6166460,10
6167084,15
6167716,17
6168336,17
6168964,17
6169588,34
6170216,45
6170844,15
6171468,52
6172100,67
6172732,14
6173352,17
6173984,11
6174608,27
6175240,25
6175868,10
6176488,11
6177116,11
6177740,13
6178368,14
6178996,18
6179616,14
6180248,16
6180876,10
6181496,11
6182128,10
6182752,13
6183384,16
6184012,36
6184632,47
6185264,53
6185888,47
6186512,47
6187140,48
6187760,46
6188388,43
6189016,20
6189640,16
6190268,47
6190888,68
6191520,67
6192148,53
6192768,46
6193400,45
6194024,63
6194656,59
6195284,44
6195904,51
6196532,36
6197160,13
6197784,11
6198412,28
6199032,17
6199664,13
6200288,46
6200912,99
6201544,116
6202212,112
6202892,89
6203516,55
6204136,21
6204768,15
6205392,76
6206016,161
6206700,125
6207372,68
6208000,19
6208628,74
6209248,112
6209932,58
6210552,19
6211176,29
6211808,26
6212432,14
6213064,37
6213696,41
6214312,23
6214944,11
6215568,14
6216200,15
6216828,10
6217448,16
6218080,22
6218704,17
6219328,15
6219960,12
6220580,21
6221212,52
6221840,45
6222464,27
6223096,12
6223720,15
6224352,13
6224980,18
6225600,36
6226232,49
6226856,46
6227480,17
6228108,17
6228728,26
6229356,26
6229984,19
6230608,27
6231240,24
6231856,24
6232488,13
6233116,10
6233736,11
6234368,15
6234992,38
6235624,65
6236252,39
6236872,33
6237504,73
6238128,45
6238752,34
6239384,37
6240000,39
6240632,12
6241256,16
6241880,24
6242508,19
6243128,32
6243760,47
6244388,31
6245008,21
6245640,15
6246264,15
6246896,12
6247524,10
6248144,23
6248772,36
6249396,30
6250024,15
6250652,24
6251272,43
6251904,36
6252528,26
6253152,13
6253780,14
6254408,13
6255036,15
6255668,19
6256288,15
6256920,11
6257544,11
6258172,11
6258804,11
6259424,13
6260052,10
6260680,12
6261304,49
6261932,76
6262552,63
