tempo_arduino_micro_s,valor_ADC
500,30
1004,37
1504,38
2000,30
2508,15
3000,10
3508,13
4000,20
4504,23
5000,28
5500,24
6000,15
6500,14
7004,15
7500,20
8000,33
8500,37
9000,34
9500,28
10000,14
10516,12
11036,16
11564,27
12084,40
12612,63
13132,74
13660,56
14180,42
14708,30
15228,23
15756,16
16276,10
16796,21
17316,44
17836,61
18356,58
18876,53
19396,55
19916,44
20436,30
20956,17
21476,14
21996,13
22516,13
23036,19
23564,22
24084,25
24612,27
25132,23
25660,25
26180,22
26708,15
27228,13
27756,15
28276,27
28804,47
29324,59
29852,67
30372,68
30900,52
31420,24
31948,13
32468,20
32996,26
33516,32
34044,34
34564,41
35092,34
35612,21
36140,18
36660,27
37188,36
37708,35
38236,32
38760,17
39284,14
39804,15
40332,12
40852,17
41372,12
41892,12
42412,28
42932,33
43452,28
43972,31
44492,43
45012,55
45532,54
46052,53
46572,46
47092,45
47612,51
48140,31
48660,22
49188,16
49708,10
50236,10
50756,34
51284,56
51804,60
52332,57
52852,63
53380,65
53900,63
54428,50
54948,35
55476,18
55996,13
56524,14
57044,14
57572,18
58096,41
58620,54
59140,47
59668,45
60188,60
60716,68
61240,64
61764,71
62284,84
62812,73
63332,49
63860,29
64384,15
64908,13
65428,19
65948,21
66468,30
66988,41
67508,49
68028,47
68548,45
69068,42
69588,43
70108,35
70632,28
71148,25
71668,29
72192,20
72716,15
73236,14
73764,15
74284,19
74812,15
75332,22
75860,35
76384,37
76908,39
77428,39
77956,49
78476,54
79004,75
79528,80
80052,59
80572,33
81100,17
81620,14
82148,13
82668,11
83196,13
83720,19
84244,34
84764,42
85292,41
85812,49
86340,54
86860,54
87388,44
87908,29
88436,30
88956,26
89484,18
90004,17
90524,14
91044,18
91564,34
92084,37
92604,33
93124,21
93644,25
94164,42
94684,61
95208,68
95724,69
96248,73
96764,63
97292,51
97812,30
98340,15
98860,14
99388,21
99908,32
100436,31
101004,34
101584,32
102156,34
102736,39
103304,35
103880,38
104456,34
105024,20
105600,14
106168,14
106744,14
107312,16
107896,12
108464,13
109040,15
109624,19
110192,23
110768,19
111336,24
111920,38
112492,54
113072,60
113640,45
114216,23
114800,13
115368,15
115952,13
116520,20
117104,20
117676,30
118252,41
118832,52
119400,40
119984,22
120556,14
121136,13
121704,17
122288,15
122856,15
123436,21
124016,26
124584,23
125168,21
125736,17
126320,12
126888,26
127464,41
128048,50
128616,55
129192,66
129760,71
130344,53
130912,38
131496,29
132064,14
132640,10
133216,10
133784,17
134360,42
134928,43
135512,32
136084,27
136656,24
137232,34
137800,35
138384,31
138952,28
139536,25
140104,14
140688,13
141260,19
141832,26
142416,29
142984,25
143568,20
144136,27
144720,41
145288,58
145864,62
146440,51
147008,30
147592,19
148160,15
148744,13
149312,18
149896,28
150464,40
151040,54
151624,46
152196,45
152776,41
153348,25
153928,16
154496,11
155072,13
155640,14
156216,15
156800,19
157368,31
157952,30
158524,20
159104,11
159676,11
160252,12
160832,20
161400,39
161976,56
162544,60
163128,61
163700,46
164280,18
164848,15
165416,17
165992,16
166560,26
167140,41
167712,43
168288,36
168856,19
169424,21
170000,27
170568,21
171144,12
171712,14
172296,13
172864,14
173448,18
174016,30
174596,17
175176,10
175748,11
176328,10
176896,9
177428,12
178000,39
178584,55
179152,64
179732,74
180312,57
180880,42
181464,27
182032,15
182616,13
183184,19
183760,18
184344,12
184912,25
185488,41
186056,44
186640,39
187208,46
187792,44
188364,38
188936,26
189520,15
190088,13
190672,14
191244,21
191824,31
192396,35
192976,31
193552,37
194124,39
194704,43
195272,37
195856,52
196424,40
197008,17
197580,18
198156,26
198736,14
199304,30
199888,14
200456,18
201040,25
201608,28
202192,25
202768,19
203340,20
203920,30
204492,34
205072,31
205640,24
206216,17
206784,13
207352,16
207928,20
208496,17
209080,18
209648,23
210224,28
210792,31
211376,40
211944,52
212512,66
213096,61
213664,42
214248,26
214816,21
215400,14
215968,19
216544,34
217128,47
217696,58
218280,47
218848,42
219432,28
220004,16
220584,25
221152,29
221728,26
222312,18
222884,15
223464,19
224036,21
224616,11
225188,27
225764,31
226344,32
226912,27
227496,27
228064,47
228648,69
229216,63
229800,51
230372,46
230948,42
231528,24
232096,15
232680,11
233248,16
233832,33
234404,56
234976,62
235560,50
236128,26
236712,12
237284,12
237864,21
238436,40
239016,32
239588,15
240164,29
240744,32
241312,35
241896,29
242468,23
243048,33
243620,48
244192,47
244776,51
245348,59
245928,55
246496,48
247080,36
247648,24
248232,14
248800,16
249376,25
249960,25
250528,21
251112,33
251684,42
252264,33
252836,23
253408,15
253992,13
254564,12
255144,17
255716,25
256296,19
256872,13
257448,13
258016,9
258532,10
259112,11
259684,17
260264,30
260832,40
261416,61
261984,70
262568,69
263136,51
263712,27
264296,16
264864,14
265448,25
266016,22
266600,23
267168,46
267744,54
268328,47
268896,32
269480,26
270048,35
270632,33
271204,37
271784,32
272356,31
272928,15
273512,32
274084,43
274664,53
275232,48
275816,42
276388,29
276964,30
277544,32
278116,43
278696,54
279268,60
279848,53
280420,35
281000,29
281568,16
282148,17
282728,22
283296,26
283880,30
284452,34
285032,32
285604,31
286176,35
286760,26
287328,23
287912,18
288484,14
289064,15
289632,14
290216,13
290788,11
291364,14
291944,25
292512,37
293096,39
293668,36
294248,33
294820,46
295392,59
295976,64
296548,50
297128,23
297696,15
298280,17
298848,25
299432,33
300004,41
300576,48
301160,50
301732,48
302312,42
302892,20
303472,9
303992,10
304572,10
305148,14
305724,14
306304,15
306876,21
307456,27
308032,26
308616,29
309184,32
309764,30
310344,21
310916,15
311496,11
312068,18
312648,41
313216,54
313800,55
314376,43
314948,19
315528,18
316100,27
316680,32
317260,40
317840,30
318420,18
318996,15
319576,33
320152,45
320728,29
321296,13
321880,12
322448,15
323024,16
323608,18
324176,27
324760,31
325332,25
325912,25
326484,27
327064,23
327636,33
328212,47
328792,53
329360,48
329944,33
330512,19
331096,14
331668,19
332240,19
332824,19
333392,24
333968,27
334536,27
335120,30
335692,32
336272,23
336840,24
337416,32
337992,27
338560,15
339144,15
339716,15
340296,16
340864,24
341448,32
342024,30
342596,25
343176,22
343748,25
344328,27
344896,40
345480,49
346052,52
346624,44
347208,24
347776,15
348360,14
348928,14
349512,21
350084,33
350664,43
351240,49
351812,47
352392,31
352964,33
353544,42
354116,32
354696,25
355268,24
355844,15
356424,13
356996,15
357576,18
358148,28
358728,31
359304,27
359888,18
360464,24
361032,35
361616,39
362184,42
362768,55
363340,75
363920,72
364492,56
365068,35
365648,19
366220,18
366800,33
367372,35
367952,28
368524,27
369104,25
369680,20
370248,26
370832,42
371404,35
371984,17
372556,14
373136,15
373708,16
374284,17
374864,21
375436,17
376016,12
376588,18
377168,29
377740,40
378320,45
378896,49
379464,48
380048,35
380620,31
381200,24
381772,16
382352,12
382924,21
383500,38
384084,49
384652,44
385232,34
385804,38
386384,41
386956,38
387536,36
388112,35
388684,37
389264,19
389832,19
390416,31
390984,27
391568,18
392140,17
392716,10
393296,14
393868,24
394448,37
395016,48
395600,60
396172,72
396752,70
397336,44
397908,15
398488,22
399060,30
399640,11
400220,25
400800,38
401368,43
401944,35
402528,37
403100,37
403680,38
404260,30
404840,20
405408,14
405988,16
406568,18
407140,18
407720,27
408292,32
408872,23
409444,11
410024,12
410592,17
411160,49
411744,65
412312,77
412896,76
413464,47
414048,18
414616,15
415192,16
415776,11
416348,14
416928,23
417496,26
418080,26
418648,31
419224,30
419792,30
420372,43
420952,37
421520,19
422104,12
422672,14
423256,13
423824,15
424404,16
424984,15
425552,12
426136,11
426704,10
427288,21
427856,51
428440,68
429012,74
429588,69
430168,50
430736,26
431320,17
431892,14
432472,32
433044,47
433616,62
434200,58
434772,39
435352,34
435924,39
436504,39
437072,31
437656,15
438228,14
438804,19
439384,26
439956,23
440536,22
441112,28
441696,28
442264,20
442840,16
443424,27
443996,41
444576,59
445148,65
445728,51
446300,41
446880,21
447452,15
448028,20
448608,17
449176,19
449760,31
450328,43
450912,47
451480,37
452056,34
452640,29
453208,15
453792,14
454364,15
454944,14
455516,14
456096,20
456664,17
457240,18
457824,18
458396,19
458976,23
459548,22
460128,9
460648,13
461224,39
461792,62
462372,73
462952,62
463524,57
464104,33
464672,16
465256,14
465828,13
466404,33
466984,39
467556,36
468136,39
468708,43
469288,33
469860,17
470440,17
471012,15
471588,20
472168,18
472740,13
473320,15
473892,14
474472,15
475044,17
475620,15
476200,18
476768,26
477352,39
477924,58
478504,60
479084,61
479664,51
480244,29
480816,18
481400,14
481968,15
482552,14
483124,19
483704,20
484276,42
484852,51
485432,49
486004,35
486584,35
487152,42
487736,22
488308,16
488888,13
489460,14
490036,14
490616,14
491188,14
491768,24
492344,24
492928,33
493496,44
494072,54
494656,71
495228,75
495808,66
496380,59
496960,44
497528,25
498112,16
498684,14
499260,31
499840,28
500408,34
500992,30
501564,18
502144,25
502724,34
503300,36
503880,35
504452,35
505032,34
505604,22
506184,19
506756,15
507336,17
507920,17
508492,15
509072,18
509644,13
510224,20
510796,45
511376,59
511956,76
512532,77
513112,55
513680,18
514264,20
514832,18
515416,13
515984,24
516560,46
517144,32
517712,13
518296,10
518868,10
519448,12
520016,22
520600,20
521168,18
521744,23
522328,16
522896,14
523480,20
524052,16
524632,11
525204,11
525776,21
526360,38
526932,34
527512,47
528084,67
528664,83
529232,66
529816,41
530388,23
530964,14
531544,17
532116,26
532696,11
533264,17
533848,20
534416,17
534992,23
535576,35
536148,48
536728,49
537300,41
537880,35
538448,24
539032,19
539604,13
540176,20
540760,24
541332,26
541912,24
542484,23
543064,20
543636,17
544212,20
544792,30
545364,35
545944,49
546512,38
547096,20
547668,18
548248,17
548816,14
549392,17
549976,19
550548,16
551128,17
551700,29
552280,27
552852,23
553428,26
554008,29
554580,31
555160,25
555732,16
556312,13
556884,18
557464,18
558036,25
558612,30
559192,28
559764,23
560344,27
560924,35
561504,39
562076,50
562652,55
563232,45
563804,42
564384,32
564956,15
565536,14
566108,16
566688,31
567260,35
567836,21
568416,12
568988,20
569568,29
570140,43
570720,49
571292,48
571868,32
572448,16
573020,28
573600,18
574172,36
574752,44
575324,34
575904,25
576484,24
577056,30
577640,49
578208,56
578792,49
579364,55
579944,51
580516,41
581092,21
581672,14
582244,14
582824,21
583396,29
583976,26
584556,28
585136,49
585708,54
586284,30
586864,27
587436,29
588016,27
588596,14
589176,22
589756,30
590332,24
590912,27
591484,26
592064,23
592636,19
593216,27
593796,27
594376,32
594960,30
595532,31
596112,25
596684,19
597264,17
597836,17
598416,15
598996,11
599572,10
600152,12
600724,26
601304,33
601876,32
602456,29
603036,28
603612,33
604192,23
604764,14
605344,13
605916,14
606496,14
607076,14
607656,25
608236,29
608812,22
609392,10
609964,13
610544,10
611116,36
611700,55
612276,59
612852,70
613432,60
614008,40
614584,32
615156,23
615736,10
616308,26
616888,31
617460,35
618036,40
618616,46
619188,43
619768,30
620348,25
620928,21
621500,21
622076,20
622656,15
623228,13
623808,13
624380,11
624960,10
625528,14
626112,24
626684,31
627260,31
627840,56
628412,68
628992,66
629572,50
630152,43
630732,42
631308,20
631888,14
632460,11
633040,28
633620,36
634200,37
634772,26
635348,28
635928,29
636504,30
637080,23
637652,22
638232,24
638812,17
639392,14
639972,13
640548,14
641128,16
641696,14
642280,12
642848,11
643432,10
644000,17
644576,48
645160,63
645728,74
646312,43
646884,34
647464,33
648036,28
648616,16
649188,12
649764,19
650344,24
650916,30
651496,33
652068,29
652648,19
653220,19
653796,26
654376,27
654948,27
655528,25
656096,23
656680,18
657248,12
657824,15
658392,19
658972,33
659552,46
660120,40
660704,29
661272,51
661856,59
662424,57
663000,49
663584,26
664156,15
664736,15
665308,12
665888,9
666404,10
666984,24
667552,43
668128,43
668712,38
669284,29
669864,29
670432,23
671016,17
671588,18
672168,16
672736,18
673304,15
673888,14
674460,23
675040,22
675612,19
676192,23
676760,31
677340,38
677920,46
678492,53
679072,46
679644,30
680224,22
680792,26
681376,24
681944,15
682520,20
683104,23
683676,25
684256,28
684828,21
685408,19
685980,26
686556,34
687136,35
687708,30
688288,26
688856,18
689440,14
690008,15
690592,17
691164,30
691740,23
692320,18
692888,22
693472,26
694044,33
694624,49
695196,54
695772,58
696352,51
696924,33
697504,15
698076,13
698656,13
699228,10
699808,15
700380,26
700956,27
701536,31
702108,44
702688,40
703260,38
703840,41
704420,32
704992,19
705576,13
706148,35
706728,38
707300,35
707880,33
708452,25
709032,16
709604,10
710180,11
710760,16
711332,35
711912,59
712492,61
713072,45
713644,28
714220,25
714800,29
715372,21
715952,10
716528,20
717104,40
717684,48
718264,38
718836,29
719412,23
719992,23
720564,23
721144,17
721716,12
722296,13
722868,16
723444,22
724024,16
724592,10
725176,17
725748,27
726328,30
726908,21
727488,39
728060,62
728636,68
729216,62
729788,52
730368,34
730940,20
731520,13
732092,13
732668,15
733248,22
733820,38
734400,45
734972,47
735552,43
736132,33
736712,33
737288,34
737860,37
738440,23
739012,14
739592,17
740164,15
740744,23
741316,29
741892,30
742472,41
743044,53
743624,50
744196,47
744776,47
745348,65
745928,74
746512,50
747084,26
747664,13
748236,13
748816,15
749384,22
749968,28
750540,40
751116,47
751696,51
752272,54
752848,39
753428,34
754008,42
754588,43
755164,32
755748,20
756320,13
756896,22
757468,34
758048,37
758628,32
759208,34
759788,35
760364,29
760944,37
761516,51
762100,54
762676,58
763256,50
763836,35
764412,18
764992,20
765564,29
766144,23
766720,19
767296,32
767876,29
768460,20
769040,12
769608,14
770192,21
770764,26
771344,23
771916,13
772496,15
773068,15
773644,23
774224,31
774796,31
775376,29
775956,26
776536,24
777116,32
777692,46
778272,50
778844,51
779424,40
779996,18
780576,13
781156,14
781736,13
782308,10
782884,13
783464,22
784036,23
784616,25
785188,37
785768,41
786348,30
786924,24
787504,21
788076,23
788656,18
789228,14
789808,13
790380,16
790960,25
791540,23
792116,17
792696,17
793268,25
793848,31
794428,45
795008,52
795580,55
796156,47
796736,29
797312,16
797888,14
798464,12
799040,10
799620,20
800200,39
800784,48
801356,52
801936,41
802504,27
803088,35
803660,50
804240,64
804808,59
805384,39
805968,19
806540,24
807120,16
807692,34
808272,47
808844,47
809424,53
810000,56
810572,69
811152,91
811724,97
812304,85
812876,63
813456,40
814028,28
814604,20
815184,15
815756,14
816336,26
816916,42
817496,42
818076,38
818652,44
819232,49
819804,37
820384,29
820952,33
821536,45
822104,35
822688,24
823256,16
823832,20
824416,31
824984,43
825568,59
826140,62
826720,49
827288,51
827864,59
828448,60
829020,51
829600,36
830168,31
830752,27
831324,19
831904,13
832476,12
833048,26
833632,42
834200,47
834784,39
835352,37
835936,33
836508,30
837080,26
837664,18
838236,16
838816,15
839388,14
839968,13
840540,14
841120,17
841688,19
842264,19
842848,22
843416,25
844000,31
844568,46
845152,54
845720,51
846296,44
846880,29
847448,19
848032,14
848600,14
849184,20
849756,34
850336,35
850908,35
851484,44
852064,40
852632,33
853216,42
853788,38
854368,34
854940,25
855516,21
856096,23
856668,21
857248,11
857820,24
858400,23
858968,17
859552,16
860124,22
860700,46
861280,67
861852,73
862432,66
863004,66
863584,61
864156,45
864728,14
865312,32
865884,35
866464,44
867036,48
867616,22
868196,14
868776,11
869348,11
869924,12
870504,24
871072,19
871656,15
872228,22
872808,17
873376,13
873956,16
874536,24
875108,23
875688,27
876260,29
876840,23
877408,28
877992,46
878564,57
879140,59
879720,44
880292,24
880872,13
881440,16
882024,19
882592,20
883172,27
883752,49
884324,52
884904,38
885476,14
886056,15
886628,15
887208,10
887780,19
888356,32
888936,27
889508,18
890088,14
890668,19
891248,29
891828,30
892404,27
892984,27
893556,31
894136,41
894708,47
895288,56
895868,54
896452,33
897032,24
897604,18
898184,19
898756,13
899336,17
899908,31
900488,40
901060,41
901636,35
902216,32
902788,29
903368,30
903940,30
904520,28
905088,26
905672,19
906248,15
906816,14
907400,18
907972,21
908552,24
909132,30
909712,32
910284,38
910860,40
911440,46
912012,49
912592,53
913164,40
913744,25
914316,19
914896,17
915480,11
916052,24
916632,37
917204,51
917784,49
918356,30
918940,26
919516,26
920092,24
920672,26
921244,28
921824,24
922400,21
922984,24
923556,24
924132,21
924712,18
925284,11
925864,14
926436,12
927016,17
927588,42
928168,66
928744,77
929324,82
929904,78
930476,66
931056,49
931636,25
932216,13
932796,17
933372,22
933952,21
934524,18
935104,11
935676,18
936256,38
936836,47
937416,42
938000,41
938572,24
939152,14
939728,17
940304,27
940884,36
941464,41
942036,38
942612,29
943192,20
943764,18
944344,29
944924,37
945504,48
946076,36
946652,24
947232,20
947804,15
948384,14
948956,11
949536,10
950116,11
950696,20
951276,26
951852,30
952432,33
953004,36
953584,37
954164,35
954744,32
955324,24
955900,24
956480,17
957056,13
957632,11
958208,12
958784,20
959364,30
959948,42
960532,48
961104,57
961680,57
962252,53
962832,39
963404,25
963984,15
964556,14
965132,21
965712,25
966284,26
966864,22
967444,24
968024,18
968592,17
969172,21
969752,30
970324,32
970904,23
971476,16
972056,14
972636,19
973220,23
973796,32
974372,29
974952,18
975524,16
976104,19
976676,24
977256,34
977828,55
978404,63
978984,63
979556,57
980136,41
980708,27
981288,18
981868,13
982448,22
983028,34
983604,47
984184,52
984756,46
985336,37
985908,24
986488,25
987056,25
987636,22
988216,17
988788,18
989368,20
989940,15
990520,12
991092,17
991672,34
992252,28
992828,15
993408,10
993980,12
994560,15
995132,32
995712,53
996292,70
996868,63
997448,39
998020,20
998600,13
999172,12
999752,19
1000332,39
1000956,45
1001588,32
1002208,19
1002836,18
1003460,13
1004084,11
1004712,13
1005336,15
1005964,14
1006588,16
1007216,26
1007844,30
1008468,19
1009096,14
1009724,16
1010344,24
1010972,49
1011596,55
1012228,51
1012856,42
1013472,33
1014100,25
1014724,15
1015348,15
1015976,22
1016600,23
1017228,28
1017852,36
1018480,41
1019108,41
1019732,35
1020364,31
1020992,27
1021616,16
1022244,16
1022868,15
1023496,15
1024124,15
1024740,11
1025368,12
1025988,19
1026612,12
1027240,35
1027852,58
1028480,80
1029104,87
1029724,76
1030356,63
1030976,49
1031604,31
1032232,12
1032848,14
1033476,35
1034100,50
1034728,51
1035356,41
1035976,30
1036604,21
1037228,15
1037848,21
1038476,22
1039096,28
1039724,25
1040348,15
1040968,12
1041596,10
1042216,12
1042844,16
1043472,44
1044088,58
1044716,74
1045340,74
1045968,61
1046596,38
1047216,28
1047844,24
1048464,22
1049092,10
1049720,14
1050336,36
1050964,49
1051588,36
1052208,19
1052836,20
1053452,24
1054084,31
1054704,30
1055328,17
1055960,14
1056584,13
1057212,11
1057840,11
1058456,11
1059084,10
1059708,13
1060336,25
1060964,48
1061584,70
1062212,76
1062836,59
1063460,34
1064088,21
1064704,17
1065332,13
1065956,27
1066580,46
1067208,55
1067824,44
1068452,33
1069080,15
1069696,14
1070328,28
1070948,20
1071580,22
1072208,17
1072824,14
1073452,14
1074076,20
1074700,35
1075332,32
1075952,15
1076580,11
1077200,11
1077824,20
1078452,42
1079072,58
1079700,58
1080328,40
1080944,39
1081572,41
1082196,24
1082824,13
1083456,26
1084072,39
1084700,47
1085324,42
1085956,37
1086584,26
1087200,26
1087832,41
1088456,71
1089076,59
1089704,31
1090328,35
1090956,52
1091580,43
1092200,56
1092828,66
1093452,67
1094080,60
1094712,49
1095328,32
1095956,26
1096580,23
1097212,36
1097840,31
1098456,24
1099084,11
1099708,51
1100332,78
1100960,56
1101584,45
1102212,39
1102836,26
1103460,42
1104088,41
1104708,15
1105340,46
1105968,55
1106584,25
1107216,16
1107836,27
1108468,43
1109096,17
1109716,14
1110344,28
1110968,13
1111592,25
1112224,58
1112840,67
1113472,69
1114096,52
1114720,44
1115348,21
1115972,11
1116604,50
1117232,77
1117856,46
1118484,27
1119108,33
1119740,19
1120372,10
1120992,15
1121620,14
1122244,24
1122864,15
1123496,25
1124112,41
1124744,33
1125368,20
1125992,27
1126620,24
1127244,13
1127872,14
1128500,54
1129120,73
1129748,54
1130372,50
1131000,37
1131628,15
1132248,20
1132876,33
1133500,39
1134124,31
1134752,27
1135368,35
1136000,30
1136620,35
1137244,34
1137876,35
1138500,26
1139128,15
1139756,25
1140376,38
1141004,32
1141628,27
1142260,35
1142888,41
1143508,36
1144136,34
1144760,45
1145384,65
1146012,58
1146632,29
1147260,14
1147884,14
1148508,17
1149136,17
1149756,23
1150384,32
1151012,35
1151632,32
1152264,21
1152884,27
1153512,33
1154140,27
1154760,21
1155388,20
1156012,18
1156632,14
1157260,20
1157880,17
1158508,23
1159128,22
1159752,22
1160384,24
1161000,33
1161628,51
1162256,56
1162872,52
1163504,31
1164128,14
1164756,14
1165388,16
1166008,41
1166636,50
1167260,40
1167884,25
1168512,25
1169136,31
1169764,39
1170388,50
1171012,19
1171640,18
1172264,20
1172892,14
1173520,14
1174144,18
1174772,31
1175396,37
1176028,29
1176656,31
1177276,53
1177904,69
1178528,73
1179152,56
1179780,32
1180400,26
1181028,21
1181652,15
1182276,33
1182904,40
1183528,35
1184156,27
1184788,26
1185408,24
1186036,27
1186660,31
1187288,24
1187920,32
1188536,30
1189164,18
1189788,15
1190412,12
1191040,10
1191656,12
1192284,37
1192908,53
1193532,54
1194164,54
1194784,51
1195416,55
1196044,45
1196664,33
1197292,20
1197916,14
1198548,13
1199180,12
1199800,14
1200428,25
1201052,34
1201676,26
1202304,20
1202928,26
1203556,39
1204180,41
1204804,18
1205432,13
1206052,14
1206680,13
1207308,16
1207928,30
1208556,27
1209180,17
1209812,11
1210440,34
1211056,62
1211688,69
1212312,72
1212936,43
1213564,22
1214184,15
1214812,24
1215436,31
1216064,54
1216692,69
1217312,49
1217940,21
1218572,14
1219192,11
1219820,15
1220444,10
1221076,15
1221704,13
1222328,15
1222960,21
1223580,19
1224208,14
1224836,19
1225456,26
1226084,20
1226708,24
1227336,40
1227964,54
1228584,58
1229216,46
1229844,26
1230464,13
1231092,15
1231716,20
1232344,29
1232972,24
1233592,32
1234220,27
1234844,23
1235468,19
1236096,31
1236712,29
1237340,14
1237964,12
1238588,13
1239216,13
1239840,15
1240468,19
1241096,42
1241716,50
1242344,48
1242964,46
1243596,31
1244224,29
1244840,31
1245472,43
1246092,39
1246724,21
1247352,17
1247972,22
1248600,22
1249224,23
1249848,26
1250476,33
1251096,27
1251724,26
1252348,30
1252976,46
1253604,63
1254228,44
1254860,23
1255488,18
1256104,15
1256736,35
1257360,64
1257988,65
1258620,60
1259240,57
1259868,48
1260492,45
1261116,55
1261748,58
1262368,55
1262996,27
1263628,14
1264248,29
1264876,37
1265500,37
1266132,16
1266760,17
1267384,32
1268012,35
1268636,30
1269260,39
1269892,43
1270512,37
1271140,22
1271764,15
1272388,14
1273020,16
1273640,29
1274268,43
1274900,46
1275520,40
1276148,27
1276772,27
1277404,49
1278036,48
1278656,50
1279288,47
1279912,36
1280536,36
1281164,28
1281780,17
1282408,22
1283032,36
1283656,34
1284284,34
1284900,46
1285532,43
1286160,48
1286776,37
1287404,34
1288028,31
1288656,32
1289284,24
1289904,14
1290532,25
1291152,45
1291780,41
1292412,32
1293032,43
1293660,51
1294284,54
1294904,61
1295536,73
1296152,62
1296780,32
1297404,13
1298024,28
1298652,50
1299276,56
1299908,69
1300536,60
1301152,46
1301780,13
1302404,17
1303032,15
1303660,10
1304280,15
1304908,13
1305532,13
1306156,13
1306788,13
1307408,13
1308036,28
1308660,33
1309284,36
1309912,35
1310540,41
1311168,64
1311796,72
1312416,63
1313044,38
1313664,21
1314292,14
1314920,13
1315536,13
1316164,26
1316788,33
1317408,31
1318040,29
1318656,25
1319284,27
1319904,34
1320528,35
1321156,36
1321776,29
1322404,16
1323032,13
1323648,13
1324276,15
1324900,21
1325528,27
1326156,34
1326776,31
1327404,35
1328024,60
1328648,67
1329276,54
1329896,37
1330524,21
1331148,13
1331772,19
1332400,33
1333016,40
1333644,49
1334268,54
1334888,49
1335516,35
1336140,27
1336768,16
1337396,12
1338016,15
1338644,17
1339264,13
1339896,15
1340524,17
1341144,21
1341772,20
1342396,17
1343020,13
1343648,21
1344264,28
1344892,42
1345516,72
1346140,78
1346768,43
1347384,15
1348012,15
1348640,12
1349256,19
1349884,26
1350508,31
1351136,23
1351764,12
1352384,12
1353012,20
1353632,31
1354256,47
1354884,42
1355500,34
1356132,25
1356756,13
1357380,22
1358008,34
1358624,50
1359252,35
1359880,12
1360504,13
1361132,28
1361752,46
1362384,65
1363012,68
1363632,45
1364260,29
1364884,21
1365508,13
1366136,15
1366760,31
1367388,38
1368012,27
1368632,33
1369260,28
1369880,15
1370508,19
1371132,41
1371760,41
1372388,17
1373012,14
1373640,13
1374268,25
1374888,36
1375516,49
1376140,52
1376768,43
1377396,46
1378016,41
1378644,52
1379268,59
1379888,41
1380520,22
1381136,17
1381764,15
1382388,18
1383012,35
1383644,31
1384264,26
1384896,26
1385524,34
1386144,47
1386772,53
1387396,41
1388028,32
1388656,21
1389272,18
1389900,16
1390524,13
1391148,18
1391780,16
1392400,25
1393028,40
1393652,57
1394276,60
1394904,59
1395528,58
1396156,22
1396784,15
1397408,14
1398036,19
1398660,27
1399288,18
1399920,12
1400536,12
1401164,11
1401788,24
1402412,19
1403040,10
1403656,11
1404284,17
1404908,20
1405532,15
1406160,18
1406784,23
1407412,24
1408044,21
1408660,13
1409288,12
1409912,22
1410540,41
1411172,60
1411792,66
1412420,55
1413044,26
1413668,13
1414296,16
1414920,20
1415548,16
1416172,16
1416796,21
1417424,33
1418040,44
1418672,40
1419300,25
1419920,28
1420548,28
1421172,22
1421804,15
1422432,14
1423048,13
1423680,14
1424304,19
1424924,15
1425556,22
1426176,31
1426804,34
1427428,48
1428052,56
1428684,52
1429304,48
1429932,27
1430564,12
1431184,13
1431816,16
1432440,25
1433068,33
1433700,38
1434320,47
1434948,37
1435568,21
1436192,11
1436820,10
1437436,15
1438068,12
1438692,14
1439316,16
1439944,19
1440568,20
1441196,14
1441824,10
1442440,13
1443072,20
1443692,17
1444324,60
1444952,78
1445568,72
1446196,47
1446820,28
1447444,13
1448072,17
1448688,26
1449316,31
1449940,31
1450564,59
1451192,55
1451808,43
1452440,19
1453068,11
1453688,12
1454316,13
1454940,15
1455568,14
1456200,23
1456816,16
1457444,25
1458068,31
1458692,33
1459324,34
1459944,40
1460572,71
1461196,91
1461816,71
1462448,47
1463064,36
1463692,25
1464316,24
1464944,19
1465572,20
1466196,44
1466828,45
1467456,36
1468076,36
1468704,43
1469328,43
1469956,48
1470588,44
1471208,35
1471836,33
1472464,29
1473084,15
1473716,46
1474336,58
1474964,45
1475592,38
1476216,28
1476844,40
1477468,59
1478096,53
1478724,31
1479344,29
1479972,33
1480596,34
1481220,15
1481852,23
1482472,25
1483100,18
1483724,27
1484348,31
1484976,26
1485596,20
1486228,12
1486856,14
1487472,25
1488100,28
1488724,23
1489352,17
1489980,13
1490600,15
1491228,10
1491848,11
1492480,18
1493108,30
1493728,52
1494356,61
1494984,65
1495608,55
1496236,43
1496856,37
1497484,21
1498108,14
1498736,21
1499364,50
1499988,65
1500620,55
1501248,30
1501868,11
1502496,10
1503120,14
1503748,17
1504380,19
1505000,16
1505628,14
1506252,13
1506876,11
1507504,10
1508128,11
1508756,15
1509388,22
1510008,48
1510636,70
1511260,61
1511892,62
1512524,48
1513144,29
1513772,16
1514396,19
1515020,21
1515652,22
1516272,15
1516900,13
1517524,18
1518148,34
1518780,52
1519400,54
1520028,36
1520660,22
1521280,13
1521908,23
1522532,34
1523164,41
1523792,40
1524416,34
1525044,30
1525668,27
1526292,21
1526924,30
1527544,40
1528172,54
1528800,56
1529420,34
1530052,24
1530672,17
1531304,13
1531932,15
1532552,34
1533184,48
1533808,46
1534436,39
1535068,41
1535688,38
1536320,34
1536940,17
1537564,18
1538192,29
1538808,23
1539440,15
1540060,13
1540684,11
1541312,18
1541936,25
1542564,44
1543192,50
1543812,38
1544440,15
1545064,20
1545692,50
1546320,53
1546944,47
1547572,30
1548196,14
1548820,34
1549448,45
1550064,61
1550692,41
1551316,24
1551944,16
1552572,10
1553192,11
1553820,18
1554452,26
1555072,19
1555704,18
1556328,39
1556956,52
1557588,52
1558208,38
1558836,29
1559460,27
1560084,25
1560716,30
1561336,33
1561964,35
1562588,28
1563212,30
1563840,16
1564456,14
1565088,14
1565716,11
1566336,15
1566964,19
1567588,35
1568220,52
1568848,52
1569464,45
1570092,30
1570716,20
1571340,15
1571968,14
1572592,21
1573220,30
1573844,45
1574468,33
1575100,16
1575720,19
1576348,25
1576980,32
1577600,46
1578228,50
1578852,43
1579484,38
1580112,27
1580732,13
1581360,19
1581984,17
1582612,42
1583240,46
1583864,32
1584496,19
1585116,15
1585744,21
1586372,31
1586992,36
1587624,36
1588252,22
1588872,14
1589500,14
1590124,19
1590756,24
1591388,26
1592008,29
1592636,40
1593260,48
1593888,45
1594516,54
1595136,62
1595768,53
1596392,34
1597016,22
1597648,14
1598264,20
1598892,20
1599524,32
1600144,52
1600772,38
1601392,28
1602020,18
1602652,18
1603268,12
1603900,24
1604520,32
1605144,20
1605772,12
1606392,21
1607020,30
1607644,39
1608268,47
1608896,45
1609512,26
1610144,11
1610772,32
1611392,53
1612020,60
1612644,45
1613276,28
1613904,15
1614520,13
1615152,12
1615776,12
1616400,17
1617028,22
1617648,28
1618276,30
1618900,33
1619524,40
1620152,29
1620768,23
1621396,25
1622028,17
1622648,14
1623276,13
1623900,11
1624532,27
1625160,31
1625776,41
1626408,41
1627032,44
1627656,37
1628284,20
1628904,15
1629532,16
1630156,30
1630780,42
1631412,28
1632032,11
1632660,17
1633288,27
1633912,30
1634540,35
1635164,37
1635796,29
1636428,22
1637048,26
1637676,27
1638304,15
1638928,14
1639556,18
1640172,22
1640800,11
1641424,17
1642044,25
1642672,30
1643288,34
1643916,63
1644540,70
1645160,64
1645788,50
1646408,26
1647036,19
1647668,15
1648288,14
1648916,13
1649536,30
1650164,32
1650792,27
1651408,21
1652036,26
1652660,25
1653280,21
1653912,21
1654528,16
1655156,14
1655776,13
1656400,14
1657028,10
1657648,11
1658276,11
1658904,20
1659520,40
1660148,50
1660772,56
1661400,67
1662028,57
1662648,34
1663276,16
1663900,14
1664524,28
1665152,47
1665768,43
1666396,26
1667016,27
1667640,21
1668268,12
1668884,11
1669512,10
1670136,21
1670760,28
1671388,19
1672008,18
1672636,17
1673268,14
1673888,42
1674516,48
1675140,41
1675768,50
1676396,40
1677016,49
1677644,51
1678268,45
1678888,46
1679516,43
1680136,19
1680764,13
1681384,15
1682004,20
1682632,30
1683256,33
1683884,39
1684512,57
1685128,67
1685756,37
1686376,21
1687008,12
1687636,12
1688256,14
1688884,13
1689508,15
1690132,17
1690760,15
1691376,15
1692004,11
1692624,10
1693248,17
1693876,48
1694496,63
1695124,67
1695752,52
1696372,48
1697000,42
1697620,28
1698248,15
1698880,18
1699496,37
1700124,51
1700748,62
1701376,63
1702004,49
1702624,32
1703252,27
1703876,20
1704496,21
1705128,14
1705744,22
1706372,23
1706996,25
1707620,27
1708248,29
1708868,39
1709500,41
1710128,45
1710744,57
1711376,63
1712000,60
1712628,42
1713256,25
1713880,14
1714508,19
1715132,17
1715756,20
1716388,26
1717008,32
1717636,28
1718260,35
1718884,36
1719512,37
1720140,34
1720768,33
1721396,18
1722016,17
1722644,14
1723268,13
1723896,11
1724524,18
1725144,34
1725772,40
1726396,39
1727020,49
1727648,54
1728268,38
1728896,24
1729516,23
1730140,17
1730772,15
1731392,13
1732020,15
1732648,20
1733272,32
1733900,45
1734524,31
1735152,25
1735780,11
1736400,11
1737028,10
1737652,14
1738276,14
1738904,14
1739520,14
1740148,11
1740772,13
1741400,15
1742028,19
1742648,18
1743276,21
1743904,48
1744528,73
1745156,63
1745780,43
1746408,19
1747036,18
1747656,20
1748284,12
1748908,12
1749532,18
1750160,22
1750780,31
1751408,37
1752032,33
1752656,27
1753284,18
1753904,26
1754532,34
1755164,32
1755784,16
1756412,14
1757036,26
1757668,27
1758296,15
1758916,12
1759544,25
1760168,40
1760792,40
1761420,53
1762040,53
1762668,18
1763288,14
1763912,27
1764540,27
1765160,15
1765788,14
1766416,25
1767036,53
1767668,58
1768292,34
1768920,13
1769548,10
1770168,14
1770796,15
1771420,27
1772044,57
1772672,42
1773296,41
1773924,43
1774548,25
1775172,25
1775804,44
1776424,42
1777052,35
1777684,38
1778304,48
1778932,41
1779556,23
1780188,20
1780816,16
1781432,15
1782064,24
1782688,41
1783312,52
1783940,45
1784560,45
1785188,35
1785812,28
1786436,28
1787068,26
1787688,24
1788316,20
1788948,13
1789568,15
1790196,19
1790824,19
1791452,21
1792084,33
1792700,42
1793328,43
1793952,38
1794576,49
1795204,48
1795820,39
1796452,22
1797076,22
1797700,14
1798328,11
1798948,29
1799576,67
1800204,73
1800824,31
1801452,12
1802076,15
1802704,11
1803336,12
1803952,20
1804580,16
1805204,13
1805828,13
1806456,15
1807080,17
1807708,21
1808332,19
1808952,20
1809584,23
1810200,38
1810828,61
1811452,62
1812080,44
1812708,19
1813332,17
1813960,18
1814588,14
1815208,19
1815836,36
1816460,32
1817088,31
1817720,24
1818336,21
1818964,24
1819588,33
1820212,34
1820840,31
1821464,21
1822092,14
1822716,30
1823344,39
1823972,33
1824596,30
1825228,24
1825856,23
1826472,26
1827104,41
1827728,51
1828356,53
1828988,44
1829608,29
1830236,18
1830860,13
1831484,15
1832116,24
1832736,27
1833364,28
1833996,28
1834616,31
1835244,29
1835868,35
1836500,43
1837128,38
1837752,29
1838384,28
1839008,18
1839632,15
1840260,16
1840880,21
1841508,13
1842132,11
1842756,22
1843388,35
1844004,48
1844632,75
1845264,93
1845880,73
1846508,36
1847132,23
1847760,18
1848388,13
1849008,36
1849636,74
1850256,75
1850884,38
1851516,19
1852136,25
1852764,54
1853388,42
1854016,17
1854644,28
1855264,51
1855892,51
1856524,40
1857144,37
1857772,33
1858396,26
1859024,19
1859652,30
1860272,48
1860900,54
1861524,53
1862152,36
1862780,16
1863400,14
1864028,16
1864652,17
1865276,18
1865904,23
1866520,54
1867152,53
1867780,34
1868400,26
1869028,25
1869652,28
1870280,33
1870912,25
1871528,15
1872156,17
1872780,21
1873412,26
1874040,38
1874664,42
1875292,35
1875916,29
1876540,33
1877168,46
1877792,53
1878420,60
1879052,52
1879672,31
1880304,15
1880928,14
1881556,11
1882188,20
1882808,37
1883436,43
1884060,41
1884688,41
1885316,39
1885936,37
1886564,37
1887188,25
1887812,22
1888444,24
1889064,19
1889692,16
1890320,14
1890944,20
1891572,24
1892196,28
1892828,12
1893456,26
1894080,68
1894708,94
1895332,93
1895956,61
1896588,35
1897208,19
1897836,14
1898460,13
1899084,18
1899716,30
1900336,48
1900964,52
1901596,46
1902216,47
1902844,39
1903468,11
1904100,25
1904732,20
1905352,19
1905980,22
1906604,17
1907228,19
1907860,27
1908480,37
1909108,26
1909732,12
1910360,12
1910988,15
1911608,22
1912240,37
1912868,37
1913488,22
1914120,15
1914744,17
1915376,11
1916004,13
1916624,17
1917256,12
1917880,18
1918504,39
1919136,30
1919756,13
1920388,18
1921008,26
1921632,30
1922260,23
1922884,20
1923512,14
1924140,10
1924760,27
1925388,45
1926012,43
1926640,51
1927272,66
1927888,71
1928516,67
1929140,67
1929764,53
1930392,22
1931008,14
1931640,11
1932264,30
1932888,38
1933516,31
1934136,20
1934764,12
1935396,12
1936016,13
1936644,10
1937268,14
1937896,15
1938528,29
1939144,56
1939776,46
1940400,33
1941024,11
1941652,30
1942272,51
1942904,55
1943528,71
1944152,63
1944780,61
1945400,66
1946032,41
1946660,14
1947280,40
1947908,75
1948532,67
1949160,38
1949792,25
1950408,11
1951040,20
1951664,19
1952288,11
1952916,15
1953536,23
1954164,40
1954788,37
1955412,19
1956044,14
1956664,26
1957292,41
1957924,50
1958544,35
1959172,21
1959796,21
1960428,35
1961056,51
1961680,62
1962308,41
1962932,24
1963556,14
1964188,12
1964808,19
1965436,28
1966060,41
1966688,33
1967316,18
1967940,20
1968568,14
1969200,16
1969816,24
1970444,25
1971068,20
1971696,25
1972328,18
1972944,14
1973572,22
1974196,18
1974820,10
1975448,10
1976072,12
1976700,42
1977324,56
1977948,62
1978576,60
1979200,48
1979828,51
1980460,48
1981080,28
1981708,10
1982332,14
1982964,31
1983592,49
1984216,41
1984844,46
1985468,59
1986092,46
1986720,16
1987336,14
1987964,35
1988588,18
1989212,18
1989840,15
1990456,12
1991088,13
1991716,29
1992336,33
1992964,39
1993588,48
1994220,64
1994848,61
1995472,42
1996104,17
1996728,16
1997352,21
1997980,17
1998600,15
1999228,30
1999852,39
2000476,39
2001108,54
2001732,63
2002360,41
2002988,19
2003608,14
2004236,13
2004860,17
2005488,16
2006116,15
2006736,26
2007364,32
2007988,36
2008612,48
2009240,51
2009864,50
2010492,44
2011116,44
2011740,51
2012368,25
2012992,14
2013620,15
2014248,16
2014872,12
2015500,33
2016124,47
2016756,38
2017384,17
2018000,17
2018632,27
2019256,38
2019876,28
2020508,26
2021128,29
2021756,16
2022380,13
2023008,14
2023636,17
2024260,27
2024892,37
2025520,35
2026140,31
2026768,22
2027392,47
2028024,66
2028652,66
2029272,45
2029900,20
2030524,17
2031148,26
2031780,21
2032400,15
2033028,34
2033652,31
2034276,26
2034908,36
2035532,41
2036160,37
2036792,29
2037412,17
2038040,13
2038664,13
2039296,15
2039924,11
2040544,14
2041172,23
2041800,20
2042424,14
2043052,39
2043672,77
2044304,93
2044932,84
2045552,60
2046184,36
2046808,23
2047436,15
2048068,13
2048684,18
2049312,38
2049932,45
2050560,64
2051188,74
2051808,49
2052436,16
2053056,17
2053680,28
2054308,14
2054928,15
2055556,15
2056176,13
2056800,17
2057428,28
2058052,23
2058680,12
2059308,12
2059928,34
2060556,46
2061180,45
2061808,34
2062436,15
2063052,28
2063684,14
2064304,22
2064928,42
2065556,32
2066176,11
2066804,27
2067428,32
2068048,39
2068680,50
2069296,53
2069924,45
2070552,33
2071168,25
2071800,14
2072420,20
2073052,24
2073680,19
2074296,23
2074924,45
2075548,58
2076172,66
2076800,51
2077416,34
2078044,40
2078668,47
2079292,37
2079920,30
2080544,21
2081172,17
2081800,13
2082416,33
2083044,58
2083668,66
2084296,53
2084924,43
2085544,40
2086172,31
2086796,28
2087424,28
2088052,17
2088672,13
2089300,17
2089920,14
2090544,13
2091172,38
2091792,63
2092420,49
2093044,47
2093668,47
2094296,55
2094920,67
2095548,56
2096176,29
2096800,15
2097428,14
2098052,13
2098680,19
2099308,36
2099924,40
2100556,29
2101176,21
2101800,19
2102428,33
2103048,46
2103676,35
2104300,22
2104924,22
2105552,17
2106168,13
2106800,25
2107428,28
2108048,25
2108676,31
2109300,40
2109932,52
2110560,66
2111176,72
2111808,68
2112432,50
2113056,29
2113684,26
2114304,18
2114932,21
2115556,34
2116180,42
2116808,57
2117424,47
2118052,31
2118684,31
2119304,44
2119932,49
2120556,38
2121188,19
2121816,32
2122432,27
2123060,24
2123684,16
2124308,10
2124940,14
2125560,28
2126188,43
2126812,46
2127436,58
2128064,82
2128680,79
2129308,55
2129940,38
2130560,29
2131188,13
2131812,22
2132440,31
2133068,41
2133688,51
2134316,51
2134940,49
2135564,45
2136192,38
2136816,32
2137444,26
2138068,28
2138692,24
2139320,15
2139944,37
2140572,39
2141204,34
2141824,22
2142452,18
2143076,26
2143704,45
2144336,49
2144952,61
2145580,64
2146204,53
2146828,38
2147456,20
2148080,15
2148708,32
2149332,42
2149956,41
2150588,38
2151208,41
2151836,26
2152464,21
2153080,20
2153712,18
2154332,13
2154964,13
2155592,14
2156208,14
2156840,10
2157460,11
2158084,19
2158716,23
2159336,19
2159964,27
2160592,37
2161216,44
2161844,46
2162464,31
2163092,14
2163724,19
2164344,15
2164972,13
2165596,11
2166224,11
2166856,22
2167472,23
2168104,22
2168728,23
2169352,23
2169980,26
2170600,21
2171228,19
2171852,20
2172476,16
2173108,14
2173728,36
2174356,47
2174988,46
2175608,46
2176240,49
2176860,52
2177488,63
2178116,61
2178736,40
2179364,20
2179988,15
2180612,13
2181244,20
2181864,30
2182492,33
2183116,36
2183736,43
2184368,60
2184984,43
2185612,25
2186236,18
2186864,15
2187492,13
2188116,13
2188748,13
2189380,15
2190000,22
2190628,25
2191252,17
2191880,23
2192508,14
2193128,12
2193756,25
2194380,50
2195004,71
2195636,68
2196256,35
2196884,14
2197516,14
2198136,14
2198764,10
2199392,15
2200020,13
2200652,21
2201272,37
2201904,32
2202528,24
2203148,17
2203780,20
2204400,17
2205028,14
2205652,15
2206276,13
2206908,12
2207528,21
2208156,21
2208788,26
2209408,34
2210036,48
2210660,55
2211292,55
2211920,57
2212536,37
2213168,21
2213792,14
2214416,13
2215044,10
2215664,25
2216292,48
2216916,57
2217540,52
2218172,46
2218792,45
2219420,34
2220052,16
2220672,21
2221300,15
2221928,22
2222556,31
2223188,36
2223808,41
2224436,36
2225064,28
2225684,20
2226316,14
2226936,18
2227568,32
2228188,50
2228812,51
2229444,44
2230064,34
2230696,33
2231324,20
2231944,13
2232576,34
2233200,45
2233828,53
2234460,54
2235080,37
2235708,36
2236336,35
2236960,35
2237588,38
2238208,16
2238840,21
2239464,31
2240088,38
2240716,31
2241336,23
2241964,27
2242592,34
2243216,45
2243844,67
2244468,76
2245096,67
2245728,46
2246344,25
2246976,14
2247600,15
2248224,23
2248852,35
2249472,41
2250100,44
2250728,66
2251352,74
2251980,44
2252600,37
2253232,29
2253860,17
2254480,17
2255108,26
2255732,20
2256360,11
2256988,9
2257556,11
2258188,27
2258812,38
2259440,45
2260072,61
2260688,64
2261316,68
2261940,63
2262564,41
2263192,30
2263816,27
2264444,17
2265068,10
2265692,24
2266320,42
2266944,48
2267572,45
2268204,38
2268824,46
2269452,35
2270076,26
2270708,20
2271336,14
2271956,14
2272588,19
2273212,18
2273836,22
2274464,27
2275088,28
2275716,25
2276340,22
2276964,41
2277596,45
2278220,57
2278852,65
2279480,42
2280104,20
2280732,13
2281356,15
2281988,23
2282616,31
2283236,38
2283864,35
2284488,23
2285112,21
2285740,27
2286360,33
2286988,34
2287616,22
2288240,17
2288868,14
2289492,13
2290124,16
2290756,16
2291376,18
2292004,27
2292628,36
2293256,49
2293884,58
2294504,59
2295132,42
2295756,17
2296380,14
2297008,28
2297632,40
2298260,48
2298892,54
2299512,60
2300140,41
2300764,19
2301396,17
2302028,18
2302648,22
2303280,11
2303904,27
2304528,32
2305156,28
2305776,53
2306404,61
2307028,48
2307648,38
2308280,39
2308896,25
2309524,12
2310156,28
2310776,44
2311404,49
2312028,29
2312656,13
2313288,13
2313904,15
2314532,14
2315156,15
2315784,27
2316412,50
2317032,65
2317660,45
2318284,19
2318908,19
2319540,15
2320160,19
2320788,22
2321416,13
2322040,25
2322668,30
2323292,24
2323920,27
2324552,31
2325168,38
2325800,39
2326420,35
2327044,45
2327676,52
2328296,53
2328924,45
2329548,25
2330176,16
2330804,13
2331424,11
2332052,27
2332684,42
2333304,45
2333932,35
2334560,25
2335188,24
2335820,32
2336440,31
2337068,29
2337692,21
2338316,16
2338944,14
2339568,19
2340196,27
2340820,24
2341444,26
2342076,24
2342696,26
2343324,38
2343956,56
2344576,57
2345204,47
2345828,35
2346460,17
2347088,13
2347708,16
2348336,29
2348960,40
2349584,50
2350216,55
2350836,58
2351464,45
2352088,48
2352712,30
2353344,15
2353964,14
2354592,16
2355224,14
2355840,17
2356468,12
2357092,40
2357724,57
2358352,68
2358972,92
2359604,82
2360224,61
2360852,56
2361480,51
2362100,40
2362728,17
2363352,15
2363976,29
2364608,25
2365224,15
2365852,15
2366484,16
2367104,18
2367736,25
2368360,28
2368988,31
2369620,28
2370240,25
2370868,23
2371492,16
2372116,13
2372748,15
2373368,25
2373996,24
2374624,23
2375248,19
2375876,18
2376496,31
2377124,55
2377756,73
2378376,69
2379004,42
2379628,25
2380260,15
2380892,14
2381512,21
2382140,32
2382764,41
2383388,43
2384020,36
2384640,35
2385268,35
2385892,36
2386516,24
2387148,20
2387768,14
2388396,14
2389028,14
2389648,16
2390280,21
2390904,20
2391532,20
2392164,19
2392784,26
2393416,47
2394040,56
2394664,60
2395296,46
2395912,29
2396544,19
2397168,15
2397792,14
2398424,26
2399048,45
2399676,45
2400308,30
2400928,26
2401556,27
2402180,28
2402808,24
2403440,21
2404056,20
2404688,14
2405312,15
2405936,17
2406564,15
2407184,17
2407812,12
2408436,10
2409060,13
2409688,21
2410312,42
2410940,57
2411572,48
2412192,27
2412820,25
2413444,59
2414076,93
2414704,88
2415328,25
2415960,41
2416584,59
2417208,49
2417836,35
2418456,16
2419084,9
2419660,19
2420288,26
2420916,13
2421536,31
2422168,37
2422796,22
2423416,13
2424044,13
2424668,23
2425300,19
2425932,14
2426552,32
2427184,53
2427808,60
2428432,51
2429064,31
2429680,16
2430308,14
2430936,14
2431560,12
2432192,24
2432808,48
2433436,51
2434068,41
2434688,28
2435316,28
2435940,41
2436572,43
2437204,24
2437824,15
2438452,13
2439076,20
2439700,23
2440332,19
2440952,11
2441584,10
2442208,15
2442832,33
2443464,55
2444080,62
2444708,59
2445340,53
2445960,40
2446592,17
2447216,15
2447844,22
2448476,34
2449096,48
2449724,45
2450348,39
2450976,31
2451604,32
2452224,23
2452856,19
2453480,17
2454104,15
2454736,19
2455352,25
2455984,15
2456616,11
2457236,10
2457868,13
2458488,19
2459116,23
2459744,34
2460368,56
2460996,72
2461620,66
2462240,35
2462872,18
2463488,16
2464116,17
2464740,12
2465364,15
2465992,26
2466608,26
2467236,15
2467868,15
2468488,22
2469116,25
2469740,29
2470368,35
2471000,36
2471616,35
2472248,25
2472872,15
2473496,17
2474124,34
2474744,47
2475372,41
2475996,44
2476624,62
2477252,57
2477872,43
2478504,48
2479132,71
2479752,58
2480384,24
2481004,19
2481636,40
2482264,42
2482880,52
2483512,55
2484136,45
2484756,35
2485388,43
2486008,35
2486636,31
2487260,21
2487884,14
2488516,18
2489136,19
2489764,17
2490392,18
2491016,12
2491644,20
2492268,32
2492900,41
2493528,63
2494152,86
2494780,82
2495408,55
2496032,21
2496660,14
2497280,15
2497908,15
2498532,25
2499156,37
2499788,40
2500408,36
2501036,24
2501668,16
2502288,27
2502916,37
2503540,39
2504172,39
2504800,23
2505424,27
2506052,17
2506680,29
2507304,52
2507932,48
2508552,47
2509184,44
2509808,43
2510432,43
2511060,48
2511684,49
2512316,36
2512944,24
2513568,19
2514200,13
2514824,16
2515452,27
2516084,28
2516704,23
2517332,30
2517960,23
2518584,28
2519216,41
2519832,34
2520464,29
2521088,22
2521712,28
2522340,21
2522964,15
2523596,13
2524224,14
2524848,11
2525476,54
2526100,75
2526728,91
2527356,98
2527976,103
2528660,77
2529284,48
2529904,27
2530532,17
2531160,12
2531788,13
2532420,30
2533040,49
2533672,43
2534296,41
2534920,44
2535548,49
2536168,42
2536796,35
2537424,19
2538048,16
2538680,18
2539296,13
2539928,24
2540556,17
2541176,16
2541804,16
2542428,31
2543060,51
2543692,56
2544312,55
2544944,57
2545568,44
2546192,19
2546824,15
2547440,12
2548072,17
2548696,25
2549320,32
2549952,44
2550568,45
2551200,53
2551832,35
2552452,11
2553080,13
2553704,16
2554336,23
2554964,18
2555584,18
2556216,36
2556840,50
2557464,40
2558096,24
2558712,17
2559344,12
2559972,17
2560600,38
2561228,60
2561848,55
2562472,43
2563104,35
2563720,27
2564348,13
2564972,31
2565600,46
2566228,44
2566848,36
2567476,36
2568100,43
2568720,48
2569348,24
2569968,25
2570596,18
2571220,15
2571840,18
2572468,16
2573088,19
2573716,15
2574344,20
2574968,27
2575596,30
2576220,40
2576848,52
2577480,51
2578096,47
2578724,39
2579348,37
2579972,26
2580604,16
2581224,10
2581852,13
2582476,25
2583096,41
2583728,46
2584344,41
2584972,31
2585596,34
2586224,32
2586852,27
2587476,20
2588104,16
2588736,13
2589352,14
2589980,17
2590604,10
2591236,11
2591864,12
2592484,30
2593112,63
2593736,77
2594360,80
2594988,55
2595608,55
2596236,66
2596860,33
2597488,15
2598116,16
2598740,40
2599372,54
2600000,51
2600616,29
2601248,21
2601872,28
2602500,37
2603128,33
2603752,36
2604380,25
2605004,14
2605628,18
2606256,19
2606880,21
2607508,11
2608140,10
2608760,13
2609388,11
2610012,11
2610644,42
2611272,77
2611888,75
2612520,63
2613140,49
2613764,51
2614396,29
2615016,12
2615644,32
2616272,45
2616896,29
2617524,11
2618144,15
2618772,27
2619404,36
2620024,43
2620652,40
2621280,24
2621908,16
2622536,15
2623160,18
2623788,16
2624412,22
2625032,31
2625660,30
2626276,29
2626908,51
2627528,76
2628152,65
2628780,42
2629400,26
2630028,19
2630652,18
2631280,11
2631908,33
2632532,43
2633160,40
2633788,36
2634408,36
2635036,34
2635660,44
2636288,41
2636916,20
2637532,16
2638164,14
2638788,14
2639408,21
2640040,26
2640652,25
2641284,24
2641904,23
2642528,24
2643156,24
2643780,28
2644408,56
2645036,51
2645656,38
2646284,31
2646908,27
2647536,20
2648164,10
2648784,25
2649412,35
2650036,23
2650660,17
2651288,27
2651904,41
2652532,37
2653156,21
2653780,26
2654408,16
2655032,15
2655660,17
2656292,22
2656912,24
2657540,17
2658164,13
2658792,26
2659420,36
2660040,48
2660668,47
2661292,38
2661916,32
2662548,27
2663164,23
2663792,14
2664416,13
2665036,13
2665664,23
2666284,32
2666916,28
2667544,24
2668160,29
2668788,38
2669412,38
2670040,30
2670668,19
2671288,19
2671916,14
2672540,15
2673164,12
2673792,13
2674412,26
2675040,25
2675664,25
2676284,51
2676916,66
2677536,69
2678164,57
2678796,34
2679416,37
2680044,40
2680668,20
2681296,16
2681924,38
2682544,60
2683172,69
2683796,61
2684420,58
2685052,20
2685672,11
2686300,13
2686924,18
2687548,14
2688180,13
2688796,16
2689424,33
2690056,46
2690672,33
2691300,16
2691924,11
2692552,12
2693180,27
2693800,47
2694428,61
2695048,49
2695680,36
2696308,42
2696928,41
2697556,18
2698180,16
2698804,25
2699432,29
2700056,21
2700684,25
2701308,30
2701936,32
2702564,32
2703188,42
2703820,42
2704448,31
2705064,30
2705696,33
2706320,11
2706948,22
2707576,35
2708200,44
2708828,41
2709452,48
2710076,71
2710704,75
2711324,68
2711952,45
2712584,20
2713200,15
2713828,18
2714452,10
2715080,19
2715712,35
2716328,50
2716956,38
2717580,27
2718212,20
2718840,29
2719460,43
2720088,49
2720708,40
2721332,17
2721960,14
2722576,16
2723208,25
2723828,27
2724452,22
2725080,11
2725704,10
2726336,31
2726964,42
2727584,55
2728212,52
2728836,29
2729464,31
2730092,42
2730712,35
2731340,11
2731964,24
2732588,30
2733220,28
2733840,20
2734468,18
2735092,14
2735716,19
2736344,19
2736968,25
2737600,23
2738228,24
2738848,23
2739476,14
2740100,12
2740732,14
2741360,30
2741976,38
2742608,41
2743232,61
2743856,68
2744484,77
2745104,67
2745732,31
2746356,14
2746980,14
2747608,13
2748232,21
2748860,33
2749492,38
2750112,33
2750740,29
2751364,26
2751996,35
2752628,32
2753248,35
2753876,33
2754500,14
2755124,16
2755756,18
2756376,12
2757004,11
2757628,12
2758256,28
2758884,48
2759508,70
2760140,79
2760768,72
2761392,65
2762020,45
2762644,24
2763268,14
2763900,23
2764520,17
2765148,18
2765772,27
2766396,25
2767028,26
2767648,38
2768276,39
2768908,43
2769528,27
2770156,19
2770780,14
2771412,14
2772040,13
2772656,11
2773288,11
2773912,11
2774536,15
2775164,27
2775784,23
2776412,31
2777036,44
2777660,66
2778292,60
2778912,44
2779540,27
2780172,14
2780792,15
2781420,10
2782048,16
2782676,23
2783308,23
2783928,22
2784560,24
2785184,33
2785808,50
2786436,57
2787056,63
2787684,30
2788308,22
2788932,41
2789560,38
2790184,23
2790812,12
2791444,11
2792064,32
2792692,48
2793316,63
2793948,77
2794576,75
2795196,60
2795824,42
2796448,23
2797072,14
2797704,20
2798320,40
2798952,53
2799576,49
2800200,29
2800828,19
2801448,19
2802076,38
2802704,60
2803328,71
2803956,56
2804580,20
2805208,19
2805840,37
2806456,61
2807084,64
2807708,49
2808332,41
2808960,43
2809576,49
2810208,44
2810832,45
2811456,45
2812084,28
2812704,19
2813336,15
2813964,13
2814584,23
2815216,35
2815840,48
2816472,40
2817100,30
2817720,32
2818348,31
2818972,30
2819592,27
2820224,27
2820840,18
2821468,15
2822092,20
2822716,20
2823344,14
2823968,11
2824596,13
2825228,12
2825848,23
2826476,50
2827100,69
2827728,71
2828360,64
2828976,45
2829604,19
2830228,14
2830856,14
2831484,16
2832104,39
2832732,36
2833356,31
2833980,17
2834608,21
2835228,30
2835856,29
2836484,26
2837104,25
2837732,31
2838356,27
2838988,14
2839620,33
2840240,55
2840868,61
2841492,38
2842120,21
2842748,34
2843368,59
2843996,69
2844620,65
2845244,44
2845876,21
2846496,14
2847124,15
2847756,26
2848376,35
2849004,40
2849628,34
2850256,26
2850888,13
2851504,12
2852132,26
2852756,40
2853384,29
2854012,19
2854632,16
2855260,13
2855884,19
2856508,25
2857140,23
2857760,29
2858388,37
2859020,35
2859640,39
2860268,36
2860892,35
2861524,42
2862156,28
2862776,15
2863404,16
2864032,16
2864656,13
2865284,16
2865904,40
2866536,54
2867160,59
2867784,38
2868416,15
2869032,13
2869660,15
2870288,16
2870912,17
2871540,22
2872164,25
2872796,13
2873424,27
2874044,37
2874672,43
2875296,45
2875920,52
2876548,66
2877168,70
2877800,57
2878420,41
2879044,24
2879676,14
2880296,14
2880924,20
2881552,34
2882172,38
2882800,44
2883420,36
2884052,27
2884680,31
2885296,43
2885924,50
2886548,47
2887172,45
2887804,26
2888424,13
2889052,22
2889672,31
2890296,45
2890924,50
2891544,43
2892172,37
2892796,47
2893424,69
2894052,77
2894676,77
2895304,54
2895936,27
2896552,13
2897184,17
2897808,19
2898436,33
2899068,42
2899688,45
2900316,42
2900940,36
2901564,21
2902196,18
2902816,19
2903444,17
2904076,14
2904696,29
2905324,47
2905948,39
2906580,16
2907208,14
2907832,27
2908464,45
2909084,50
2909708,73
2910340,82
2910960,89
2911588,74
2912216,44
2912836,24
2913468,17
2914088,15
2914716,14
2915348,27
2915968,40
2916596,43
2917224,41
2917852,31
2918484,28
2919104,33
2919732,31
2920356,31
2920980,18
2921608,14
2922224,13
2922856,14
2923480,15
2924104,14
2924732,16
2925352,29
2925980,45
2926612,62
2927232,78
2927864,84
2928488,56
2929116,21
2929748,14
2930368,15
2930996,11
2931624,12
2932248,33
2932876,48
2933496,46
2934124,49
2934748,56
2935376,57
2936004,40
2936624,27
2937252,13
2937884,13
2938504,15
2939136,14
2939760,11
2940388,13
2941020,11
2941640,17
2942268,25
2942896,62
2943520,83
2944152,91
2944768,77
2945396,46
2946020,32
2946644,19
2947276,13
2947896,13
2948524,29
2949156,36
2949776,33
2950404,31
2951028,27
2951656,29
2952284,27
2952904,25
2953532,26
2954156,18
2954780,15
2955412,14
2956032,16
2956660,33
2957288,39
2957908,35
2958540,34
2959160,37
2959792,48
2960420,53
2961040,57
2961668,52
2962292,35
2962920,17
2963548,15
2964168,16
2964796,19
2965420,37
2966044,51
2966676,44
2967296,35
2967924,37
2968548,36
2969172,31
2969804,26
2970424,23
2971052,22
2971680,24
2972296,20
2972928,12
2973552,16
2974180,27
2974812,28
2975432,32
2976060,50
2976684,75
2977308,80
2977936,61
2978552,25
2979184,17
2979808,26
2980432,23
2981060,16
2981680,11
2982308,13
2982940,17
2983560,15
2984188,16
2984812,19
2985444,28
2986072,27
2986692,22
2987320,17
2987944,16
2988572,14
2989200,14
2989820,25
2990448,20
2991072,10
2991696,11
2992324,11
2992944,27
2993572,37
2994204,35
2994824,27
2995456,24
2996076,27
2996708,29
2997336,16
2997960,15
2998588,24
2999212,23
2999836,21
3000468,33
3001088,39
3001716,39
3002340,39
3002964,43
3003596,40
3004216,32
3004848,21
3005476,13
3006096,15
3006724,21
3007352,24
3007984,66
3008616,85
3009232,82
3009864,83
3010488,67
3011112,45
3011740,13
3012360,18
3012988,14
3013616,19
3014240,16
3014868,11
3015492,12
3016124,19
3016756,22
3017376,29
3018008,32
3018632,35
3019260,39
3019892,36
3020512,27
3021144,15
3021768,16
3022392,26
3023020,27
3023640,20
3024272,19
3024896,18
3025520,20
3026152,41
3026776,61
3027408,69
3028036,54
3028656,34
3029288,21
3029912,14
3030536,15
3031168,16
3031784,32
3032416,48
3033040,44
3033664,36
3034292,34
3034912,31
3035544,29
3036172,31
3036792,29
3037424,20
3038048,19
3038680,18
3039308,11
3039928,13
3040560,20
3041184,35
3041808,37
3042436,40
3043056,52
3043688,55
3044312,59
3044936,54
3045564,44
3046184,34
3046816,18
3047444,12
3048064,16
3048692,21
3049316,33
3049948,49
3050580,47
3051200,41
3051828,53
3052456,40
3053080,18
3053708,15
3054328,29
3054960,29
3055584,21
3056208,19
3056836,26
3057456,33
3058088,41
3058716,38
3059336,38
3059968,48
3060592,53
3061224,48
3061852,29
3062472,21
3063100,15
3063728,13
3064352,15
3064984,26
3065600,32
3066228,27
3066856,29
3067480,31
3068112,33
3068732,35
3069364,28
3069992,26
3070616,16
3071248,15
3071876,15
3072508,13
3073136,12
3073760,12
3074388,14
3075012,21
3075636,34
3076264,53
3076884,64
3077512,72
3078136,55
3078760,30
3079388,14
3080012,19
3080640,17
3081268,15
3081888,25
3082516,34
3083140,35
3083772,33
3084400,34
3085024,43
3085652,36
3086276,24
3086900,13
3087532,18
3088152,19
3088780,15
3089404,18
3090032,27
3090660,17
3091284,13
3091916,16
3092544,22
3093168,36
3093796,49
3094420,52
3095044,36
3095676,26
3096296,27
3096924,24
3097552,19
3098176,11
3098804,26
3099424,43
3100052,47
3100684,48
3101304,43
3101936,35
3102560,24
3103188,14
3103820,14
3104440,24
3105068,25
3105692,23
3106316,21
3106948,18
3107568,25
3108200,15
3108824,19
3109448,38
3110076,47
3110696,51
3111328,53
3111960,31
3112580,14
3113208,13
3113832,15
3114460,17
3115092,18
3115712,29
3116340,38
3116968,39
3117592,20
3118220,28
3118840,34
3119472,21
3120096,14
3120720,14
3121348,16
3121968,15
3122596,11
3123228,10
3123848,11
3124476,27
3125100,47
3125732,54
3126360,78
3126984,93
3127612,95
3128240,73
3128864,37
3129492,16
3130112,13
3130740,20
3131368,28
3131992,30
3132624,35
3133244,36
3133872,34
3134504,29
3135120,28
3135752,29
3136376,29
3137004,25
3137636,18
3138256,15
3138884,13
3139508,13
3140132,19
3140764,22
3141384,34
3142016,38
3142640,45
3143264,45
3143892,54
3144516,56
3145148,34
3145780,18
3146400,13
3147028,15
3147656,12
3148284,24
3148916,38
3149536,45
3150164,35
3150792,23
3151416,17
3152048,27
3152664,29
3153292,25
3153920,20
3154544,17
3155176,17
3155800,35
3156432,33
3157060,25
3157680,25
3158312,24
3158936,29
3159560,47
3160192,53
3160808,50
3161440,41
3162064,22
3162688,13
3163320,14
3163936,13
3164568,10
3165196,11
3165816,25
3166448,32
3167072,35
3167704,37
3168332,39
3168952,37
3169584,31
3170208,22
3170832,15
3171464,21
3172084,22
3172712,20
3173336,15
3173964,16
3174596,23
3175216,22
3175844,25
3176476,39
3177096,49
3177728,61
3178352,59
3178980,33
3179612,12
3180232,16
3180864,17
3181488,17
3182112,27
3182740,34
3183360,24
3183992,19
3184616,19
3185240,20
3185872,18
3186488,13
3187120,17
3187752,17
3188372,14
3189000,14
3189628,19
3190260,23
3190888,28
3191512,29
3192144,32
3192768,46
3193396,58
3194028,60
3194648,51
3195280,28
3195912,14
3196532,13
3197160,24
3197788,31
3198420,40
3199048,41
3199668,32
3200300,24
3200924,15
3201544,16
3202176,25
3202792,28
3203420,20
3204044,14
3204668,14
3205296,13
3205912,12
3206540,22
3207164,25
3207792,29
3208420,35
3209044,30
3209672,33
3210300,45
3210920,64
3211548,50
3212172,25
3212800,20
3213432,17
3214048,12
3214676,15
3215300,25
3215928,35
3216556,32
3217176,28
3217804,27
3218428,32
3219056,33
3219684,32
3220308,27
3220940,23
3221568,13
3222188,17
3222816,19
3223440,18
3224068,22
3224700,30
3225320,32
3225952,40
3226572,54
3227196,65
3227828,58
3228448,31
3229076,24
3229708,19
3230328,15
3230956,11
3231584,27
3232212,42
3232844,46
3233464,40
3234092,27
3234716,23
3235340,30
3235972,34
3236592,29
3237220,18
3237844,14
3238468,22
3239100,20
3239720,11
3240348,22
3240980,47
3241600,50
3242228,45
3242852,50
3243484,52
3244112,62
3244732,64
3245360,52
3245984,42
3246612,28
3247240,17
3247860,30
3248488,30
3249112,36
3249740,27
3250368,26
3250988,36
3251616,35
3252248,36
3252864,49
3253496,35
3254120,15
3254748,22
3255380,19
3256000,19
3256628,19
3257252,30
3257880,33
3258508,26
3259128,29
3259760,47
3260384,58
3261008,59
3261640,53
3262256,34
3262888,15
3263516,14
3264136,23
3264768,40
3265392,47
3266020,44
3266652,24
3267272,11
3267900,11
3268524,12
3269148,19
3269780,26
3270400,24
3271028,16
3271656,14
3272280,15
3272908,16
3273528,17
3274160,27
3274788,29
3275408,30
3276040,45
3276664,63
3277296,67
3277924,64
3278540,40
3279172,27
3279792,15
3280416,16
3281044,30
3281660,36
3282288,47
3282912,46
3283532,37
3284164,34
3284780,31
3285412,34
3286040,27
3286656,26
3287284,18
3287908,13
3288536,16
3289164,19
3289784,26
3290412,24
3291032,21
3291656,20
3292284,22
3292900,42
3293532,39
3294152,50
3294776,60
3295408,62
3296024,45
3296652,19
3297272,15
3297896,29
3298524,37
3299148,35
3299780,32
3300408,30
3301024,29
3301652,29
3302276,31
3302908,25
3303536,18
3304152,14
3304780,16
3305404,24
3306028,27
3306656,20
3307272,21
3307900,22
3308524,25
3309148,34
3309776,45
3310392,55
3311024,59
3311652,52
3312272,37
3312900,18
3313524,13
3314152,15
3314784,33
3315404,47
3316032,51
3316656,36
3317280,29
3317908,36
3318528,44
3319156,37
3319780,31
3320404,21
3321032,15
3321648,13
3322280,20
3322908,30
3323528,38
3324156,43
3324780,46
3325408,39
3326040,46
3326660,49
3327288,64
3327912,60
3328536,41
3329164,20
3329784,15
3330412,30
3331032,35
3331656,35
3332284,40
3332904,45
3333532,38
3334160,31
3334784,24
3335412,17
3336036,20
3336664,21
3337292,14
3337912,16
3338540,17
3339164,19
3339788,20
3340416,26
3341032,38
3341664,48
3342284,46
3342908,56
3343540,61
3344160,54
3344788,48
3345416,39
3346036,14
3346664,26
3347288,27
3347916,27
3348544,28
3349168,29
3349796,27
3350420,23
3351044,27
3351676,32
3352296,30
3352924,37
3353548,35
3354176,32
3354804,22
3355424,15
3356052,12
3356684,14
3357304,24
3357932,40
3358556,37
3359188,53
3359820,68
3360440,81
3361068,76
3361692,46
3362312,29
3362940,19
3363560,17
3364188,10
3364812,22
3365432,46
3366060,46
3366680,39
3367308,40
3367932,38
3368560,29
3369188,23
3369812,29
3370440,25
3371068,18
3371688,15
3372316,12
3372940,27
3373568,29
3374200,32
3374816,42
3375448,45
3376068,66
3376692,74
3377320,69
3377944,57
3378572,34
3379196,18
3379824,14
3380452,15
3381076,22
3381704,34
3382332,42
3382952,41
3383580,36
3384204,29
3384832,31
3385464,29
3386080,25
3386708,23
3387332,17
3387956,13
3388584,14
3389208,21
3389836,26
3390460,28
3391088,25
3391716,31
3392340,33
3392972,51
3393600,57
3394216,63
3394844,46
3395468,21
3396096,13
3396728,16
3397344,21
3397972,33
3398596,51
3399220,50
3399852,34
3400472,25
3401100,23
3401724,27
3402352,35
3402980,29
3403604,23
3404232,14
3404860,16
3405476,17
3406108,17
3406728,23
3407360,25
3407988,14
3408608,15
3409236,45
3409860,83
3410484,89
3411112,70
3411736,27
3412364,17
3412988,18
3413616,14
3414244,13
3414868,11
3415500,10
3416128,16
3416752,23
3417380,25
3418008,24
3418628,28
3419260,38
3419880,37
3420508,31
3421132,16
3421756,15
3422388,12
3423008,11
3423636,10
3424268,16
3424888,23
3425516,27
3426140,36
3426772,39
3427400,45
3428020,45
3428648,36
3429272,30
3429896,15
3430528,14
3431144,15
3431772,11
3432396,12
3433020,14
3433652,14
3434272,17
3434900,24
3435532,30
3436152,33
3436784,25
3437408,17
3438036,13
3438668,24
3439288,37
3439920,33
3440544,29
3441168,29
3441796,32
3442416,37
3443044,37
3443668,41
3444292,51
3444920,38
3445536,21
3446168,14
3446796,13
3447416,20
3448044,43
3448668,73
3449300,80
3449928,45
3450544,14
3451176,16
3451800,11
3452424,15
3453052,16
3453672,14
3454300,13
3454928,14
3455552,13
3456184,15
3456800,15
3457428,15
3458056,26
3458672,36
3459304,54
3459928,65
3460556,72
3461188,48
3461808,27
3462436,17
3463060,14
3463684,13
3464316,16
3464936,29
3465564,44
3466188,48
3466816,40
3467444,26
3468064,15
3468692,10
3469324,10
3469944,15
3470572,16
3471196,13
3471828,15
3472460,14
3473080,17
3473708,19
3474332,19
3474956,21
3475588,34
3476208,51
3476836,50
3477460,46
3478084,28
3478716,13
3479336,13
3479968,13
3480596,13
3481216,25
3481848,31
3482468,21
3483096,16
3483728,23
3484344,28
3484972,23
3485596,18
3486220,14
3486848,12
3487472,14
3488100,15
3488724,14
3489348,13
3489976,14
3490592,13
3491220,24
3491852,30
3492472,45
3493100,53
3493724,49
3494356,49
3494988,45
3495608,41
3496236,22
3496860,13
3497484,11
3498116,20
3498736,21
3499364,27
3499992,45
3500616,52
3501248,37
3501864,38
3502496,24
3503124,16
3503744,17
3504376,13
3505000,13
3505628,14
3506256,22
3506880,26
3507508,37
3508136,36
3508760,27
3509388,35
3510008,35
3510636,15
3511264,13
3511888,21
3512520,40
3513136,52
3513768,50
3514396,16
3515016,14
3515648,21
3516272,19
3516904,23
3517532,28
3518152,37
3518784,39
3519408,42
3520032,37
3520660,26
3521280,23
3521908,16
3522532,14
3523156,16
3523788,18
3524408,24
3525036,25
3525668,36
3526288,53
3526916,63
3527540,69
3528172,52
3528800,31
3529416,25
3530048,22
3530672,11
3531296,21
3531924,34
3532544,51
3533176,41
3533796,25
3534420,17
3535052,20
3535672,25
3536300,27
3536932,20
3537552,15
3538180,15
3538804,17
3539436,24
3540064,21
3540688,13
3541316,13
3541940,33
3542568,55
3543196,56
3543816,61
3544448,53
3545068,38
3545692,24
3546324,13
3546948,20
3547576,35
3548208,48
3548824,56
3549452,52
3550076,37
3550708,18
3551340,13
3551960,19
3552592,18
3553216,15
3553840,15
3554468,15
3555088,21
3555720,28
3556344,27
3556968,16
3557596,11
3558224,19
3558856,25
3559484,40
3560104,54
3560732,58
3561356,51
3561988,25
3562620,14
3563240,16
3563872,32
3564496,45
3565120,49
3565748,36
3566368,27
3566996,28
3567628,36
3568248,26
3568876,11
3569500,13
3570132,13
3570764,18
3571384,14
3572012,15
3572636,26
3573264,44
3573892,53
3574512,39
3575144,17
3575768,20
3576392,31
3577024,39
3577640,46
3578272,37
3578904,22
3579520,15
3580152,33
3580776,20
3581408,13
3582040,35
3582660,43
3583292,37
3583916,22
3584544,11
3585172,11
3585792,11
3586420,13
3587044,22
3587668,36
3588296,39
3588920,24
3589548,16
3590180,36
3590800,34
3591428,31
3592052,35
3592684,46
3593312,57
3593932,63
3594560,55
3595184,34
3595812,17
3596440,13
3597060,16
3597688,25
3598312,47
3598936,65
3599568,39
3600184,19
3600812,19
3601444,16
3602064,16
3602692,23
3603316,27
3603948,15
3604576,13
3605200,13
3605828,19
3606448,27
3607072,29
3607700,31
3608320,35
3608948,30
3609572,44
3610196,60
3610824,66
3611448,47
3612076,21
3612708,12
3613328,16
3613956,18
3614580,27
3615212,39
3615840,41
3616464,39
3617092,35
3617716,35
3618340,36
3618968,30
3619592,25
3620220,20
3620844,18
3621468,14
3622096,12
3622720,13
3623348,24
3623980,25
3624600,40
3625228,63
3625852,72
3626484,71
3627112,75
3627732,69
3628360,37
3628984,19
3629608,14
3630236,14
3630856,21
3631484,41
3632112,59
3632736,55
3633364,47
3633988,29
3634620,27
3635248,42
3635872,43
3636500,31
3637124,21
3637752,20
3638384,19
3639000,44
3639628,50
3640256,49
3640880,40
3641508,36
3642128,22
3642756,21
3643384,19
3644004,32
3644636,53
3645260,54
3645892,28
3646520,31
3647144,23
3647772,11
3648400,14
3649028,29
3649656,31
3650272,28
3650904,32
3651528,34
3652152,35
3652780,40
3653400,37
3654028,21
3654652,16
3655280,15
3655908,15
3656532,15
3657164,24
3657796,48
3658416,55
3659044,66
3659668,73
3660296,64
3660924,52
3661544,47
3662172,36
3662800,20
3663420,14
3664052,27
3664672,22
3665300,20
3665932,23
3666552,36
3667184,48
3667808,45
3668436,49
3669068,46
3669688,31
3670320,18
3670944,14
3671568,15
3672200,12
3672816,14
3673444,21
3674072,31
3674696,45
3675328,61
3675944,68
3676576,67
3677208,62
3677828,51
3678456,30
3679084,15
3679712,13
3680344,14
3680964,19
3681592,35
3682216,53
3682840,53
3683472,43
3684088,39
3684716,20
3685344,11
3685968,14
3686600,20
3687216,21
3687844,13
3688472,14
3689088,21
3689716,21
3690340,17
3690968,18
3691596,22
3692216,31
3692844,48
3693468,59
3694092,57
3694720,34
3695336,15
3695968,20
3696592,19
3697216,22
3697844,32
3698464,53
3699092,54
3699724,16
3700344,11
3700972,10
3701596,28
3702228,40
3702860,29
3703480,13
3704108,37
3704736,39
3705360,32
3705988,27
3706608,23
3707236,15
3707860,11
3708484,14
3709116,20
3709736,43
3710364,61
3710996,55
3711616,39
3712248,32
3712872,19
3713500,14
3714128,17
3714752,28
3715380,33
3716004,39
3716628,37
3717260,28
3717880,29
3718508,41
3719132,39
3719756,30
3720388,24
3721008,15
3721636,13
3722268,18
3722888,37
3723516,49
3724140,43
3724772,31
3725404,20
3726024,39
3726656,54
3727280,63
3727904,46
3728532,34
3729152,25
3729780,17
3730404,16
3731028,32
3731660,50
3732280,54
3732912,38
3733540,42
3734160,47
3734788,25
3735416,18
3736044,28
3736676,14
3737296,14
3737928,21
3738548,43
3739172,43
3739804,27
3740424,18
3741052,15
3741680,17
3742304,25
3742932,34
3743556,47
3744188,51
3744820,32
3745440,21
3746068,18
3746692,15
3747324,13
3747956,34
3748576,52
3749204,50
3749828,32
3750456,17
3751084,11
3751704,22
3752332,34
3752964,24
3753584,14
3754216,14
3754840,16
3755472,25
3756104,14
3756720,15
3757352,21
3757976,21
3758600,19
3759232,30
3759852,45
3760480,63
3761108,58
3761732,30
3762364,14
3762984,17
3763616,13
3764244,24
3764864,46
3765492,51
3766120,37
3766748,33
3767380,24
3768000,20
3768628,13
3769252,12
3769876,13
3770508,16
3771128,17
3771760,18
3772384,19
3773008,16
3773636,13
3774256,15
3774888,15
3775516,24
3776136,45
3776768,53
3777392,47
3778020,36
3778652,23
3779272,15
3779900,14
3780524,13
3781148,20
3781780,16
3782400,17
3783028,17
3783652,27
3784280,34
3784908,39
3785528,39
3786160,28
3786788,18
3787408,24
3788040,16
3788664,28
3789296,23
3789924,10
3790544,16
3791172,25
3791800,37
3792424,56
3793052,54
3793672,64
3794304,57
3794928,46
3795552,37
3796180,21
3796804,16
3797436,11
3798068,28
3798688,37
3799320,25
3799944,27
3800572,35
3801204,40
3801824,43
3802452,39
3803076,35
3803704,28
3804332,14
3804952,15
3805584,21
3806212,24
3806832,23
3807464,19
3808088,10
3808716,15
3809348,38
3809968,49
3810596,65
3811220,67
3811848,41
3812476,21
3813096,24
3813728,19
3814352,13
3814976,19
3815608,15
3816228,10
3816856,22
3817488,41
3818104,52
3818736,51
3819360,57
3819992,65
3820624,54
3821240,20
3821872,40
3822496,65
3823120,48
3823752,36
3824372,27
3825000,19
3825624,42
3826252,58
3826880,59
3827504,66
3828136,64
3828764,47
3829384,24
3830016,13
3830640,22
3831272,40
3831900,52
3832524,55
3833152,53
3833780,45
3834404,36
3835036,30
3835656,28
3836288,24
3836912,18
3837536,18
3838168,19
3838796,40
3839428,35
3840060,34
3840676,34
3841308,46
3841928,42
3842560,44
3843188,46
3843808,50
3844436,38
3845060,24
3845684,14
3846316,12
3846936,17
3847564,37
3848192,50
3848816,35
3849444,11
3850068,10
3850700,12
3851328,20
3851952,24
3852580,17
3853204,13
3853828,18
3854460,14
3855080,14
3855708,18
3856332,16
3856956,20
3857588,24
3858208,28
3858836,30
3859468,38
3860088,48
3860716,55
3861340,37
3861972,25
3862600,15
3863224,17
3863852,11
3864480,24
3865100,26
3865732,27
3866352,22
3866980,17
3867604,12
3868228,21
3868860,29
3869480,33
3870108,22
3870740,16
3871360,13
3871988,12
3872616,11
3873244,9
3873824,10
3874448,11
3875076,23
3875704,47
3876332,48
3876964,46
3877584,50
3878216,38
3878840,28
3879464,17
3880096,16
3880712,42
3881344,30
3881968,23
3882592,19
3883220,12
3883848,14
3884476,19
3885108,18
3885728,16
3886360,17
3886984,17
3887616,13
3888244,22
3888864,13
3889492,10
3890120,12
3890744,22
3891376,27
3891992,22
3892620,34
3893244,44
3893872,48
3894500,39
3895124,25
3895756,16
3896388,14
3897008,13
3897636,11
3898260,17
3898884,19
3899516,18
3900136,30
3900768,29
3901392,36
3902016,37
3902648,25
3903268,12
3903896,13
3904528,13
3905148,16
3905776,20
3906400,21
3907028,28
3907660,24
3908280,32
3908908,42
3909532,47
3910160,45
3910788,51
3911408,52
3912040,34
3912664,15
3913288,13
3913916,11
3914536,27
3915168,46
3915796,46
3916416,48
3917048,49
3917672,25
3918300,21
3918932,22
3919552,25
3920184,25
3920808,17
3921428,14
3922060,10
3922680,11
3923308,17
3923932,45
3924560,61
3925188,58
3925808,51
3926440,38
3927068,35
3927688,33
3928320,35
3928944,39
3929572,19
3930204,14
3930824,17
3931456,17
3932080,15
3932704,17
3933332,20
3933952,32
3934580,41
3935204,33
3935828,25
3936460,22
3937080,25
3937708,21
3938340,16
3938960,11
3939588,10
3940212,18
3940844,42
3941472,46
3942096,44
3942724,45
3943348,53
3943972,63
3944604,44
3945224,27
3945852,14
3946476,15
3947100,14
3947732,17
3948356,23
3948988,39
3949616,43
3950232,36
3950864,39
3951488,45
3952120,30
3952748,18
3953368,13
3953996,13
3954620,12
3955244,20
3955876,42
3956496,47
3957124,39
3957748,39
3958376,35
3959004,29
3959632,28
3960260,56
3960892,60
3961512,47
3962144,36
3962768,24
3963400,14
3964028,18
3964648,43
3965276,46
3965904,25
3966528,16
3967160,18
3967776,25
3968408,24
3969040,22
3969656,27
3970288,23
3970912,18
3971540,14
3972172,16
3972792,30
3973424,29
3974048,18
3974672,19
3975300,22
3975920,43
3976548,55
3977172,54
3977800,37
3978428,28
3979048,18
3979676,14
3980308,11
3980928,23
3981556,43
3982184,54
3982812,42
3983444,32
3984064,30
3984692,38
3985316,37
3985940,27
3986572,14
3987192,13
3987824,24
3988448,47
3989072,63
3989704,52
3990320,36
3990952,19
3991584,20
3992204,42
3992832,40
3993460,37
3994092,31
3994720,27
3995340,22
3995968,20
3996596,13
3997220,34
3997848,64
3998472,59
3999104,35
3999728,21
4000352,18
4000980,27
4001604,37
4002232,37
4002860,15
4003480,31
4004108,23
4004732,13
4005364,12
4005992,17
4006612,21
4007240,21
4007864,13
4008488,22
4009116,46
4009736,78
4010364,92
4010988,70
4011612,34
4012244,22
4012868,16
4013496,14
4014128,10
4014744,16
4015372,31
4015996,41
4016628,35
4017256,43
4017880,58
4018508,62
4019132,36
4019760,20
4020388,12
4021008,15
4021636,25
4022260,49
4022884,60
4023516,50
4024140,21
4024768,12
4025396,11
4026016,23
4026644,33
4027268,32
4027900,31
4028528,40
4029152,47
4029780,29
4030404,12
4031028,19
4031660,37
4032280,56
4032912,52
4033536,21
4034160,17
4034788,31
4035412,27
4036044,25
4036672,17
4037292,13
4037920,14
4038544,42
4039172,35
4039804,18
4040424,13
4041052,11
4041676,19
4042300,37
4042932,47
4043552,54
4044184,47
4044812,39
4045432,36
4046060,17
4046684,17
4047312,30
4047944,23
4048564,24
4049192,21
4049816,21
4050440,26
4051068,28
4051688,27
4052316,23
4052944,18
4053568,14
4054200,15
4054816,21
4055448,18
4056076,16
4056696,20
4057324,27
4057952,28
4058580,18
4059208,33
4059832,60
4060464,77
4061088,61
4061712,26
4062344,15
4062960,18
4063592,16
4064216,21
4064840,29
4065468,42
4066088,42
4066716,31
4067348,12
4067968,11
4068596,18
4069224,32
4069852,34
4070484,24
4071104,14
4071732,14
4072360,28
4072984,25
4073612,10
4074232,12
4074864,25
4075488,42
4076112,54
4076744,63
4077360,59
4077992,43
4078624,23
4079240,14
4079872,15
4080496,23
4081124,30
4081756,38
4082376,47
4083008,45
4083632,36
4084256,27
4084884,28
4085504,25
4086136,19
4086760,14
4087384,17
4088016,19
4088632,25
4089264,20
4089896,21
4090512,31
4091144,38
4091768,43
4092400,57
4093032,64
4093652,76
4094280,74
4094908,43
4095532,17
4096164,18
4096780,32
4097408,47
4098028,50
4098652,40
4099280,35
4099892,36
4100524,25
4101152,21
4101768,22
4102396,31
4103020,30
4103648,14
4104276,15
4104896,13
4105524,14
4106148,21
4106768,14
4107400,10
4108016,19
4108644,42
4109268,56
4109888,57
4110520,55
4111136,40
4111764,35
4112396,19
4113016,13
4113644,10
4114268,10
4114896,18
4115524,23
4116144,13
4116772,11
4117396,18
4118020,18
4118652,14
4119272,21
4119900,24
4120524,18
4121148,13
4121776,14
4122396,13
4123028,11
4123656,19
4124272,24
4124904,21
4125524,29
4126156,38
4126784,49
4127400,49
4128032,46
4128652,31
4129280,22
4129912,13
4130528,19
4131156,24
4131780,23
4132404,34
4133036,42
4133656,46
4134284,37
4134908,44
4135536,36
4136164,25
4136788,26
4137420,19
4138048,13
4138664,22
4139292,28
4139916,35
4140548,12
4141176,11
4141792,17
4142424,53
4143048,72
4143672,70
4144300,70
4144920,53
4145548,37
4146172,33
4146800,25
4147428,11
4148052,26
4148680,47
4149308,50
4149928,38
4150556,33
4151180,33
4151812,30
4152440,26
4153064,25
4153692,21
4154316,13
4154940,20
4155572,19
4156192,17
4156820,25
4157452,28
4158072,40
4158700,52
4159324,51
4159956,59
4160588,50
4161208,30
4161836,15
4162456,13
4163080,14
4163708,13
4164328,34
4164956,48
4165580,57
4166204,39
4166832,17
4167448,10
4168076,30
4168700,33
4169328,21
4169956,13
4170580,13
4171208,14
4171836,15
4172456,22
4173084,24
4173708,34
4174340,52
4174968,69
4175584,68
4176216,56
4176840,56
4177460,45
4178092,31
4178712,20
4179340,14
4179964,23
4180584,40
4181216,45
4181836,41
4182468,45
4183096,43
4183712,33
4184344,33
4184968,25
4185596,15
4186228,14
4186848,15
4187476,15
4188100,16
4188724,14
4189352,10
4189976,12
4190604,27
4191228,30
4191856,37
4192488,49
4193108,59
4193740,52
4194368,20
4194992,17
4195620,25
4196244,30
4196868,27
4197500,13
4198120,40
4198752,37
4199372,28
4199996,19
4200624,16
4201248,22
4201876,22
4202504,24
4203128,25
4203756,15
4204380,21
4205012,23
4205640,21
4206256,11
4206884,11
4207508,17
4208136,24
4208764,42
4209384,56
4210012,54
4210636,52
4211260,42
4211888,29
4212504,14
4213136,14
4213760,18
4214384,31
4215012,38
4215636,45
4216268,34
4216900,16
4217520,17
4218152,30
4218776,20
4219400,15
4220028,14
4220648,17
4221276,14
4221900,13
4222524,16
4223156,24
4223776,26
4224408,33
4225036,44
4225656,67
4226284,62
4226908,50
4227536,34
4228164,20
4228784,13
4229412,16
4230036,22
4230664,30
4231292,59
4231912,65
4232540,36
4233164,14
4233788,20
4234420,30
4235040,21
4235668,24
4236300,18
4236920,15
4237548,13
4238172,26
4238804,46
4239432,45
4240056,27
4240684,15
4241308,12
4241928,25
4242560,55
4243176,75
4243808,77
4244432,54
4245056,32
4245684,16
4246304,14
4246932,23
4247564,40
4248184,59
4248812,47
4249436,37
4250068,27
4250696,21
4251320,27
4251948,25
4252572,17
4253196,14
4253828,16
4254448,18
4255076,22
4255704,20
4256328,14
4256956,10
4257576,11
4258204,20
4258836,46
4259456,57
4260084,53
4260708,40
4261336,23
4261968,14
4262584,17
4263212,15
4263836,18
4264460,25
4265088,25
4265704,26
4266336,14
4266956,11
4267580,13
4268212,14
4268832,12
4269460,22
4270088,22
4270712,26
4271340,16
4271964,12
4272596,11
4273228,10
4273848,14
4274476,13
4275100,17
4275728,45
4276356,76
4276976,68
4277604,51
4278228,43
4278852,34
4279484,28
4280104,19
4280732,11
4281364,28
4281984,37
4282612,46
4283236,41
4283868,30
4284496,30
4285116,31
4285744,28
4286368,17
4286992,14
4287624,13
4288240,15
4288868,23
4289492,22
4290116,23
4290744,11
4291368,45
4291996,64
4292628,61
4293248,78
4293876,92
4294500,63
4295132,36
4295760,25
4296384,17
4297012,11
4297636,31
4298264,54
4298892,60
4299512,60
4300144,45
4300768,21
4301392,10
4302020,16
4302640,27
4303268,25
4303900,16
4304520,15
4305148,21
4305772,35
4306404,46
4307032,42
4307652,19
4308280,17
4308904,59
4309528,71
4310160,52
4310776,39
4311408,34
4312028,24
4312652,17
4313284,12
4313904,11
4314532,12
4315164,34
4315784,42
4316416,51
4317040,47
4317668,39
4318300,32
4318920,28
4319552,33
4320176,17
4320800,17
4321428,18
4322048,20
4322676,19
4323300,13
4323924,10
4324552,10
4325172,28
4325800,58
4326428,98
4327048,113
4327728,68
4328344,32
4328968,19
4329596,16
4330216,13
4330848,29
4331472,32
4332096,33
4332724,27
4333344,27
4333972,42
4334604,74
4335224,70
4335856,60
4336480,32
4337108,13
4337740,26
4338360,71
4338992,40
4339616,81
4340240,121
4340920,92
4341544,65
4342176,62
4342804,52
4343424,54
4344052,42
4344676,28
4345308,25
4345936,19
4346560,14
4347188,16
4347812,41
4348440,65
4349068,80
4349688,73
4350316,31
4350944,13
4351568,12
4352200,11
4352816,14
4353444,23
4354072,16
4354696,15
4355324,10
4355948,16
4356576,24
4357208,43
4357824,49
4358452,58
4359076,64
4359700,66
4360332,56
4360952,31
4361580,13
4362204,13
4362828,13
4363460,10
4364080,13
4364708,12
4365340,17
4365960,35
4366588,40
4367212,38
4367844,45
4368472,35
4369096,15
4369724,13
4370348,14
4370972,13
4371604,18
4372224,25
4372852,19
4373476,13
4374100,11
4374732,16
4375352,37
4375984,61
4376612,84
4377232,79
4377864,45
4378488,23
4379116,13
4379748,16
4380368,26
4380996,27
4381624,32
4382248,34
4382876,30
4383496,28
4384128,38
4384748,31
4385372,23
4386004,17
4386628,13
4387256,14
4387888,13
4388504,17
4389132,21
4389756,25
4390388,25
4391020,18
4391640,10
4392272,21
4392896,51
4393520,75
4394152,62
4394768,45
4395400,29
4396024,19
4396648,11
4397280,29
4397904,49
4398536,51
4399164,43
4399784,50
4400416,44
4401040,31
4401668,25
4402300,30
4402920,25
4403552,15
4404176,38
4404796,58
4405428,56
4406048,36
4406676,19
4407308,12
4407928,25
4408556,42
4409184,57
4409812,52
4410444,41
4411064,29
4411692,28
4412320,34
4412944,20
4413572,19
4414192,41
4414824,44
4415448,45
4416072,51
4416700,43
4417320,37
4417948,42
4418580,36
4419200,19
4419828,17
4420452,16
4421084,14
4421716,24
4422336,37
4422968,36
4423592,36
4424216,39
4424844,40
4425464,59
4426092,69
4426716,69
4427340,54
4427972,27
4428592,13
4429224,15
4429852,15
4430472,22
4431100,32
4431728,37
4432356,34
4432988,36
4433608,40
4434236,44
4434860,43
4435484,40
4436116,27
4436736,26
4437364,40
4437992,32
4438616,12
4439244,10
4439864,12
4440496,19
4441124,52
4441744,90
4442372,96
4443000,91
4443628,84
4444260,77
4444880,63
4445508,43
4446132,21
4446756,12
4447388,26
4448008,32
4448636,43
4449260,49
4449884,38
4450516,26
4451140,35
4451772,36
4452404,22
4453024,12
4453656,16
4454280,17
4454912,19
4455540,21
4456160,23
4456788,18
4457416,10
4458040,10
4458668,35
4459288,59
4459920,59
4460548,50
4461168,44
4461800,37
4462424,27
4463052,15
4463684,14
4464304,33
4464936,42
4465560,43
4466184,36
4466816,37
4467432,50
4468064,48
4468688,32
4469312,19
4469944,15
4470560,18
4471188,14
4471820,14
4472440,22
4473072,34
4473696,38
4474328,33
4474956,36
4475576,47
4476208,51
4476832,49
4477456,33
4478088,17
4478704,15
4479336,14
4479964,11
4480592,16
4481220,32
4481840,29
4482468,26
4483096,44
4483720,45
4484348,24
4484972,15
4485604,16
4486232,16
4486852,15
4487480,15
4488104,13
4488728,23
4489356,30
4489976,14
4490604,10
4491228,12
4491852,20
4492484,49
4493104,75
4493736,68
4494364,36
4494984,20
4495616,13
4496240,15
4496868,10
4497496,11
4498120,10
4498748,12
4499376,14
4500000,22
4500628,29
4501248,40
4501876,34
4502504,29
4503128,34
4503760,27
4504376,16
4505008,11
4505640,15
4506256,24
4506884,28
4507508,31
4508136,32
4508764,42
4509384,51
4510012,64
4510636,52
4511260,42
4511892,28
4512512,14
4513140,13
4513764,15
4514388,23
4515020,23
4515640,23
4516268,27
4516900,36
4517520,42
4518148,29
4518772,24
4519404,25
4520032,22
4520656,27
4521284,20
4521908,11
4522532,15
4523164,11
4523784,19
4524412,39
4525040,69
4525664,89
4526292,88
4526916,92
4527548,83
4528176,59
4528796,30
4529424,15
4530048,16
4530676,45
4531308,51
4531928,45
4532556,43
4533180,41
4533804,47
4534436,50
4535056,45
4535684,39
4536312,17
4536936,16
4537564,14
4538192,18
4538820,39
4539452,37
4540072,29
4540704,19
4541328,33
4541960,58
4542588,66
4543208,66
4543840,52
4544464,27
4545088,13
4545716,14
4546336,20
4546968,23
4547596,18
4548216,12
4548844,21
4549468,25
4550100,26
4550732,42
4551352,41
4551984,60
4552608,71
4553232,47
4553864,15
4554480,22
4555108,40
4555736,43
4556360,40
4556992,55
4557608,65
4558236,72
4558868,81
4559488,70
4560120,64
4560740,55
4561372,32
4562000,12
4562624,23
4563252,40
4563876,53
4564500,48
4565132,43
4565752,43
4566384,44
4567008,39
4567632,32
4568264,33
4568880,29
4569508,13
4570140,21
4570760,21
4571392,16
4572016,28
4572648,41
4573276,27
4573896,16
4574528,18
4575152,42
4575776,50
4576408,53
4577024,56
4577656,43
4578280,33
4578904,23
4579536,15
4580152,11
4580784,19
4581416,39
4582032,45
4582664,32
4583288,36
4583920,40
4584552,40
4585168,22
4585800,31
4586424,29
4587048,16
4587680,12
4588296,11
4588924,9
4589496,14
4590120,13
4590748,14
4591368,15
4591996,27
4592624,38
4593248,66
4593880,59
4594504,37
4595132,23
4595764,17
4596384,17
4597016,10
4597640,13
4598268,30
4598900,30
4599520,13
4600152,11
4600776,12
4601400,12
4602028,18
4602648,24
4603276,17
4603904,17
4604528,21
4605160,13
4605784,17
4606416,30
4607044,34
4607664,26
4608296,28
4608916,43
4609540,55
4610172,51
4610792,41
4611420,28
4612044,16
4612668,13
4613296,23
4613916,43
4614544,42
4615172,15
4615792,15
4616420,26
4617044,17
4617676,20
4618304,31
4618924,30
4619552,16
4620176,17
4620804,20
4621432,15
4622056,11
4622684,12
4623312,33
4623936,43
4624568,39
4625184,46
4625812,55
4626444,50
4627064,40
4627692,29
4628316,29
4628948,37
4629580,15
4630200,25
4630828,47
4631456,47
4632080,33
4632708,35
4633328,39
4633960,41
4634580,42
4635204,35
4635836,20
4636456,14
4637084,20
4637716,24
4638336,31
4638968,27
4639592,20
4640220,40
4640852,56
4641472,47
4642100,50
4642724,54
4643348,55
4643976,40
4644600,27
4645228,14
4645852,18
4646476,14
4647108,22
4647728,43
4648356,59
4648988,54
4649608,35
4650236,23
4650860,34
4651492,40
4652120,25
4652744,13
4653376,13
4654000,15
4654624,19
4655252,28
4655872,42
4656504,37
4657128,35
4657752,41
4658380,40
4659000,40
4659632,32
4660260,40
4660880,37
4661508,29
4662132,21
4662764,13
4663392,17
4664016,29
4664644,37
4665268,45
4665892,43
4666524,42
4667144,34
4667776,37
4668400,28
4669024,19
4669656,13
4670280,13
4670908,13
4671540,18
4672160,22
4672788,20
4673412,14
4674044,29
4674672,40
4675288,53
4675920,61
4676544,82
4677168,65
4677796,44
4678416,26
4679044,24
4679668,13
4680296,19
4680924,40
4681548,48
4682180,52
4682812,62
4683432,77
4684064,65
4684688,35
4685320,13
4685948,15
4686568,24
4687196,24
4687824,16
4688448,11
4689076,12
4689696,20
4690324,32
4690956,30
4691576,27
4692204,33
4692832,43
4693460,46
4694092,34
4694712,27
4695344,31
4695968,26
4696592,14
4697224,10
4697840,12
4698472,20
4699096,32
4699720,31
4700352,19
4700968,20
4701600,21
4702232,33
4702848,28
4703480,15
4704104,15
4704732,14
4705364,9
4705932,10
4706568,14
4707192,28
4707824,43
4708456,40
4709072,51
4709704,55
4710332,49
4710956,27
4711588,16
4712208,18
4712836,13
4713460,17
4714088,19
4714716,21
4715340,33
4715972,26
4716604,31
4717224,42
4717856,34
4718480,30
4719108,26
4719740,15
4720360,14
4720992,16
4721616,24
4722240,22
4722868,12
4723488,15
4724116,35
4724748,54
4725368,59
4726000,49
4726624,56
4727252,60
4727884,42
4728504,16
4729136,18
4729760,19
4730384,14
4731016,39
4731632,45
4732264,31
4732888,20
4733512,20
4734144,33
4734764,51
4735392,50
4736024,22
4736648,13
4737276,13
4737900,13
4738532,10
4739164,13
4739784,19
4740416,22
4741040,12
4741664,18
4742292,42
4742912,65
4743544,70
4744168,57
4744792,47
4745424,32
4746044,21
4746672,11
4747304,17
4747920,29
4748552,33
4749176,31
4749808,30
4750440,22
4751056,37
4751688,43
4752312,44
4752936,43
4753564,28
4754184,13
4754816,23
4755440,35
4756064,42
4756696,51
4757320,50
4757948,41
4758580,54
4759200,63
4759832,59
4760456,45
4761088,29
4761716,13
4762336,14
4762964,20
4763588,41
4764212,51
4764844,62
4765464,63
4766096,48
4766720,16
4767344,11
4767976,10
4768600,14
4769228,15
4769860,14
4770480,13
4771112,27
4771736,45
4772360,49
4772992,35
4773608,28
4774240,27
4774864,35
4775488,41
4776120,52
4776736,76
4777368,66
4778000,40
4778616,15
4779248,25
4779872,43
4780504,58
4781136,61
4781752,43
4782384,46
4783008,50
4783632,41
4784264,30
4784884,15
4785516,12
4786140,13
4786764,17
4787396,18
4788016,26
4788648,36
4789276,48
4789896,42
4790528,23
4791152,13
4791784,24
4792416,42
4793036,51
4793664,46
4794292,20
4794916,13
4795548,14
4796168,15
4796800,12
4797424,35
4798048,45
4798680,41
4799304,32
4799936,19
4800572,18
4801192,24
4801820,27
4802444,15
4803076,13
4803708,14
4804328,13
4804956,19
4805580,19
4806208,17
4806836,23
4807456,28
4808084,28
4808716,28
4809336,59
4809968,87
4810592,66
4811220,45
4811852,22
4812472,19
4813104,12
4813728,19
4814352,38
4814980,45
4815600,40
4816228,34
4816852,21
4817476,19
4818108,28
4818728,39
4819356,27
4819988,18
4820608,19
4821236,14
4821864,9
4822440,10
4823076,10
4823696,19
4824324,35
4824948,49
4825580,57
4826212,68
4826832,65
4827464,45
4828088,37
4828712,27
4829344,12
4829960,16
4830592,22
4831216,31
4831840,40
4832472,40
4833096,27
4833728,19
4834356,33
4834976,41
4835604,18
4836228,23
4836860,26
4837492,29
4838112,29
4838744,24
4839368,16
4839992,15
4840620,11
4841240,23
4841868,46
4842492,51
4843120,61
4843752,57
4844376,28
4845004,13
4845636,13
4846256,15
4846884,13
4847512,24
4848136,29
4848764,30
4849384,19
4850016,22
4850640,28
4851264,38
4851892,34
4852512,33
4853144,24
4853772,14
4854392,13
4855024,11
4855648,11
4856280,25
4856908,42
4857528,43
4858160,42
4858784,51
4859408,54
4860040,51
4860660,43
4861292,35
4861916,27
4862540,17
4863172,10
4863792,20
4864428,23
4865056,25
4865672,34
4866304,30
4866928,22
4867556,25
4868188,21
4868808,23
4869436,23
4870060,18
4870688,15
4871316,12
4871936,11
4872568,13
4873192,30
4873816,34
4874448,35
4875064,27
4875692,25
4876324,41
4876944,46
4877572,25
4878200,16
4878828,19
4879460,14
4880080,21
4880708,11
4881332,34
4881956,28
4882588,22
4883208,22
4883836,23
4884464,30
4885088,25
4885716,29
4886344,28
4886972,22
4887604,17
4888224,15
4888856,41
4889480,52
4890112,64
4890740,45
4891360,51
4891992,67
4892616,60
4893240,50
4893872,29
4894488,14
4895120,12
4895752,14
4896368,16
4897000,27
4897624,33
4898252,30
4898884,30
4899504,19
4900136,22
4900760,38
4901384,40
4902016,31
4902636,21
4903264,12
4903892,13
4904516,12
4905148,16
4905768,17
4906400,13
4907028,15
4907648,28
4908280,51
4908904,55
4909536,56
4910164,57
4910784,39
4911416,22
4912040,32
4912664,25
4913296,11
4913916,18
4914548,31
4915172,51
4915800,51
4916428,39
4917048,37
4917676,39
4918308,21
4918928,17
4919556,14
4920180,17
4920812,15
4921440,12
4922056,25
4922688,31
4923312,31
4923936,33
4924564,37
4925184,47
4925812,53
4926436,57
4927060,45
4927692,34
4928312,27
4928940,14
4929572,16
4930192,23
4930820,33
4931444,38
4932076,35
4932704,34
4933328,35
4933956,38
4934584,33
4935208,21
4935836,13
4936456,13
4937084,13
4937708,15
4938332,14
4938964,17
4939588,21
4940216,30
4940848,45
4941464,44
4942092,48
4942716,56
4943348,65
4943980,50
4944600,26
4945228,14
4945856,13
4946480,13
4947108,42
4947728,69
4948356,61
4948984,42
4949608,16
4950236,11
4950860,15
4951492,28
4952124,39
4952744,16
4953376,15
4954000,17
4954628,21
4955260,34
4955880,31
4956512,23
4957136,19
4957760,22
4958388,31
4959008,40
4959640,57
4960272,50
4960888,29
4961516,12
4962140,13
4962772,13
4963400,12
4964024,27
4964652,40
4965276,26
4965900,17
4966532,20
4967152,39
4967780,37
4968404,21
4969028,13
4969656,14
4970280,17
4970908,19
4971540,26
4972160,20
4972788,13
4973416,11
4974044,10
4974676,12
4975296,27
4975928,42
4976552,48
4977176,38
4977808,40
4978424,36
4979052,26
4979680,13
4980300,24
4980932,27
4981552,16
4982184,13
4982812,16
4983432,13
4984064,12
4984688,23
4985316,38
4985948,34
4986568,15
4987196,20
4987824,17
4988448,18
4989080,16
4989696,13
4990328,12
4990952,14
4991576,24
4992208,29
4992824,36
4993452,48
4994084,54
4994704,40
4995332,35
4995960,25
4996588,11
4997220,11
4997840,16
4998468,25
4999092,31
4999716,34
5000348,32
5000968,48
5001596,48
5002220,22
5002848,13
5003476,13
5004104,13
5004732,11
5005364,14
5005984,19
5006616,13
5007240,21
5007872,45
5008500,61
5009120,53
5009748,44
5010376,37
5011000,27
5011632,27
5012248,17
5012880,13
5013508,17
5014128,16
5014760,27
5015384,34
5016016,37
5016644,37
5017264,30
5017896,45
5018520,36
5019144,22
5019776,13
5020392,15
5021024,25
5021648,35
5022272,39
5022904,40
5023520,38
5024152,36
5024780,38
5025400,52
5026032,60
5026656,55
5027284,32
5027916,20
5028536,15
5029164,13
5029792,14
5030416,31
5031044,38
5031664,48
5032296,47
5032920,47
5033544,37
5034176,32
5034796,23
5035428,17
5036060,13
5036680,14
5037312,13
5037936,21
5038568,31
5039200,25
5039816,21
5040448,25
5041072,27
5041696,49
5042324,65
5042944,70
5043576,52
5044200,30
5044824,17
5045452,13
5046072,16
5046704,33
5047332,42
5047952,47
5048584,55
5049208,56
5049840,45
5050468,12
5051088,28
5051720,19
5052344,15
5052968,18
5053600,22
5054216,15
5054848,13
5055472,21
5056096,26
5056728,29
5057352,38
5057984,41
5058616,34
5059232,37
5059860,43
5060488,41
5061116,27
5061748,12
5062368,16
5063000,11
5063624,17
5064248,39
5064880,50
5065500,43
5066132,39
5066764,31
5067384,21
5068016,27
5068640,35
5069272,24
5069900,16
5070520,14
5071152,16
5071776,23
5072404,23
5073032,24
5073656,34
5074288,43
5074912,52
5075536,51
5076168,57
5076788,61
5077420,35
5078052,14
5078672,15
5079304,22
5079932,21
5080560,15
5081192,24
5081812,28
5082444,30
5083068,23
5083692,34
5084324,40
5084944,43
5085576,24
5086200,14
5086824,15
5087456,21
5088080,42
5088708,33
5089340,23
5089960,19
5090588,21
5091216,40
5091844,63
5092476,59
5093096,50
5093728,37
5094352,26
5094980,16
5095612,17
5096232,28
5096864,32
5097496,15
5098112,10
5098744,15
5099372,29
5100004,30
5100636,28
5101256,25
5101888,28
5102516,21
5103140,16
5103772,24
5104392,14
5105024,20
5105652,22
5106276,21
5106908,24
5107536,22
5108168,48
5108796,79
5109420,82
5110052,52
5110676,24
5111304,13
5111936,13
5112556,13
5113188,11
5113816,10
5114440,19
5115072,20
5115696,30
5116332,36
5116964,38
5117584,36
5118220,20
5118844,16
5119476,19
5120112,19
5120728,13
5121356,17
5121980,19
5122600,19
5123228,31
5123848,43
5124476,46
5125100,65
5125724,60
5126352,34
5126968,17
5127600,25
5128228,25
5128848,21
5129476,14
5130100,10
5130728,23
5131360,36
5131976,38
5132604,37
5133228,30
5133852,27
5134484,26
5135104,16
5135732,13
5136356,13
5136980,13
5137608,16
5138232,15
5138860,17
5139492,24
5140112,36
5140740,36
5141364,35
5141996,51
5142628,66
5143248,68
5143876,55
5144500,37
5145124,16
5145756,18
5146376,31
5147004,38
5147628,46
5148252,59
5148884,54
5149504,40
5150136,19
5150768,10
5151384,11
5152012,15
5152636,13
5153268,13
5153896,14
5154516,11
5155144,16
5155772,20
5156396,20
5157028,16
5157648,13
5158276,30
5158904,46
5159528,55
5160156,54
5160780,46
5161412,30
5162044,13
5162664,16
5163292,19
5163916,15
5164548,17
5165176,16
5165800,16
5166428,17
5167052,32
5167676,38
5168308,26
5168928,26
5169556,26
5170188,13
5170808,22
5171440,26
5172060,19
5172692,19
5173320,25
5173940,29
5174568,38
5175192,50
5175816,59
5176448,63
5177064,50
5177692,28
5178316,15
5178940,13
5179572,16
5180192,30
5180824,44
5181452,34
5182072,25
5182704,19
5183328,27
5183960,24
5184592,15
5185208,29
5185836,19
5186460,15
5187084,15
5187716,14
5188336,28
5188964,34
5189588,20
5190212,11
5190844,10
5191464,13
5192096,22
5192724,46
5193344,41
5193976,13
5194600,13
5195228,21
5195860,34
5196480,33
5197112,11
5197736,21
5198360,24
5198992,19
5199608,41
5200240,45
5200864,26
5201488,21
5202116,27
5202736,29
5203364,13
5203996,15
5204616,12
5205244,27
5205868,27
5206500,19
5207128,19
5207752,19
5208380,15
5209004,12
5209628,21
5210260,32
5210880,38
5211508,21
5212132,15
5212760,13
5213388,26
5214008,34
5214640,19
5215268,10
5215888,17
5216520,22
5217144,26
5217772,26
5218404,26
5219024,16
5219656,14
5220280,14
5220904,13
5221536,29
5222152,35
5222784,30
5223408,21
5224032,20
5224660,31
5225284,41
5225912,45
5226544,30
5227164,17
5227792,12
5228420,13
5229048,14
5229676,10
5230296,18
5230928,24
5231552,22
5232176,21
5232804,28
5233424,23
5234052,25
5234680,27
5235304,31
5235932,29
5236556,19
5237188,18
5237820,30
5238440,34
5239068,23
5239696,12
5240324,13
5240956,10
5241576,37
5242208,65
5242832,77
5243456,57
5244088,37
5244704,17
5245332,13
5245964,14
5246584,20
5247212,20
5247836,23
5248468,24
5249096,34
5249712,31
5250340,26
5250964,29
5251588,23
5252220,24
5252840,20
5253468,15
5254092,15
5254712,16
5255344,21
5255960,35
5256588,27
5257212,20
5257840,37
5258468,79
5259092,94
5259720,63
5260352,31
5260968,25
5261600,17
5262220,13
5262852,10
5263480,27
5264104,48
5264732,52
5265356,44
5265980,33
5266608,22
5267224,26
5267852,28
5268476,22
5269104,27
5269732,36
5270356,28
5270988,13
5271620,27
5272240,35
5272868,25
5273492,22
5274120,29
5274748,58
5275368,82
5275996,88
5276620,61
5277244,32
5277876,30
5278496,22
5279124,15
5279756,10
5280376,25
5281004,43
5281628,43
5282256,46
5282884,43
5283504,19
5284132,12
5284756,10
5285380,17
5286012,24
5286632,35
5287260,27
5287884,11
5288504,12
5289136,10
5289752,10
5290380,17
5291004,29
5291632,53
5292260,61
5292884,72
5293512,57
5294144,35
5294760,19
5295392,15
5296016,15
5296644,10
5297272,16
5297888,22
5298520,22
5299144,32
5299768,36
5300396,40
5301016,37
5301644,37
5302268,30
5302896,18
5303524,13
5304148,14
5304780,27
5305408,37
5306032,39
5306660,39
5307284,29
5307908,39
5308540,52
5309160,72
5309792,88
5310412,56
5311036,31
5311668,14
5312288,19
5312916,21
5313548,24
5314168,32
5314796,45
5315420,51
5316052,55
5316680,47
5317304,49
5317932,42
5318560,32
5319184,14
5319812,15
5320432,17
5321060,33
5321688,40
5322308,30
5322940,33
5323560,31
5324192,29
5324820,42
5325436,52
5326068,61
5326692,57
5327320,39
5327948,19
5328568,13
5329196,19
5329820,32
5330444,43
5331072,47
5331688,47
5332320,34
5332944,32
5333564,20
5334196,16
5334816,15
5335444,17
5336076,18
5336696,15
5337324,20
5337948,28
5338576,31
5339208,32
5339824,22
5340452,10
5341076,12
5341700,38
5342332,66
5342952,73
5343584,47
5344208,31
5344832,19
5345460,12
5346080,15
5346708,29
5347336,37
5347960,45
5348588,34
5349212,25
5349844,21
5350472,19
5351096,11
5351724,12
5352348,13
5352972,13
5353600,13
5354224,19
5354852,23
5355476,17
5356104,22
5356732,19
5357352,18
5357980,27
5358612,39
5359232,60
5359864,63
5360488,34
5361116,23
5361748,18
5362368,13
5362996,18
5363624,31
5364248,48
5364876,56
5365496,54
5366128,45
5366748,23
5367372,12
5368004,13
5368624,22
5369252,17
5369884,12
5370504,18
5371132,18
5371760,14
5372388,13
5373020,11
5373640,13
5374268,28
5374896,57
5375520,71
5376152,71
5376768,59
5377396,37
5378020,24
5378640,18
5379272,14
5379888,20
5380516,35
5381148,41
5381768,34
5382396,32
5383020,29
5383652,25
5384280,23
5384904,33
5385532,35
5386156,22
5386784,15
5387412,16
5388032,15
5388660,11
5389284,13
5389908,34
5390540,50
5391160,47
5391792,47
5392420,54
5393040,57
5393668,45
5394292,31
5394924,21
5395552,16
5396176,32
5396804,31
5397428,31
5398052,26
5398684,22
5399304,32
5399936,33
5400560,35
5401184,29
5401816,31
5402436,16
5403068,13
5403696,12
5404320,16
5404948,26
5405572,26
5406204,21
5406836,24
5407456,36
5408084,55
5408708,66
5409332,74
5409960,59
5410576,28
5411208,16
5411828,13
5412456,15
5413084,24
5413708,35
5414340,45
5414968,62
5415592,56
5416220,24
5416844,15
5417476,16
5418104,20
5418728,28
5419356,27
5419984,20
5420608,14
5421236,12
5421856,26
5422484,39
5423116,32
5423736,43
5424368,39
5424992,62
5425620,83
5426252,83
5426872,68
5427504,45
5428124,30
5428748,24
5429380,10
5430000,26
5430628,37
5431252,43
5431876,47
5432508,43
5433128,43
5433756,42
5434388,42
5435008,48
5435636,30
5436264,17
5436892,15
5437524,27
5438144,30
5438776,13
5439400,11
5440024,10
5440652,16
5441272,45
5441900,74
5442524,93
5443148,71
5443780,45
5444400,39
5445028,25
5445660,14
5446280,21
5446908,33
5447532,45
5448164,45
5448792,39
5449412,31
5450040,26
5450664,20
5451288,17
5451916,18
5452536,14
5453164,13
5453788,13
5454412,16
5455040,20
5455664,23
5456292,24
5456924,20
5457544,23
5458172,40
5458796,49
5459428,53
5460056,44
5460680,28
5461308,13
5461932,16
5462556,28
5463188,40
5463808,43
5464436,37
5465064,33
5465688,25
5466316,18
5466936,27
5467564,29
5468196,34
5468816,36
5469444,17
5470068,13
5470700,27
5471328,66
5471952,66
5472584,44
5473208,23
5473832,18
5474460,39
5475080,52
5475712,43
5476336,56
5476960,66
5477592,44
5478216,21
5478848,14
5479476,18
5480096,31
5480724,45
5481348,53
5481980,52
5482608,43
5483228,43
5483856,45
5484480,29
5485104,17
5485732,13
5486352,15
5486984,14
5487608,16
5488232,35
5488864,33
5489484,27
5490116,15
5490744,31
5491364,50
5491992,58
5492616,73
5493248,69
5493876,46
5494496,27
5495124,22
5495748,14
5496376,13
5497004,31
5497624,47
5498252,41
5498876,33
5499504,32
5500136,34
5500760,40
5501392,40
5502024,26
5502640,17
5503272,15
5503896,12
5504524,13
5505152,12
5505772,15
5506400,25
5507024,23
5507648,23
5508276,40
5508896,58
5509524,63
5510156,44
5510776,32
5511408,19
5512032,19
5512660,11
5513292,26
5513912,40
5514544,25
5515168,15
5515792,14
5516424,14
5517044,26
5517672,25
5518296,15
5518920,13
5519552,14
5520168,13
5520800,14
5521428,11
5522048,13
5522676,30
5523304,43
5523932,37
5524564,30
5525184,43
5525816,62
5526440,53
5527064,26
5527692,13
5528312,14
5528944,13
5529568,10
5530192,12
5530824,20
5531440,27
5532072,24
5532700,21
5533320,24
5533948,45
5534576,54
5535204,30
5535836,18
5536456,29
5537084,21
5537708,15
5538332,22
5538964,22
5539584,20
5540216,24
5540836,29
5541460,49
5542092,55
5542712,48
5543340,34
5543972,29
5544592,24
5545224,14
5545848,16
5546476,31
5547108,40
5547728,56
5548360,52
5548984,42
5549608,14
5550240,10
5550856,17
5551488,25
5552112,30
5552736,23
5553364,13
5553992,24
5554620,13
5555252,10
5555872,12
5556504,15
5557128,29
5557756,37
5558388,61
5559008,80
5559640,81
5560264,59
5560888,43
5561516,28
5562136,14
5562768,25
5563400,43
5564016,58
5564648,71
5565272,45
5565904,14
5566536,25
5567152,13
5567784,15
5568412,21
5569036,20
5569668,22
5570288,22
5570920,15
5571544,11
5572168,15
5572796,24
5573416,43
5574048,45
5574676,47
5575296,45
5575924,52
5576552,63
5577180,48
5577812,24
5578432,14
5579060,36
5579688,53
5580312,46
5580944,41
5581560,39
5582188,35
5582812,25
5583440,23
5584068,23
5584688,14
5585316,15
5585948,21
5586568,21
5587196,26
5587824,41
5588452,29
5589084,11
5589704,11
5590336,21
5590960,24
5591584,31
5592216,38
5592832,35
5593464,21
5594088,13
5594712,13
5595344,17
5595960,28
5596592,10
5597224,29
5597844,39
5598476,51
5599100,50
5599732,20
5600364,10
5600984,10
5601612,12
5602236,16
5602860,22
5603492,20
5604112,15
5604740,13
5605368,20
5605992,23
5606620,24
5607244,44
5607876,62
5608504,51
5609128,36
5609756,39
5610380,47
5611012,40
5611644,16
5612264,22
5612892,36
5613516,45
5614140,53
5614772,58
5615392,41
5616020,29
5616652,30
5617272,24
5617900,22
5618528,39
5619156,39
5619788,18
5620408,17
5621036,27
5621664,35
5622288,34
5622920,20
5623536,22
5624168,33
5624792,44
5625416,45
5626048,59
5626664,58
5627296,43
5627924,26
5628544,18
5629176,13
5629800,21
5630432,34
5631064,36
5631680,28
5632312,19
5632936,17
5633560,24
5634188,20
5634808,18
5635436,17
5636060,13
5636684,13
5637312,14
5637936,13
5638564,27
5639196,30
5639816,33
5640444,32
5641068,40
5641700,51
5642328,60
5642952,61
5643580,39
5644204,20
5644828,14
5645456,14
5646080,28
5646708,51
5647332,50
5647960,49
5648588,54
5649208,39
5649836,17
5650468,10
5651088,13
5651720,14
5652344,18
5652972,17
5653604,15
5654224,11
5654852,15
5655480,10
5656104,12
5656732,14
5657352,19
5657984,52
5658608,80
5659228,82
5659860,56
5660484,36
5661112,31
5661744,25
5662364,26
5662992,29
5663620,21
5664248,11
5664876,30
5665496,43
5666124,33
5666748,33
5667372,25
5668004,14
5668624,14
5669252,18
5669880,14
5670504,18
5671132,20
5671756,14
5672388,10
5673020,13
5673640,14
5674268,21
5674892,46
5675524,66
5676152,54
5676776,35
5677408,19
5678032,14
5678656,13
5679288,11
5679904,24
5680536,29
5681164,24
5681784,24
5682412,30
5683040,24
5683668,31
5684300,34
5684920,23
5685548,14
5686172,14
5686800,14
5687428,12
5688048,12
5688676,23
5689300,30
5689928,23
5690556,28
5691176,45
5691808,45
5692436,58
5693056,68
5693688,56
5694312,35
5694940,18
5695572,12
5696192,17
5696820,27
5697444,35
5698068,39
5698700,32
5699320,29
5699948,32
5700572,32
5701200,41
5701828,44
5702448,32
5703076,19
5703708,13
5704328,18
5704956,19
5705584,27
5706212,32
5706844,34
5707464,45
5708096,56
5708720,67
5709344,66
5709976,44
5710596,23
5711228,13
5711852,17
5712476,20
5713108,37
5713732,55
5714364,71
5714996,40
5715616,24
5716248,15
5716872,12
5717500,13
5718132,16
5718752,14
5719384,16
5720008,19
5720632,19
5721264,15
5721884,21
5722512,28
5723144,16
5723764,13
5724396,25
5725020,44
5725652,68
5726284,76
5726904,51
5727536,27
5728160,13
5728784,23
5729416,34
5730036,28
5730668,29
5731292,57
5731916,71
5732548,51
5733168,25
5733800,11
5734432,13
5735048,13
5735676,13
5736300,18
5736932,20
5737560,24
5738184,29
5738812,23
5739436,19
5740064,17
5740692,20
5741312,41
5741940,48
5742568,44
5743192,32
5743820,19
5744440,13
5745068,17
5745700,26
5746320,24
5746948,22
5747576,27
5748204,27
5748836,18
5749456,11
5750084,9
5750660,15
5751292,31
5751924,26
5752544,14
5753176,24
5753800,41
5754424,57
5755056,52
5755672,33
5756304,13
5756932,18
5757552,19
5758184,34
5758808,58
5759440,53
5760068,27
5760684,19
5761316,18
5761936,13
5762564,11
5763192,17
5763816,30
5764444,31
5765068,24
5765692,27
5766324,34
5766944,33
5767572,39
5768204,37
5768824,28
5769452,20
5770076,16
5770708,13
5771336,10
5771956,18
5772584,25
5773212,13
5773832,31
5774464,74
5775084,83
5775712,84
5776336,67
5776960,26
5777588,12
5778208,15
5778836,21
5779468,32
5780088,21
5780716,15
5781340,13
5781972,12
5782600,20
5783224,32
5783852,35
5784480,25
5785100,27
5785732,15
5786352,15
5786980,15
5787604,15
5788228,22
5788856,36
5789480,43
5790108,49
5790740,48
5791360,47
5791988,33
5792616,20
5793244,21
5793876,24
5794496,20
5795124,14
5795752,11
5796376,19
5797004,36
5797624,42
5798252,30
5798880,20
5799500,15
5800132,16
5800752,19
5801380,26
5802012,20
5802632,16
5803264,13
5803888,14
5804516,16
5805148,16
5805768,14
5806396,12
5807024,17
5807648,30
5808280,38
5808896,52
5809524,58
5810152,52
5810776,43
5811408,24
5812024,22
5812652,10
5813284,22
5813904,38
5814536,41
5815160,46
5815792,57
5816424,43
5817040,26
5817668,13
5818292,23
5818916,29
5819548,18
5820168,19
5820796,20
5821424,22
5822048,30
5822680,20
5823304,19
5823936,39
5824568,67
5825184,71
5825816,60
5826440,41
5827068,23
5827700,15
5828320,14
5828948,15
5829576,16
5830200,15
5830832,29
5831448,38
5832080,40
5832704,24
5833328,29
5833960,39
5834584,41
5835212,29
5835844,14
5836464,14
5837096,13
5837720,31
5838344,44
5838972,52
5839592,55
5840224,43
5840844,36
5841468,43
5842100,52
5842720,45
5843348,26
5843980,20
5844600,15
5845228,23
5845852,15
5846484,12
5847116,23
5847736,34
5848368,29
5848992,29
5849616,41
5850244,53
5850864,47
5851496,42
5852120,25
5852744,14
5853376,14
5853992,13
5854624,11
5855256,10
5855876,28
5856504,39
5857132,46
5857760,56
5858392,57
5859008,48
5859640,37
5860264,28
5860888,15
5861516,15
5862136,13
5862768,13
5863392,24
5864016,25
5864644,20
5865264,35
5865896,38
5866524,38
5867144,29
5867776,18
5868400,26
5869028,16
5869660,19
5870280,27
5870912,31
5871536,25
5872160,24
5872792,37
5873408,37
5874040,39
5874664,45
5875288,55
5875916,56
5876536,40
5877168,19
5877800,13
5878416,13
5879048,12
5879672,17
5880304,28
5880936,44
5881552,48
5882188,47
5882812,37
5883436,34
5884068,30
5884688,29
5885320,22
5885944,15
5886572,13
5887204,17
5887828,25
5888460,19
5889092,11
5889712,24
5890340,34
5890968,47
5891592,69
5892220,76
5892840,65
5893472,46
5894096,33
5894720,15
5895348,15
5895968,29
5896600,35
5897228,39
5897848,27
5898480,29
5899104,31
5899732,19
5900364,20
5900984,22
5901612,24
5902236,17
5902860,13
5903492,14
5904112,17
5904740,21
5905364,23
5905988,21
5906620,18
5907240,25
5907868,37
5908500,46
5909120,57
5909748,59
5910376,47
5911004,24
5911636,13
5912256,22
5912888,38
5913512,36
5914136,24
5914768,28
5915388,37
5916016,32
5916644,23
5917268,27
5917896,25
5918520,19
5919152,15
5919784,13
5920400,13
5921032,11
5921656,10
5922284,14
5922916,31
5923536,40
5924164,47
5924788,53
5925412,59
5926044,50
5926664,30
5927292,18
5927916,18
5928544,25
5929172,22
5929796,11
5930428,24
5931060,28
5931680,34
5932308,42
5932936,41
5933564,41
5934196,36
5934816,30
5935448,13
5936072,16
5936696,24
5937328,26
5937944,24
5938576,25
5939204,36
5939824,38
5940452,43
5941076,54
5941708,41
5942336,31
5942956,34
5943584,34
5944212,19
5944840,13
5945468,17
5946088,32
5946716,34
5947344,33
5947968,33
5948596,26
5949216,21
5949848,28
5950476,31
5951096,22
5951728,15
5952352,13
5952980,13
5953612,12
5954232,21
5954864,33
5955488,29
5956112,24
5956740,23
5957360,39
5957992,56
5958616,61
5959240,56
5959872,49
5960488,46
5961116,30
5961748,16
5962368,15
5962996,47
5963624,52
5964252,44
5964884,36
5965504,26
5966132,18
5966756,28
5967384,25
5968012,21
5968632,25
5969260,27
5969888,20
5970512,14
5971144,20
5971760,28
5972392,27
5973024,21
5973640,36
5974272,54
5974896,58
5975528,63
5976160,52
5976776,32
5977408,20
5978032,15
5978656,16
5979288,22
5979904,26
5980536,33
5981164,40
5981788,37
5982416,26
5983036,19
5983668,22
5984300,30
5984920,34
5985552,23
5986176,13
5986804,14
5987436,16
5988056,21
5988688,31
5989312,38
5989936,33
5990568,24
5991184,32
5991816,45
5992440,57
5993064,53
5993696,35
5994320,21
5994948,15
5995580,30
5996200,42
5996832,58
5997456,53
5998084,26
5998716,20
5999336,18
5999968,15
6000596,17
6001220,16
6001852,12
6002472,17
6003104,17
6003732,14
6004352,20
6004984,18
6005608,20
6006236,32
6006868,38
6007488,56
6008120,61
6008744,42
6009368,37
6010000,37
6010616,29
6011248,15
6011872,23
6012496,35
6013128,29
6013744,17
6014376,11
6015008,21
6015628,24
6016260,16
6016884,13
6017512,11
6018144,14
6018760,14
6019392,20
6020016,23
6020640,13
6021268,32
6021888,38
6022516,30
6023144,15
6023768,10
6024396,14
6025016,33
6025648,58
6026276,63
6026896,44
6027524,29
6028152,19
6028780,13
6029412,14
6030032,26
6030664,40
6031288,37
6031912,25
6032544,23
6033164,24
6033796,25
6034420,21
6035044,25
6035676,22
6036300,17
6036932,13
6037564,11
6038184,10
6038816,11
6039440,11
6040072,15
6040700,44
6041320,64
6041952,75
6042576,79
6043204,48
6043832,18
6044452,14
6045080,16
6045712,11
6046332,14
6046964,31
6047588,50
6048220,44
6048848,30
6049472,23
6050104,21
6050728,22
6051352,25
6051984,18
6052604,15
6053232,16
6053856,13
6054480,11
6055108,26
6055728,36
6056360,47
6056988,55
6057608,63
6058240,63
6058864,68
6059496,60
6060128,37
6060744,16
6061376,12
6062004,15
6062628,24
6063260,42
6063880,54
6064512,42
6065136,37
6065760,36
6066392,40
6067016,41
6067648,23
6068276,16
6068896,16
6069524,17
6070152,19
6070784,10
6071412,16
6072032,15
6072664,15
6073288,37
6073912,54
6074544,62
6075164,65
6075796,75
6076428,63
6077048,41
6077680,18
6078304,17
6078936,15
6079568,14
6080188,22
6080816,31
6081440,43
6082064,47
6082696,45
6083312,42
6083940,32
6084568,33
6085192,34
6085820,22
6086440,14
6087068,13
6087700,15
6088320,36
6088948,57
6089576,49
6090208,37
6090836,42
6091456,62
6092088,72
6092712,68
6093336,35
6093968,13
6094588,16
6095216,17
6095844,14
6096468,14
6097100,29
6097720,38
6098352,32
6098980,19
6099600,25
6100228,33
6100856,35
6101484,39
6102116,25
6102736,13
6103368,15
6103992,19
6104616,23
6105248,25
6105868,24
6106500,30
6107124,31
6107748,42
6108380,50
6109004,57
6109636,50
6110268,36
6110888,25
6111520,17
6112144,11
6112776,21
6113408,39
6114024,48
6114656,47
6115280,50
6115904,39
6116536,28
6117156,21
6117788,17
6118420,17
6119040,21
6119672,20
6120296,13
6120928,24
6121560,22
6122180,19
6122808,24
6123436,41
6124060,62
6124692,61
6125312,64
6125944,61
6126568,35
6127196,19
6127828,13
6128452,19
6129084,31
6129716,28
6130336,27
6130968,31
6131596,33
6132228,22
6132860,13
6133480,14
6134112,10
6134740,12
6135364,15
6135996,22
6136620,20
6137252,15
6137884,12
6138504,16
6139136,30
6139764,32
6140396,30
6141028,43
6141652,57
6142284,69
6142908,67
6143536,51
6144168,27
6144784,15
6145412,13
6146036,17
6146660,32
6147288,33
6147912,25
6148540,39
6149172,50
6149792,41
6150420,36
6151044,36
6151676,18
6152304,13
6152924,14
6153552,13
6154180,11
6154804,11
6155432,16
6156056,22
6156684,29
6157312,52
6157936,79
6158568,73
6159192,50
6159820,23
6160452,22
6161072,29
6161700,22
6162324,11
6162952,15
6163580,36
6164200,32
6164828,33
6165452,29
6166076,17
6166708,22
6167328,43
6167956,44
6168588,27
6169208,15
6169840,15
6170460,12
6171092,13
6171720,11
6172344,11
6172972,19
6173596,23
6174224,39
6174856,54
6175472,85
6176104,89
6176724,57
6177348,27
6177980,17
6178600,15
6179228,11
6179860,22
6180480,45
6181108,49
6181736,47
6182368,39
6183000,30
6183616,23
6184248,16
6184872,15
6185496,13
6186128,13
6186744,15
6187376,21
6188000,25
6188624,26
6189256,25
6189872,23
6190504,28
6191132,52
6191752,63
6192384,61
6193012,40
6193640,22
6194272,13
6194888,13
6195520,21
6196144,23
6196768,41
6197400,62
6198016,60
6198648,48
6199272,42
6199896,37
6200528,18
6201144,19
6201776,22
6202404,15
6203024,14
6203656,14
6204280,31
6204912,27
6205540,10
6206160,12
6206792,27
6207416,64
6208040,89
6208668,92
6209288,80
6209916,63
6210544,45
6211168,29
6211800,25
6212424,11
6213056,27
6213684,44
6214304,42
6214936,34
6215560,27
6216192,31
6216824,41
6217440,36
6218072,28
6218696,31
6219320,47
6219952,24
6220572,20
6221204,39
6221832,38
6222456,39
6223088,47
6223712,49
6224344,52
6224976,52
6225592,49
6226224,35
6226848,32
6227472,19
6228100,13
6228720,17
6229348,19
6229976,27
6230600,34
6231228,21
6231848,18
6232480,25
6233108,30
6233728,27
6234360,22
6234984,16
6235616,15
6236244,12
6236864,18
6237492,24
6238120,19
6238744,19
6239376,12
6239992,15
6240624,28
6241252,49
6241876,62
6242508,61
6243128,39
6243760,24
6244388,17
6245008,13
6245640,16
6246264,29
6246896,37
6247524,36
6248144,37
6248772,27
6249396,20
6250024,28
6250652,25
6251272,25
6251904,21
6252528,13
6253152,18
6253780,17
6254408,15
6255036,14
6255668,14
6256288,16
6256916,21
6257544,27
6258172,38
6258804,52
6259424,50
6260052,24
6260680,13
6261304,14
6261932,14
6262552,12
