tempo_arduino_micro_s,valor_ADC
500,10
1004,17
1504,22
2000,24
2508,24
3000,21
3508,20
4000,14
4508,15
5000,20
5500,20
6000,20
6500,23
7004,24
7500,17
8000,11
8500,11
9000,10
9500,19
10000,27
10516,23
11036,19
11564,18
12084,22
12612,36
13132,42
13660,43
14180,44
14708,36
15228,21
15756,16
16276,12
16796,20
17316,25
17836,23
18356,21
18876,22
19396,18
19916,14
20436,10
20956,15
21476,21
21996,21
22516,18
23036,16
23564,20
24084,21
24612,15
25132,12
25660,10
26180,12
26708,10
27228,21
27756,32
28276,36
28804,39
29324,44
29852,44
30372,39
30900,35
31420,21
31948,14
32472,14
32996,9
33456,10
33988,11
34508,11
35036,29
35556,41
36084,35
36604,15
37132,14
37652,14
38180,13
38700,14
39228,15
39748,15
40276,16
40796,15
41324,10
41844,10
42372,10
42892,17
43420,24
43940,20
44460,13
44980,48
45500,70
46020,67
46540,55
47060,43
47580,44
48100,42
48620,34
49140,23
49660,11
50188,22
50708,29
51236,34
51756,31
52284,34
52804,44
53332,51
53852,39
54380,25
54900,14
55428,13
55948,20
56476,24
56996,21
57524,17
58044,10
58572,10
59092,14
59620,28
60140,32
60668,28
61188,28
61716,22
62236,23
62764,29
63284,32
63812,32
64336,28
64860,23
65380,18
65908,12
66428,13
66956,10
67476,13
67996,18
68516,17
69036,12
69556,10
70076,15
70600,20
71116,17
71640,20
72160,23
72676,19
73196,15
73716,16
74236,18
74764,18
75284,14
75812,17
76336,18
76860,21
77380,23
77908,22
78428,31
78956,36
79480,36
80004,32
80524,26
81052,20
81572,15
82100,18
82620,17
83148,14
83668,24
84196,41
84716,34
85244,23
85764,19
86292,21
86812,17
87340,14
87860,19
88388,20
88908,14
89436,15
89960,15
90484,16
91004,17
91532,16
92052,11
92572,11
93092,29
93612,36
94132,38
94652,43
95172,43
95696,40
96216,35
96732,26
97252,22
97772,22
98292,25
98812,19
99340,11
99860,22
100388,22
100952,17
101536,19
102108,20
102688,13
103256,16
103832,27
104400,42
104976,41
105552,24
106120,17
106704,17
107272,18
107856,12
108424,11
109008,15
109584,11
110152,14
110736,40
111304,56
111888,41
112460,46
113040,51
113608,47
114184,44
114760,43
115328,29
115912,16
116480,11
117064,16
117632,25
118216,33
118792,35
119360,27
119944,24
120516,24
121096,21
121668,23
122248,23
122816,17
123396,18
123976,27
124544,23
125128,19
125696,11
126280,10
126848,14
127432,20
128008,23
128576,31
129152,40
129720,41
130296,32
130864,27
131448,23
132016,17
132584,13
133160,18
133728,24
134304,17
134872,21
135456,29
136024,31
136608,31
137176,27
137752,24
138336,27
138904,16
139488,15
140060,18
140640,15
141208,11
141784,10
142368,13
142940,15
143520,19
144088,32
144672,39
145240,40
145824,30
146392,27
146968,30
147552,22
148120,16
148704,14
149272,15
149856,23
150424,24
151000,11
151584,11
152156,22
152736,27
153308,38
153888,36
154464,31
155048,29
155616,19
156192,18
156776,23
157348,17
157928,17
158500,16
159080,24
159652,27
160228,26
160808,26
161376,27
161952,32
162520,33
163104,33
163676,27
164256,29
164824,25
165392,18
165968,13
166536,17
167120,21
167688,26
168264,30
168832,31
169408,22
169976,20
170552,12
171128,19
171696,22
172280,15
172848,18
173432,15
174004,17
174576,11
175160,15
175728,14
176312,19
176880,38
177464,42
178032,35
178616,27
179184,35
179764,42
180344,40
180912,29
181496,21
182064,17
182648,13
183216,11
183792,14
184376,34
184944,22
185528,11
186096,10
186680,11
187248,11
187832,25
188404,40
188976,42
189560,47
190128,61
190712,50
191284,12
191864,35
192436,54
193008,52
193592,40
194164,31
194744,41
195312,37
195896,32
196464,50
197048,57
197616,44
198192,32
198776,22
199344,14
199928,30
200500,39
201080,43
201648,46
202224,48
202808,50
203380,39
203960,16
204532,14
205112,16
205680,14
206264,16
206832,19
207400,19
207984,22
208552,30
209136,32
209704,30
210288,31
210856,39
211432,42
212016,43
212584,42
213168,31
213736,22
214320,23
214892,19
215472,17
216040,11
216616,14
217200,25
217768,35
218352,44
218920,47
219504,35
220076,19
220652,11
221232,15
221800,26
222384,19
222956,18
223536,15
224108,16
224688,10
225256,10
225836,13
226416,10
226984,14
227568,14
228136,27
228720,47
229292,58
229864,63
230448,45
231016,48
231592,42
232164,27
232744,22
233316,11
233896,16
234468,20
235044,33
235624,41
236192,42
236776,46
237348,43
237928,31
238500,25
239076,22
239656,16
240228,16
240808,16
241376,16
241960,15
242528,22
243112,23
243684,27
244256,27
244840,36
245408,45
245992,41
246560,40
247144,31
247712,35
248292,29
248872,24
249440,13
250024,27
250592,34
251176,32
251748,32
252328,29
252896,24
253472,15
254056,19
254628,28
255208,32
255780,34
256360,43
256936,26
257504,15
258080,16
258648,26
259224,26
259792,31
260368,34
260936,42
261520,54
262088,54
262664,46
263248,43
263816,33
264400,27
264968,24
265544,15
266116,15
266696,22
267272,34
267840,41
268424,54
268992,48
269576,24
270144,13
270728,10
271296,11
271876,14
272456,15
273024,18
273608,16
274176,16
274760,10
275332,14
275912,22
276488,26
277056,15
277632,17
278200,35
278784,35
279356,33
279936,29
280508,41
281080,41
281664,29
282232,17
282808,16
283376,15
283960,18
284532,36
285112,43
285684,47
286256,35
286840,30
287408,32
287992,41
288564,43
289144,20
289712,16
290288,24
290872,27
291444,23
292024,16
292592,19
293176,29
293748,41
294328,57
294900,56
295476,41
296056,43
296624,53
297208,41
297776,30
298360,20
298932,16
299508,16
300088,28
300660,32
301240,27
301812,22
302392,28
302972,28
303552,31
304136,34
304708,34
305288,27
305860,15
306440,17
307020,15
307600,16
308176,11
308752,10
309336,11
309908,14
310488,27
311056,27
311640,32
312212,52
312788,59
313368,48
313940,30
314520,25
315092,22
315672,21
316244,11
316824,20
317396,27
317972,21
318552,18
319124,25
319704,32
320284,25
320864,21
321432,37
322012,38
322592,41
323160,40
323744,34
324316,15
324896,38
325468,43
326048,55
326620,60
327196,47
327776,36
328344,35
328928,41
329496,45
330080,36
330648,26
331224,18
331808,16
332376,19
332960,11
333528,21
334104,26
334672,20
335256,28
335824,33
336404,26
336984,22
337552,18
338128,15
338696,16
339280,17
339848,17
340424,15
341000,15
341568,12
342152,19
342724,20
343304,16
343876,16
344456,18
345024,29
345604,39
346184,39
346756,27
347336,15
347908,17
348488,17
349056,15
349640,14
350216,11
350788,21
351368,24
351940,14
352520,22
353096,42
353680,28
354248,11
354824,12
355408,18
355980,16
356560,19
357132,19
357712,13
358284,13
358864,11
359440,16
360008,16
360592,13
361160,11
361744,28
362312,42
362896,51
363464,50
364044,47
364624,43
365196,35
365776,26
366348,18
366928,11
367500,18
368080,19
368656,19
369224,26
369808,26
370376,28
370960,31
371532,29
372112,22
372684,19
373260,21
373840,21
374408,14
374992,12
375564,19
376144,20
376716,23
377296,23
377872,24
378444,30
379024,34
379596,40
380176,35
380748,32
381328,27
381908,21
382484,18
383064,11
383636,25
384220,33
384792,41
385376,33
385944,20
386520,16
387104,18
387676,18
388256,19
388828,27
389408,26
389976,20
390560,17
391128,14
391708,14
392288,13
392860,11
393440,19
394012,30
394592,27
395164,22
395740,30
396320,40
396892,41
397472,34
398044,21
398624,16
399196,15
399776,11
400356,10
400928,10
401512,19
402084,26
402664,29
403236,32
403816,39
404388,40
404964,35
405544,41
406116,51
406696,28
407268,30
407848,53
408420,58
409000,59
409572,22
410148,15
410728,13
411296,18
411880,36
412448,59
413032,63
413600,52
414176,46
414760,44
415328,30
415912,24
416484,14
417064,10
417632,19
418216,30
418784,26
419360,28
419944,29
420512,25
421096,23
421664,27
422248,24
422816,32
423392,26
423976,19
424548,12
425128,32
425696,34
426280,23
426848,17
427432,19
428004,20
428576,29
429160,48
429728,57
430312,45
430884,33
431464,25
432036,16
432608,17
433192,11
433764,24
434344,37
434916,42
435496,34
436064,23
436648,19
437216,24
437792,23
438376,19
438948,17
439528,17
440100,15
440680,16
441248,14
441828,23
442408,31
442976,29
443560,16
444132,11
444712,15
445284,30
445864,41
446436,45
447012,36
447592,21
448164,28
448744,31
449312,24
449896,14
450468,41
451044,43
451624,38
452196,40
452776,38
453348,27
453928,23
454496,25
455080,24
455652,14
456228,15
456808,16
457376,23
457960,20
458532,15
459112,10
459684,15
460260,28
460840,38
461408,40
461992,56
462564,92
463144,94
463716,70
464296,46
464864,34
465444,23
466024,15
466592,10
467176,9
467696,14
468272,21
468844,27
469424,29
469996,27
470572,22
471152,23
471724,38
472304,36
472876,23
473456,21
474028,15
474600,11
475184,10
475756,14
476336,10
476908,10
477488,11
478060,15
478640,16
479220,19
479796,40
480376,50
480948,46
481528,44
482096,34
482680,23
483252,20
483824,15
484408,13
484980,24
485560,36
486132,40
486712,38
487292,27
487872,23
488444,31
489020,46
489600,33
490168,16
490752,21
491324,35
491904,44
492484,41
493056,32
493640,24
494208,31
494792,26
495364,17
495944,20
496516,40
497096,47
497672,42
498244,30
498824,18
499396,14
499976,9
500496,10
501072,20
501644,32
502224,37
502800,34
503372,34
503952,25
504524,19
505104,20
505676,21
506256,19
506828,19
507404,22
507984,21
508556,16
509136,11
509716,15
510296,14
510876,20
511452,19
512036,39
512604,50
513184,46
513752,46
514336,26
514904,18
515488,18
516056,18
516632,21
517216,19
517784,23
518368,18
518940,11
519520,10
520092,11
520664,19
521248,26
521816,30
522400,30
522968,26
523552,22
524120,20
524704,10
525276,11
525852,11
526432,26
527000,27
527584,16
528156,17
528736,21
529304,25
529880,30
530464,39
531036,41
531616,23
532188,16
532768,15
533336,13
533920,9
534440,11
535008,14
535592,18
536164,30
536744,43
537316,29
537896,17
538464,19
539048,19
539616,19
540196,16
540776,16
541348,11
541928,13
542500,15
543080,26
543652,15
544228,26
544808,56
545376,68
545960,82
546528,75
547112,44
547684,30
548264,19
548836,16
549412,18
549992,17
550564,12
551144,27
551716,26
552296,34
552876,45
553452,44
554032,42
554604,41
555184,27
555756,18
556336,14
556916,15
557496,19
558068,15
558644,10
559224,19
559796,22
560376,20
560956,22
561536,30
562108,41
562684,55
563264,64
563836,51
564416,45
564988,40
565568,32
566140,27
566720,11
567292,22
567868,26
568448,27
569016,29
569600,29
570168,34
570752,36
571324,41
571900,40
572480,21
573052,15
573632,14
574204,14
574784,11
575356,11
575936,12
576520,21
577092,28
577672,26
578240,19
578824,23
579392,33
579976,24
580548,20
581124,21
581704,22
582276,19
582856,14
583428,14
584008,17
584576,11
585160,10
585736,18
586308,37
586888,51
587460,42
588040,30
588620,24
589200,17
589776,21
590356,24
590936,24
591508,25
592088,27
592664,27
593248,25
593820,24
594396,23
594976,32
595548,32
596128,48
596700,49
597280,34
597860,34
598440,26
599020,19
599596,13
600176,10
600748,9
601276,11
601852,15
602432,24
603004,35
603584,40
604168,35
604740,26
605320,18
605892,15
606472,15
607052,15
607632,16
608212,14
608788,14
609368,13
609940,14
610520,15
611092,10
611672,12
612252,20
612828,30
613408,39
613980,44
614564,47
615132,33
615712,20
616284,13
616864,12
617436,27
618012,38
618592,41
619164,42
619744,30
620324,26
620904,28
621476,31
622052,31
622632,28
623204,24
623784,16
624356,17
624936,17
625508,18
626088,22
626668,34
627244,48
627824,39
628396,18
628976,17
629556,11
630136,36
630716,57
631292,52
631872,41
632448,23
633024,12
633596,10
634180,12
634756,28
635340,29
635920,27
636492,22
637072,24
637644,20
638224,31
638804,32
639384,19
639964,16
640540,16
641120,30
641688,24
642272,18
642840,21
643424,13
643992,11
644572,12
645152,30
645720,37
646304,43
646876,58
647456,51
648028,35
648608,30
649180,19
649756,11
650336,15
650908,32
651488,53
652060,61
652640,48
653220,22
653796,11
654376,18
654948,10
655528,18
656100,21
656680,21
657248,20
657824,17
658392,10
658972,14
659552,11
660120,11
660704,15
661272,31
661856,33
662428,54
663000,70
663584,74
664156,62
664736,48
665308,36
665888,18
666456,13
667040,37
667608,35
668184,24
668768,22
669340,21
669920,17
670488,16
671072,13
671644,15
672220,15
672800,16
673368,19
673952,16
674520,14
675104,12
675676,12
676256,13
676824,11
677400,10
677984,10
678556,12
679136,22
679708,32
680288,32
680856,30
681436,26
682016,18
682584,21
683168,16
683740,10
684320,16
684892,29
685472,29
686044,25
686620,15
687200,18
687768,37
688352,47
688924,45
689504,40
690076,36
690652,19
691232,16
691800,25
692384,35
692956,47
693536,43
694108,36
694688,42
695260,50
695836,47
696416,43
696988,47
697568,39
698140,28
698720,23
699292,21
699868,11
700448,20
701020,35
701600,41
702172,44
702752,53
703324,47
703904,32
704484,26
705056,23
705640,16
706208,17
706792,15
707364,15
707944,13
708516,10
709092,19
709672,26
710244,20
710824,20
711396,34
711976,36
712556,27
713136,14
713716,29
714292,25
714872,30
715444,51
716024,56
716604,38
717188,21
717764,14
718336,29
718920,25
719492,19
720072,15
720640,27
721224,31
721796,32
722376,41
722952,36
723524,17
724104,27
724676,29
725256,18
725828,14
726408,12
726976,11
727556,12
728136,11
728708,10
729288,12
729860,12
730440,16
731012,19
731592,37
732168,59
732740,53
733320,19
733892,11
734472,10
735052,17
735632,27
736212,32
736788,26
737368,13
737940,11
738520,13
739092,14
739672,24
740252,24
740828,19
741408,27
741980,25
742560,25
743132,15
743712,11
744284,11
744864,25
745436,32
746012,34
746592,38
747164,34
747744,25
748324,19
748904,20
749476,22
750052,13
750632,11
751204,14
751784,34
752356,47
752936,52
753508,41
754088,30
754668,22
755244,17
755824,15
756396,15
756976,18
757556,16
758136,11
758716,14
759292,11
759872,11
760444,13
761024,15
761596,15
762180,25
762756,29
763336,24
763920,33
764496,42
765072,42
765648,29
766224,19
766804,12
767384,13
767964,11
768540,14
769120,23
769692,25
770272,20
770844,26
771424,34
771996,26
772572,17
773152,16
773724,26
774304,22
774876,11
775456,12
776028,11
776608,12
777180,19
777756,26
778336,26
778908,33
779488,43
780060,45
780640,37
781212,33
781788,35
782368,24
782940,14
783520,10
784092,10
784672,12
785244,13
785824,17
786404,24
786980,27
787560,25
788132,28
788712,26
789292,18
789872,16
790444,16
791020,15
791604,11
792176,10
792752,9
793276,12
793860,21
794436,24
795016,30
795588,41
796164,43
796744,31
797316,19
797896,17
798472,16
799048,15
799628,14
800208,14
800792,11
801364,18
801944,25
802512,22
803096,26
803668,24
804248,21
804816,21
805392,19
805976,13
806548,17
807128,20
807700,18
808280,26
808852,39
809428,30
810008,14
810580,11
811160,11
811732,10
812312,17
812892,38
813472,39
814044,30
814620,27
815200,17
815772,18
816352,18
816932,11
817512,14
818092,22
818668,13
819248,13
819820,19
820400,19
820968,17
821544,15
822112,16
822696,16
823264,20
823840,20
824424,17
824992,11
825576,16
826148,19
826728,17
827296,11
827872,11
828456,10
829028,12
829608,11
830176,16
830760,25
831332,32
831912,30
832492,24
833064,24
833640,26
834208,26
834792,17
835364,11
835944,19
836512,27
837092,22
837672,19
838244,24
838824,27
839396,20
839976,15
840548,15
841128,15
841696,11
842272,15
842856,23
843424,11
844008,11
844576,16
845160,25
845728,33
846304,37
846888,30
847456,26
848040,35
848608,46
849192,42
849764,15
850344,19
850912,36
851492,33
852072,38
852644,44
853224,39
853796,39
854376,32
854948,27
855524,19
856104,17
856676,18
857256,16
857828,15
858408,10
858976,13
859560,28
860132,24
860708,21
861288,25
861856,32
862440,46
863012,46
863592,47
864164,34
864736,19
865320,17
865888,22
866472,25
867044,15
867624,11
868196,26
868776,39
869348,43
869924,40
870504,36
871072,32
871656,21
872228,28
872808,27
873376,16
873956,30
874536,38
875108,38
875688,27
876260,17
876840,16
877408,10
877992,11
878572,22
879148,47
879728,53
880300,35
880880,23
881448,20
882032,16
882604,15
883180,11
883760,17
884332,18
884912,18
885484,26
886064,33
886636,31
887216,33
887788,27
888364,15
888944,27
889516,23
890096,19
890676,24
891256,18
891836,14
892412,19
892992,21
893564,28
894144,35
894716,35
895300,34
895876,28
896460,34
897040,39
897612,27
898192,17
898764,15
899344,17
899916,14
900496,10
901068,12
901644,21
902224,40
902796,49
903376,35
903948,22
904528,13
905100,13
905680,20
906256,32
906828,22
907408,17
907980,22
908560,12
909140,15
909720,17
910292,11
910868,11
911448,12
912020,33
912600,51
913172,54
913752,47
914332,37
914908,31
915488,22
916060,19
916640,11
917212,19
917792,23
918364,32
918948,27
919524,23
920100,24
920680,32
921252,32
921836,30
922412,27
922992,17
923564,16
924140,31
924720,16
925292,22
925872,40
926444,46
927024,21
927596,10
928176,11
928752,19
929332,38
929912,46
930484,50
931064,42
931644,41
932224,35
932804,21
933376,11
933960,13
934532,12
935112,17
935684,25
936264,28
936836,33
937416,28
938000,21
938572,16
939152,16
939728,15
940304,16
940884,15
941464,12
942036,13
942612,15
943192,18
943764,23
944344,18
944924,16
945504,24
946076,35
946652,46
947232,48
947804,41
948384,31
948956,21
949536,16
950116,10
950696,14
951276,29
951852,33
952432,44
953004,49
953584,35
954156,26
954736,26
955316,18
955892,15
956472,19
957048,23
957624,27
958196,27
958776,18
959356,10
959940,12
960524,13
961096,12
961672,16
962244,15
962824,45
963396,52
963976,48
964548,40
965124,37
965704,31
966276,28
966856,12
967428,11
968008,15
968584,21
969168,28
969744,30
970316,28
970896,22
971468,24
972048,26
972628,24
973208,26
973788,20
974364,16
974944,13
975516,15
976096,19
976676,24
977256,24
977828,19
978404,15
978984,24
979556,36
980136,49
980708,39
981288,33
981868,28
982448,27
983028,19
983604,11
984184,22
984756,32
985336,39
985908,43
986488,51
987060,55
987636,48
988216,38
988788,31
989368,19
989940,15
990520,16
991092,21
991672,29
992252,39
992828,46
993408,50
993980,55
994560,48
995132,37
995712,29
996292,26
996868,22
997448,18
998020,15
998600,16
999172,15
999752,15
1000332,11
1000956,11
1001588,12
1002208,16
1002836,17
1003460,13
1004084,13
1004712,28
1005332,41
1005960,15
1006584,19
1007204,26
1007836,35
1008460,39
1009088,52
1009716,20
1010336,23
1010964,39
1011588,60
1012220,56
1012848,47
1013464,62
1014092,62
1014716,47
1015340,45
1015972,38
1016592,30
1017220,15
1017844,19
1018468,33
1019100,34
1019724,38
1020352,28
1020980,18
1021600,19
1022228,27
1022852,20
1023484,19
1024116,15
1024732,15
1025360,9
1025928,13
1026564,22
1027188,29
1027808,28
1028436,29
1029056,33
1029676,32
1030308,20
1030928,18
1031556,19
1032180,16
1032800,16
1033428,10
1034052,10
1034680,17
1035308,22
1035928,17
1036556,14
1037180,18
1037808,30
1038436,34
1039056,32
1039684,28
1040304,23
1040928,17
1041556,14
1042176,25
1042804,34
1043424,20
1044048,13
1044676,10
1045292,22
1045924,41
1046552,53
1047168,53
1047796,26
1048420,18
1049048,19
1049676,17
1050292,11
1050920,13
1051544,25
1052168,31
1052796,28
1053416,25
1054044,25
1054668,16
1055292,13
1055920,16
1056536,16
1057164,17
1057788,22
1058416,16
1059044,14
1059668,24
1060296,41
1060924,38
1061544,33
1062172,26
1062796,23
1063424,33
1064052,30
1064672,24
1065300,21
1065920,30
1066544,22
1067172,20
1067792,18
1068420,24
1069044,27
1069664,20
1070292,20
1070916,24
1071548,21
1072176,15
1072792,17
1073420,15
1074044,15
1074672,15
1075304,14
1075920,17
1076548,19
1077168,15
1077792,19
1078420,26
1079036,39
1079668,50
1080292,38
1080916,24
1081544,19
1082160,18
1082792,22
1083420,28
1084040,13
1084668,12
1085292,19
1085920,25
1086548,27
1087168,40
1087796,51
1088420,43
1089044,41
1089672,33
1090288,16
1090916,27
1091536,45
1092160,42
1092788,17
1093408,13
1094036,10
1094668,14
1095288,15
1095916,23
1096540,38
1097168,44
1097800,44
1098416,37
1099044,27
1099668,18
1100292,10
1100924,10
1101544,15
1102172,22
1102796,21
1103420,16
1104048,15
1104664,15
1105292,16
1105916,22
1106544,26
1107172,28
1107796,23
1108428,11
1109056,16
1109672,19
1110304,18
1110928,11
1111556,11
1112188,24
1112808,45
1113436,59
1114060,59
1114684,39
1115316,26
1115936,19
1116564,12
1117196,15
1117816,21
1118444,18
1119068,17
1119700,19
1120328,16
1120952,19
1121580,24
1122204,28
1122828,23
1123456,18
1124072,17
1124704,16
1125328,13
1125952,13
1126580,11
1127196,15
1127828,19
1128456,23
1129072,28
1129700,28
1130324,27
1130952,21
1131580,27
1132200,31
1132828,28
1133448,12
1134080,19
1134708,24
1135328,22
1135956,21
1136584,24
1137208,28
1137836,34
1138456,43
1139084,37
1139708,16
1140336,35
1140964,35
1141588,30
1142220,15
1142848,12
1143464,10
1144096,11
1144720,13
1145348,19
1145980,30
1146600,39
1147228,35
1147852,28
1148476,25
1149104,22
1149728,16
1150356,16
1150988,18
1151608,21
1152236,21
1152860,20
1153488,17
1154116,10
1154736,11
1155364,15
1155984,25
1156612,26
1157244,15
1157864,20
1158492,18
1159112,15
1159736,11
1160368,21
1160984,28
1161612,29
1162236,30
1162860,28
1163488,34
1164112,38
1164740,28
1165372,18
1165992,17
1166620,14
1167244,12
1167876,28
1168504,29
1169120,27
1169752,28
1170372,24
1170996,23
1171628,20
1172248,26
1172876,26
1173500,21
1174128,17
1174756,33
1175380,24
1176012,11
1176640,12
1177256,13
1177888,12
1178512,19
1179140,28
1179768,38
1180392,39
1181020,37
1181644,38
1182268,22
1182900,17
1183520,16
1184148,11
1184780,12
1185400,21
1186028,21
1186652,25
1187280,23
1187912,17
1188528,13
1189156,15
1189780,14
1190404,17
1191032,21
1191656,25
1192284,13
1192908,10
1193532,14
1194164,15
1194784,19
1195412,35
1196044,48
1196664,62
1197292,45
1197916,24
1198548,16
1199180,19
1199800,21
1200432,17
1201052,10
1201676,30
1202308,50
1202928,52
1203556,32
1204180,12
1204804,12
1205432,19
1206052,31
1206680,33
1207308,25
1207928,16
1208556,21
1209180,19
1209812,28
1210440,25
1211056,19
1211688,16
1212312,33
1212936,39
1213564,42
1214184,47
1214812,31
1215436,18
1216060,18
1216692,10
1217312,12
1217940,15
1218568,20
1219192,22
1219820,17
1220444,20
1221076,18
1221704,17
1222328,20
1222960,16
1223580,16
1224208,18
1224836,20
1225456,15
1226084,12
1226708,13
1227336,25
1227964,30
1228584,36
1229216,27
1229844,29
1230464,37
1231092,31
1231716,31
1232344,19
1232972,16
1233592,12
1234220,17
1234844,19
1235468,13
1236096,10
1236712,11
1237340,11
1237964,13
1238588,21
1239216,27
1239840,25
1240468,17
1241096,16
1241720,13
1242348,11
1242972,14
1243600,12
1244228,11
1244848,14
1245476,18
1246100,36
1246724,37
1247356,31
1247976,25
1248608,19
1249228,18
1249852,19
1250484,18
1251104,14
1251732,14
1252364,12
1252984,11
1253612,10
1254236,13
1254868,16
1255496,16
1256112,13
1256744,15
1257368,20
1257992,28
1258620,11
1259240,15
1259868,25
1260492,25
1261116,17
1261748,10
1262368,12
1262996,16
1263628,20
1264248,26
1264876,21
1265500,26
1266132,19
1266760,10
1267384,19
1268012,23
1268636,16
1269260,11
1269892,10
1270512,16
1271140,22
1271764,26
1272388,25
1273020,14
1273640,21
1274268,24
1274900,20
1275520,11
1276148,12
1276776,14
1277404,13
1278036,10
1278656,15
1279288,31
1279912,47
1280536,46
1281164,38
1281780,27
1282408,19
1283032,21
1283656,19
1284284,10
1284900,12
1285532,13
1286160,20
1286776,17
1287404,17
1288028,14
1288656,13
1289284,16
1289904,16
1290532,16
1291156,17
1291780,12
1292412,10
1293032,10
1293660,15
1294280,16
1294904,14
1295532,10
1296152,12
1296780,11
1297404,20
1298024,31
1298656,27
1299276,20
1299904,17
1300536,11
1301152,16
1301780,15
1302404,10
1303032,11
1303660,11
1304280,11
1304908,13
1305532,14
1306156,15
1306788,14
1307408,15
1308036,17
1308660,13
1309284,11
1309912,14
1310536,17
1311168,14
1311796,14
1312416,23
1313044,31
1313664,23
1314292,22
1314920,26
1315536,28
1316164,17
1316788,13
1317408,10
1318040,12
1318656,23
1319284,23
1319908,16
1320528,16
1321156,17
1321776,15
1322404,22
1323032,22
1323648,18
1324276,15
1324900,18
1325528,17
1326156,17
1326776,15
1327404,10
1328024,13
1328648,22
1329276,30
1329896,29
1330524,19
1331148,18
1331772,24
1332400,23
1333016,21
1333644,10
1334268,12
1334888,19
1335516,21
1336140,21
1336768,29
1337396,33
1338016,37
1338644,33
1339264,21
1339896,16
1340524,14
1341144,19
1341772,21
1342396,28
1343020,31
1343648,37
1344264,22
1344892,16
1345516,17
1346140,16
1346768,21
1347384,17
1348012,25
1348640,31
1349256,44
1349884,45
1350508,31
1351136,15
1351764,19
1352384,43
1353012,48
1353632,43
1354252,40
1354884,38
1355504,27
1356132,15
1356756,18
1357380,19
1358008,18
1358632,15
1359260,20
1359888,22
1360512,19
1361140,21
1361764,29
1362392,29
1363020,26
1363640,27
1364268,27
1364888,26
1365512,23
1366140,16
1366760,11
1367388,13
1368012,11
1368632,17
1369264,16
1369880,19
1370508,19
1371132,22
1371760,29
1372388,23
1373012,14
1373640,16
1374272,17
1374888,16
1375516,10
1376140,10
1376768,10
1377400,10
1378016,14
1378644,22
1379268,29
1379892,42
1380520,70
1381136,67
1381768,51
1382388,31
1383016,18
1383644,11
1384268,11
1384896,11
1385524,16
1386144,26
1386772,43
1387396,43
1388028,30
1388656,31
1389272,29
1389904,20
1390528,19
1391148,21
1391780,16
1392400,17
1393028,11
1393652,10
1394276,11
1394904,19
1395528,26
1396156,36
1396784,49
1397408,55
1398036,52
1398660,45
1399288,33
1399916,24
1400536,11
1401164,13
1401788,19
1402412,23
1403040,27
1403656,30
1404284,30
1404908,25
1405532,28
1406160,36
1406784,44
1407412,42
1408044,22
1408660,11
1409288,17
1409912,39
1410540,48
1411172,52
1411792,53
1412420,45
1413044,43
1413668,46
1414296,39
1414920,32
1415548,18
1416172,16
1416792,11
1417424,11
1418040,23
1418672,33
1419300,26
1419920,21
1420548,16
1421172,19
1421804,31
1422432,26
1423048,15
1423680,15
1424304,15
1424924,16
1425556,14
1426176,13
1426804,10
1427428,13
1428052,11
1428680,15
1429304,27
1429932,49
1430564,56
1431184,45
1431816,30
1432440,24
1433068,16
1433700,12
1434316,15
1434948,30
1435572,22
1436192,14
1436824,13
1437440,12
1438068,14
1438692,22
1439316,31
1439944,25
1440564,17
1441192,17
1441820,13
1442440,11
1443068,11
1443692,12
1444320,13
1444948,18
1445568,31
1446196,44
1446820,55
1447444,51
1448072,44
1448688,33
1449316,26
1449940,18
1450564,10
1451192,13
1451808,21
1452440,28
1453068,23
1453688,19
1454316,18
1454940,28
1455568,35
1456200,22
1456816,27
1457444,17
1458068,16
1458692,18
1459324,14
1459944,14
1460572,14
1461196,23
1461820,31
1462448,42
1463064,44
1463692,37
1464316,30
1464944,30
1465572,25
1466196,17
1466828,11
1467456,13
1468080,21
1468708,33
1469332,38
1469960,25
1470588,27
1471208,26
1471836,25
1472464,20
1473088,17
1473716,26
1474336,32
1474964,23
1475592,10
1476216,21
1476844,26
1477464,26
1478096,23
1478724,30
1479344,41
1479972,41
1480596,40
1481220,45
1481852,38
1482472,17
1483100,16
1483724,11
1484348,10
1484976,14
1485596,17
1486228,18
1486856,16
1487472,11
1488100,11
1488724,15
1489352,19
1489980,20
1490600,21
1491228,18
1491848,14
1492480,11
1493108,14
1493728,20
1494356,22
1494980,22
1495604,28
1496236,26
1496856,30
1497484,38
1498108,40
1498736,21
1499364,16
1499988,15
1500616,22
1501248,19
1501864,10
1502496,11
1503120,10
1503748,11
1504380,16
1505000,22
1505628,29
1506252,26
1506876,15
1507504,16
1508128,16
1508756,19
1509388,28
1510008,19
1510636,14
1511260,11
1511892,12
1512524,26
1513144,35
1513772,25
1514396,30
1515024,29
1515652,21
1516272,20
1516900,17
1517524,10
1518148,16
1518780,32
1519400,33
1520028,26
1520660,31
1521280,30
1521908,30
1522532,29
1523164,24
1523792,22
1524416,31
1525044,22
1525668,16
1526292,19
1526924,14
1527544,17
1528172,19
1528796,35
1529424,44
1530052,43
1530672,51
1531304,50
1531932,46
1532552,37
1533184,28
1533808,20
1534436,13
1535068,20
1535688,17
1536320,17
1536940,16
1537564,23
1538192,39
1538808,37
1539440,26
1540060,18
1540684,15
1541312,15
1541936,15
1542564,18
1543192,19
1543812,11
1544440,13
1545064,16
1545692,14
1546320,26
1546936,46
1547568,56
1548192,51
1548816,41
1549444,35
1550064,19
1550692,11
1551316,15
1551940,27
1552572,42
1553192,45
1553820,27
1554452,18
1555072,19
1555704,27
1556328,22
1556956,21
1557584,17
1558208,17
1558836,16
1559460,16
1560084,17
1560716,24
1561336,27
1561964,29
1562588,36
1563212,37
1563840,40
1564464,47
1565092,46
1565724,44
1566344,34
1566972,11
1567596,18
1568228,30
1568856,30
1569472,29
1570104,47
1570724,50
1571348,25
1571980,16
1572600,17
1573228,16
1573852,17
1574476,15
1575108,14
1575728,12
1576356,10
1576988,10
1577608,11
1578236,19
1578860,37
1579492,50
1580120,54
1580740,41
1581368,27
1581992,18
1582620,15
1583248,16
1583868,14
1584496,24
1585120,32
1585744,31
1586376,26
1586996,27
1587628,17
1588256,11
1588872,15
1589500,15
1590124,15
1590756,18
1591384,18
1592008,12
1592636,17
1593260,21
1593884,16
1594516,16
1595136,24
1595768,38
1596392,50
1597016,58
1597648,49
1598264,38
1598892,18
1599524,16
1600144,15
1600772,11
1601392,22
1602024,32
1602652,36
1603268,40
1603900,39
1604520,30
1605144,23
1605772,25
1606392,25
1607020,17
1607644,18
1608268,18
1608896,22
1609512,25
1610144,19
1610772,16
1611392,25
1612020,25
1612644,25
1613276,26
1613904,31
1614520,32
1615152,33
1615776,24
1616396,18
1617028,12
1617648,20
1618276,16
1618900,25
1619524,21
1620152,21
1620768,21
1621400,18
1622028,14
1622648,16
1623276,15
1623900,16
1624532,15
1625160,16
1625776,17
1626408,15
1627028,11
1627656,12
1628284,10
1628904,21
1629532,30
1630156,35
1630780,42
1631412,40
1632032,43
1632660,37
1633288,32
1633912,21
1634540,20
1635164,58
1635796,58
1636428,46
1637048,35
1637676,17
1638304,17
1638928,17
1639556,14
1640172,15
1640800,15
1641424,18
1642044,19
1642672,16
1643288,13
1643916,18
1644540,25
1645160,33
1645788,46
1646408,54
1647036,51
1647668,42
1648288,27
1648916,19
1649536,17
1650164,15
1650792,18
1651408,28
1652036,39
1652660,49
1653280,43
1653908,28
1654528,19
1655156,14
1655776,14
1656400,15
1657028,18
1657648,20
1658276,17
1658904,10
1659520,11
1660148,20
1660772,26
1661400,17
1662028,15
1662648,13
1663276,19
1663900,36
1664524,36
1665152,44
1665768,31
1666396,20
1667016,16
1667640,11
1668268,20
1668884,25
1669516,23
1670136,22
1670760,21
1671388,21
1672008,25
1672636,25
1673264,19
1673880,19
1674508,16
1675132,15
1675764,23
1676392,31
1677008,27
1677636,25
1678260,28
1678880,32
1679512,31
1680128,45
1680756,46
1681376,32
1681996,24
1682628,20
1683244,16
1683872,18
1684504,25
1685116,31
1685748,37
1686372,30
1687000,32
1687628,32
1688248,32
1688876,25
1689500,23
1690120,14
1690752,18
1691368,19
1691996,11
1692620,11
1693240,19
1693868,11
1694488,13
1695116,29
1695740,42
1696364,43
1696992,28
1697612,20
1698240,21
1698868,27
1699488,23
1700116,31
1700740,26
1701368,17
1701996,12
1702616,13
1703244,11
1703868,23
1704488,28
1705116,24
1705736,21
1706364,21
1706988,25
1707612,23
1708240,17
1708856,13
1709484,11
1710112,10
1710736,15
1711364,24
1711988,34
1712620,31
1713248,26
1713864,30
1714496,38
1715120,32
1715744,20
1716372,16
1716992,11
1717620,10
1718244,13
1718868,18
1719496,26
1720120,31
1720748,32
1721376,32
1722000,28
1722628,25
1723252,19
1723880,17
1724508,16
1725128,23
1725756,26
1726380,19
1727004,16
1727632,15
1728256,15
1728884,27
1729508,37
1730128,38
1730760,35
1731376,37
1732004,29
1732632,31
1733252,27
1733880,13
1734504,16
1735132,27
1735760,37
1736384,37
1737012,29
1737636,20
1738260,13
1738888,13
1739504,18
1740136,15
1740760,16
1741384,20
1742012,14
1742632,12
1743260,10
1743888,12
1744512,19
1745140,29
1745764,31
1746392,30
1747020,43
1747640,44
1748268,32
1748892,16
1749516,20
1750144,21
1750760,11
1751392,11
1752016,13
1752636,21
1753268,25
1753888,28
1754516,25
1755148,16
1755768,13
1756396,16
1757020,21
1757652,39
1758280,26
1758904,24
1759532,12
1760156,23
1760780,16
1761408,10
1762032,18
1762660,37
1763280,53
1763904,69
1764532,61
1765152,47
1765780,41
1766408,30
1767024,17
1767652,11
1768276,12
1768904,27
1769532,32
1770152,25
1770780,22
1771404,24
1772036,24
1772664,23
1773280,26
1773912,31
1774536,27
1775156,17
1775788,14
1776408,14
1777036,11
1777660,14
1778288,14
1778916,20
1779540,47
1780172,70
1780800,67
1781416,47
1782044,31
1782668,25
1783300,21
1783928,12
1784548,12
1785176,26
1785800,36
1786424,42
1787052,43
1787672,31
1788300,21
1788924,24
1789552,24
1790180,16
1790804,16
1791436,16
1792068,10
1792684,12
1793312,15
1793936,13
1794564,15
1795192,18
1795812,30
1796440,39
1797064,43
1797688,40
1798316,38
1798936,33
1799564,27
1800188,20
1800816,11
1801444,17
1802068,26
1802696,33
1803328,31
1803944,21
1804572,19
1805196,17
1805824,20
1806452,23
1807072,22
1807700,15
1808324,15
1808944,10
1809572,10
1810192,11
1810820,15
1811444,26
1812068,29
1812696,37
1813320,15
1813948,11
1814576,16
1815200,15
1815828,17
1816452,25
1817080,18
1817712,19
1818328,31
1818956,31
1819580,16
1820204,11
1820832,20
1821448,25
1822080,31
1822704,31
1823328,25
1823956,17
1824580,15
1825212,17
1825840,11
1826456,19
1827084,25
1827708,15
1828340,11
1828968,10
1829584,25
1830212,36
1830840,43
1831460,53
1832092,42
1832712,32
1833340,16
1833964,21
1834588,27
1835220,25
1835844,26
1836472,16
1837104,10
1837724,13
1838352,22
1838976,27
1839604,24
1840236,17
1840856,16
1841484,16
1842108,14
1842732,17
1843364,20
1843980,16
1844612,11
1845232,10
1845856,27
1846484,43
1847108,42
1847736,37
1848364,31
1848984,26
1849612,19
1850232,15
1850864,15
1851492,14
1852112,12
1852740,13
1853364,18
1853988,23
1854620,25
1855240,23
1855868,21
1856492,26
1857116,27
1857748,18
1858368,17
1859000,11
1859628,12
1860248,12
1860876,11
1861500,10
1862128,20
1862756,38
1863376,57
1864004,68
1864628,62
1865252,55
1865880,35
1866496,20
1867128,15
1867752,10
1868376,22
1869004,32
1869624,25
1870252,17
1870880,16
1871504,26
1872132,42
1872756,34
1873388,27
1874016,19
1874632,14
1875264,15
1875888,13
1876512,12
1877140,10
1877760,18
1878388,23
1879016,22
1879640,13
1880268,15
1880888,38
1881516,51
1882148,38
1882768,25
1883396,28
1884024,22
1884652,14
1885280,17
1885904,21
1886532,21
1887156,17
1887780,19
1888412,21
1889032,20
1889660,23
1890284,31
1890908,30
1891536,24
1892160,17
1892788,11
1893420,27
1894040,37
1894672,37
1895292,32
1895924,27
1896552,30
1897172,43
1897800,41
1898424,34
1899048,36
1899676,35
1900296,33
1900924,18
1901548,13
1902172,24
1902804,26
1903428,27
1904060,25
1904688,23
1905304,26
1905936,26
1906560,23
1907188,18
1907820,17
1908440,16
1909068,11
1909692,11
1910320,11
1910948,10
1911568,10
1912200,11
1912824,20
1913448,31
1914080,41
1914704,47
1915332,34
1915964,27
1916584,26
1917216,20
1917840,11
1918472,28
1919100,49
1919720,49
1920352,38
1920976,27
1921596,15
1922228,10
1922848,15
1923476,15
1924108,19
1924728,23
1925356,15
1925980,12
1926608,19
1927240,30
1927856,51
1928484,58
1929108,44
1929732,33
1930364,26
1930984,44
1931612,44
1932236,33
1932860,21
1933488,15
1934104,15
1934736,19
1935364,21
1935984,26
1936612,30
1937236,29
1937868,28
1938496,22
1939120,16
1939748,15
1940376,17
1941000,17
1941628,16
1942248,12
1942876,18
1943504,17
1944128,9
1944704,13
1945328,11
1945960,36
1946580,53
1947204,51
1947832,44
1948456,26
1949084,18
1949716,18
1950336,16
1950968,11
1951592,15
1952220,25
1952848,34
1953472,31
1954100,21
1954724,14
1955348,11
1955980,18
1956600,17
1957228,16
1957852,15
1958476,17
1959108,13
1959728,11
1960356,10
1960988,16
1961608,18
1962236,17
1962860,27
1963492,32
1964120,44
1964744,39
1965376,29
1966000,19
1966624,18
1967252,12
1967872,11
1968500,10
1969124,23
1969748,38
1970376,41
1970996,31
1971624,19
1972252,10
1972872,15
1973500,17
1974124,18
1974752,15
1975384,13
1976000,11
1976628,10
1977252,10
1977876,12
1978504,12
1979128,22
1979756,34
1980380,45
1981004,55
1981636,64
1982256,54
1982884,27
1983516,18
1984136,10
1984764,12
1985388,12
1986016,12
1986644,18
1987264,40
1987892,48
1988516,37
1989136,26
1989768,20
1990384,18
1991016,17
1991640,17
1992264,19
1992892,11
1993512,16
1994144,20
1994772,26
1995392,30
1996024,37
1996648,50
1997276,47
1997908,32
1998528,41
1999156,34
1999780,21
2000404,21
2001032,11
2001656,17
2002284,24
2002908,20
2003532,21
2004160,25
2004776,28
2005404,25
2006036,22
2006656,16
2007284,16
2007908,17
2008540,16
2009168,10
2009784,11
2010412,11
2011036,12
2011660,26
2012288,30
2012908,38
2013536,27
2014160,24
2014784,21
2015412,16
2016032,19
2016660,28
2017288,24
2017912,16
2018540,32
2019164,29
2019796,17
2020424,10
2021048,11
2021676,13
2022300,13
2022928,15
2023556,16
2024176,18
2024804,15
2025428,15
2026052,13
2026684,12
2027304,14
2027932,11
2028564,10
2029184,15
2029812,11
2030436,21
2031068,23
2031696,20
2032320,22
2032948,18
2033572,18
2034196,14
2034828,10
2035448,10
2036076,10
2036700,9
2037276,14
2037912,23
2038528,21
2039156,17
2039784,18
2040408,15
2041036,16
2041656,16
2042284,15
2042916,13
2043536,15
2044164,24
2044788,24
2045420,23
2046052,28
2046672,31
2047304,31
2047928,26
2048552,27
2049180,23
2049796,17
2050424,12
2051048,11
2051668,10
2052296,10
2052916,16
2053548,20
2054176,20
2054792,13
2055420,10
2056044,14
2056668,18
2057300,26
2057920,19
2058548,16
2059168,14
2059792,14
2060420,10
2061040,10
2061668,11
2062288,11
2062912,11
2063540,16
2064160,27
2064788,27
2065416,26
2066032,28
2066660,24
2067284,21
2067912,13
2068540,10
2069156,10
2069788,11
2070408,9
2070984,11
2071620,12
2072240,14
2072868,16
2073492,18
2074120,19
2074748,17
2075368,15
2075996,11
2076620,13
2077244,11
2077872,12
2078488,11
2079120,23
2079744,17
2080368,13
2080996,23
2081616,20
2082244,20
2082872,22
2083496,24
2084124,14
2084748,10
2085376,10
2086004,10
2086624,20
2087252,24
2087872,19
2088496,13
2089124,12
2089740,20
2090372,19
2090992,16
2091616,16
2092244,12
2092864,16
2093496,24
2094124,18
2094744,22
2095372,28
2095996,21
2096624,23
2097252,32
2097872,44
2098500,41
2099124,29
2099748,24
2100376,18
2101000,10
2101628,14
2102252,15
2102872,13
2103504,17
2104120,20
2104748,27
2105380,27
2106000,23
2106628,18
2107252,18
2107880,17
2108508,16
2109128,11
2109756,10
2110380,10
2111004,11
2111636,12
2112256,14
2112884,13
2113508,22
2114128,29
2114760,32
2115376,35
2116004,36
2116632,27
2117256,19
2117884,10
2118508,18
2119136,25
2119768,23
2120384,15
2121012,11
2121636,10
2122260,11
2122888,14
2123504,15
2124136,22
2124760,36
2125384,37
2126012,17
2126632,11
2127260,10
2127892,22
2128512,29
2129140,27
2129764,40
2130396,49
2131024,47
2131640,35
2132268,29
2132892,25
2133516,27
2134144,25
2134760,10
2135392,21
2136016,23
2136636,24
2137268,20
2137888,18
2138516,20
2139148,26
2139768,24
2140396,17
2141020,18
2141648,18
2142280,11
2142896,10
2143524,11
2144148,17
2144772,18
2145404,19
2146024,24
2146652,29
2147276,30
2147900,26
2148528,23
2149144,21
2149776,21
2150404,15
2151020,14
2151652,14
2152276,12
2152904,13
2153532,10
2154152,11
2154780,11
2155404,11
2156036,15
2156664,17
2157280,16
2157912,15
2158536,17
2159160,14
2159788,17
2160408,14
2161036,18
2161660,11
2162288,17
2162916,23
2163540,31
2164168,26
2164800,31
2165416,35
2166044,31
2166668,18
2167296,11
2167928,10
2168544,11
2169176,14
2169800,10
2170424,12
2171052,14
2171672,20
2172300,21
2172924,30
2173552,32
2174180,24
2174804,16
2175436,17
2176064,16
2176684,15
2177312,10
2177936,9
2178512,22
2179140,26
2179760,23
2180388,28
2181012,39
2181640,47
2182268,44
2182888,22
2183516,16
2184140,11
2184764,10
2185392,14
2186016,15
2186644,16
2187276,24
2187896,19
2188524,12
2189148,12
2189780,14
2190408,14
2191024,15
2191656,17
2192280,12
2192904,11
2193532,12
2194152,14
2194780,22
2195404,25
2196028,28
2196660,23
2197280,26
2197908,29
2198540,22
2199160,17
2199788,17
2200416,17
2201044,11
2201676,10
2202296,14
2202924,17
2203548,22
2204172,18
2204800,15
2205416,15
2206048,18
2206672,17
2207296,17
2207924,16
2208544,18
2209172,11
2209804,10
2210424,11
2211052,13
2211676,15
2212308,19
2212936,25
2213560,28
2214188,25
2214812,24
2215436,22
2216068,24
2216688,31
2217316,17
2217940,10
2218564,14
2219192,18
2219816,15
2220444,19
2221076,16
2221696,13
2222324,12
2222948,29
2223580,35
2224212,17
2224832,17
2225460,17
2226084,10
2226708,17
2227340,24
2227960,23
2228588,19
2229212,11
2229836,13
2230468,15
2231088,23
2231716,35
2232348,38
2232968,32
2233596,34
2234224,17
2234852,10
2235484,12
2236104,15
2236736,18
2237360,17
2237984,17
2238616,15
2239232,17
2239864,21
2240488,18
2241112,20
2241740,16
2242360,15
2242988,18
2243620,15
2244240,13
2244868,14
2245492,18
2246120,27
2246752,31
2247368,35
2248000,43
2248624,41
2249248,32
2249876,26
2250496,22
2251124,11
2251748,18
2252376,27
2253008,24
2253624,22
2254252,23
2254880,27
2255496,33
2256128,22
2256748,29
2257380,33
2258008,29
2258624,28
2259252,11
2259876,14
2260500,21
2261128,21
2261744,22
2262376,40
2263000,54
2263624,53
2264252,49
2264872,41
2265500,25
2266132,17
2266752,17
2267380,11
2268004,13
2268636,25
2269264,28
2269884,30
2270512,32
2271136,24
2271760,20
2272392,15
2273008,18
2273636,16
2274260,17
2274884,17
2275516,17
2276136,12
2276764,11
2277396,18
2278016,14
2278644,15
2279268,29
2279900,34
2280532,37
2281152,39
2281780,29
2282404,19
2283028,15
2283660,23
2284280,21
2284908,17
2285532,14
2286156,10
2286788,20
2287408,33
2288036,39
2288668,28
2289288,15
2289916,14
2290540,14
2291172,15
2291804,14
2292424,10
2293052,18
2293680,15
2294304,12
2294932,12
2295552,15
2296180,43
2296804,54
2297428,41
2298060,34
2298680,27
2299308,31
2299940,38
2300560,29
2301188,11
2301816,19
2302444,32
2303076,29
2303696,21
2304328,25
2304948,33
2305572,24
2306200,18
2306816,21
2307448,19
2308072,16
2308692,18
2309324,27
2309944,35
2310572,33
2311200,32
2311824,27
2312452,23
2313076,25
2313708,29
2314336,39
2314952,33
2315584,28
2316208,19
2316832,16
2317460,15
2318080,22
2318708,21
2319332,19
2319956,21
2320588,23
2321208,28
2321836,31
2322468,15
2323088,18
2323716,15
2324340,15
2324972,15
2325600,13
2326216,10
2326848,11
2327472,11
2328096,12
2328724,12
2329344,11
2329972,28
2330596,40
2331220,48
2331852,46
2332472,32
2333104,31
2333732,30
2334352,19
2334984,11
2335608,15
2336236,27
2336864,37
2337488,36
2338116,31
2338740,23
2339364,18
2339992,16
2340616,16
2341244,21
2341868,22
2342492,16
2343124,14
2343748,11
2344376,12
2345008,19
2345624,12
2346252,14
2346876,36
2347508,55
2348136,45
2348760,32
2349392,19
2350016,21
2350640,23
2351268,14
2351888,16
2352520,32
2353144,29
2353768,18
2354400,22
2355024,25
2355656,28
2356284,24
2356904,15
2357532,18
2358156,23
2358788,34
2359420,26
2360040,13
2360668,23
2361292,21
2361916,30
2362548,35
2363168,43
2363800,49
2364428,42
2365048,29
2365676,37
2366304,41
2366932,39
2367564,27
2368184,11
2368812,15
2369436,27
2370060,31
2370692,32
2371312,24
2371940,19
2372564,26
2373188,31
2373820,26
2374440,19
2375068,19
2375700,16
2376320,12
2376948,11
2377572,11
2378204,12
2378832,14
2379456,39
2380088,59
2380712,53
2381336,40
2381964,28
2382584,26
2383212,21
2383836,15
2384464,10
2385092,9
2385660,10
2386292,21
2386916,31
2387540,37
2388172,32
2388792,22
2389424,17
2390052,16
2390672,15
2391304,17
2391928,17
2392560,13
2393188,16
2393808,14
2394436,13
2395064,21
2395688,26
2396316,36
2396936,46
2397568,52
2398192,43
2398816,34
2399448,21
2400072,17
2400700,12
2401328,10
2401952,12
2402580,17
2403204,24
2403832,24
2404464,31
2405080,41
2405712,35
2406336,32
2406960,23
2407588,19
2408208,20
2408836,19
2409460,13
2410084,28
2410712,32
2411336,19
2411968,21
2412596,44
2413216,60
2413844,43
2414468,44
2415100,39
2415732,34
2416352,24
2416980,16
2417604,15
2418228,20
2418860,31
2419480,33
2420108,33
2420732,29
2421360,20
2421988,15
2422612,22
2423244,22
2423872,16
2424496,16
2425124,16
2425748,17
2426376,21
2427004,14
2427624,10
2428252,16
2428876,12
2429504,16
2430132,26
2430752,37
2431384,46
2432012,44
2432632,47
2433260,48
2433884,36
2434516,12
2435144,19
2435764,38
2436396,43
2437020,29
2437644,24
2438272,22
2438896,24
2439524,26
2440148,17
2440772,15
2441404,16
2442024,19
2442652,24
2443284,27
2443904,30
2444536,24
2445160,17
2445788,17
2446420,26
2447040,35
2447672,25
2448296,21
2448920,38
2449548,41
2450168,31
2450800,12
2451424,28
2452048,37
2452676,38
2453296,48
2453924,50
2454556,27
2455176,13
2455808,15
2456432,22
2457064,19
2457692,16
2458312,17
2458940,17
2459560,18
2460184,18
2460812,10
2461432,12
2462060,10
2462684,15
2463308,27
2463936,39
2464560,61
2465188,60
2465820,52
2466440,35
2467068,17
2467692,13
2468320,22
2468952,36
2469568,34
2470196,11
2470820,11
2471444,9
2472024,14
2472644,20
2473276,19
2473900,19
2474524,18
2475152,17
2475776,16
2476404,20
2477028,21
2477652,17
2478284,12
2478904,19
2479532,27
2480164,32
2480784,41
2481412,40
2482036,28
2482664,17
2483296,16
2483912,22
2484540,23
2485164,22
2485788,25
2486416,28
2487032,21
2487664,11
2488288,11
2488912,11
2489540,14
2490160,27
2490788,25
2491420,19
2492040,20
2492668,13
2493292,11
2493924,19
2494556,28
2495176,42
2495808,37
2496432,38
2497056,47
2497684,50
2498304,57
2498932,38
2499556,20
2500180,17
2500808,14
2501432,18
2502060,24
2502692,32
2503312,49
2503940,59
2504568,51
2505196,30
2505828,14
2506448,14
2507076,14
2507700,15
2508328,18
2508956,22
2509576,26
2510204,25
2510828,22
2511452,14
2512084,11
2512708,16
2513336,31
2513964,47
2514584,45
2515212,38
2515836,27
2516468,22
2517100,18
2517720,10
2518352,13
2518976,26
2519600,33
2520228,30
2520848,24
2521476,22
2522104,25
2522728,27
2523356,20
2523980,17
2524612,16
2525244,16
2525864,11
2526492,14
2527120,15
2527748,19
2528380,18
2529000,21
2529628,21
2530252,24
2530876,33
2531508,31
2532128,27
2532756,27
2533388,24
2534008,23
2534640,14
2535264,13
2535892,19
2536524,20
2537144,21
2537776,27
2538400,32
2539024,31
2539656,28
2540272,23
2540900,15
2541524,16
2542148,16
2542780,10
2543400,15
2544028,11
2544660,19
2545280,23
2545908,39
2546536,53
2547164,57
2547796,62
2548416,57
2549048,35
2549672,28
2550296,20
2550928,11
2551544,22
2552176,33
2552800,37
2553424,35
2554056,31
2554676,22
2555304,17
2555936,16
2556556,19
2557188,15
2557812,16
2558444,16
2559076,22
2559696,20
2560328,12
2560952,11
2561572,10
2562200,10
2562820,12
2563452,31
2564072,58
2564692,69
2565324,51
2565944,38
2566572,26
2567200,16
2567816,12
2568444,14
2569068,12
2569696,12
2570324,10
2570944,18
2571572,36
2572196,35
2572820,32
2573448,35
2574064,30
2574692,17
2575316,15
2575940,13
2576568,12
2577192,13
2577820,10
2578452,13
2579072,25
2579700,33
2580324,37
2580956,46
2581584,38
2582200,34
2582828,37
2583452,31
2584076,26
2584704,12
2585324,13
2585952,15
2586576,17
2587196,20
2587828,24
2588448,29
2589076,30
2589708,34
2590328,34
2590956,23
2591580,16
2592212,16
2592840,11
2593456,11
2594088,11
2594708,17
2595336,30
2595964,38
2596584,45
2597212,47
2597836,44
2598460,34
2599088,27
2599712,19
2600340,17
2600972,10
2601592,10
2602220,25
2602844,35
2603476,27
2604104,14
2604720,10
2605352,11
2605976,13
2606600,18
2607228,20
2607848,19
2608476,21
2609100,14
2609724,12
2610356,14
2610976,20
2611608,21
2612236,16
2612856,25
2613484,35
2614108,37
2614740,37
2615368,32
2615988,29
2616616,24
2617240,20
2617864,12
2618496,17
2619112,31
2619744,35
2620368,37
2620992,35
2621624,23
2622236,30
2622868,43
2623496,35
2624112,16
2624740,15
2625364,17
2625992,18
2626620,12
2627236,25
2627864,37
2628488,45
2629116,47
2629744,42
2630368,46
2630996,55
2631620,52
2632244,54
2632872,50
2633488,26
2634120,15
2634740,20
2635364,30
2635992,30
2636616,33
2637248,39
2637876,38
2638496,28
2639124,33
2639748,27
2640376,27
2641008,24
2641624,17
2642252,16
2642872,19
2643496,29
2644124,34
2644744,34
2645372,27
2645992,20
2646616,27
2647248,33
2647864,39
2648492,36
2649120,28
2649744,17
2650372,17
2650996,19
2651624,22
2652252,15
2652872,28
2653500,27
2654124,21
2654748,14
2655376,10
2655992,13
2656624,28
2657244,29
2657868,24
2658500,19
2659120,15
2659748,30
2660380,40
2661000,34
2661628,31
2662252,20
2662884,18
2663512,24
2664128,36
2664756,40
2665380,27
2666000,27
2666628,28
2667248,25
2667876,21
2668500,10
2669120,21
2669748,28
2670368,23
2670996,28
2671624,33
2672248,33
2672876,34
2673500,31
2674128,18
2674756,14
2675376,16
2676004,11
2676624,11
2677252,16
2677884,30
2678504,40
2679132,36
2679756,27
2680380,20
2681008,18
2681624,26
2682256,41
2682876,32
2683504,24
2684132,16
2684756,10
2685388,12
2686016,27
2686632,40
2687264,43
2687888,32
2688520,17
2689144,18
2689768,17
2690396,15
2691016,16
2691640,15
2692268,17
2692888,11
2693516,10
2694140,10
2694760,13
2695392,29
2696012,40
2696644,49
2697272,53
2697888,53
2698516,45
2699140,34
2699772,25
2700400,17
2701016,11
2701648,11
2702272,17
2702896,20
2703524,19
2704144,25
2704772,27
2705392,29
2706016,37
2706648,45
2707268,26
2707896,16
2708528,18
2709144,20
2709772,24
2710396,17
2711028,10
2711656,12
2712276,11
2712904,15
2713528,23
2714152,33
2714784,43
2715400,39
2716028,27
2716652,21
2717276,17
2717904,14
2718528,10
2719156,12
2719788,14
2720408,21
2721036,29
2721660,28
2722288,25
2722916,24
2723536,29
2724164,22
2724788,15
2725408,15
2726040,16
2726656,31
2727284,32
2727908,33
2728532,27
2729160,23
2729776,30
2730404,40
2731032,49
2731656,40
2732284,25
2732908,16
2733536,15
2734168,16
2734784,24
2735412,35
2736036,34
2736660,29
2737288,21
2737912,15
2738540,11
2739164,13
2739792,16
2740420,16
2741040,20
2741668,20
2742300,20
2742920,14
2743548,10
2744172,17
2744804,22
2745432,29
2746052,33
2746680,41
2747304,50
2747928,51
2748556,47
2749176,39
2749804,25
2750428,18
2751052,11
2751684,14
2752304,24
2752932,33
2753564,32
2754184,40
2754812,41
2755436,27
2756068,12
2756696,14
2757312,15
2757944,16
2758568,16
2759192,15
2759820,11
2760440,11
2761068,15
2761692,11
2762316,36
2762948,48
2763568,48
2764196,53
2764828,50
2765444,44
2766076,36
2766700,18
2767328,17
2767956,12
2768576,16
2769204,18
2769828,27
2770452,40
2771080,40
2771704,37
2772332,33
2772956,23
2773580,19
2774212,16
2774832,17
2775460,16
2776092,16
2776712,26
2777340,27
2777968,21
2778596,15
2779228,12
2779848,23
2780476,39
2781104,49
2781728,41
2782356,31
2782976,27
2783604,20
2784232,15
2784856,11
2785484,16
2786104,34
2786732,49
2787360,50
2787984,44
2788612,35
2789236,26
2789864,19
2790496,21
2791112,17
2791740,25
2792364,26
2792988,38
2793616,33
2794240,24
2794868,14
2795492,16
2796116,29
2796748,42
2797368,47
2797996,52
2798628,42
2799248,28
2799876,19
2800504,16
2801132,11
2801760,14
2802384,21
2803012,29
2803636,29
2804260,32
2804892,24
2805512,17
2806140,19
2806764,20
2807388,17
2808016,15
2808640,16
2809268,16
2809896,16
2810520,18
2811148,16
2811772,11
2812404,14
2813032,11
2813656,23
2814284,46
2814908,58
2815536,50
2816164,44
2816780,36
2817412,28
2818032,14
2818656,10
2819284,9
2819856,21
2820484,35
2821108,29
2821732,29
2822360,24
2822984,23
2823616,31
2824244,26
2824864,21
2825492,16
2826116,15
2826748,17
2827376,13
2827992,15
2828624,15
2829248,12
2829872,19
2830500,20
2831120,28
2831748,33
2832372,34
2832996,36
2833628,24
2834248,17
2834880,10
2835508,12
2836128,24
2836756,26
2837380,23
2838012,21
2838640,15
2839264,19
2839892,28
2840516,32
2841140,27
2841772,19
2842392,15
2843020,19
2843644,27
2844272,43
2844900,41
2845524,29
2846156,20
2846784,21
2847408,31
2848036,43
2848660,41
2849284,31
2849916,25
2850536,17
2851164,13
2851792,22
2852416,25
2853044,21
2853664,16
2854292,23
2854924,33
2855544,24
2856172,19
2856796,17
2857428,18
2858060,16
2858680,17
2859308,15
2859936,18
2860560,23
2861188,20
2861808,14
2862436,16
2863060,32
2863688,40
2864316,43
2864936,43
2865564,25
2866196,18
2866816,19
2867448,19
2868068,15
2868696,10
2869328,18
2869944,25
2870572,26
2871196,21
2871820,16
2872452,22
2873072,25
2873700,24
2874324,21
2874948,19
2875576,17
2876196,11
2876824,11
2877452,10
2878072,11
2878700,11
2879328,18
2879956,22
2880588,31
2881208,48
2881836,53
2882456,52
2883080,30
2883708,16
2884328,13
2884956,15
2885580,15
2886204,10
2886832,11
2887448,16
2888080,14
2888700,14
2889328,37
2889956,43
2890580,25
2891208,25
2891836,15
2892456,17
2893084,12
2893708,13
2894336,12
2894968,23
2895584,32
2896216,34
2896836,38
2897460,47
2898092,54
2898712,44
2899340,37
2899964,25
2900592,17
2901220,11
2901844,21
2902476,32
2903104,27
2903724,14
2904352,13
2904976,15
2905604,13
2906236,16
2906856,28
2907484,28
2908108,25
2908736,19
2909364,12
2909984,11
2910612,11
2911244,11
2911864,27
2912496,33
2913116,33
2913748,35
2914376,41
2915000,47
2915628,35
2916256,26
2916880,17
2917508,16
2918128,12
2918760,11
2919380,28
2920004,47
2920632,47
2921256,33
2921884,19
2922516,12
2923136,13
2923764,17
2924388,15
2925020,15
2925648,16
2926272,13
2926900,12
2927524,13
2928152,18
2928780,14
2929400,12
2930028,47
2930652,79
2931276,75
2931908,54
2932528,26
2933156,15
2933788,14
2934408,19
2935036,31
2935664,28
2936292,11
2936924,24
2937544,30
2938176,27
2938800,12
2939424,10
2940052,21
2940672,33
2941304,37
2941928,35
2942552,20
2943184,14
2943804,27
2944436,29
2945064,25
2945680,24
2946308,27
2946932,35
2947564,44
2948192,45
2948816,32
2949444,23
2950068,21
2950692,19
2951320,12
2951944,11
2952572,27
2953196,41
2953820,31
2954452,28
2955072,41
2955704,31
2956332,27
2956952,27
2957580,15
2958204,17
2958836,16
2959468,14
2960088,13
2960716,10
2961340,19
2961964,29
2962592,39
2963208,42
2963836,40
2964464,41
2965088,48
2965716,41
2966340,34
2966972,19
2967604,14
2968224,20
2968852,25
2969476,22
2970108,26
2970736,34
2971360,41
2971988,42
2972612,34
2973236,21
2973868,14
2974488,15
2975116,15
2975740,16
2976368,15
2976996,19
2977620,17
2978248,25
2978876,30
2979496,33
2980124,35
2980748,38
2981380,40
2982008,32
2982632,27
2983260,22
2983884,16
2984508,15
2985140,14
2985760,11
2986388,13
2987020,23
2987640,28
2988268,28
2988892,24
2989524,23
2990152,26
2990776,23
2991404,21
2992028,18
2992652,16
2993284,10
2993904,11
2994532,14
2995160,10
2995784,13
2996412,25
2997032,29
2997660,44
2998292,48
2998912,44
2999540,32
3000168,20
3000796,17
3001428,12
3002048,19
3002676,15
3003300,11
3003928,14
3004556,10
3005176,15
3005808,13
3006432,21
3007056,27
3007688,26
3008304,24
3008936,21
3009564,16
3010184,11
3010816,13
3011436,17
3012068,13
3012700,21
3013320,33
3013948,41
3014576,41
3015200,33
3015828,38
3016448,50
3017076,41
3017704,25
3018328,10
3018956,12
3019576,14
3020208,28
3020836,29
3021456,20
3022084,14
3022708,18
3023340,21
3023972,23
3024592,27
3025224,23
3025848,19
3026472,11
3027104,11
3027720,19
3028352,21
3028976,27
3029600,17
3030232,19
3030856,25
3031488,31
3032116,40
3032736,46
3033368,41
3033992,32
3034620,17
3035252,11
3035872,15
3036504,20
3037128,27
3037752,33
3038384,35
3039000,33
3039632,37
3040264,31
3040880,21
3041512,15
3042136,17
3042764,17
3043396,19
3044016,21
3044644,14
3045268,12
3045896,11
3046524,14
3047144,24
3047772,36
3048400,45
3049020,34
3049652,32
3050272,30
3050904,21
3051532,12
3052152,11
3052784,23
3053408,37
3054040,37
3054668,33
3055288,33
3055920,16
3056544,11
3057168,15
3057800,16
3058416,20
3059048,22
3059672,19
3060296,10
3060928,11
3061544,20
3062176,40
3062808,59
3063424,55
3064056,46
3064680,48
3065312,36
3065940,25
3066560,21
3067192,16
3067816,21
3068440,21
3069072,17
3069688,22
3070320,20
3070944,14
3071572,10
3072204,11
3072820,17
3073452,23
3074080,18
3074696,16
3075324,16
3075948,16
3076576,11
3077208,10
3077824,17
3078452,13
3079076,12
3079700,14
3080328,28
3080952,40
3081580,38
3082204,19
3082828,22
3083460,22
3084080,23
3084708,19
3085340,13
3085960,11
3086588,20
3087212,22
3087844,29
3088472,29
3089096,21
3089724,19
3090348,20
3090972,15
3091604,16
3092224,16
3092852,12
3093476,10
3094100,13
3094732,10
3095352,12
3095984,17
3096612,20
3097232,36
3097864,48
3098488,47
3099116,43
3099748,33
3100368,24
3100996,19
3101624,11
3102248,14
3102876,18
3103496,30
3104128,21
3104748,15
3105372,13
3106004,14
3106628,18
3107256,22
3107888,23
3108508,17
3109136,16
3109760,15
3110388,11
3111024,15
3111640,18
3112272,15
3112896,15
3113520,33
3114148,41
3114768,49
3115400,52
3116024,43
3116648,29
3117276,18
3117900,12
3118532,10
3119164,18
3119784,31
3120416,35
3121040,28
3121668,17
3122300,11
3122920,12
3123552,15
3124176,17
3124796,20
3125428,20
3126048,18
3126676,10
3127308,12
3127928,21
3128560,22
3129184,18
3129812,16
3130444,22
3131064,27
3131696,29
3132320,17
3132944,15
3133572,15
3134192,17
3134824,13
3135448,37
3136072,36
3136700,14
3137320,15
3137948,22
3138580,17
3139200,11
3139828,13
3140452,14
3141084,15
3141716,14
3142336,16
3142968,17
3143592,19
3144216,17
3144844,20
3145464,19
3146096,12
3146720,13
3147344,41
3147976,61
3148592,47
3149224,29
3149856,16
3150472,16
3151104,20
3151728,11
3152360,16
3152988,30
3153608,41
3154240,39
3154864,30
3155488,17
3156116,10
3156736,15
3157368,19
3157992,20
3158616,20
3159248,18
3159864,12
3160496,10
3161124,12
3161744,15
3162372,16
3163000,19
3163628,32
3164260,44
3164880,57
3165508,49
3166136,32
3166760,20
3167392,15
3168008,11
3168640,14
3169264,17
3169888,24
3170520,29
3171144,29
3171776,21
3172408,17
3173024,16
3173656,23
3174284,24
3174916,25
3175544,19
3176168,14
3176796,12
3177424,21
3178048,36
3178676,35
3179296,23
3179928,13
3180556,14
3181176,25
3181808,39
3182432,43
3183064,36
3183692,36
3184312,26
3184944,13
3185568,11
3186192,21
3186824,35
3187440,53
3188072,32
3188696,12
3189320,11
3189952,11
3190568,15
3191200,21
3191832,17
3192452,16
3193080,15
3193708,24
3194340,26
3194972,22
3195592,21
3196224,25
3196848,31
3197472,36
3198104,39
3198724,27
3199352,16
3199980,14
3200608,17
3201236,12
3201860,11
3202488,19
3203116,27
3203736,18
3204364,13
3204988,26
3205616,27
3206248,30
3206864,27
3207492,19
3208116,18
3208740,21
3209368,20
3209984,11
3210612,12
3211236,20
3211860,30
3212488,42
3213112,52
3213740,35
3214372,27
3214992,41
3215620,46
3216244,34
3216876,29
3217504,16
3218120,11
3218752,17
3219376,28
3219996,35
3220628,28
3221248,28
3221876,26
3222500,14
3223124,12
3223756,17
3224376,15
3225004,16
3225636,16
3226256,12
3226884,12
3227508,16
3228136,20
3228764,19
3229384,22
3230012,23
3230640,24
3231264,25
3231892,29
3232512,29
3233140,29
3233764,23
3234388,19
3235020,10
3235640,17
3236268,25
3236900,27
3237520,29
3238148,27
3238772,20
3239404,19
3240032,22
3240648,15
3241280,16
3241904,23
3242528,26
3243156,15
3243776,13
3244404,32
3245028,45
3245652,40
3246284,38
3246904,41
3247532,49
3248164,45
3248784,27
3249412,16
3250036,15
3250668,20
3251300,34
3251920,25
3252548,19
3253172,35
3253796,32
3254428,22
3255048,15
3255676,19
3256304,37
3256928,29
3257556,21
3258184,15
3258812,18
3259444,15
3260064,10
3260696,14
3261320,17
3261948,11
3262580,16
3263200,26
3263832,32
3264456,43
3265080,52
3265708,49
3266328,40
3266956,25
3267584,18
3268208,11
3268836,36
3269460,51
3270092,30
3270724,18
3271344,16
3271976,19
3272600,34
3273224,22
3273856,16
3274472,15
3275104,15
3275728,16
3276352,12
3276984,16
3277600,16
3278228,14
3278856,12
3279472,20
3280100,30
3280720,41
3281348,45
3281976,37
3282596,33
3283224,28
3283848,24
3284476,17
3285104,14
3285720,23
3286348,35
3286972,27
3287596,21
3288224,23
3288840,29
3289468,36
3290092,36
3290712,35
3291344,27
3291960,21
3292588,15
3293216,22
3293840,27
3294468,23
3295092,23
3295720,28
3296348,25
3296968,34
3297596,47
3298216,54
3298840,45
3299468,36
3300088,30
3300716,20
3301340,11
3301964,13
3302592,15
3303208,17
3303836,14
3304464,23
3305088,23
3305716,18
3306340,18
3306968,25
3307596,30
3308216,31
3308844,24
3309464,16
3310088,12
3310716,10
3311336,16
3311964,17
3312592,14
3313216,25
3313844,40
3314464,59
3315092,67
3315724,52
3316344,39
3316972,25
3317596,19
3318228,13
3318856,10
3319480,11
3320108,20
3320732,34
3321356,42
3321984,44
3322608,29
3323236,29
3323860,27
3324484,22
3325112,24
3325732,17
3326360,16
3326988,21
3327608,28
3328240,31
3328860,28
3329488,24
3330116,26
3330736,27
3331364,31
3331984,36
3332612,34
3333244,30
3333864,17
3334492,17
3335112,10
3335736,11
3336368,18
3336984,31
3337612,45
3338236,43
3338860,25
3339488,20
3340112,19
3340740,16
3341372,16
3341992,15
3342620,17
3343244,21
3343872,21
3344504,16
3345120,11
3345748,10
3346372,20
3346996,45
3347624,52
3348248,48
3348876,43
3349500,38
3350128,27
3350756,21
3351380,12
3352012,13
3352640,26
3353260,27
3353888,30
3354512,35
3355140,32
3355772,26
3356392,27
3357020,30
3357644,24
3358268,18
3358900,14
3359520,19
3360148,23
3360776,16
3361392,11
3362024,11
3362644,13
3363272,17
3363904,21
3364520,26
3365148,41
3365772,49
3366400,37
3367028,23
3367648,16
3368276,10
3368900,11
3369524,12
3370152,22
3370768,24
3371400,27
3372024,35
3372648,30
3373276,12
3373900,17
3374528,19
3375160,15
3375776,17
3376404,21
3377028,25
3377660,22
3378288,22
3378904,27
3379532,26
3380156,31
3380780,31
3381408,37
3382024,53
3382652,56
3383276,44
3383900,27
3384528,20
3385144,27
3385772,26
3386400,33
3387024,33
3387652,39
3388276,39
3388908,36
3389536,29
3390152,26
3390780,17
3391404,17
3392028,17
3392656,14
3393280,13
3393908,22
3394532,29
3395156,32
3395784,29
3396408,25
3397036,26
3397668,36
3398288,34
3398916,27
3399540,19
3400172,20
3400800,18
3401416,27
3402044,22
3402668,10
3403292,19
3403920,24
3404544,21
3405172,29
3405796,25
3406420,17
3407048,15
3407664,13
3408296,15
3408924,18
3409544,19
3410172,12
3410796,10
3411424,12
3412056,15
3412672,21
3413300,28
3413924,45
3414548,47
3415180,45
3415800,37
3416428,23
3417052,15
3417676,17
3418308,14
3418928,12
3419556,14
3420188,24
3420808,31
3421436,35
3422060,32
3422692,26
3423320,23
3423940,20
3424572,15
3425192,14
3425820,15
3426448,13
3427064,19
3427696,24
3428320,24
3428944,15
3429572,20
3430192,31
3430824,34
3431452,42
3432072,52
3432700,46
3433324,33
3433956,22
3434584,17
3435204,11
3435832,14
3436456,15
3437080,18
3437708,18
3438328,15
3438960,22
3439584,25
3440208,29
3440836,27
3441456,28
3442084,21
3442712,18
3443332,10
3443960,13
3444584,11
3445212,11
3445840,18
3446464,18
3447092,23
3447716,40
3448340,50
3448968,38
3449584,37
3450216,40
3450840,42
3451464,37
3452092,16
3452712,13
3453344,24
3453972,20
3454592,25
3455220,30
3455848,37
3456476,36
3457108,32
3457728,29
3458356,31
3458980,36
3459604,21
3460232,10
3460856,14
3461484,25
3462108,40
3462732,43
3463360,38
3463980,35
3464608,44
3465236,48
3465856,47
3466484,42
3467108,38
3467740,28
3468368,10
3468992,21
3469620,38
3470244,38
3470868,37
3471500,36
3472120,31
3472748,18
3473372,22
3473996,28
3474628,32
3475248,28
3475876,19
3476508,10
3477128,14
3477756,26
3478384,23
3479012,14
3479644,16
3480264,27
3480892,39
3481520,54
3482144,62
3482772,48
3483392,25
3484020,18
3484644,22
3485268,18
3485896,10
3486516,19
3487144,25
3487772,26
3488392,22
3489020,19
3489644,20
3490272,20
3490900,19
3491520,24
3492148,22
3492772,17
3493396,11
3494028,11
3494648,13
3495276,13
3495900,22
3496524,27
3497156,32
3497776,39
3498404,35
3499036,30
3499656,29
3500284,22
3500912,29
3501540,21
3502172,10
3502792,21
3503420,24
3504044,17
3504668,11
3505300,10
3505920,19
3506548,44
3507176,37
3507800,26
3508428,21
3509048,16
3509676,15
3510308,11
3510928,11
3511560,13
3512184,11
3512816,17
3513444,24
3514064,41
3514692,53
3515320,53
3515944,45
3516576,38
3517192,31
3517824,19
3518448,11
3519072,15
3519704,33
3520328,45
3520956,37
3521588,24
3522208,15
3522836,11
3523460,11
3524092,19
3524720,23
3525336,23
3525968,22
3526592,11
3527212,10
3527844,14
3528464,17
3529092,16
3529716,16
3530340,27
3530972,45
3531596,59
3532224,55
3532856,50
3533472,30
3534100,15
3534724,37
3535352,33
3535984,29
3536604,27
3537232,21
3537856,16
3538480,10
3539112,14
3539732,11
3540360,17
3540984,19
3541608,18
3542236,19
3542864,19
3543492,11
3544124,10
3544744,15
3545372,18
3545996,30
3546628,44
3547256,47
3547880,48
3548508,47
3549132,36
3549756,25
3550388,16
3551008,16
3551640,15
3552268,11
3552888,18
3553516,26
3554140,17
3554772,13
3555404,18
3556024,23
3556652,28
3557276,37
3557904,33
3558536,25
3559152,19
3559784,13
3560408,14
3561032,22
3561660,31
3562280,29
3562908,37
3563540,51
3564160,53
3564788,46
3565412,38
3566044,20
3566676,16
3567296,18
3567928,16
3568552,11
3569176,10
3569804,17
3570424,30
3571056,38
3571680,33
3572304,32
3572936,29
3573552,27
3574184,33
3574816,22
3575432,19
3576064,32
3576688,32
3577316,27
3577948,11
3578568,15
3579200,11
3579824,17
3580448,30
3581080,27
3581696,37
3582328,50
3582956,39
3583580,29
3584212,17
3584836,13
3585464,9
3586036,18
3586664,37
3587292,45
3587916,43
3588544,32
3589176,17
3589792,14
3590420,19
3591044,15
3591676,15
3592304,16
3592928,17
3593556,11
3594184,13
3594808,19
3595436,20
3596056,28
3596684,33
3597316,35
3597936,42
3598568,42
3599192,38
3599820,33
3600452,23
3601072,19
3601700,11
3602324,17
3602948,30
3603580,32
3604200,34
3604828,41
3605452,35
3606076,23
3606704,17
3607320,27
3607952,34
3608580,29
3609200,19
3609828,19
3610452,39
3611080,45
3611708,41
3612328,32
3612956,22
3613580,18
3614212,29
3614840,42
3615456,42
3616088,30
3616708,22
3617332,18
3617964,16
3618584,12
3619212,26
3619836,36
3620464,43
3621092,29
3621716,11
3622348,10
3622980,11
3623600,12
3624228,15
3624852,15
3625480,16
3626108,16
3626728,11
3627356,12
3627980,21
3628608,24
3629236,17
3629856,13
3630484,19
3631116,32
3631736,51
3632368,52
3632988,29
3633620,22
3634248,16
3634872,12
3635504,13
3636128,19
3636748,29
3637380,37
3638000,29
3638628,19
3639252,26
3639876,36
3640508,26
3641128,16
3641756,17
3642388,20
3643008,27
3643636,35
3644264,21
3644892,10
3645524,20
3646144,34
3646772,33
3647396,29
3648020,28
3648648,34
3649272,32
3649900,23
3650524,18
3651148,15
3651780,14
3652400,21
3653028,27
3653660,34
3654280,42
3654908,45
3655532,20
3656164,11
3656796,14
3657416,23
3658048,24
3658672,18
3659296,15
3659924,13
3660544,16
3661176,20
3661800,29
3662424,30
3663052,34
3663672,41
3664304,46
3664932,45
3665552,46
3666184,41
3666808,31
3667436,19
3668068,18
3668688,11
3669316,15
3669940,30
3670568,30
3671196,30
3671816,27
3672448,24
3673072,23
3673696,23
3674324,24
3674952,22
3675580,18
3676212,16
3676832,12
3677460,15
3678084,13
3678716,12
3679348,12
3679968,21
3680600,27
3681224,34
3681852,45
3682480,49
3683100,47
3683728,24
3684360,14
3684980,14
3685608,17
3686232,19
3686864,31
3687492,26
3688112,24
3688740,19
3689364,14
3689988,18
3690620,18
3691240,21
3691868,24
3692492,16
3693116,15
3693744,12
3694364,19
3694992,30
3695620,22
3696240,13
3696868,17
3697492,30
3698124,37
3698752,32
3699372,15
3700000,15
3700624,17
3701252,23
3701884,29
3702504,25
3703132,11
3703756,10
3704384,12
3705012,13
3705632,17
3706260,14
3706892,12
3707512,16
3708140,14
3708768,17
3709396,23
3710028,18
3710648,17
3711280,11
3711904,16
3712528,30
3713156,39
3713776,37
3714404,29
3715028,33
3715652,27
3716284,18
3716904,16
3717532,17
3718164,16
3718784,17
3719412,20
3720036,18
3720668,15
3721296,16
3721916,21
3722544,24
3723168,13
3723796,18
3724424,15
3725044,17
3725672,15
3726296,17
3726920,13
3727552,28
3728168,21
3728800,11
3729428,26
3730048,47
3730676,56
3731300,61
3731932,70
3732564,53
3733184,35
3733812,24
3734440,18
3735064,13
3735692,14
3736312,11
3736944,9
3737516,13
3738144,19
3738776,25
3739392,42
3740024,48
3740648,47
3741272,32
3741904,18
3742520,16
3743152,17
3743780,18
3744400,23
3745028,20
3745652,11
3746284,13
3746912,36
3747536,47
3748168,44
3748788,47
3749412,49
3750044,40
3750664,21
3751292,16
3751920,10
3752544,16
3753172,24
3753800,34
3754428,36
3755060,32
3755680,24
3756308,16
3756936,12
3757564,17
3758196,17
3758816,17
3759448,15
3760072,16
3760696,26
3761324,25
3761944,18
3762572,15
3763204,21
3763824,33
3764456,29
3765080,36
3765708,36
3766340,33
3766960,27
3767592,23
3768216,13
3768844,17
3769472,30
3770092,34
3770720,33
3771344,35
3771968,26
3772600,20
3773216,23
3773848,35
3774476,42
3775096,31
3775728,16
3776352,25
3776980,29
3777612,16
3778232,12
3778864,11
3779488,14
3780112,23
3780740,36
3781360,46
3781988,65
3782616,61
3783240,44
3783868,38
3784488,22
3785116,16
3785748,28
3786368,38
3787000,35
3787624,22
3788256,18
3788884,17
3789504,13
3790132,14
3790756,18
3791380,21
3792012,22
3792632,16
3793260,13
3793888,11
3794512,11
3795144,16
3795760,17
3796392,28
3797024,41
3797640,49
3798272,37
3798896,34
3799528,34
3800156,34
3800776,30
3801408,21
3802032,11
3802656,27
3803288,36
3803904,38
3804536,37
3805160,34
3805784,29
3806416,21
3807032,19
3807664,15
3808296,15
3808916,18
3809544,15
3810172,14
3810800,18
3811432,21
3812052,12
3812680,11
3813304,17
3813928,16
3814560,27
3815176,43
3815808,56
3816432,43
3817056,33
3817688,26
3818312,26
3818940,21
3819572,17
3820192,15
3820824,30
3821448,36
3822076,45
3822708,42
3823328,35
3823960,27
3824584,23
3825212,23
3825840,20
3826464,17
3827096,13
3827728,23
3828348,35
3828976,36
3829604,31
3830232,29
3830864,32
3831484,41
3832116,37
3832740,30
3833368,21
3834000,20
3834616,22
3835248,13
3835872,14
3836496,19
3837128,26
3837748,32
3838380,29
3839012,15
3839636,10
3840268,20
3840892,33
3841520,25
3842148,16
3842768,23
3843396,31
3844020,19
3844644,11
3845272,11
3845892,12
3846520,17
3847144,33
3847768,41
3848396,39
3849016,34
3849644,21
3850276,14
3850896,15
3851524,18
3852148,13
3852776,16
3853408,28
3854024,25
3854656,18
3855280,13
3855904,13
3856532,13
3857152,16
3857780,19
3858404,20
3859028,17
3859660,16
3860280,12
3860908,15
3861540,10
3862160,13
3862788,17
3863412,22
3864044,39
3864676,40
3865296,49
3865928,64
3866548,55
3867172,45
3867804,22
3868424,14
3869052,21
3869676,22
3870304,25
3870932,20
3871556,12
3872188,18
3872820,23
3873440,30
3874068,27
3874692,21
3875324,17
3875956,14
3876576,17
3877204,15
3877828,15
3878456,18
3879084,22
3879704,37
3880336,46
3880960,44
3881584,41
3882216,28
3882840,16
3883468,19
3884100,19
3884720,19
3885352,13
3885976,13
3886600,23
3887228,27
3887848,23
3888480,13
3889104,11
3889728,17
3890360,28
3890980,27
3891608,19
3892240,22
3892856,21
3893484,12
3894108,12
3894740,11
3895368,11
3895988,10
3896616,11
3897240,15
3897864,19
3898496,41
3899112,58
3899744,55
3900372,36
3900996,17
3901624,16
3902248,11
3902876,12
3903508,11
3904128,29
3904756,32
3905380,20
3906012,15
3906640,17
3907264,21
3907892,16
3908516,15
3909140,15
3909772,15
3910392,22
3911024,21
3911648,18
3912272,13
3912900,13
3913520,15
3914152,20
3914784,37
3915400,56
3916032,37
3916656,27
3917288,25
3917916,28
3918536,33
3919168,18
3919792,15
3920416,29
3921044,31
3921664,24
3922292,21
3922920,19
3923544,26
3924172,28
3924792,24
3925424,17
3926052,15
3926672,20
3927304,13
3927928,11
3928560,11
3929188,26
3929808,43
3930440,46
3931064,47
3931688,44
3932320,38
3932936,31
3933564,29
3934188,24
3934812,19
3935444,13
3936068,10
3936696,11
3937324,12
3937944,20
3938572,31
3939196,44
3939828,44
3940460,38
3941080,30
3941712,25
3942336,19
3942960,16
3943588,12
3944208,17
3944836,17
3945460,17
3946084,19
3946716,33
3947340,40
3947968,33
3948596,35
3949216,34
3949844,24
3950468,18
3951100,18
3951732,20
3952352,17
3952984,13
3953604,11
3954228,31
3954860,51
3955480,41
3956108,27
3956732,17
3957360,16
3957988,14
3958616,15
3959244,15
3959876,16
3960496,19
3961124,13
3961748,11
3962376,10
3963004,11
3963624,11
3964252,25
3964880,41
3965504,40
3966132,18
3966752,15
3967384,19
3968012,28
3968632,14
3969260,10
3969884,11
3970516,16
3971144,34
3971768,48
3972396,27
3973024,11
3973648,11
3974276,23
3974896,15
3975524,37
3976148,42
3976772,41
3977404,16
3978024,17
3978652,13
3979284,15
3979904,29
3980536,22
3981160,19
3981788,31
3982420,35
3983040,27
3983672,20
3984296,15
3984920,15
3985548,16
3986168,14
3986796,14
3987424,21
3988048,19
3988676,18
3989296,21
3989924,24
3990556,26
3991176,27
3991808,21
3992432,22
3993064,16
3993692,22
3994312,20
3994940,21
3995564,15
3996188,14
3996820,17
3997440,32
3998068,37
3998696,33
3999320,34
3999952,44
4000572,38
4001200,24
4001828,11
4002448,17
4003076,27
4003700,43
4004332,37
4004960,32
4005576,26
4006208,12
4006832,11
4007456,20
4008084,18
4008704,18
4009332,16
4009956,17
4010580,10
4011212,16
4011832,15
4012464,13
4013092,14
4013712,29
4014344,43
4014968,51
4015596,47
4016224,36
4016848,38
4017476,38
4018100,38
4018724,22
4019356,19
4019976,56
4020604,69
4021228,55
4021852,34
4022480,18
4023104,11
4023732,11
4024364,19
4024984,27
4025612,21
4026236,16
4026864,12
4027496,11
4028116,16
4028744,26
4029368,21
4029996,18
4030624,11
4031248,11
4031880,27
4032504,41
4033128,51
4033756,53
4034380,40
4035012,22
4035640,11
4036264,15
4036892,29
4037516,45
4038148,42
4038776,36
4039400,33
4040032,24
4040652,25
4041276,29
4041908,18
4042528,18
4043156,21
4043788,22
4044408,26
4045036,11
4045660,13
4046292,16
4046920,34
4047544,53
4048172,49
4048796,29
4049420,16
4050052,16
4050672,21
4051300,21
4051924,11
4052552,20
4053180,18
4053800,17
4054428,18
4055060,16
4055680,26
4056308,41
4056932,30
4057564,19
4058196,18
4058816,21
4059444,16
4060072,19
4060696,13
4061324,19
4061944,30
4062576,30
4063200,27
4063824,24
4064456,30
4065072,37
4065704,33
4066332,20
4066952,18
4067584,15
4068208,16
4068836,23
4069468,19
4070088,11
4070720,31
4071344,53
4071968,53
4072600,42
4073216,19
4073848,20
4074472,27
4075096,25
4075728,24
4076344,25
4076976,15
4077604,46
4078224,56
4078856,52
4079480,44
4080112,27
4080740,21
4081360,25
4081988,37
4082616,37
4083240,26
4083868,21
4084488,17
4085116,15
4085744,24
4086368,11
4087000,31
4087624,56
4088256,39
4088884,29
4089504,30
4090136,24
4090760,13
4091392,15
4092024,19
4092640,16
4093272,19
4093896,30
4094524,34
4095156,35
4095780,18
4096412,12
4097040,11
4097652,14
4098280,11
4098904,30
4099532,40
4100160,31
4100776,28
4101404,34
4102028,29
4102656,15
4103284,14
4103904,23
4104532,24
4105152,25
4105776,25
4106404,18
4107020,15
4107652,16
4108272,25
4108896,17
4109524,15
4110144,14
4110776,10
4111404,11
4112024,11
4112652,12
4113272,11
4113900,19
4114532,35
4115152,32
4115780,26
4116404,27
4117028,26
4117656,18
4118280,18
4118908,12
4119532,21
4120156,33
4120784,23
4121400,10
4122032,11
4122660,16
4123280,21
4123908,28
4124532,19
4125160,17
4125788,30
4126408,31
4127036,23
4127660,13
4128284,19
4128912,11
4129528,12
4130156,41
4130780,71
4131404,69
4132032,75
4132656,69
4133284,41
4133912,26
4134536,24
4135164,19
4135788,10
4136420,20
4137048,32
4137664,35
4138292,24
4138916,19
4139536,19
4140168,24
4140784,25
4141412,16
4142036,19
4142660,25
4143292,24
4143912,15
4144544,13
4145172,14
4145792,9
4146368,12
4147000,21
4147628,38
4148260,46
4148880,68
4149508,60
4150132,50
4150760,37
4151392,25
4152008,11
4152640,15
4153260,19
4153884,25
4154516,30
4155136,31
4155764,34
4156392,27
4157016,13
4157644,21
4158264,29
4158892,22
4159524,15
4160144,19
4160772,21
4161396,15
4162024,15
4162652,10
4163272,12
4163900,16
4164524,31
4165144,51
4165776,59
4166392,49
4167020,26
4167644,25
4168268,32
4168896,33
4169520,21
4170148,17
4170776,30
4171400,19
4172028,22
4172652,27
4173284,26
4173912,21
4174528,31
4175160,25
4175784,16
4176408,16
4177036,10
4177656,12
4178284,14
4178908,18
4179532,19
4180160,18
4180776,32
4181404,48
4182036,45
4182656,43
4183284,35
4183908,26
4184536,16
4185168,16
4185784,16
4186412,26
4187036,37
4187660,44
4188288,32
4188912,23
4189540,14
4190164,14
4190788,21
4191416,25
4192040,17
4192668,16
4193296,18
4193920,16
4194548,11
4195172,10
4195804,12
4196432,12
4197056,21
4197684,42
4198308,60
4198936,57
4199564,34
4200184,18
4200812,16
4201436,18
4202056,12
4202688,10
4203304,24
4203932,31
4204564,35
4205184,28
4205812,26
4206436,31
4207064,23
4207696,19
4208312,24
4208944,17
4209568,22
4210192,32
4210820,30
4211440,23
4212068,21
4212692,20
4213316,24
4213944,31
4214568,46
4215196,59
4215828,42
4216448,18
4217076,15
4217700,15
4218332,21
4218960,18
4219584,14
4220212,18
4220836,15
4221460,14
4222088,15
4222712,15
4223344,17
4223968,15
4224592,20
4225220,18
4225840,18
4226468,15
4227096,11
4227720,10
4228348,13
4228972,25
4229604,19
4230232,13
4230848,13
4231480,21
4232104,26
4232728,32
4233356,46
4233976,30
4234604,16
4235228,15
4235852,15
4236484,16
4237104,11
4237732,11
4238364,10
4238984,10
4239612,11
4240236,20
4240868,35
4241496,24
4242112,23
4242744,19
4243368,18
4243992,25
4244620,20
4245240,17
4245868,21
4246492,27
4247116,33
4247748,34
4248368,47
4248996,56
4249628,51
4250248,35
4250876,19
4251500,16
4252128,27
4252756,30
4253376,25
4254004,13
4254632,12
4255256,19
4255884,22
4256504,29
4257132,31
4257756,21
4258380,17
4259012,14
4259632,16
4260264,13
4260892,18
4261512,17
4262140,11
4262764,10
4263392,11
4264020,10
4264640,21
4265268,37
4265892,47
4266516,45
4267144,34
4267760,17
4268392,21
4269016,31
4269640,26
4270268,12
4270888,11
4271516,11
4272148,14
4272768,17
4273396,17
4274020,15
4274652,15
4275280,14
4275904,18
4276532,17
4277156,13
4277780,12
4278408,24
4279032,27
4279660,36
4280288,38
4280912,33
4281540,37
4282160,31
4282788,23
4283420,21
4284040,17
4284668,14
4285292,13
4285924,11
4286552,10
4287176,11
4287808,15
4288432,22
4289056,24
4289684,26
4290304,25
4290932,25
4291556,17
4292180,21
4292812,20
4293432,17
4294060,11
4294692,18
4295312,31
4295944,31
4296568,25
4297196,21
4297828,30
4298448,29
4299076,35
4299704,29
4300328,22
4300960,16
4301576,15
4302204,11
4302828,10
4303452,13
4304080,30
4304696,31
4305328,23
4305956,16
4306576,11
4307204,19
4307828,35
4308456,23
4309088,18
4309704,16
4310336,14
4310960,15
4311584,16
4312212,18
4312832,21
4313460,28
4314088,27
4314708,31
4315340,46
4315960,46
4316592,33
4317220,31
4317840,34
4318468,27
4319096,12
4319724,13
4320356,26
4320976,29
4321604,31
4322228,31
4322852,30
4323480,28
4324104,31
4324732,24
4325356,17
4325980,17
4326612,17
4327236,11
4327864,15
4328492,13
4329112,17
4329740,20
4330364,11
4330996,24
4331624,44
4332248,59
4332876,48
4333500,36
4334124,19
4334756,15
4335376,13
4336004,11
4336628,25
4337252,31
4337884,25
4338508,35
4339140,37
4339772,30
4340392,21
4341024,14
4341648,19
4342280,27
4342908,22
4343528,18
4344156,10
4344780,14
4345408,13
4346036,16
4346656,33
4347284,31
4347916,29
4348536,39
4349168,55
4349792,67
4350420,53
4351052,24
4351672,15
4352304,16
4352928,21
4353548,18
4354180,23
4354800,37
4355428,35
4356052,19
4356676,15
4357304,16
4357928,21
4358556,21
4359188,16
4359808,16
4360436,12
4361060,9
4361640,10
4362268,10
4362888,13
4363516,13
4364140,25
4364772,49
4365400,51
4366020,42
4366648,23
4367272,19
4367896,20
4368524,27
4369144,27
4369772,17
4370396,42
4371024,43
4371652,23
4372272,11
4372900,10
4373532,13
4374152,19
4374784,15
4375408,15
4376036,17
4376668,18
4377288,20
4377920,19
4378540,15
4379164,18
4379796,24
4380416,21
4381044,18
4381668,23
4382296,29
4382924,31
4383544,30
4384176,28
4384804,23
4385424,17
4386052,10
4386676,24
4387308,40
4387936,33
4388560,24
4389188,20
4389812,24
4390440,32
4391068,24
4391688,16
4392316,16
4392944,16
4393568,19
4394200,15
4394824,12
4395456,11
4396084,19
4396704,12
4397336,25
4397960,35
4398592,38
4399220,37
4399840,32
4400472,33
4401096,35
4401720,35
4402352,22
4402968,12
4403600,9
4404172,12
4404800,20
4405428,24
4406048,29
4406676,34
4407308,30
4407928,29
4408556,18
4409180,16
4409812,15
4410440,16
4411064,18
4411692,12
4412320,12
4412944,23
4413572,33
4414192,32
4414824,31
4415448,45
4416072,52
4416700,41
4417320,33
4417948,31
4418580,16
4419200,17
4419828,25
4420452,28
4421084,28
4421716,33
4422336,38
4422968,35
4423592,29
4424216,26
4424844,24
4425464,23
4426092,16
4426716,18
4427340,27
4427972,32
4428592,17
4429224,13
4429852,17
4430472,15
4431100,20
4431728,35
4432356,42
4432988,42
4433608,38
4434236,25
4434860,16
4435484,11
4436116,10
4436736,10
4437364,13
4437992,17
4438616,25
4439244,31
4439864,31
4440496,38
4441124,24
4441744,14
4442372,16
4442996,16
4443628,20
4444260,20
4444880,11
4445508,26
4446132,28
4446756,21
4447388,12
4448008,15
4448636,29
4449260,43
4449884,39
4450516,33
4451140,17
4451772,16
4452404,12
4453024,14
4453656,26
4454280,30
4454912,15
4455540,10
4456160,16
4456788,21
4457416,15
4458040,16
4458668,16
4459288,17
4459920,16
4460548,12
4461168,11
4461796,13
4462424,21
4463052,17
4463684,26
4464304,40
4464936,43
4465560,53
4466184,57
4466816,56
4467432,41
4468060,16
4468684,17
4469312,30
4469940,48
4470560,39
4471188,23
4471820,20
4472440,23
4473072,22
4473696,11
4474328,15
4474956,14
4475576,15
4476208,17
4476832,18
4477456,12
4478088,14
4478704,19
4479336,18
4479964,11
4480592,10
4481220,14
4481840,38
4482468,51
4483100,42
4483720,37
4484348,26
4484972,18
4485604,12
4486232,10
4486852,10
4487480,18
4488104,24
4488728,29
4489356,38
4489976,38
4490604,27
4491228,25
4491852,27
4492484,20
4493104,17
4493732,17
4494364,18
4494984,21
4495616,22
4496240,15
4496868,13
4497496,21
4498120,36
4498748,52
4499376,61
4500000,48
4500628,27
4501248,21
4501876,18
4502504,12
4503128,31
4503760,31
4504376,41
4505008,33
4505640,24
4506256,21
4506884,19
4507508,14
4508136,16
4508764,19
4509384,18
4510012,18
4510636,17
4511264,14
4511892,20
4512512,17
4513140,26
4513764,30
4514388,17
4515020,14
4515640,22
4516268,19
4516900,16
4517520,30
4518148,39
4518772,40
4519404,33
4520032,10
4520656,25
4521284,23
4521908,17
4522532,16
4523164,10
4523784,11
4524412,14
4525040,21
4525664,17
4526292,17
4526916,15
4527548,12
4528176,14
4528796,15
4529424,19
4530048,27
4530676,27
4531308,28
4531928,33
4532556,43
4533180,44
4533804,33
4534436,24
4535056,16
4535684,12
4536312,22
4536936,21
4537564,27
4538192,40
4538820,41
4539452,35
4540072,37
4540704,28
4541328,27
4541960,23
4542588,16
4543208,20
4543840,21
4544464,21
4545088,15
4545716,16
4546336,20
4546968,22
4547596,37
4548216,55
4548844,55
4549468,46
4550100,35
4550732,26
4551352,18
4551984,16
4552608,10
4553232,22
4553864,31
4554480,43
4555112,35
4555736,23
4556364,21
4556996,23
4557616,28
4558244,29
4558876,22
4559496,17
4560128,17
4560752,28
4561380,23
4562012,24
4562632,25
4563260,17
4563884,15
4564508,21
4565140,32
4565760,46
4566392,37
4567016,16
4567640,16
4568272,20
4568888,25
4569516,14
4570148,10
4570768,22
4571400,27
4572024,33
4572652,29
4573284,17
4573904,11
4574536,25
4575160,37
4575784,18
4576416,26
4577036,28
4577664,25
4578288,15
4578916,15
4579544,20
4580172,26
4580800,27
4581428,31
4582048,41
4582680,49
4583304,39
4583936,29
4584564,20
4585184,17
4585816,13
4586440,16
4587064,18
4587696,19
4588312,20
4588940,26
4589564,26
4590192,25
4590820,29
4591444,37
4592076,20
4592708,14
4593328,21
4593956,23
4594584,31
4595208,37
4595836,24
4596456,11
4597088,15
4597712,10
4598336,21
4598968,33
4599584,33
4600216,45
4600844,37
4601464,23
4602096,15
4602720,17
4603348,15
4603980,10
4604600,10
4605232,21
4605856,26
4606480,27
4607112,23
4607728,25
4608364,26
4608984,27
4609604,17
4610232,14
4610856,17
4611484,21
4612116,16
4612736,23
4613364,24
4613988,28
4614620,43
4615248,45
4615864,42
4616496,34
4617120,32
4617744,25
4618372,22
4618992,12
4619620,13
4620244,19
4620868,22
4621500,27
4622120,29
4622748,29
4623380,30
4624000,30
4624628,23
4625252,20
4625884,17
4626512,17
4627136,17
4627768,13
4628392,12
4629016,25
4629644,35
4630264,28
4630892,25
4631520,33
4632144,49
4632772,57
4633392,54
4634024,41
4634652,23
4635272,17
4635900,11
4636528,13
4637156,20
4637788,39
4638408,38
4639036,37
4639664,37
4640288,32
4640916,37
4641536,50
4642164,37
4642788,15
4643412,19
4644040,26
4644664,37
4645292,31
4645924,26
4646544,23
4647172,28
4647796,38
4648428,51
4649056,59
4649680,45
4650308,37
4650932,27
4651556,19
4652188,13
4652808,21
4653436,34
4654060,44
4654688,53
4655316,51
4655944,25
4656572,11
4657204,10
4657824,19
4658456,16
4659080,17
4659712,15
4660340,18
4660960,15
4661588,12
4662212,11
4662840,13
4663468,17
4664088,28
4664716,47
4665344,42
4665968,38
4666596,40
4667224,45
4667852,36
4668484,24
4669104,15
4669736,13
4670360,24
4670984,29
4671612,28
4672232,31
4672860,31
4673484,33
4674108,23
4674740,20
4675360,24
4675988,24
4676620,16
4677240,14
4677868,11
4678492,18
4679124,23
4679756,24
4680376,24
4681004,33
4681628,39
4682252,39
4682884,30
4683504,19
4684136,31
4684760,31
4685384,18
4686012,20
4686632,44
4687260,48
4687892,41
4688512,22
4689140,21
4689768,14
4690396,13
4691028,15
4691648,21
4692276,19
4692904,17
4693528,25
4694156,32
4694776,26
4695408,27
4696032,27
4696656,17
4697284,13
4697904,16
4698536,24
4699164,30
4699784,30
4700416,34
4701040,39
4701672,31
4702300,34
4702920,21
4703552,17
4704176,53
4704800,54
4705432,43
4706052,21
4706680,12
4707308,20
4707932,28
4708564,16
4709188,18
4709820,17
4710452,16
4711072,25
4711700,28
4712324,17
4712956,12
4713588,11
4714208,13
4714840,12
4715464,19
4716088,58
4716716,58
4717336,37
4717968,30
4718600,32
4719216,26
4719848,13
4720472,11
4721104,21
4721732,30
4722352,34
4722984,35
4723608,32
4724232,29
4724860,28
4725480,33
4726112,27
4726736,17
4727360,20
4727992,24
4728608,26
4729240,27
4729872,24
4730488,26
4731120,29
4731744,31
4732376,36
4733004,36
4733624,31
4734256,27
4734880,19
4735504,17
4736136,19
4736752,35
4737380,46
4738004,41
4738628,35
4739260,22
4739880,16
4740508,15
4741140,24
4741760,25
4742388,17
4743016,15
4743644,17
4744276,10
4744896,14
4745528,25
4746152,28
4746776,26
4747408,19
4748024,17
4748656,25
4749280,44
4749904,60
4750536,64
4751156,45
4751788,23
4752416,10
4753040,27
4753668,39
4754296,43
4754924,48
4755556,42
4756176,25
4756804,13
4757428,11
4758056,14
4758684,14
4759304,16
4759936,16
4760560,17
4761184,17
4761816,18
4762440,15
4763068,12
4763700,13
4764320,17
4764948,33
4765572,57
4766204,82
4766836,72
4767456,50
4768088,26
4768712,15
4769336,11
4769964,10
4770584,27
4771212,44
4771840,43
4772464,34
4773096,30
4773720,29
4774352,31
4774980,25
4775600,21
4776232,16
4776856,17
4777480,15
4778112,14
4778728,16
4779360,15
4779984,11
4780608,22
4781240,43
4781860,41
4782492,44
4783120,31
4783744,19
4784376,17
4785000,16
4785632,25
4786260,10
4786880,14
4787512,20
4788136,17
4788760,15
4789392,19
4790012,28
4790640,29
4791268,21
4791892,19
4792524,24
4793144,24
4793776,17
4794404,10
4795024,10
4795656,14
4796280,18
4796912,12
4797544,11
4798160,23
4798792,49
4799420,70
4800048,71
4800676,43
4801296,25
4801924,20
4802548,11
4803172,19
4803804,23
4804428,17
4805056,20
4805684,23
4806304,23
4806936,24
4807560,18
4808188,16
4808820,18
4809440,23
4810068,29
4810696,15
4811320,11
4811952,18
4812568,21
4813200,23
4813828,27
4814448,38
4815076,36
4815700,31
4816332,26
4816960,16
4817576,14
4818208,16
4818832,14
4819460,10
4820092,10
4820712,10
4821344,11
4821968,12
4822592,12
4823220,19
4823840,19
4824468,15
4825100,18
4825720,16
4826348,15
4826972,17
4827604,15
4828236,10
4828856,18
4829484,36
4830108,37
4830736,47
4831364,54
4831984,58
4832616,43
4833240,33
4833864,24
4834492,17
4835112,17
4835744,13
4836372,23
4836992,29
4837620,27
4838248,24
4838876,28
4839508,32
4840128,26
4840756,14
4841380,17
4842004,26
4842636,32
4843256,24
4843884,16
4844508,19
4845136,33
4845764,40
4846384,38
4847016,30
4847644,17
4848264,13
4848892,16
4849516,28
4850148,19
4850780,18
4851400,18
4852028,25
4852652,16
4853280,11
4853908,21
4854528,24
4855156,15
4855784,11
4856408,10
4857036,13
4857656,19
4858284,17
4858916,21
4859536,20
4860168,20
4860792,12
4861424,13
4862056,18
4862672,23
4863304,15
4863932,14
4864560,15
4865188,23
4865808,32
4866436,37
4867060,32
4867684,31
4868316,33
4868940,22
4869572,13
4870204,16
4870824,34
4871456,38
4872080,25
4872708,21
4873340,25
4873960,39
4874592,45
4875216,39
4875840,31
4876468,23
4877088,17
4877716,30
4878348,56
4878968,58
4879600,36
4880224,25
4880852,17
4881484,32
4882104,47
4882732,50
4883360,34
4883984,23
4884612,16
4885232,15
4885860,11
4886488,11
4887112,17
4887740,25
4888360,23
4888988,21
4889620,16
4890240,11
4890868,11
4891492,18
4892124,19
4892756,18
4893376,19
4894008,18
4894632,11
4895256,17
4895888,21
4896508,24
4897136,27
4897764,25
4898388,24
4899020,33
4899640,48
4900272,44
4900904,35
4901520,27
4902152,21
4902776,16
4903408,33
4904040,46
4904656,53
4905288,42
4905912,29
4906536,23
4907168,26
4907788,18
4908420,19
4909044,15
4909668,17
4910300,18
4910928,15
4911556,11
4912192,14
4912808,23
4913440,29
4914064,31
4914696,37
4915328,46
4915944,63
4916572,57
4917196,34
4917820,25
4918448,21
4919072,14
4919700,12
4920332,18
4920952,25
4921580,23
4922204,23
4922836,40
4923464,45
4924084,33
4924712,32
4925336,16
4925960,15
4926588,18
4927208,19
4927836,26
4928464,35
4929084,31
4929716,20
4930336,15
4930964,13
4931596,21
4932216,29
4932844,38
4933468,33
4934100,19
4934728,15
4935348,17
4935976,12
4936600,19
4937224,18
4937856,23
4938472,16
4939104,35
4939728,48
4940352,34
4940984,14
4941600,14
4942228,18
4942860,16
4943480,16
4944108,13
4944732,17
4945364,14
4945992,11
4946616,25
4947244,47
4947868,53
4948492,51
4949124,46
4949744,37
4950376,24
4951000,27
4951624,19
4952256,16
4952872,14
4953504,14
4954136,17
4954752,32
4955384,42
4956008,39
4956640,34
4957268,21
4957888,14
4958516,16
4959144,16
4959768,15
4960400,19
4961016,11
4961644,21
4962268,24
4962892,19
4963524,22
4964144,30
4964772,45
4965404,55
4966024,53
4966656,48
4967276,25
4967908,16
4968536,15
4969160,13
4969788,10
4970412,18
4971036,35
4971668,36
4972288,26
4972916,22
4973540,20
4974168,16
4974796,16
4975416,33
4976048,39
4976676,30
4977296,19
4977924,20
4978548,28
4979180,27
4979812,18
4980432,17
4981060,29
4981688,48
4982312,64
4982944,56
4983560,40
4984192,28
4984816,21
4985440,16
4986072,11
4986696,20
4987328,25
4987956,31
4988576,38
4989208,41
4989832,42
4990464,37
4991092,32
4991712,23
4992348,18
4992968,15
4993592,27
4994224,29
4994844,29
4995472,22
4996104,13
4996724,14
4997352,20
4997976,32
4998608,43
4999236,50
4999856,36
5000484,25
5001108,18
5001736,19
5002364,19
5002984,11
5003612,17
5004240,23
5004864,15
5005492,24
5006112,43
5006740,53
5007372,38
5007992,21
5008624,21
5009248,18
5009876,16
5010508,19
5011128,30
5011760,31
5012384,27
5013008,26
5013640,26
5014256,26
5014888,37
5015512,53
5016136,56
5016768,45
5017388,29
5018020,19
5018652,14
5019272,12
5019900,17
5020528,19
5021156,31
5021788,32
5022408,33
5023036,27
5023664,31
5024288,30
5024916,20
5025536,17
5026168,18
5026792,16
5027416,17
5028048,13
5028664,12
5029292,14
5029924,19
5030544,26
5031172,27
5031800,34
5032432,47
5033060,50
5033680,49
5034308,47
5034936,25
5035560,17
5036192,13
5036812,20
5037440,20
5038064,30
5038688,33
5039320,33
5039944,37
5040576,32
5041208,30
5041828,34
5042456,28
5043084,23
5043712,20
5044344,11
5044964,22
5045592,22
5046216,19
5046840,35
5047472,35
5048088,13
5048720,22
5049348,48
5049968,53
5050600,44
5051224,33
5051856,19
5052484,18
5053104,17
5053736,13
5054360,10
5054984,22
5055616,30
5056240,35
5056872,28
5057496,21
5058120,18
5058752,15
5059368,25
5060000,24
5060628,21
5061248,13
5061880,16
5062504,11
5063132,16
5063764,27
5064384,42
5065016,51
5065640,59
5066264,61
5066896,53
5067512,37
5068144,23
5068772,16
5069396,12
5070028,22
5070648,29
5071280,31
5071912,32
5072532,33
5073160,29
5073788,19
5074420,25
5075052,32
5075672,31
5076304,22
5076932,19
5077556,13
5078188,21
5078808,26
5079440,20
5080072,18
5080692,14
5081320,17
5081948,43
5082576,68
5083208,64
5083824,47
5084456,34
5085080,33
5085704,20
5086336,10
5086952,13
5087584,14
5088212,19
5088836,27
5089468,36
5090088,45
5090720,33
5091348,26
5091968,23
5092600,22
5093224,19
5093856,18
5094488,26
5095104,24
5095736,18
5096360,12
5096984,13
5097616,16
5098232,20
5098864,34
5099488,35
5100116,27
5100748,30
5101368,26
5102000,20
5102632,15
5103252,12
5103884,17
5104508,16
5105140,11
5105772,12
5106392,10
5107024,11
5107652,19
5108276,37
5108908,32
5109528,32
5110160,28
5110792,16
5111416,10
5112052,10
5112676,11
5113308,17
5113940,25
5114560,31
5115192,43
5115820,60
5116448,55
5117080,34
5117700,28
5118332,28
5118960,20
5119588,10
5120220,16
5120840,26
5121472,35
5122100,34
5122720,37
5123348,27
5123968,14
5124600,17
5125228,29
5125848,35
5126476,26
5127096,16
5127720,25
5128348,34
5128968,37
5129596,26
5130220,25
5130844,24
5131472,34
5132096,29
5132724,31
5133356,33
5133976,34
5134604,25
5135228,16
5135860,14
5136488,15
5137104,24
5137736,34
5138360,31
5138984,28
5139612,27
5140232,15
5140860,11
5141484,14
5142108,13
5142740,16
5143364,20
5143992,18
5144624,11
5145240,11
5145868,13
5146492,10
5147124,13
5147752,10
5148372,26
5149000,36
5149624,43
5150248,49
5150876,46
5151496,35
5152128,32
5152748,20
5153372,11
5154004,25
5154628,41
5155256,46
5155884,41
5156504,30
5157132,24
5157756,19
5158388,23
5159020,20
5159640,22
5160272,16
5160896,17
5161520,19
5162148,13
5162768,15
5163396,15
5164020,17
5164644,27
5165276,41
5165900,60
5166532,40
5167160,25
5167780,30
5168408,36
5169032,30
5169660,19
5170292,10
5170912,20
5171544,31
5172168,25
5172788,19
5173420,14
5174040,17
5174668,33
5175292,36
5175920,25
5176552,19
5177176,16
5177804,10
5178436,10
5179056,11
5179684,12
5180308,16
5180936,22
5181564,27
5182184,40
5182812,43
5183440,36
5184064,27
5184692,16
5185312,15
5185940,13
5186572,10
5187192,19
5187824,22
5188448,18
5189076,13
5189708,12
5190328,18
5190960,27
5191584,30
5192208,29
5192836,23
5193456,25
5194088,17
5194712,21
5195336,21
5195968,26
5196584,26
5197216,30
5197848,39
5198468,48
5199096,48
5199720,54
5200352,41
5200980,23
5201600,19
5202228,16
5202852,14
5203476,19
5204108,24
5204728,36
5205356,32
5205980,23
5206604,13
5207236,10
5207856,13
5208484,21
5209116,21
5209736,20
5210364,17
5210988,12
5211620,9
5212200,10
5212824,12
5213452,15
5214076,15
5214708,24
5215340,32
5215960,46
5216592,47
5217216,36
5217840,28
5218468,18
5219088,19
5219720,26
5220344,29
5220968,34
5221600,35
5222224,21
5222856,14
5223484,18
5224104,26
5224732,24
5225356,16
5225988,23
5226620,30
5227240,32
5227868,28
5228492,26
5229116,24
5229748,24
5230368,27
5231000,14
5231628,16
5232248,31
5232876,39
5233500,47
5234132,33
5234764,19
5235384,18
5236012,14
5236636,21
5237264,32
5237892,32
5238512,27
5239144,17
5239768,16
5240392,17
5241024,14
5241640,38
5242272,50
5242904,33
5243520,18
5244148,16
5244772,31
5245400,53
5246032,54
5246648,43
5247276,27
5247900,20
5248524,31
5249152,39
5249776,40
5250404,35
5251024,31
5251648,21
5252276,15
5252896,13
5253524,19
5254152,20
5254776,25
5255404,23
5256028,28
5256656,35
5257284,37
5257904,36
5258532,29
5259156,20
5259784,17
5260412,16
5261032,16
5261660,13
5262284,13
5262908,15
5263536,13
5264160,16
5264788,23
5265416,41
5266036,50
5266664,59
5267288,52
5267916,46
5268544,32
5269168,21
5269796,14
5270420,10
5271044,18
5271676,23
5272296,36
5272928,39
5273552,45
5274176,51
5274804,50
5275424,43
5276052,32
5276684,22
5277304,21
5277932,49
5278556,52
5279188,45
5279820,32
5280440,20
5281068,22
5281692,42
5282316,43
5282944,37
5283560,32
5284192,23
5284812,24
5285436,18
5286064,11
5286688,15
5287316,22
5287944,26
5288568,30
5289196,26
5289820,25
5290448,31
5291076,42
5291696,45
5292324,37
5292948,27
5293572,23
5294204,17
5294824,34
5295452,46
5296076,47
5296700,38
5297328,26
5297952,23
5298580,32
5299212,36
5299832,27
5300460,30
5301084,32
5301716,26
5302344,23
5302964,14
5303592,14
5304216,26
5304840,19
5305468,16
5306088,17
5306716,18
5307340,17
5307964,29
5308596,27
5309216,22
5309844,22
5310476,22
5311096,24
5311728,14
5312352,12
5312980,26
5313612,28
5314232,29
5314864,31
5315488,26
5316108,19
5316740,20
5317360,24
5317988,25
5318616,30
5319240,40
5319868,30
5320488,11
5321116,36
5321748,46
5322368,31
5322996,22
5323624,13
5324252,10
5324884,10
5325500,15
5326132,16
5326752,17
5327376,15
5328004,12
5328620,12
5329252,10
5329876,13
5330500,14
5331128,15
5331744,22
5332376,37
5333004,43
5333624,39
5334252,23
5334876,18
5335508,18
5336136,11
5336760,13
5337388,17
5338012,20
5338636,21
5339268,18
5339888,13
5340516,10
5341140,14
5341764,21
5342396,23
5343016,23
5343648,24
5344276,18
5344896,11
5345524,16
5346148,19
5346776,17
5347408,25
5348024,39
5348656,47
5349280,49
5349904,54
5350532,42
5351152,34
5351780,23
5352404,15
5353028,24
5353656,22
5354280,26
5354908,22
5355540,16
5356160,23
5356788,21
5357412,13
5358044,17
5358676,23
5359296,23
5359928,20
5360552,17
5361176,12
5361804,14
5362424,18
5363052,14
5363680,12
5364304,12
5364932,22
5365552,29
5366184,33
5366812,30
5367432,31
5368060,32
5368684,31
5369312,33
5369944,25
5370560,16
5371192,16
5371816,29
5372440,38
5373068,24
5373688,22
5374316,33
5374944,32
5375568,33
5376200,18
5376816,19
5377444,17
5378072,10
5378688,10
5379320,11
5379940,13
5380572,13
5381200,11
5381824,12
5382452,28
5383076,41
5383700,46
5384328,56
5384944,52
5385576,34
5386200,19
5386824,11
5387452,16
5388072,22
5388700,29
5389332,38
5389952,39
5390580,39
5391204,34
5391836,34
5392468,35
5393088,32
5393716,28
5394340,17
5394968,19
5395596,39
5396216,53
5396848,49
5397468,32
5398092,35
5398724,46
5399344,50
5399976,41
5400604,35
5401224,37
5401856,23
5402476,15
5403108,14
5403740,16
5404360,28
5404988,40
5405612,36
5406236,24
5406868,20
5407488,16
5408116,14
5408740,21
5409364,21
5409992,17
5410608,18
5411240,25
5411868,12
5412488,17
5413116,21
5413740,22
5414372,22
5415004,40
5415624,56
5416256,67
5416876,62
5417500,39
5418132,18
5418752,17
5419380,14
5420008,14
5420628,21
5421260,17
5421880,15
5422508,24
5423140,34
5423760,37
5424392,35
5425016,36
5425644,20
5426276,20
5426896,20
5427528,16
5428148,14
5428772,15
5429404,18
5430024,37
5430652,41
5431276,45
5431900,40
5432532,34
5433156,36
5433788,32
5434416,28
5435040,31
5435668,17
5436292,10
5436924,12
5437556,18
5438176,26
5438804,19
5439428,15
5440056,21
5440684,22
5441304,28
5441932,39
5442556,28
5443180,15
5443808,16
5444432,17
5445060,25
5445692,18
5446312,11
5446944,13
5447564,15
5448196,29
5448824,34
5449448,36
5450076,42
5450700,26
5451324,19
5451952,20
5452576,20
5453204,14
5453836,13
5454456,23
5455084,23
5455708,27
5456340,21
5456968,16
5457584,10
5458216,11
5458840,16
5459464,16
5460092,16
5460712,17
5461340,11
5461964,19
5462588,23
5463220,24
5463840,25
5464468,18
5465100,22
5465720,27
5466348,31
5466972,35
5467604,32
5468232,23
5468856,17
5469484,13
5470108,10
5470732,12
5471364,30
5471984,37
5472616,35
5473240,35
5473864,19
5474492,12
5475112,17
5475744,17
5476372,16
5476992,16
5477624,15
5478248,15
5478880,11
5479508,11
5480128,13
5480756,10
5481380,17
5482004,41
5482636,58
5483256,60
5483884,49
5484508,43
5485136,33
5485764,16
5486384,19
5487016,24
5487644,26
5488264,34
5488892,35
5489516,16
5490148,17
5490776,19
5491400,26
5492028,28
5492652,20
5493276,18
5493908,21
5494528,24
5495156,12
5495780,11
5496408,32
5497036,44
5497656,49
5498284,45
5498916,46
5499536,53
5500164,42
5500788,32
5501420,19
5502052,15
5502672,25
5503304,29
5503928,31
5504552,34
5505184,25
5505800,14
5506432,11
5507056,16
5507680,19
5508308,18
5508936,15
5509564,15
5510196,14
5510816,17
5511444,27
5512072,27
5512700,20
5513332,16
5513952,21
5514584,28
5515208,27
5515832,31
5516464,38
5517080,35
5517712,32
5518344,27
5518960,18
5519592,12
5520216,13
5520844,13
5521476,16
5522096,26
5522724,33
5523352,31
5523976,28
5524604,23
5525224,18
5525856,15
5526480,16
5527104,19
5527732,23
5528352,13
5528984,26
5529612,36
5530232,28
5530860,16
5531484,16
5532116,23
5532744,27
5533368,39
5534000,32
5534624,32
5535248,31
5535876,23
5536496,11
5537124,23
5537748,20
5538372,22
5539004,24
5539624,23
5540256,25
5540884,24
5541504,24
5542136,17
5542760,15
5543388,15
5544020,15
5544640,15
5545268,18
5545896,23
5546520,12
5547148,14
5547768,19
5548400,26
5549024,25
5549648,30
5550280,34
5550896,26
5551524,31
5552156,34
5552776,19
5553408,21
5554032,35
5554660,41
5555292,28
5555912,20
5556544,25
5557168,22
5557792,13
5558424,25
5559040,29
5559672,23
5560296,19
5560920,18
5561552,24
5562168,25
5562800,29
5563432,39
5564048,30
5564680,20
5565304,15
5565936,21
5566568,25
5567184,19
5567816,16
5568444,15
5569068,17
5569700,22
5570320,28
5570952,21
5571576,19
5572200,13
5572828,18
5573452,21
5574084,31
5574712,28
5575336,29
5575968,33
5576592,33
5577220,21
5577852,18
5578472,32
5579104,32
5579728,33
5580352,34
5580984,44
5581600,43
5582228,38
5582860,22
5583480,21
5584108,20
5584732,19
5585364,19
5585996,16
5586616,11
5587244,17
5587868,18
5588492,23
5589124,26
5589744,27
5590376,25
5591000,27
5591624,25
5592256,22
5592872,18
5593504,17
5594136,21
5594752,21
5595384,21
5596012,13
5596640,30
5597272,32
5597888,21
5598520,26
5599144,44
5599768,62
5600400,62
5601024,37
5601652,19
5602276,15
5602900,14
5603532,11
5604152,25
5604780,41
5605412,39
5606032,31
5606664,19
5607284,13
5607916,11
5608548,16
5609168,14
5609796,17
5610420,19
5611044,16
5611676,12
5612296,17
5612924,19
5613548,13
5614172,14
5614804,25
5615428,39
5616060,56
5616688,52
5617304,30
5617936,19
5618560,15
5619188,15
5619820,14
5620440,11
5621068,24
5621696,28
5622320,22
5622952,27
5623568,33
5624200,27
5624824,24
5625448,23
5626080,15
5626704,17
5627336,15
5627964,12
5628584,15
5629216,18
5629840,19
5630472,21
5631104,27
5631724,27
5632356,41
5632976,45
5633600,41
5634228,32
5634848,27
5635476,18
5636108,14
5636728,12
5637356,13
5637980,22
5638612,48
5639240,47
5639860,27
5640488,14
5641112,10
5641736,12
5642364,20
5642984,18
5643612,15
5644236,17
5644860,21
5645492,16
5646112,11
5646740,12
5647372,16
5647992,19
5648624,32
5649248,42
5649876,45
5650508,40
5651128,38
5651760,28
5652384,24
5653008,15
5653636,11
5654256,30
5654884,41
5655508,25
5656132,20
5656764,18
5657384,18
5658016,25
5658644,36
5659264,37
5659892,28
5660516,16
5661148,23
5661776,33
5662400,31
5663028,24
5663652,25
5664280,12
5664908,15
5665528,34
5666156,33
5666780,39
5667408,40
5668036,28
5668656,19
5669284,16
5669916,10
5670536,11
5671164,13
5671792,31
5672420,40
5673052,31
5673672,21
5674300,11
5674928,11
5675552,19
5676180,17
5676800,21
5677428,16
5678056,15
5678680,13
5679312,10
5679928,17
5680560,18
5681192,27
5681812,39
5682440,50
5683068,50
5683696,37
5684328,29
5684944,23
5685572,18
5686200,17
5686824,11
5687452,24
5688072,32
5688700,31
5689328,25
5689952,20
5690580,16
5691204,21
5691836,28
5692468,24
5693088,19
5693720,16
5694344,16
5694976,11
5695604,11
5696224,27
5696852,33
5697476,33
5698100,31
5698732,34
5699352,32
5699980,43
5700612,42
5701232,33
5701864,18
5702488,17
5703116,15
5703748,21
5704368,23
5704996,22
5705624,27
5706248,40
5706876,42
5707496,33
5708128,23
5708752,20
5709376,17
5710008,18
5710628,16
5711260,14
5711892,14
5712512,23
5713144,29
5713768,38
5714400,45
5715028,59
5715648,59
5716280,44
5716904,37
5717528,22
5718160,18
5718776,16
5719408,15
5720036,10
5720660,12
5721288,11
5721912,19
5722544,23
5723176,27
5723796,25
5724428,16
5725052,14
5725684,19
5726312,17
5726936,15
5727568,15
5728196,11
5728820,11
5729452,10
5730072,15
5730704,15
5731336,22
5731952,31
5732584,36
5733212,35
5733844,28
5734476,22
5735096,19
5735724,21
5736348,20
5736972,14
5737600,11
5738216,19
5738848,35
5739472,33
5740096,33
5740724,30
5741344,22
5741972,18
5742604,13
5743224,18
5743852,20
5744480,20
5745108,16
5745740,22
5746360,19
5746992,11
5747616,11
5748240,18
5748868,30
5749488,34
5750120,32
5750744,38
5751368,36
5751996,31
5752616,33
5753248,27
5753880,15
5754496,14
5755128,23
5755752,26
5756384,23
5757012,22
5757632,25
5758264,35
5758888,29
5759512,23
5760144,19
5760760,18
5761388,16
5762012,11
5762636,13
5763264,16
5763880,11
5764508,15
5765140,31
5765760,45
5766388,56
5767012,57
5767644,44
5768272,39
5768888,27
5769520,18
5770144,11
5770768,11
5771396,11
5772016,27
5772644,35
5773268,40
5773892,35
5774524,24
5775144,21
5775776,22
5776404,18
5777024,19
5777652,23
5778276,11
5778904,12
5779536,14
5780152,14
5780784,14
5781408,22
5782032,31
5782660,43
5783280,57
5783908,52
5784536,30
5785160,18
5785788,19
5786408,15
5787036,17
5787664,24
5788288,21
5788916,16
5789540,16
5790172,17
5790800,13
5791424,11
5792052,14
5792676,17
5793300,22
5793932,24
5794552,17
5795184,12
5795808,27
5796432,41
5797060,34
5797680,23
5798308,19
5798940,26
5799560,34
5800192,40
5800816,41
5801444,32
5802076,17
5802696,15
5803324,10
5803952,11
5804576,19
5805208,23
5805824,24
5806456,22
5807080,17
5807704,21
5808332,28
5808952,38
5809584,31
5810212,27
5810832,19
5811464,12
5812088,11
5812716,11
5813348,26
5813968,46
5814600,44
5815224,27
5815848,35
5816480,48
5817096,45
5817724,39
5818348,29
5818972,19
5819604,15
5820228,10
5820860,14
5821488,27
5822108,30
5822736,30
5823360,33
5823992,29
5824624,21
5825240,25
5825872,25
5826496,23
5827120,17
5827748,15
5828368,15
5828996,17
5829624,13
5830248,11
5830876,12
5831500,15
5832132,35
5832764,54
5833384,59
5834016,59
5834640,55
5835272,31
5835900,18
5836520,11
5837152,18
5837776,33
5838400,40
5839028,39
5839648,31
5840280,25
5840908,28
5841528,32
5842156,16
5842784,14
5843412,15
5844044,16
5844664,18
5845292,25
5845916,27
5846540,24
5847172,23
5847792,29
5848424,30
5849048,44
5849672,42
5850300,45
5850920,29
5851548,24
5852180,26
5852800,26
5853428,13
5854056,16
5854688,25
5855316,34
5855936,35
5856568,35
5857196,30
5857820,26
5858448,22
5859072,24
5859704,19
5860328,21
5860952,20
5861584,11
5862200,10
5862832,21
5863464,33
5864084,31
5864712,27
5865336,25
5865968,25
5866596,44
5867216,48
5867848,35
5868472,20
5869096,20
5869728,19
5870344,11
5870976,18
5871600,28
5872224,28
5872856,35
5873480,35
5874112,17
5874740,10
5875360,16
5875992,17
5876616,28
5877248,31
5877880,28
5878496,29
5879128,19
5879752,11
5880376,26
5881008,37
5881628,57
5882256,56
5882888,49
5883508,49
5884140,47
5884764,36
5885396,21
5886028,20
5886648,19
5887280,10
5887904,22
5888532,24
5889160,24
5889784,29
5890412,36
5891040,31
5891664,27
5892292,28
5892912,22
5893544,17
5894172,15
5894792,14
5895424,11
5896048,16
5896676,23
5897308,24
5897928,22
5898560,18
5899180,13
5899804,19
5900436,18
5901056,23
5901684,39
5902308,42
5902932,47
5903564,34
5904184,15
5904812,18
5905444,32
5906064,34
5906692,37
5907320,30
5907948,23
5908580,30
5909200,25
5909828,15
5910452,16
5911080,16
5911708,10
5912328,28
5912956,35
5913584,27
5914208,20
5914840,14
5915464,25
5916096,35
5916724,45
5917344,50
5917976,34
5918600,28
5919232,17
5919860,17
5920480,15
5921108,10
5921732,14
5922356,30
5922988,30
5923608,30
5924236,21
5924860,18
5925488,33
5926116,35
5926744,30
5927372,20
5928004,15
5928624,14
5929252,15
5929876,20
5930504,22
5931132,22
5931752,23
5932384,33
5933008,35
5933632,39
5934264,33
5934880,21
5935512,24
5936140,24
5936760,14
5937392,14
5938016,23
5938648,29
5939276,29
5939896,33
5940524,31
5941148,27
5941772,18
5942400,29
5943016,28
5943648,24
5944272,27
5944896,19
5945524,12
5946144,19
5946772,29
5947404,37
5948024,38
5948656,36
5949280,38
5949908,46
5950540,54
5951160,40
5951792,23
5952416,18
5953040,27
5953668,31
5954288,19
5954916,10
5955540,22
5956168,31
5956796,26
5957416,25
5958048,25
5958676,28
5959296,26
5959928,20
5960552,16
5961180,20
5961812,26
5962432,20
5963060,12
5963688,16
5964312,13
5964944,23
5965560,39
5966192,40
5966816,44
5967440,37
5968068,24
5968688,18
5969316,17
5969948,11
5970568,15
5971196,26
5971824,22
5972456,11
5973084,13
5973704,17
5974336,23
5974960,18
5975584,28
5976216,30
5976836,22
5977464,16
5978088,15
5978712,13
5979344,18
5979964,26
5980596,26
5981224,19
5981844,11
5982472,20
5983100,39
5983728,37
5984360,24
5984980,22
5985608,28
5986232,40
5986860,40
5987488,15
5988112,24
5988744,26
5989368,23
5989992,25
5990624,27
5991248,32
5991876,38
5992508,33
5993128,28
5993756,17
5994384,16
5995012,12
5995644,19
5996264,25
5996896,15
5997520,13
5998144,13
5998776,22
5999392,30
6000024,36
6000656,39
6001272,34
6001904,25
6002528,16
6003160,16
6003788,11
6004408,11
6005036,14
6005664,13
6006288,10
6006920,11
6007536,12
6008168,11
6008792,13
6009416,18
6010048,18
6010668,18
6011296,19
6011928,17
6012548,16
6013180,11
6013804,15
6014436,25
6015068,18
6015688,29
6016320,38
6016944,51
6017568,45
6018200,27
6018820,15
6019448,16
6020076,18
6020700,16
6021332,11
6021956,17
6022584,25
6023216,31
6023836,31
6024464,19
6025088,12
6025720,17
6026352,24
6026968,24
6027596,20
6028224,15
6028848,22
6029476,26
6030096,25
6030728,20
6031352,23
6031976,29
6032608,41
6033236,43
6033864,42
6034496,39
6035116,31
6035748,24
6036372,17
6037000,11
6037632,15
6038248,23
6038880,30
6039508,29
6040132,24
6040764,18
6041384,18
6042016,17
6042648,18
6043264,18
6043896,23
6044520,23
6045152,14
6045780,10
6046400,13
6047028,13
6047656,15
6048280,29
6048908,37
6049528,48
6050160,58
6050784,40
6051408,29
6052040,22
6052656,17
6053288,13
6053916,19
6054536,29
6055168,33
6055792,24
6056424,21
6057056,22
6057672,21
6058304,18
6058928,18
6059552,15
6060184,16
6060804,15
6061432,15
6062060,13
6062684,20
6063316,19
6063940,21
6064572,22
6065204,20
6065824,32
6066456,42
6067080,36
6067712,25
6068340,15
6068960,15
6069588,16
6070216,12
6070840,15
6071472,15
6072088,10
6072720,22
6073352,23
6073968,19
6074600,26
6075224,28
6075856,19
6076484,18
6077104,26
6077736,21
6078360,12
6078988,10
6079620,10
6080240,10
6080872,11
6081496,27
6082120,47
6082748,50
6083368,47
6083996,45
6084628,46
6085248,39
6085876,26
6086504,17
6087132,11
6087764,10
6088384,19
6089012,37
6089640,39
6090264,26
6090892,13
6091512,11
6092144,13
6092768,15
6093396,19
6094024,17
6094648,17
6095276,14
6095908,15
6096528,14
6097160,17
6097784,17
6098416,25
6099044,32
6099664,41
6100296,43
6100920,37
6101544,27
6102176,21
6102796,20
6103428,11
6104052,14
6104676,20
6105308,32
6105932,40
6106564,37
6107192,24
6107816,20
6108448,20
6109072,22
6109704,19
6110332,16
6110952,17
6111584,15
6112212,12
6112836,15
6113468,16
6114088,23
6114720,28
6115348,27
6115968,22
6116600,11
6117224,25
6117856,30
6118488,36
6119104,48
6119736,31
6120360,17
6120984,11
6121616,18
6122232,26
6122864,29
6123492,27
6124116,17
6124748,13
6125368,19
6126000,21
6126632,18
6127252,19
6127884,19
6128508,18
6129140,14
6129772,10
6130392,14
6131024,16
6131652,20
6132276,35
6132908,40
6133528,51
6134160,53
6134792,42
6135416,31
6136052,21
6136676,12
6137308,14
6137940,20
6138560,23
6139192,22
6139820,27
6140448,21
6141080,15
6141700,15
6142332,28
6142956,31
6143584,25
6144220,19
6144840,17
6145468,10
6146096,12
6146720,25
6147348,30
6147972,30
6148604,30
6149232,40
6149848,42
6150480,39
6151104,27
6151728,16
6152356,16
6152976,16
6153604,22
6154228,23
6154852,10
6155484,22
6156108,23
6156740,33
6157372,38
6157992,50
6158624,56
6159248,24
6159876,21
6160508,27
6161128,30
6161756,25
6162380,25
6163008,25
6163636,18
6164256,12
6164884,10
6165516,16
6166136,40
6166764,61
6167392,59
6168020,37
6168652,24
6169272,18
6169904,28
6170528,17
6171152,11
6171780,11
6172400,13
6173028,17
6173652,21
6174280,25
6174908,23
6175528,17
6176160,16
6176788,14
6177408,19
6178036,16
6178664,11
6179292,17
6179924,18
6180544,15
6181172,11
6181800,13
6182424,33
6183052,54
6183672,68
6184304,62
6184928,43
6185552,23
6186184,23
6186800,24
6187432,16
6188060,10
6188680,20
6189312,33
6189936,33
6190568,29
6191196,24
6191816,31
6192448,30
6193076,21
6193700,16
6194332,14
6194952,17
6195584,21
6196208,18
6196832,14
6197460,10
6198088,12
6198716,23
6199348,42
6199968,50
6200600,41
6201224,29
6201856,22
6202484,16
6203104,21
6203736,13
6204360,15
6204984,25
6205616,27
6206232,25
6206864,41
6207492,52
6208112,53
6208744,35
6209368,18
6209996,15
6210628,16
6211248,17
6211876,18
6212504,25
6213128,32
6213756,34
6214376,32
6215008,35
6215636,38
6216260,31
6216892,34
6217512,37
6218144,36
6218776,23
6219396,16
6220028,14
6220652,14
6221284,30
6221916,36
6222536,33
6223168,27
6223792,20
6224420,15
6225052,10
6225672,15
6226304,19
6226928,19
6227552,18
6228180,15
6228808,13
6229436,24
6230068,27
6230688,22
6231320,19
6231944,24
6232576,35
6233208,34
6233824,32
6234456,25
6235080,25
6235704,23
6236336,20
6236952,12
6237584,27
6238216,27
6238836,28
6239464,18
6240092,17
6240720,19
6241348,14
6241968,11
6242596,16
6243224,15
6243848,19
6244476,22
6245096,14
6245728,11
6246352,18
6246976,16
6247608,11
6248224,10
6248856,15
6249484,26
6250104,30
6250732,33
6251360,30
6251988,35
6252620,33
6253240,35
6253872,33
6254496,12
6255120,24
6255752,43
6256368,38
6257000,28
6257624,23
6258248,22
6258876,25
6259496,31
6260128,24
6260756,16
6261376,15
6262008,24
6262632,37
