tempo_arduino_micro_s,valor_ADC
500,15
1004,13
1504,20
2000,32
2508,23
3000,22
3508,16
4000,15
4504,16
5000,20
5500,27
6000,19
6500,17
7000,20
7500,12
8000,36
8500,58
9000,60
9500,54
10000,45
10508,40
11028,37
11556,35
12076,26
12604,19
13124,17
13648,11
14172,15
14700,30
15220,33
15748,23
16268,22
16796,28
17316,23
17836,11
18356,14
18876,18
19396,15
19916,15
20436,16
20956,16
21476,14
21996,11
22516,16
23036,19
23564,25
24084,23
24612,14
25132,11
25660,11
26180,21
26708,39
27228,49
27756,50
28276,37
28804,28
29324,24
29852,13
30372,10
30900,10
31420,16
31948,28
32468,31
32996,32
33516,31
34044,28
34564,25
35092,28
35612,27
36140,17
36660,16
37188,16
37708,19
38236,12
38760,15
39284,18
39804,20
40332,21
40852,27
41372,38
41892,39
42412,16
42932,12
43452,14
43972,19
44492,15
45012,26
45532,32
46052,34
46572,32
47092,26
47612,18
48140,9
48600,10
49132,15
49652,18
50172,18
50700,18
51228,23
51748,31
52276,21
52796,15
53324,15
53844,16
54372,17
54892,13
55420,11
55940,10
56468,11
56988,10
57516,15
58040,25
58564,24
59084,25
59612,28
60132,33
60660,33
61180,28
61708,19
62228,19
62756,25
63276,18
63804,13
64328,11
64852,34
65372,37
65900,23
66420,11
66948,10
67468,10
67996,10
68516,16
69036,21
69556,25
70076,28
70600,32
71116,26
71640,13
72160,16
72676,10
73196,12
73720,15
74236,39
74764,67
75284,76
75812,58
76336,46
76860,34
77380,18
77908,16
78428,17
78956,19
79480,17
80004,11
80524,10
81052,17
81572,16
82100,14
82620,18
83148,28
83668,33
84196,32
84716,38
85244,50
85764,50
86292,32
86812,24
87340,16
87860,32
88388,39
88908,26
89436,10
89960,17
90484,15
91004,16
91532,42
92052,69
92572,76
93092,62
93612,37
94132,21
94652,18
95172,23
95696,28
96212,27
96732,13
97252,10
97772,14
98292,19
98812,26
99340,32
99860,28
100388,24
100952,28
101536,38
102108,45
102688,41
103256,45
103832,47
104400,24
104976,21
105552,48
106120,47
106704,37
107272,42
107856,32
108424,19
109008,19
109584,14
110152,35
110736,51
111304,41
111888,27
112456,16
113040,18
113608,14
114184,11
114760,15
115328,15
115912,11
116480,13
117064,23
117632,24
118216,25
118792,29
119360,19
119944,18
120516,19
121096,19
121668,12
122248,20
122816,21
123396,13
123976,11
124544,23
125128,22
125696,32
126280,48
126848,56
127432,41
128008,29
128576,23
129152,22
129720,21
130296,15
130864,26
131448,27
132016,38
132584,25
133160,15
133728,13
134304,19
134872,19
135456,27
136024,18
136608,16
137176,19
137752,15
138336,12
138904,11
139488,14
140056,23
140640,22
141208,20
141784,25
142368,30
142940,31
143520,24
144088,24
144672,32
145240,30
145824,24
146392,22
146968,11
147552,31
148120,64
148704,84
149272,76
149856,46
150424,13
151000,13
151584,18
152156,15
152736,19
153308,17
153888,17
154456,28
155040,16
155608,11
156184,39
156768,51
157340,42
157920,21
158492,23
159072,42
159644,65
160220,54
160800,35
161368,33
161944,30
162512,32
163096,25
163668,12
164248,17
164816,32
165384,36
165960,37
166528,30
167112,59
167680,63
168256,44
168824,31
169400,18
169968,17
170536,15
171112,21
171684,41
172264,42
172832,35
173416,28
173984,34
174564,50
175144,54
175716,55
176296,34
176864,22
177448,20
178016,22
178600,16
179168,19
179748,34
180328,11
180896,22
181480,33
182048,39
182632,39
183200,36
183776,29
184360,14
184928,11
185504,14
186076,18
186656,19
187224,18
187808,14
188380,11
188952,11
189536,14
190104,22
190688,17
191260,18
191840,17
192412,12
192984,50
193568,82
194136,72
194720,47
195288,24
195872,15
196440,12
197024,12
197596,10
198172,11
198752,11
199324,40
199904,55
200476,59
201056,43
201624,25
202200,18
202784,23
203356,50
203936,47
204508,43
205088,41
205656,27
206232,15
206800,12
207376,18
207952,11
208520,14
209104,19
209672,34
210256,35
210824,36
211408,38
211984,32
212552,21
213136,15
213704,11
214288,9
214808,19
215384,29
215952,15
216532,15
217112,38
217684,48
218264,31
218832,19
219416,15
219984,17
220568,17
221136,18
221712,18
222296,14
222868,15
223448,17
224016,24
224600,27
225168,22
225748,18
226328,21
226896,43
227480,50
228052,30
228632,19
229200,15
229784,19
230356,18
230932,17
231512,24
232084,33
232664,21
233232,27
233816,33
234384,19
234964,12
235544,15
236112,27
236696,39
237268,28
237848,13
238420,14
239000,11
239572,10
240148,10
240728,30
241296,42
241880,51
242452,54
243032,54
243604,51
244176,37
244760,30
245332,26
245912,25
246480,22
247064,10
247632,20
248216,36
248784,46
249360,40
249944,24
250512,14
251096,15
251668,16
252248,20
252816,21
253392,20
253976,15
254548,22
255128,26
255700,24
256280,14
256856,12
257432,12
258000,16
258576,21
259152,20
259720,54
260304,69
260872,56
261456,28
262024,19
262608,16
263184,11
263752,18
264336,21
264904,32
265488,35
266060,19
266640,11
267208,19
267784,21
268360,23
268928,23
269512,19
270080,17
270664,19
271232,14
271816,21
272392,35
272960,32
273544,32
274116,27
274696,32
275268,35
275848,23
276416,11
276996,17
277576,14
278148,28
278728,50
279300,45
279880,23
280452,13
281032,11
281608,13
282176,10
282752,24
283324,41
283904,47
284476,41
285056,40
285628,35
286204,15
286784,15
287352,22
287936,30
288508,35
289088,23
289656,25
290240,27
290808,27
291384,27
291968,24
292540,26
293120,44
293688,43
294272,23
294844,15
295416,15
296000,18
296568,16
297152,18
297724,23
298304,29
298876,22
299456,21
300028,22
300604,22
301184,36
301756,55
302336,35
302916,20
303496,15
304068,19
304640,17
305224,25
305796,43
306376,46
306948,44
307528,46
308104,65
308688,60
309264,49
309836,37
310416,23
310984,31
311568,43
312140,36
312720,20
313292,10
313868,16
314448,25
315020,34
315600,37
316172,36
316752,33
317324,34
317904,31
318488,21
319060,16
319640,19
320212,23
320792,36
321360,41
321944,41
322512,11
323092,26
323672,32
324244,54
324824,53
325392,36
325976,28
326548,45
327120,48
327704,56
328272,66
328856,35
329424,18
330008,14
330576,22
331160,20
331732,15
332304,17
332888,17
333456,21
334032,24
334600,27
335184,28
335756,30
336336,19
336912,15
337480,15
338064,19
338632,22
339216,23
339784,23
340360,23
340928,27
341504,35
342088,39
342656,37
343240,34
343808,22
344392,16
344960,15
345544,20
346120,25
346688,14
347272,17
347844,32
348424,30
348992,30
349576,31
350148,34
350724,35
351304,35
351876,37
352456,37
353028,17
353608,16
354176,17
354760,13
355336,18
355908,14
356488,27
357056,38
357640,21
358212,35
358792,44
359368,43
359944,44
360528,39
361096,46
361680,51
362248,53
362832,25
363404,10
363984,15
364560,29
365132,35
365712,25
366284,27
366864,39
367436,50
368016,39
368584,17
369164,18
369744,22
370316,21
370896,16
371464,11
372048,11
372616,15
373200,17
373776,16
374344,13
374928,22
375500,31
376080,32
376648,43
377232,38
377804,22
378376,16
378960,14
379528,14
380112,11
380684,11
381264,11
381836,20
382416,34
383000,32
383572,21
384152,30
384724,41
385304,47
385872,54
386456,45
387028,18
387604,30
388184,30
388756,21
389336,12
389904,10
390488,9
391004,10
391584,13
392156,33
392732,60
393312,88
393884,89
394464,71
395036,38
395616,16
396196,16
396772,23
397352,24
397924,24
398504,11
399076,28
399656,30
400236,11
400816,26
401384,44
401964,52
402544,47
403116,38
403696,35
404276,24
404856,13
405424,19
406004,13
406584,10
407156,19
407736,34
408308,32
408888,32
409468,86
410048,114
410684,84
411248,37
411832,15
412400,22
412984,14
413552,15
414136,36
414704,51
415284,48
415864,25
416436,33
417016,57
417584,30
418168,11
418736,15
419312,15
419896,34
420464,34
421048,35
421616,11
422200,36
422772,31
423352,11
423924,33
424500,64
425080,59
425648,14
426232,59
426804,57
427384,55
427956,67
428532,62
429112,69
429684,62
430264,38
430832,20
431416,37
431988,32
432568,19
433148,18
433724,18
434304,42
434876,35
435456,16
436032,16
436616,15
437184,17
437764,16
438344,20
438916,24
439496,19
440068,10
440648,11
441216,16
441800,17
442376,21
442948,30
443528,24
444096,14
444680,16
445252,15
445832,23
446404,19
446976,15
447560,12
448132,10
448712,19
449280,11
449864,11
450436,37
451016,53
451592,34
452164,27
452744,16
453316,17
453896,29
454468,16
455048,27
455616,41
456196,47
456776,31
457348,18
457928,17
458500,22
459080,37
459652,40
460232,35
460808,36
461380,38
461960,22
462532,23
463112,24
463684,12
464264,15
464832,34
465408,33
465992,26
466564,14
467144,16
467716,15
468296,28
468868,31
469448,21
470024,18
470596,21
471176,17
471748,13
472328,13
472896,13
473480,23
474052,19
474628,30
475208,32
475780,40
476360,41
476932,41
477512,38
478084,29
478664,19
479240,16
479812,17
480392,43
480964,56
481544,58
482116,48
482696,17
483268,13
483840,15
484424,10
484996,15
485576,17
486148,29
486728,20
487304,23
487888,36
488464,58
489036,54
489616,38
490188,35
490768,31
491348,26
491928,26
492508,24
493080,23
493664,16
494232,16
494816,15
495384,38
495968,33
496540,11
497116,18
497696,24
498264,13
498848,10
499420,11
500000,18
500568,24
501152,31
501724,32
502300,22
502880,27
503452,27
504032,23
504604,16
505184,11
505756,24
506332,38
506912,41
507484,30
508064,20
508636,40
509216,56
509796,55
510376,32
510956,14
511532,22
512116,15
512684,23
513264,10
513832,16
514416,19
514984,22
515560,11
516144,11
516712,23
517296,26
517864,16
518448,14
519016,14
519600,16
520172,19
520744,21
521328,23
521896,19
522480,21
523048,14
523632,24
524200,54
524780,66
525360,79
525932,66
526512,54
527084,31
527664,19
528236,34
528816,43
529384,24
529964,10
530544,10
531116,14
531696,15
532276,19
532856,14
533424,13
534004,18
534584,11
535152,19
535736,22
536308,15
536888,17
537456,20
538040,13
538608,16
539184,16
539768,13
540340,22
540920,41
541488,48
542072,49
542644,46
543220,42
543800,30
544372,18
544952,20
545524,18
546104,12
546676,16
547256,18
547828,15
548404,27
548984,54
549556,62
550136,62
550716,43
551296,19
551868,18
552444,17
553024,28
553592,34
554176,33
554748,28
555328,30
555908,33
556488,35
557072,24
557644,10
558224,11
558796,15
559376,24
559956,39
560540,25
561116,15
561692,16
562272,17
562844,15
563424,22
564000,26
564584,9
565104,10
565680,24
566252,41
566828,57
567408,57
567980,36
568560,17
569140,35
569720,43
570296,35
570876,28
571456,27
572028,33
572608,34
573180,33
573760,33
574340,26
574920,31
575496,32
576068,25
576648,23
577216,23
577800,24
578368,16
578952,15
579524,12
580096,19
580680,38
581252,37
581832,25
582404,10
582984,16
583556,56
584136,67
584720,44
585292,16
585872,30
586444,38
587024,20
587596,26
588176,27
588756,15
589332,10
589912,15
590484,22
591064,26
591636,41
592216,55
592796,58
593372,60
593952,51
594524,37
595104,19
595676,15
596256,18
596828,37
597408,66
597980,93
598556,81
599136,41
599708,14
600288,13
600868,34
601448,35
602020,43
602596,44
603176,18
603748,34
604328,75
604900,99
605480,79
606052,52
606632,41
607212,29
607788,25
608368,29
608940,32
609520,30
610100,19
610680,13
611252,18
611828,18
612412,16
612984,11
613560,12
614136,10
614716,17
615292,30
615872,35
616444,22
617020,15
617600,19
618168,34
618752,36
619324,23
619904,17
620476,15
621052,14
621632,10
622204,11
622784,10
623356,23
623936,53
624516,53
625096,57
625680,63
626252,50
626832,31
627404,23
627984,21
628556,32
629136,35
629716,15
630292,12
630872,17
631444,26
632024,33
632604,40
633184,34
633764,34
634340,38
634920,38
635492,27
636072,15
636648,16
637224,23
637804,29
638384,18
638964,27
639540,40
640124,22
640692,11
641272,11
641840,29
642424,48
642992,35
643572,24
644152,19
644724,26
645304,24
645872,17
646456,29
647024,36
647608,10
648180,19
648752,27
649336,26
649908,11
650488,11
651060,11
651640,18
652212,24
652788,22
653368,25
653940,17
654520,17
655092,26
655672,12
656248,25
656832,18
657400,20
657968,34
658552,34
659124,36
659704,46
660272,43
660856,38
661424,19
662004,15
662584,16
663152,10
663736,12
664308,10
664888,12
665456,15
666040,9
666556,9
667076,11
667656,18
668224,31
668808,21
669376,13
669952,15
670524,15
671104,12
671676,10
672252,10
672832,11
673400,16
673984,21
674556,14
675136,12
675708,12
676288,28
676856,46
677432,47
678016,51
678588,41
679168,33
679740,19
680320,12
680888,27
681464,41
682048,38
682616,33
683200,19
683768,10
684352,11
684924,25
685504,45
686076,48
686652,27
687232,20
687804,21
688384,33
688956,18
689536,9
690056,10
690632,14
691208,13
691776,11
692360,26
692932,66
693512,77
694084,58
694664,32
695236,36
695812,39
696392,23
696964,15
697544,26
698116,27
698696,23
699268,19
699848,27
700424,17
700996,15
701576,30
702148,22
702728,18
703308,16
703888,18
704468,15
705044,11
705624,22
706196,40
706776,42
707356,35
707936,33
708508,24
709084,11
709664,21
710236,30
710816,26
711388,14
711968,17
712548,15
713128,13
713708,11
714284,15
714864,22
715436,15
716016,10
716596,12
717180,19
717752,51
718332,43
718912,14
719484,24
720064,23
720632,18
721216,14
721788,16
722368,13
722940,16
723516,24
724096,45
724668,46
725248,45
725820,45
726400,49
726972,38
727548,26
728128,28
728700,31
729280,26
729852,11
730432,25
731004,45
731584,63
732156,64
732732,37
733312,18
733884,16
734464,19
735044,21
735624,15
736204,30
736780,40
737360,38
737932,41
738512,32
739084,15
739664,9
740184,10
740760,11
741332,10
741908,16
742488,23
743060,36
743640,52
744212,56
744792,41
745364,24
745940,14
746520,18
747092,23
747672,31
748244,32
748824,33
749392,37
749976,38
750556,35
751132,30
751712,15
752288,18
752864,15
753436,23
754016,18
754596,16
755172,35
755756,34
756328,17
756904,10
757476,29
758056,45
758636,47
759216,28
759788,11
760364,18
760944,14
761516,19
762100,24
762676,36
763256,42
763836,15
764412,10
764992,11
765564,11
766144,23
766720,31
767296,34
767876,18
768460,18
769040,34
769612,34
770192,29
770764,26
771344,17
771916,16
772496,32
773068,32
773644,29
774224,29
774796,35
775376,35
775956,24
776536,29
777116,25
777692,14
778272,15
778844,15
779424,11
779996,12
780576,14
781156,11
781736,34
782308,37
782884,15
783464,22
784036,23
784616,13
785188,17
785768,22
786348,22
786924,28
787504,19
788076,32
788656,27
789228,13
789808,21
790380,36
790964,13
791540,36
792116,47
792696,66
793268,66
793852,33
794428,16
795008,17
795580,19
796156,19
796736,14
797312,10
797888,12
798464,21
799040,35
799620,49
800200,42
800784,30
801356,17
801936,15
802504,16
803088,15
803660,22
804240,16
804812,11
805384,11
805968,10
806540,10
807120,12
807692,14
808272,17
808844,30
809424,19
810000,19
810572,53
811152,72
811724,68
812304,59
812876,55
813456,31
814028,12
814604,29
815184,28
815756,28
816336,35
816916,41
817496,42
818076,43
818652,28
819232,14
819804,15
820384,16
820952,15
821536,12
822104,11
822688,31
823256,35
823832,21
824416,19
824984,13
825560,14
826132,33
826712,55
827284,43
827856,34
828440,39
829012,45
829592,35
830164,24
830744,13
831316,10
831896,11
832476,22
833048,29
833632,34
834200,32
834784,25
835352,25
835936,16
836504,16
837080,27
837664,32
838236,21
838816,11
839384,18
839968,18
840540,29
841120,20
841688,19
842264,42
842848,55
843420,61
844000,53
844568,48
845152,22
845720,16
846296,27
846880,22
847448,34
848032,49
848600,35
849184,16
849756,26
850336,31
850908,25
851480,17
852064,16
852632,18
853216,17
853788,17
854368,17
854940,23
855516,32
856096,28
856668,18
857248,14
857820,13
858400,10
858968,22
859552,41
860124,51
860700,31
861280,24
861848,27
862432,29
863004,24
863584,12
864156,30
864728,29
865312,20
865880,19
866464,35
867036,50
867616,50
868196,48
868776,39
869348,15
869924,27
870504,30
871072,20
871656,17
872228,15
872808,14
873376,10
873956,14
874536,27
875108,46
875688,49
876260,49
876840,54
877412,46
877992,26
878572,18
879148,23
879728,19
880300,10
880880,18
881448,27
882032,29
882604,41
883180,35
883760,28
884332,13
884912,13
885484,15
886064,27
886636,54
887216,29
887788,27
888364,40
888944,42
889516,34
890096,43
890676,34
891256,19
891836,19
892412,14
892992,21
893564,26
894144,23
894716,20
895296,18
895876,15
896460,11
897040,15
897612,31
898192,42
898764,30
899344,19
899916,22
900496,29
901068,18
901644,22
902224,43
902796,48
903376,33
903948,30
904528,16
905096,43
905680,62
906256,54
906828,41
907408,41
907980,15
908560,15
909140,14
909720,12
910292,30
910868,53
911448,70
912020,63
912600,47
913172,22
913752,11
914324,32
914900,64
915480,46
916052,31
916632,12
917204,14
917784,10
918356,15
918936,14
919516,15
920092,15
920672,24
921244,20
921824,19
922400,24
922984,23
923556,19
924132,19
924712,25
925284,27
925864,24
926436,22
927016,23
927588,22
928168,16
928744,21
929324,20
929904,10
930476,24
931056,25
931628,22
932208,23
932788,22
933364,33
933944,39
934516,28
935096,25
935668,28
936248,26
936828,17
937408,29
937980,33
938556,28
939136,32
939712,32
940288,22
940868,16
941448,10
942020,17
942596,33
943176,32
943748,20
944328,15
944900,16
945480,17
946052,35
946632,18
947216,22
947788,31
948368,31
948940,33
949520,37
950100,12
950680,10
951260,11
951836,15
952420,17
952992,16
953568,16
954148,20
954728,22
955308,14
955884,11
956464,17
957040,16
957616,10
958188,12
958768,46
959348,61
959932,67
960508,60
961088,37
961664,19
962236,17
962816,28
963392,44
963976,34
964548,37
965124,52
965704,72
966276,45
966856,11
967428,18
968008,15
968584,16
969168,17
969744,30
970316,40
970896,39
971468,47
972048,41
972628,33
973212,23
973788,19
974364,11
974944,30
975516,44
976096,39
976676,42
977256,31
977828,18
978404,14
978984,15
979556,11
980136,13
980708,12
981288,18
981868,27
982448,39
983028,37
983604,32
984184,14
984756,15
985336,15
985908,15
986488,14
987056,18
987636,14
988216,12
988788,11
989368,10
989940,11
990520,15
991092,18
991672,30
992252,34
992828,44
993408,40
993980,33
994560,21
995128,14
995712,16
996292,10
996868,21
997448,37
998020,51
998600,35
999172,15
999752,15
1000332,19
1000956,27
1001588,30
1002208,32
1002836,22
1003460,15
1004084,22
1004712,27
1005332,26
1005960,19
1006584,14
1007204,23
1007836,37
1008460,47
1009088,45
1009720,31
1010336,21
1010964,18
1011588,15
1012220,16
1012848,15
1013464,19
1014092,10
1014716,9
1015288,19
1015916,28
1016536,38
1017164,29
1017788,24
1018412,21
1019040,15
1019664,15
1020292,16
1020916,19
1021540,17
1022172,12
1022796,16
1023428,21
1024056,20
1024676,37
1025304,47
1025924,40
1026552,35
1027180,17
1027800,27
1028428,31
1029048,20
1029668,15
1030300,11
1030920,25
1031548,29
1032168,24
1032792,14
1033420,10
1034040,13
1034668,19
1035296,27
1035912,33
1036540,34
1037164,31
1037792,17
1038420,18
1039036,38
1039668,46
1040292,40
1040912,33
1041540,30
1042160,38
1042788,39
1043408,47
1044032,36
1044660,15
1045276,25
1045908,15
1046536,14
1047152,17
1047780,30
1048404,39
1049032,34
1049660,32
1050276,33
1050904,21
1051528,13
1052156,27
1052784,24
1053408,16
1054036,19
1054660,19
1055284,18
1055912,16
1056528,21
1057156,12
1057780,16
1058400,38
1059032,61
1059652,49
1060284,24
1060912,23
1061528,15
1062156,15
1062780,11
1063408,14
1064040,20
1064656,15
1065284,14
1065904,10
1066528,19
1067156,30
1067776,37
1068404,31
1069028,33
1069648,31
1070276,24
1070896,33
1071524,24
1072152,20
1072776,37
1073404,45
1074028,43
1074656,38
1075284,44
1075900,55
1076532,74
1077152,58
1077776,29
1078404,27
1079020,17
1079652,10
1080276,15
1080896,24
1081528,34
1082144,40
1082772,25
1083404,24
1084024,26
1084652,23
1085276,19
1085904,15
1086532,14
1087152,16
1087780,11
1088404,22
1089028,16
1089656,12
1090272,30
1090900,23
1091524,12
1092144,10
1092776,40
1093392,75
1094020,70
1094644,46
1095268,31
1095896,21
1096520,10
1097148,11
1097776,9
1098344,21
1098972,31
1099596,25
1100224,26
1100856,28
1101472,27
1102100,25
1102724,17
1103352,16
1103984,16
1104600,20
1105232,30
1105856,30
1106480,13
1107108,12
1107728,12
1108356,18
1108980,23
1109604,24
1110232,39
1110856,60
1111484,47
1112116,16
1112736,21
1113364,27
1113988,31
1114620,35
1115248,21
1115872,11
1116500,12
1117124,21
1117748,18
1118380,18
1119000,14
1119628,18
1120256,18
1120880,16
1121508,13
1122132,17
1122760,24
1123388,20
1124008,13
1124636,11
1125260,13
1125888,51
1126520,63
1127136,61
1127764,45
1128388,34
1129008,30
1129636,17
1130256,9
1130832,11
1131456,17
1132080,21
1132708,46
1133328,57
1133956,21
1134580,19
1135204,31
1135832,26
1136460,15
1137088,32
1137716,19
1138336,13
1138964,11
1139588,13
1140220,19
1140848,28
1141464,17
1142096,19
1142720,35
1143340,50
1143972,43
1144592,43
1145220,35
1145844,37
1146468,15
1147100,16
1147724,36
1148352,46
1148980,30
1149600,28
1150228,29
1150852,26
1151480,20
1152112,13
1152724,14
1153356,15
1153976,15
1154600,11
1155228,15
1155848,15
1156476,14
1157100,22
1157720,34
1158352,53
1158968,48
1159596,55
1160228,36
1160848,15
1161476,15
1162100,18
1162728,21
1163356,12
1163976,15
1164604,21
1165228,38
1165852,32
1166484,27
1167104,13
1167732,13
1168356,17
1168980,20
1169608,22
1170224,16
1170852,16
1171484,13
1172104,19
1172732,19
1173356,33
1173988,26
1174616,18
1175232,17
1175864,27
1176488,41
1177112,44
1177740,38
1178360,22
1178988,15
1179612,10
1180236,12
1180864,17
1181480,23
1182108,28
1182740,21
1183360,20
1183988,18
1184612,18
1185244,19
1185872,15
1186492,30
1187120,34
1187744,23
1188368,11
1188996,11
1189616,22
1190244,34
1190868,31
1191492,41
1192120,46
1192744,48
1193372,49
1194004,44
1194624,23
1195252,18
1195876,18
1196508,19
1197136,29
1197760,42
1198388,30
1199016,29
1199640,40
1200268,21
1200888,16
1201516,21
1202140,15
1202764,15
1203392,15
1204016,16
1204644,25
1205272,28
1205892,13
1206520,11
1207144,16
1207772,19
1208404,34
1209024,39
1209652,34
1210276,15
1210896,15
1211528,14
1212144,15
1212772,11
1213400,10
1214024,9
1214600,11
1215224,15
1215852,12
1216480,11
1217100,12
1217732,10
1218352,33
1218980,47
1219612,16
1220232,16
1220860,18
1221484,33
1222116,19
1222744,12
1223368,15
1223996,11
1224624,15
1225248,27
1225876,34
1226496,44
1227124,29
1227752,18
1228376,20
1229008,21
1229624,16
1230252,9
1230820,10
1231448,17
1232076,23
1232692,25
1233324,31
1233952,34
1234568,37
1235196,43
1235820,40
1236452,37
1237080,16
1237696,13
1238328,33
1238952,43
1239576,36
1240204,35
1240824,25
1241452,21
1242076,25
1242700,66
1243328,79
1243948,52
1244576,22
1245204,16
1245824,16
1246452,10
1247076,13
1247708,26
1248336,27
1248952,14
1249580,13
1250204,21
1250828,25
1251456,16
1252080,23
1252708,26
1253332,24
1253956,21
1254584,12
1255208,11
1255836,16
1256464,18
1257088,13
1257716,13
1258340,40
1258968,48
1259600,48
1260216,54
1260844,53
1261468,34
1262092,15
1262720,14
1263336,12
1263968,17
1264592,45
1265216,48
1265844,28
1266464,18
1267092,15
1267724,35
1268344,30
1268972,14
1269596,16
1270228,15
1270860,16
1271480,14
1272108,13
1272732,11
1273356,12
1273988,10
1274608,19
1275236,42
1275860,58
1276488,49
1277116,32
1277736,32
1278368,35
1278996,32
1279616,25
1280248,10
1280868,20
1281496,42
1282124,47
1282740,41
1283368,29
1283992,23
1284616,36
1285244,36
1285860,20
1286492,15
1287112,17
1287736,17
1288364,20
1288980,22
1289612,22
1290232,30
1290856,38
1291484,33
1292108,38
1292736,43
1293364,28
1293984,17
1294612,33
1295236,29
1295864,27
1296492,11
1297112,21
1297740,29
1298364,26
1298984,28
1299616,44
1300232,54
1300860,36
1301484,23
1302108,13
1302736,20
1303352,20
1303984,15
1304612,23
1305232,24
1305860,21
1306484,17
1307112,22
1307744,21
1308360,22
1308988,29
1309612,31
1310236,17
1310868,15
1311484,15
1312116,21
1312736,20
1313356,13
1313988,10
1314604,15
1315232,14
1315864,31
1316480,56
1317108,53
1317728,35
1318360,28
1318988,20
1319608,15
1320236,18
1320856,15
1321480,31
1322108,38
1322728,35
1323356,48
1323980,38
1324600,36
1325232,47
1325848,58
1326476,47
1327100,23
1327724,15
1328352,17
1328976,16
1329604,11
1330232,10
1330848,27
1331476,40
1332100,37
1332728,34
1333356,13
1333976,17
1334604,35
1335224,44
1335848,17
1336476,16
1337092,17
1337724,13
1338344,27
1338968,14
1339596,28
1340216,42
1340844,60
1341472,65
1342088,57
1342716,46
1343340,31
1343972,23
1344600,28
1345220,16
1345852,15
1346472,14
1347096,11
1347724,10
1348344,26
1348972,28
1349596,31
1350216,34
1350848,27
1351464,20
1352092,19
1352720,25
1353336,30
1353968,18
1354588,13
1355220,19
1355848,25
1356464,24
1357092,19
1357716,19
1358340,21
1358972,36
1359592,59
1360220,59
1360844,48
1361464,35
1362092,30
1362708,17
1363340,12
1363960,17
1364584,24
1365212,36
1365832,42
1366464,46
1367092,53
1367712,32
1368340,14
1368964,16
1369592,16
1370220,15
1370840,16
1371468,11
1372092,21
1372716,24
1373344,12
1373964,40
1374592,38
1375216,29
1375840,43
1376468,48
1377092,30
1377720,23
1378348,32
1378968,25
1379596,11
1380220,24
1380848,26
1381480,20
1382096,11
1382724,17
1383348,15
1383972,20
1384600,32
1385216,38
1385844,40
1386468,30
1387092,17
1387720,11
1388344,28
1388972,12
1389600,27
1390216,38
1390848,31
1391472,38
1392100,33
1392732,28
1393352,35
1393980,31
1394604,23
1395224,24
1395856,18
1396472,11
1397100,16
1397724,22
1398348,43
1398976,54
1399600,33
1400228,24
1400860,20
1401480,13
1402108,15
1402732,15
1403360,19
1403992,29
1404608,27
1405240,20
1405860,11
1406484,14
1407116,20
1407736,26
1408368,29
1408988,37
1409612,46
1410240,38
1410856,19
1411484,15
1412112,16
1412736,12
1413364,9
1413936,9
1414512,11
1415144,11
1415764,29
1416396,38
1417016,31
1417644,30
1418272,32
1418896,25
1419524,15
1420148,17
1420776,29
1421404,19
1422024,13
1422652,21
1423276,17
1423900,14
1424532,18
1425152,33
1425780,56
1426404,61
1427028,50
1427660,36
1428280,41
1428908,37
1429540,42
1430160,25
1430788,11
1431416,27
1432044,31
1432676,34
1433296,44
1433924,55
1434548,52
1435172,47
1435800,23
1436420,16
1437048,28
1437672,18
1438292,10
1438924,10
1439544,15
1440172,11
1440800,31
1441416,54
1442044,47
1442668,20
1443296,16
1443924,16
1444544,17
1445172,31
1445792,28
1446416,13
1447044,27
1447660,46
1448292,30
1448916,28
1449536,48
1450168,59
1450784,15
1451412,54
1452044,42
1452664,27
1453292,16
1453916,15
1454544,15
1455176,21
1455792,18
1456424,11
1457044,13
1457668,25
1458300,34
1458920,40
1459548,46
1460172,46
1460796,37
1461424,25
1462040,16
1462672,15
1463300,13
1463920,26
1464548,45
1465172,40
1465804,40
1466432,47
1467048,37
1467676,19
1468300,18
1468932,14
1469560,19
1470180,16
1470808,17
1471432,11
1472056,13
1472684,30
1473304,48
1473932,44
1474556,42
1475184,28
1475812,26
1476436,36
1477064,31
1477696,26
1478312,19
1478940,17
1479564,22
1480196,14
1480824,11
1481440,13
1482068,14
1482692,19
1483316,17
1483944,23
1484564,29
1485192,35
1485816,28
1486436,19
1487064,23
1487688,14
1488316,10
1488944,10
1489568,39
1490196,39
1490820,18
1491448,36
1492080,69
1492696,72
1493324,77
1493948,68
1494572,61
1495204,32
1495824,15
1496452,11
1497076,39
1497700,52
1498328,39
1498952,25
1499580,10
1500208,11
1500832,18
1501460,24
1502084,21
1502712,15
1503344,18
1503964,28
1504592,29
1505216,11
1505840,20
1506472,11
1507088,22
1507720,26
1508344,33
1508968,45
1509596,59
1510224,49
1510852,29
1511484,18
1512104,15
1512732,12
1513356,12
1513988,24
1514620,33
1515240,38
1515868,55
1516492,62
1517116,40
1517748,12
1518368,22
1518996,30
1519628,30
1520248,19
1520876,21
1521500,35
1522132,21
1522760,11
1523380,16
1524008,25
1524632,12
1525256,53
1525884,62
1526504,55
1527132,43
1527756,28
1528380,15
1529012,16
1529632,11
1530260,10
1530892,8
1531460,10
1532092,10
1532712,23
1533344,29
1533972,32
1534592,28
1535224,25
1535848,19
1536480,15
1537108,14
1537728,12
1538356,19
1538980,13
1539600,10
1540232,12
1540848,17
1541476,44
1542100,47
1542724,43
1543352,39
1543968,37
1544600,27
1545228,21
1545848,13
1546476,21
1547100,36
1547728,34
1548360,29
1548976,30
1549608,27
1550228,45
1550856,60
1551484,56
1552104,17
1552732,15
1553356,15
1553980,21
1554608,54
1555232,63
1555860,51
1556492,32
1557112,24
1557740,20
1558364,26
1558996,31
1559624,30
1560244,24
1560872,17
1561496,15
1562120,34
1562748,36
1563368,24
1563996,10
1564620,12
1565244,19
1565876,10
1566496,11
1567124,15
1567756,10
1568376,16
1569004,15
1569628,19
1570256,15
1570884,15
1571504,20
1572132,11
1572756,10
1573384,10
1574012,10
1574632,24
1575260,58
1575884,63
1576508,48
1577140,38
1577760,33
1578388,25
1579020,18
1579640,12
1580268,17
1580892,30
1581524,39
1582152,37
1582772,24
1583400,21
1584024,25
1584648,17
1585276,14
1585896,16
1586528,14
1587152,17
1587776,16
1588404,26
1589024,13
1589652,10
1590284,14
1590904,14
1591532,29
1592160,29
1592788,54
1593420,76
1594040,74
1594668,57
1595296,25
1595920,12
1596548,24
1597168,32
1597800,27
1598424,28
1599048,29
1599676,28
1600296,25
1600924,34
1601552,50
1602168,73
1602796,38
1603420,17
1604048,16
1604676,18
1605296,39
1605924,43
1606548,39
1607172,34
1607804,30
1608424,35
1609052,42
1609672,58
1610296,64
1610924,50
1611544,29
1612172,17
1612796,11
1613424,13
1614052,21
1614676,30
1615308,49
1615936,62
1616556,33
1617184,11
1617808,11
1618436,19
1619064,19
1619688,15
1620316,15
1620940,17
1621564,20
1622192,13
1622812,16
1623440,13
1624068,12
1624688,13
1625316,18
1625940,32
1626568,46
1627200,30
1627816,15
1628444,18
1629068,19
1629700,17
1630328,10
1630948,13
1631576,14
1632200,11
1632824,17
1633452,10
1634072,15
1634700,14
1635324,18
1635952,27
1636580,21
1637204,15
1637836,15
1638468,20
1639084,20
1639712,13
1640332,12
1640960,14
1641588,20
1642208,24
1642836,36
1643456,35
1644080,19
1644704,16
1645328,15
1645956,12
1646576,14
1647200,13
1647828,31
1648452,36
1649080,45
1649708,38
1650324,16
1650956,10
1651576,14
1652204,13
1652832,17
1653452,33
1654084,29
1654704,11
1655328,38
1655956,34
1656576,17
1657204,18
1657828,33
1658448,56
1659076,63
1659696,65
1660324,52
1660952,35
1661568,24
1662196,24
1662820,14
1663448,11
1664076,19
1664692,34
1665320,42
1665940,43
1666564,42
1667192,31
1667808,22
1668436,19
1669060,15
1669680,15
1670308,15
1670928,13
1671556,11
1672180,19
1672800,33
1673428,37
1674052,19
1674680,15
1675308,28
1675928,44
1676556,31
1677180,14
1677808,17
1678436,14
1679056,19
1679684,22
1680304,11
1680928,26
1681556,28
1682176,21
1682804,13
1683424,12
1684044,13
1684672,21
1685292,16
1685924,14
1686552,15
1687168,15
1687796,18
1688420,25
1689048,13
1689676,21
1690292,25
1690920,13
1691544,11
1692164,43
1692792,50
1693416,53
1694044,44
1694668,23
1695292,26
1695920,16
1696536,19
1697164,17
1697788,13
1698408,13
1699036,17
1699660,21
1700288,28
1700916,32
1701536,27
1702164,29
1702788,27
1703416,17
1704044,22
1704660,23
1705292,21
1705912,21
1706536,28
1707164,22
1707784,18
1708412,29
1709036,43
1709660,47
1710288,36
1710908,34
1711536,27
1712164,15
1712784,22
1713412,27
1714036,35
1714664,32
1715296,15
1715912,13
1716540,20
1717164,31
1717788,42
1718416,31
1719036,16
1719664,19
1720288,23
1720912,45
1721540,46
1722160,30
1722788,17
1723416,11
1724040,21
1724668,26
1725292,18
1725920,40
1726548,52
1727168,43
1727796,25
1728420,15
1729044,15
1729672,10
1730288,21
1730920,41
1731540,33
1732164,20
1732792,22
1733416,17
1734044,10
1734676,12
1735296,17
1735924,31
1736548,51
1737180,45
1737808,11
1738424,17
1739056,16
1739680,12
1740300,13
1740932,10
1741548,23
1742180,69
1742800,89
1743424,81
1744052,46
1744668,44
1745300,36
1745928,12
1746544,11
1747172,32
1747796,51
1748428,44
1749056,33
1749672,23
1750304,13
1750928,11
1751556,14
1752188,14
1752808,17
1753436,15
1754060,15
1754684,11
1755312,20
1755936,27
1756564,40
1757196,28
1757816,16
1758444,72
1759068,79
1759700,86
1760332,73
1760952,49
1761580,28
1762204,21
1762824,13
1763456,16
1764072,29
1764700,28
1765324,25
1765948,27
1766576,25
1767192,15
1767820,18
1768444,26
1769072,25
1769700,23
1770324,15
1770952,15
1771580,11
1772200,21
1772828,12
1773452,10
1774080,15
1774708,10
1775328,12
1775956,33
1776584,65
1777208,65
1777836,55
1778456,30
1779084,13
1779708,16
1780336,28
1780964,39
1781588,37
1782220,60
1782848,86
1783468,55
1784096,15
1784720,25
1785348,27
1785980,36
1786600,39
1787228,30
1787852,27
1788476,25
1789108,22
1789728,21
1790356,12
1790988,11
1791608,47
1792240,71
1792860,55
1793488,16
1794120,16
1794736,15
1795364,17
1795988,11
1796612,11
1797244,10
1797864,11
1798492,20
1799116,36
1799740,44
1800368,41
1800984,31
1801616,28
1802236,30
1802864,17
1803492,21
1804116,26
1804744,29
1805372,12
1805992,13
1806620,15
1807244,11
1807872,35
1808500,58
1809120,71
1809748,56
1810372,27
1810996,15
1811624,20
1812240,20
1812872,10
1813492,13
1814116,12
1814748,20
1815372,33
1816000,31
1816628,23
1817248,22
1817876,27
1818500,29
1819128,16
1819760,21
1820376,22
1821008,15
1821632,13
1822252,13
1822884,12
1823504,22
1824132,22
1824756,19
1825380,26
1826008,27
1826632,28
1827260,25
1827888,26
1828504,28
1829136,31
1829760,17
1830388,29
1831020,42
1831640,39
1832268,29
1832892,19
1833516,19
1834148,20
1834768,23
1835396,21
1836024,16
1836644,24
1837276,25
1837900,13
1838532,12
1839160,10
1839784,12
1840416,11
1841036,22
1841668,37
1842296,63
1842920,55
1843548,53
1844172,67
1844792,64
1845424,29
1846040,34
1846668,82
1847292,65
1847912,46
1848544,21
1849168,16
1849796,17
1850424,13
1851040,25
1851672,23
1852296,22
1852924,28
1853552,38
1854176,16
1854804,35
1855428,39
1856052,13
1856680,19
1857296,19
1857924,35
1858548,50
1859172,58
1859800,48
1860424,41
1861052,33
1861684,17
1862304,18
1862932,23
1863556,25
1864188,29
1864816,16
1865432,10
1866064,11
1866688,13
1867312,22
1867940,24
1868560,32
1869188,28
1869812,21
1870436,16
1871064,12
1871688,20
1872320,24
1872948,20
1873568,21
1874196,35
1874820,41
1875452,38
1876080,46
1876704,56
1877332,46
1877956,32
1878584,18
1879212,12
1879832,25
1880460,25
1881084,30
1881712,35
1882340,33
1882964,45
1883596,52
1884224,38
1884848,21
1885476,21
1886100,16
1886724,18
1887356,22
1887976,32
1888608,21
1889228,10
1889852,11
1890484,12
1891104,14
1891732,12
1892364,33
1892984,76
1893612,94
1894236,76
1894868,43
1895496,20
1896120,13
1896748,28
1897372,41
1897996,41
1898628,16
1899248,18
1899876,24
1900500,20
1901124,19
1901756,29
1902376,34
1903008,17
1903636,15
1904256,11
1904884,11
1905508,22
1906140,31
1906768,39
1907392,29
1908020,31
1908644,28
1909268,38
1909900,30
1910520,21
1911148,20
1911776,15
1912400,15
1913028,12
1913648,9
1914224,16
1914856,25
1915480,21
1916112,24
1916728,32
1917360,27
1917992,31
1918612,27
1919240,21
1919868,16
1920500,26
1921128,18
1921744,11
1922372,20
1922996,10
1923620,16
1924248,28
1924872,44
1925500,42
1926124,39
1926748,47
1927376,44
1927992,43
1928620,30
1929252,10
1929872,12
1930500,13
1931124,32
1931756,31
1932384,22
1933004,16
1933632,21
1934256,17
1934880,26
1935508,22
1936128,16
1936756,15
1937380,16
1938004,11
1938632,13
1939252,11
1939880,14
1940508,33
1941128,29
1941756,38
1942380,45
1943012,44
1943644,30
1944264,21
1944892,15
1945516,35
1946144,36
1946772,21
1947392,17
1948020,14
1948644,19
1949268,11
1949896,18
1950520,23
1951148,13
1951780,32
1952400,40
1953028,25
1953652,15
1954280,11
1954912,12
1955528,30
1956160,19
1956784,22
1957408,43
1958036,52
1958656,59
1959284,47
1959908,21
1960532,16
1961164,20
1961784,47
1962412,50
1963044,30
1963664,11
1964292,13
1964916,13
1965548,17
1966180,22
1966800,23
1967428,37
1968052,35
1968672,21
1969300,25
1969920,24
1970548,26
1971172,11
1971796,10
1972424,10
1973048,11
1973676,19
1974304,32
1974928,48
1975556,75
1976180,69
1976812,61
1977440,41
1978056,16
1978688,15
1979312,11
1979936,17
1980564,28
1981184,43
1981812,42
1982436,36
1983060,25
1983692,10
1984312,11
1984940,15
1985572,14
1986192,17
1986820,14
1987444,13
1988072,12
1988704,10
1989320,11
1989948,16
1990572,19
1991196,26
1991828,40
1992448,41
1993076,30
1993700,23
1994324,15
1994956,22
1995576,28
1996204,13
1996836,16
1997456,41
1998084,16
1998708,36
1999336,55
1999968,45
2000584,13
2001216,19
2001840,20
2002460,21
2003092,22
2003712,21
2004340,15
2004964,10
2005588,15
2006216,11
2006840,21
2007468,33
2008100,44
2008720,50
2009348,48
2009972,32
2010600,25
2011228,26
2011848,16
2012476,13
2013100,17
2013724,26
2014356,32
2014976,26
2015604,25
2016228,23
2016852,22
2017480,21
2018104,29
2018732,31
2019364,24
2019984,17
2020612,16
2021236,15
2021868,13
2022496,10
2023120,20
2023748,17
2024372,29
2024996,61
2025624,50
2026248,43
2026876,58
2027500,63
2028124,52
2028756,25
2029380,15
2030008,16
2030640,26
2031260,18
2031888,13
2032512,13
2033140,15
2033772,10
2034392,13
2035024,20
2035648,21
2036272,21
2036900,16
2037520,12
2038152,11
2038776,12
2039400,15
2040028,20
2040652,29
2041284,35
2041912,30
2042536,20
2043168,21
2043792,27
2044420,16
2045052,18
2045672,25
2046304,19
2046928,12
2047552,11
2048184,11
2048796,12
2049424,14
2050052,18
2050668,12
2051296,25
2051920,54
2052548,43
2053176,17
2053792,16
2054420,17
2055040,37
2055668,35
2056296,25
2056912,27
2057544,34
2058164,35
2058788,35
2059416,38
2060032,39
2060664,27
2061284,19
2061908,15
2062536,13
2063152,13
2063784,13
2064412,24
2065028,32
2065660,38
2066280,37
2066912,27
2067540,30
2068160,38
2068788,49
2069412,23
2070032,17
2070664,24
2071280,17
2071908,11
2072532,10
2073156,26
2073784,23
2074404,22
2075036,29
2075664,49
2076280,79
2076908,74
2077532,53
2078160,35
2078788,23
2079408,12
2080036,12
2080656,27
2081284,46
2081912,25
2082528,27
2083156,38
2083780,34
2084404,24
2085032,27
2085648,21
2086276,17
2086900,31
2087524,41
2088152,15
2088776,16
2089404,17
2090032,15
2090656,20
2091284,19
2091904,15
2092536,31
2093164,44
2093784,52
2094412,47
2095032,28
2095656,20
2096284,12
2096904,15
2097532,29
2098156,31
2098780,24
2099408,25
2100024,26
2100652,20
2101280,31
2101896,31
2102524,37
2103148,42
2103776,41
2104404,18
2105020,11
2105652,19
2106276,51
2106896,61
2107528,52
2108144,38
2108772,50
2109396,53
2110024,24
2110652,25
2111272,25
2111900,24
2112532,16
2113152,19
2113780,11
2114404,24
2115032,32
2115660,43
2116280,40
2116908,25
2117532,13
2118156,18
2118784,15
2119408,16
2120036,17
2120660,17
2121284,16
2121912,20
2122528,23
2123160,14
2123788,13
2124408,11
2125036,27
2125660,37
2126288,51
2126920,45
2127536,42
2128164,35
2128788,20
2129412,14
2130044,24
2130660,33
2131292,34
2131912,40
2132536,43
2133164,24
2133784,10
2134412,10
2135036,23
2135664,36
2136292,30
2136916,15
2137548,30
2138176,42
2138800,28
2139428,10
2140052,11
2140676,20
2141308,35
2141928,58
2142556,65
2143180,38
2143804,14
2144436,18
2145056,17
2145684,23
2146312,22
2146936,12
2147564,17
2148188,22
2148820,24
2149448,15
2150064,10
2150696,19
2151320,35
2151944,38
2152572,39
2153192,23
2153820,17
2154444,11
2155068,20
2155696,26
2156312,25
2156940,27
2157564,20
2158192,27
2158820,25
2159444,15
2160076,21
2160704,33
2161320,52
2161948,56
2162572,25
2163200,27
2163828,40
2164448,41
2165076,28
2165700,25
2166324,47
2166956,38
2167576,16
2168204,15
2168828,20
2169456,23
2170084,15
2170708,15
2171340,18
2171968,23
2172588,30
2173216,34
2173840,37
2174468,29
2175100,28
2175720,43
2176352,51
2176972,47
2177596,45
2178224,31
2178844,18
2179472,27
2180096,24
2180720,19
2181348,21
2181972,29
2182600,25
2183228,24
2183848,18
2184476,14
2185100,16
2185728,17
2186360,21
2186976,15
2187604,12
2188228,13
2188852,11
2189480,23
2190096,26
2190728,28
2191352,31
2191976,31
2192608,35
2193228,26
2193860,18
2194488,19
2195112,17
2195740,17
2196368,14
2196996,10
2197628,14
2198248,30
2198876,33
2199504,37
2200128,27
2200756,32
2201376,38
2202008,27
2202636,16
2203256,18
2203884,18
2204508,15
2205136,17
2205768,41
2206384,35
2207016,26
2207640,28
2208264,34
2208892,32
2209512,16
2210140,31
2210764,17
2211388,43
2212020,34
2212640,13
2213268,19
2213896,37
2214520,38
2215148,15
2215772,19
2216400,11
2217032,31
2217648,27
2218276,35
2218900,23
2219528,17
2220156,14
2220776,16
2221408,10
2222032,20
2222656,25
2223284,24
2223904,26
2224536,21
2225164,28
2225784,38
2226412,30
2227036,29
2227668,44
2228300,45
2228920,23
2229548,24
2230172,45
2230796,26
2231428,12
2232048,12
2232676,24
2233300,27
2233924,24
2234556,18
2235176,15
2235808,15
2236436,22
2237056,38
2237688,25
2238312,11
2238944,13
2239572,11
2240192,44
2240820,67
2241444,60
2242068,49
2242696,34
2243320,21
2243948,18
2244572,23
2245196,21
2245824,11
2246448,18
2247076,21
2247708,14
2248328,11
2248956,11
2249580,10
2250212,11
2250844,21
2251464,27
2252096,23
2252720,20
2253344,20
2253972,17
2254592,17
2255220,20
2255844,11
2256468,15
2257096,13
2257712,42
2258340,66
2258972,65
2259592,61
2260220,52
2260844,41
2261472,26
2262100,16
2262720,19
2263348,28
2263972,13
2264596,15
2265228,32
2265848,34
2266476,36
2267100,30
2267724,23
2268352,18
2268976,17
2269604,17
2270236,15
2270856,15
2271484,10
2272108,23
2272740,39
2273368,13
2273992,27
2274620,55
2275244,57
2275868,38
2276496,48
2277120,26
2277748,26
2278372,23
2279000,25
2279628,23
2280248,13
2280876,15
2281508,24
2282128,28
2282756,30
2283384,21
2284012,13
2284644,18
2285264,31
2285892,40
2286516,27
2287140,15
2287772,24
2288392,26
2289020,16
2289648,14
2290268,17
2290900,23
2291524,27
2292156,42
2292784,54
2293408,50
2294040,37
2294660,26
2295292,15
2295920,13
2296540,19
2297168,37
2297792,37
2298416,23
2299044,17
2299664,15
2300292,18
2300916,36
2301540,52
2302172,40
2302796,20
2303428,19
2304060,39
2304676,45
2305304,37
2305928,33
2306556,27
2307188,18
2307808,22
2308436,35
2309060,25
2309684,23
2310312,19
2310936,16
2311564,16
2312188,22
2312816,19
2313444,10
2314068,26
2314700,42
2315328,31
2315948,16
2316576,15
2317200,11
2317828,11
2318460,14
2319080,16
2319708,17
2320332,18
2320956,14
2321584,29
2322208,23
2322836,13
2323468,14
2324088,13
2324716,11
2325340,38
2325972,47
2326600,30
2327216,21
2327848,27
2328472,27
2329096,38
2329724,20
2330344,18
2330972,44
2331596,46
2332220,28
2332852,24
2333472,25
2334100,23
2334732,26
2335352,20
2335980,21
2336608,32
2337236,33
2337868,14
2338488,11
2339116,23
2339740,31
2340368,34
2340996,36
2341616,25
2342244,36
2342868,52
2343492,50
2344124,56
2344744,45
2345372,30
2346004,15
2346624,11
2347252,20
2347876,25
2348508,23
2349140,20
2349760,21
2350388,21
2351016,28
2351640,32
2352272,21
2352888,15
2353516,17
2354144,15
2354768,10
2355400,16
2356016,25
2356644,21
2357276,18
2357896,57
2358524,64
2359148,58
2359780,54
2360412,42
2361032,32
2361660,16
2362284,17
2362908,19
2363540,22
2364160,26
2364788,31
2365416,28
2366040,19
2366668,16
2367288,20
2367920,23
2368548,18
2369168,17
2369796,15
2370420,15
2371052,11
2371680,12
2372304,21
2372936,19
2373560,20
2374184,13
2374816,41
2375432,73
2376064,76
2376688,65
2377308,54
2377940,42
2378564,31
2379192,23
2379824,10
2380444,13
2381072,25
2381696,25
2382328,18
2382956,28
2383576,47
2384204,52
2384828,45
2385452,26
2386084,14
2386704,21
2387332,21
2387956,17
2388580,10
2389212,11
2389836,10
2390468,12
2391096,14
2391716,26
2392348,44
2392972,53
2393600,45
2394232,42
2394852,37
2395480,31
2396108,29
2396732,11
2397364,20
2397984,38
2398616,48
2399244,28
2399864,17
2400496,22
2401120,30
2401748,35
2402380,24
2403000,16
2403628,15
2404252,15
2404876,16
2405508,10
2406128,11
2406760,17
2407380,24
2408004,39
2408632,54
2409256,68
2409884,60
2410516,27
2411136,22
2411768,17
2412392,18
2413020,20
2413652,18
2414272,28
2414900,14
2415528,20
2416152,33
2416780,39
2417400,38
2418028,30
2418652,19
2419276,15
2419904,15
2420528,17
2421156,10
2421788,10
2422408,11
2423036,11
2423660,12
2424292,11
2424924,11
2425544,22
2426176,50
2426800,63
2427424,55
2428052,24
2428672,16
2429304,15
2429928,15
2430552,28
2431184,39
2431800,33
2432432,13
2433064,14
2433680,17
2434308,11
2434932,16
2435564,17
2436192,22
2436816,18
2437444,12
2438068,10
2438692,11
2439324,10
2439944,13
2440576,40
2441196,55
2441824,53
2442452,51
2443076,28
2443708,29
2444336,30
2444960,29
2445588,26
2446212,10
2446844,16
2447476,29
2448096,33
2448724,35
2449348,42
2449972,29
2450604,18
2451224,21
2451852,21
2452476,26
2453104,16
2453736,27
2454360,12
2454992,12
2455624,14
2456240,11
2456872,21
2457496,44
2458120,45
2458748,45
2459368,51
2459996,49
2460620,48
2461244,22
2461872,15
2462488,10
2463120,12
2463744,16
2464368,10
2464996,29
2465620,41
2466248,52
2466876,57
2467496,65
2468124,44
2468748,18
2469380,26
2470008,28
2470624,19
2471256,12
2471880,19
2472500,34
2473132,34
2473752,21
2474380,19
2475004,21
2475632,45
2476260,61
2476884,67
2477516,54
2478144,20
2478768,17
2479396,11
2480020,15
2480644,26
2481272,40
2481896,30
2482524,31
2483148,35
2483772,22
2484404,18
2485024,27
2485652,30
2486284,31
2486904,29
2487532,12
2488156,11
2488788,11
2489416,18
2490040,33
2490668,51
2491292,55
2491916,60
2492548,56
2493168,48
2493796,16
2494420,17
2495044,21
2495676,42
2496296,44
2496924,17
2497556,28
2498176,50
2498804,49
2499428,42
2500056,26
2500688,34
2501304,26
2501936,13
2502560,17
2503184,16
2503812,19
2504432,27
2505060,18
2505684,13
2506308,31
2506940,26
2507560,30
2508192,49
2508820,58
2509440,67
2510068,51
2510692,22
2511320,25
2511952,20
2512572,16
2513204,10
2513828,24
2514452,43
2515080,44
2515700,48
2516328,55
2516952,43
2517580,11
2518208,20
2518832,18
2519464,15
2520092,19
2520712,14
2521340,14
2521968,23
2522596,20
2523228,18
2523848,17
2524476,16
2525104,35
2525728,69
2526356,64
2526976,40
2527608,45
2528232,37
2528856,19
2529484,14
2530104,31
2530736,38
2531364,40
2531984,35
2532616,35
2533240,39
2533872,35
2534500,41
2535120,47
2535748,31
2536376,16
2537000,27
2537628,23
2538248,19
2538876,37
2539504,31
2540128,13
2540760,37
2541384,74
2542016,104
2542696,96
2543312,71
2543944,53
2544568,39
2545192,25
2545824,11
2546440,32
2547072,19
2547696,16
2548320,20
2548952,37
2549576,52
2550208,20
2550836,11
2551456,17
2552088,15
2552712,15
2553344,18
2553972,18
2554592,26
2555224,12
2555848,14
2556472,21
2557104,31
2557724,37
2558356,44
2558988,55
2559608,47
2560244,29
2560864,21
2561492,19
2562120,15
2562736,11
2563364,10
2563984,28
2564612,44
2565244,50
2565860,39
2566492,24
2567112,12
2567736,12
2568364,26
2568980,25
2569612,15
2570232,16
2570856,25
2571484,15
2572108,17
2572736,23
2573364,21
2573984,52
2574612,67
2575236,73
2575864,56
2576496,43
2577112,47
2577740,33
2578364,16
2578988,19
2579620,20
2580240,27
2580868,42
2581492,37
2582116,28
2582744,18
2583368,22
2583996,29
2584624,20
2585248,14
2585876,15
2586500,25
2587128,17
2587760,21
2588376,33
2589004,27
2589628,16
2590252,15
2590880,20
2591504,31
2592132,34
2592756,42
2593380,47
2594008,33
2594632,20
2595260,17
2595888,14
2596512,10
2597140,17
2597764,31
2598396,39
2599024,43
2599648,43
2600276,37
2600900,26
2601524,19
2602156,17
2602776,17
2603404,19
2604028,20
2604656,22
2605284,31
2605908,50
2606540,46
2607168,27
2607788,11
2608416,15
2609040,39
2609668,37
2610300,31
2610920,16
2611548,53
2612172,42
2612796,13
2613428,22
2614048,16
2614676,19
2615308,34
2615928,28
2616560,23
2617180,24
2617812,18
2618444,13
2619064,27
2619692,21
2620316,16
2620940,10
2621572,20
2622192,35
2622820,37
2623444,34
2624064,23
2624692,30
2625308,21
2625940,26
2626568,31
2627184,31
2627812,23
2628436,15
2629064,14
2629692,14
2630312,23
2630940,28
2631564,34
2632192,43
2632820,37
2633440,18
2634068,11
2634692,14
2635312,20
2635944,19
2636560,21
2637192,20
2637812,15
2638436,17
2639064,14
2639688,12
2640316,31
2640944,50
2641568,78
2642196,78
2642820,73
2643448,58
2644076,42
2644696,37
2645324,23
2645944,11
2646568,35
2647196,38
2647816,32
2648444,36
2649068,31
2649692,21
2650320,11
2650936,13
2651564,28
2652192,35
2652816,25
2653444,14
2654064,19
2654696,31
2655324,27
2655944,15
2656572,19
2657196,17
2657820,21
2658452,30
2659072,45
2659700,52
2660324,40
2660948,21
2661576,16
2662200,20
2662828,20
2663456,25
2664076,24
2664704,12
2665328,15
2665956,18
2666584,18
2667200,16
2667828,24
2668452,31
2669076,23
2669704,18
2670320,16
2670952,32
2671576,25
2672200,13
2672828,10
2673444,11
2674076,14
2674704,28
2675320,37
2675952,37
2676576,36
2677204,35
2677832,35
2678448,17
2679080,18
2679700,31
2680324,39
2680956,31
2681576,22
2682204,11
2682828,27
2683452,21
2684084,19
2684704,14
2685332,23
2685964,22
2686584,20
2687212,24
2687836,15
2688468,10
2689096,12
2689712,18
2690340,17
2690964,18
2691588,35
2692220,49
2692840,57
2693468,56
2694092,53
2694712,29
2695344,19
2695960,15
2696588,16
2697212,36
2697840,45
2698468,38
2699092,18
2699720,11
2700352,11
2700968,10
2701600,21
2702220,18
2702852,18
2703480,17
2704104,11
2704732,23
2705356,30
2705976,18
2706608,10
2707224,10
2707852,26
2708476,43
2709100,43
2709728,28
2710352,18
2710980,15
2711612,22
2712232,33
2712860,32
2713484,15
2714116,10
2714744,15
2715368,13
2715996,11
2716620,11
2717244,10
2717872,18
2718496,23
2719124,15
2719756,16
2720376,16
2721004,12
2721628,11
2722256,11
2722884,16
2723504,19
2724132,11
2724756,31
2725380,57
2726012,54
2726632,39
2727260,15
2727884,16
2728508,23
2729136,11
2729752,35
2730380,27
2731004,10
2731632,16
2732260,15
2732884,9
2733460,11
2734092,29
2734712,29
2735340,23
2735964,23
2736596,28
2737224,24
2737848,19
2738476,34
2739100,35
2739728,11
2740356,10
2740976,32
2741604,28
2742228,24
2742852,51
2743480,59
2744104,53
2744732,44
2745364,34
2745984,17
2746612,10
2747236,14
2747864,23
2748496,22
2749112,22
2749744,28
2750368,38
2750992,37
2751620,31
2752240,33
2752868,25
2753492,18
2754116,14
2754744,38
2755368,38
2755996,13
2756628,44
2757248,18
2757876,15
2758500,61
2759132,66
2759760,22
2760384,22
2761012,22
2761636,17
2762260,20
2762888,24
2763512,22
2764144,13
2764768,16
2765392,13
2766020,26
2766640,31
2767268,33
2767900,20
2768520,13
2769148,16
2769772,15
2770400,16
2771032,12
2771648,15
2772280,14
2772904,12
2773528,11
2774156,16
2774776,15
2775404,47
2776028,61
2776652,57
2777284,62
2777904,50
2778532,33
2779164,10
2779784,26
2780412,14
2781040,10
2781668,11
2782296,16
2782920,23
2783548,27
2784176,29
2784796,27
2785428,43
2786048,46
2786676,30
2787300,15
2787924,17
2788552,10
2789168,31
2789800,58
2790428,72
2791048,70
2791676,63
2792300,50
2792932,32
2793560,14
2794180,17
2794808,17
2795432,20
2796056,12
2796684,12
2797304,14
2797932,20
2798556,27
2799180,27
2799812,27
2800432,24
2801060,23
2801692,26
2802312,20
2802940,20
2803564,15
2804196,11
2804824,15
2805440,10
2806072,21
2806696,11
2807320,11
2807948,16
2808568,33
2809196,62
2809820,57
2810444,37
2811076,28
2811696,37
2812324,31
2812956,11
2813576,37
2814208,44
2814832,52
2815460,33
2816092,15
2816708,11
2817340,14
2817960,15
2818584,17
2819212,18
2819832,15
2820460,25
2821084,12
2821708,26
2822336,12
2822960,52
2823588,69
2824220,26
2824840,45
2825468,87
2826092,79
2826724,64
2827352,80
2827968,58
2828600,29
2829224,12
2829848,10
2830476,14
2831096,21
2831724,19
2832348,19
2832972,17
2833600,17
2834224,33
2834852,49
2835484,42
2836104,26
2836732,20
2837356,12
2837988,14
2838616,23
2839240,27
2839868,11
2840492,12
2841116,28
2841748,38
2842368,46
2842996,54
2843620,35
2844244,25
2844872,19
2845496,21
2846124,22
2846756,16
2847376,11
2848004,9
2848576,16
2849204,11
2849836,10
2850456,11
2851084,22
2851708,26
2852340,25
2852972,23
2853592,25
2854224,23
2854848,15
2855472,15
2856100,25
2856720,18
2857348,11
2857976,14
2858600,27
2859228,33
2859852,33
2860484,29
2861116,30
2861736,21
2862368,17
2862992,16
2863620,13
2864252,10
2864872,13
2865500,21
2866128,37
2866752,35
2867384,21
2868000,26
2868628,36
2869256,29
2869876,18
2870504,17
2871128,15
2871756,17
2872384,30
2873008,39
2873636,38
2874260,31
2874884,33
2875516,43
2876136,43
2876764,31
2877392,18
2878016,24
2878644,22
2879264,14
2879892,14
2880524,17
2881140,17
2881772,17
2882392,32
2883024,46
2883652,39
2884272,41
2884900,45
2885524,79
2886148,39
2886780,34
2887400,61
2888028,53
2888652,54
2889272,55
2889904,57
2890520,40
2891148,28
2891772,17
2892400,16
2893028,28
2893652,31
2894280,31
2894912,23
2895528,25
2896156,11
2896780,16
2897408,39
2898040,28
2898656,21
2899284,43
2899908,50
2900532,34
2901160,22
2901776,14
2902408,15
2903032,25
2903656,17
2904284,13
2904908,17
2905540,11
2906172,10
2906792,12
2907424,21
2908048,50
2908676,39
2909308,31
2909928,46
2910556,37
2911180,32
2911808,20
2912436,10
2913056,11
2913684,11
2914316,13
2914936,15
2915564,13
2916192,15
2916820,26
2917448,33
2918072,32
2918704,25
2919324,20
2919948,18
2920580,18
2921200,18
2921828,11
2922452,22
2923076,17
2923708,10
2924328,14
2924956,25
2925588,48
2926208,51
2926836,42
2927460,31
2928092,19
2928720,15
2929344,26
2929972,42
2930596,49
2931220,23
2931848,20
2932472,13
2933100,9
2933676,18
2934304,36
2934936,15
2935552,32
2936184,39
2936808,30
2937432,19
2938060,13
2938680,13
2939312,12
2939940,16
2940560,28
2941188,40
2941816,40
2942444,43
2943076,46
2943696,35
2944328,31
2944952,26
2945576,15
2946204,36
2946824,52
2947452,35
2948076,29
2948704,24
2949332,19
2949956,13
2950584,13
2951216,16
2951832,21
2952460,25
2953084,45
2953716,53
2954344,14
2954964,10
2955592,11
2956216,25
2956840,55
2957468,53
2958088,59
2958716,79
2959340,68
2959968,49
2960596,34
2961220,17
2961852,17
2962480,17
2963096,11
2963728,11
2964352,21
2964980,28
2965612,34
2966232,25
2966860,28
2967488,40
2968112,42
2968740,21
2969360,17
2969992,18
2970612,12
2971236,15
2971864,15
2972488,12
2973120,10
2973748,10
2974368,26
2974996,43
2975620,37
2976252,27
2976880,25
2977496,19
2978128,29
2978752,17
2979376,13
2980004,19
2980624,38
2981252,22
2981876,16
2982500,18
2983128,11
2983752,21
2984384,19
2985012,19
2985632,19
2986260,16
2986884,15
2987516,22
2988144,35
2988768,16
2989400,14
2990024,17
2990648,23
2991276,14
2991896,25
2992528,35
2993152,30
2993776,32
2994404,27
2995028,34
2995660,26
2996292,10
2996912,24
2997540,47
2998164,49
2998792,62
2999420,48
3000040,21
3000668,13
3001292,17
3001916,20
3002548,22
3003168,27
3003800,20
3004428,40
3005048,44
3005676,45
3006304,25
3006932,14
3007564,10
3008184,29
3008812,47
3009436,62
3010060,52
3010692,40
3011312,33
3011940,16
3012564,17
3013188,26
3013820,30
3014440,35
3015068,33
3015700,14
3016320,12
3016948,23
3017576,30
3018204,27
3018836,16
3019456,16
3020088,16
3020712,13
3021336,18
3021968,19
3022588,10
3023216,11
3023840,13
3024464,23
3025092,33
3025712,49
3026344,55
3026972,30
3027592,17
3028224,19
3028848,17
3029476,27
3030108,34
3030728,18
3031360,24
3031984,52
3032608,59
3033240,49
3033856,48
3034484,35
3035112,15
3035736,16
3036368,31
3036984,19
3037612,11
3038244,16
3038864,11
3039496,12
3040120,19
3040748,29
3041380,43
3042000,55
3042628,56
3043252,57
3043876,47
3044508,30
3045128,15
3045756,13
3046384,25
3047008,36
3047640,26
3048264,33
3048892,21
3049524,13
3050144,22
3050776,11
3051400,21
3052032,21
3052660,18
3053280,17
3053908,14
3054536,11
3055160,12
3055792,15
3056408,16
3057040,15
3057668,17
3058288,17
3058920,22
3059544,30
3060172,23
3060804,16
3061424,15
3062056,15
3062680,13
3063304,11
3063936,20
3064552,46
3065184,28
3065808,23
3066432,18
3067064,10
3067680,11
3068312,15
3068944,21
3069560,18
3070192,16
3070820,11
3071452,11
3072084,19
3072700,13
3073332,20
3073952,23
3074576,38
3075204,83
3075824,84
3076452,58
3077076,41
3077700,23
3078332,16
3078952,24
3079580,32
3080212,48
3080832,61
3081460,39
3082084,13
3082716,12
3083344,28
3083960,17
3084592,15
3085216,20
3085840,37
3086468,31
3087088,18
3087716,36
3088340,41
3088964,44
3089592,24
3090216,11
3090844,11
3091476,38
3092096,53
3092724,61
3093348,34
3093980,21
3094612,15
3095232,18
3095860,31
3096488,68
3097108,55
3097740,14
3098360,11
3098988,10
3099612,24
3100236,17
3100868,13
3101488,18
3102116,15
3102748,17
3103368,17
3103996,11
3104624,16
3105252,21
3105884,10
3106504,11
3107136,11
3107760,50
3108384,67
3109016,50
3109632,23
3110264,17
3110888,18
3111512,21
3112144,34
3112764,23
3113392,15
3114024,34
3114644,40
3115272,30
3115896,29
3116524,31
3117156,12
3117776,17
3118404,15
3119028,14
3119656,16
3120284,20
3120904,17
3121532,13
3122156,11
3122784,13
3123416,11
3124036,12
3124668,36
3125296,39
3125916,38
3126544,37
3127168,39
3127796,27
3128428,21
3129048,17
3129676,18
3130300,17
3130924,10
3131556,32
3132176,69
3132808,44
3133428,13
3134056,11
3134684,47
3135312,60
3135940,34
3136572,18
3137192,32
3137824,46
3138448,42
3139076,39
3139708,26
3140328,13
3140956,18
3141584,19
3142208,18
3142836,36
3143456,56
3144088,53
3144716,38
3145336,22
3145968,13
3146592,24
3147220,16
3147852,18
3148472,23
3149104,26
3149728,32
3150352,33
3150984,39
3151600,26
3152232,22
3152856,25
3153480,20
3154112,16
3154728,12
3155356,36
3155988,48
3156608,49
3157236,44
3157864,25
3158492,33
3159124,48
3159744,62
3160376,58
3161000,29
3161624,23
3162252,12
3162872,20
3163504,32
3164128,62
3164752,52
3165384,17
3166000,12
3166632,11
3167264,13
3167880,31
3168516,26
3169140,29
3169768,35
3170400,39
3171020,15
3171652,11
3172276,25
3172900,46
3173532,68
3174152,86
3174784,55
3175408,21
3176036,16
3176664,17
3177288,15
3177916,17
3178548,15
3179168,13
3179800,12
3180424,21
3181056,17
3181684,9
3182252,21
3182888,42
3183512,40
3184136,37
3184768,30
3185384,16
3186016,37
3186640,38
3187264,29
3187892,15
3188512,17
3189144,32
3189772,36
3190392,24
3191024,15
3191648,17
3192280,39
3192912,36
3193532,21
3194164,17
3194792,18
3195416,16
3196048,15
3196668,13
3197300,12
3197924,16
3198548,27
3199180,30
3199804,39
3200436,36
3201064,23
3201680,25
3202308,45
3202932,27
3203560,16
3204188,13
3204808,23
3205436,26
3206060,11
3206680,38
3207312,45
3207928,34
3208556,16
3209180,11
3209804,23
3210432,23
3211052,16
3211680,24
3212308,14
3212928,23
3213556,20
3214180,10
3214812,23
3215440,39
3216056,16
3216688,15
3217308,15
3217932,23
3218560,28
3219184,16
3219812,38
3220436,56
3221060,31
3221692,18
3222312,11
3222944,11
3223572,10
3224192,20
3224820,29
3225444,27
3226076,59
3226704,70
3227328,43
3227956,36
3228580,37
3229204,40
3229836,23
3230456,10
3231084,21
3231708,43
3232336,48
3232964,36
3233584,24
3234212,35
3234844,39
3235464,21
3236092,16
3236716,16
3237348,17
3237976,17
3238596,29
3239224,19
3239848,25
3240472,11
3241100,10
3241720,13
3242348,22
3242972,19
3243596,35
3244228,36
3244848,41
3245476,31
3246108,24
3246728,18
3247356,54
3247980,66
3248612,67
3249244,52
3249864,13
3250492,44
3251120,40
3251744,31
3252372,36
3252992,39
3253620,32
3254248,27
3254872,17
3255500,26
3256120,24
3256752,18
3257380,14
3258000,34
3258628,31
3259252,21
3259884,46
3260516,33
3261136,26
3261768,29
3262392,50
3263016,45
3263648,15
3264264,23
3264896,45
3265520,28
3266144,11
3266772,11
3267400,11
3268028,27
3268660,25
3269280,33
3269908,53
3270536,38
3271164,12
3271796,16
3272416,31
3273048,36
3273672,36
3274296,43
3274924,55
3275544,45
3276176,36
3276808,43
3277420,30
3278048,16
3278672,17
3279300,13
3279928,19
3280548,27
3281176,23
3281796,23
3282424,28
3283052,28
3283672,18
3284300,23
3284920,34
3285544,32
3286172,22
3286792,17
3287420,15
3288040,28
3288664,16
3289292,12
3289912,13
3290540,28
3291168,46
3291784,24
3292416,28
3293036,20
3293664,28
3294296,34
3294912,25
3295540,21
3296164,22
3296788,18
3297416,32
3298032,28
3298660,16
3299284,16
3299904,11
3300532,10
3301152,13
3301780,13
3302408,16
3303028,17
3303660,22
3304284,17
3304912,11
3305540,17
3306160,13
3306788,25
3307412,45
3308036,54
3308668,60
3309288,51
3309916,28
3310540,16
3311164,19
3311792,16
3312416,13
3313044,11
3313676,10
3314296,11
3314924,31
3315548,29
3316180,34
3316808,36
3317424,21
3318052,21
3318676,20
3319300,16
3319932,18
3320552,13
3321180,14
3321804,11
3322428,12
3323056,15
3323672,23
3324304,29
3324932,14
3325552,18
3326180,33
3326804,65
3327436,57
3328064,35
3328684,21
3329312,40
3329932,21
3330564,14
3331192,10
3331808,51
3332436,67
3333060,35
3333684,12
3334312,20
3334928,48
3335560,53
3336184,37
3336804,33
3337432,37
3338056,20
3338688,38
3339316,62
3339936,52
3340564,24
3341188,18
3341816,24
3342448,37
3343064,40
3343692,32
3344316,26
3344940,21
3345568,12
3346188,28
3346816,27
3347440,17
3348064,16
3348692,20
3349316,29
3349944,41
3350572,42
3351192,27
3351820,16
3352448,17
3353076,20
3353708,17
3354328,14
3354956,10
3355580,10
3356204,10
3356832,17
3357456,39
3358084,50
3358708,80
3359332,67
3359964,39
3360588,37
3361216,26
3361848,18
3362464,11
3363092,24
3363716,41
3364344,48
3364972,26
3365592,12
3366220,15
3366844,36
3367468,28
3368096,21
3368712,15
3369340,17
3369964,19
3370588,16
3371216,11
3371832,18
3372464,24
3373092,40
3373712,45
3374340,35
3374964,35
3375596,21
3376224,20
3376844,48
3377472,43
3378096,42
3378720,44
3379348,16
3379964,38
3380596,57
3381216,31
3381840,18
3382468,17
3383088,13
3383716,11
3384344,20
3384960,33
3385588,28
3386212,22
3386844,17
3387472,14
3388088,14
3388720,23
3389344,29
3389968,27
3390596,23
3391216,40
3391844,52
3392468,51
3393092,35
3393720,24
3394344,16
3394972,20
3395604,12
3396224,11
3396852,16
3397476,21
3398104,17
3398736,27
3399352,43
3399980,25
3400604,17
3401228,15
3401860,14
3402480,16
3403108,17
3403732,26
3404356,20
3404984,12
3405608,11
3406236,15
3406864,12
3407484,14
3408112,34
3408736,38
3409364,28
3409992,15
3410616,19
3411244,25
3411868,20
3412492,14
3413120,11
3413736,21
3414368,12
3414992,16
3415616,11
3416244,15
3416864,18
3417492,11
3418124,22
3418744,15
3419372,17
3419996,16
3420628,12
3421260,44
3421880,67
3422508,21
3423132,31
3423760,54
3424388,43
3425008,24
3425636,25
3426260,41
3426884,50
3427512,53
3428136,48
3428764,24
3429396,12
3430016,17
3430648,28
3431268,41
3431900,29
3432528,29
3433152,20
3433780,14
3434404,16
3435028,15
3435660,15
3436280,17
3436908,16
3437532,15
3438156,33
3438788,11
3439408,20
3440036,19
3440668,11
3441284,23
3441916,53
3442540,68
3443168,68
3443796,48
3444416,21
3445044,15
3445668,17
3446292,11
3446920,20
3447544,39
3448172,43
3448796,33
3449420,38
3450052,40
3450672,31
3451300,57
3451932,80
3452552,47
3453180,18
3453808,36
3454436,54
3455068,42
3455688,42
3456320,59
3456940,50
3457564,25
3458196,28
3458816,36
3459444,55
3460068,47
3460692,41
3461320,27
3461936,17
3462568,11
3463196,10
3463816,15
3464444,31
3465068,43
3465696,18
3466328,18
3466944,21
3467572,15
3468196,23
3468820,28
3469448,21
3470072,23
3470700,14
3471328,25
3471952,19
3472584,11
3473200,11
3473828,19
3474460,36
3475080,50
3475712,45
3476336,33
3476964,22
3477596,22
3478216,23
3478848,17
3479472,43
3480096,76
3480728,79
3481344,49
3481976,13
3482596,33
3483220,31
3483848,38
3484472,22
3485100,13
3485732,16
3486352,17
3486980,17
3487604,11
3488236,27
3488864,29
3489480,21
3490112,21
3490736,21
3491356,28
3491988,37
3492608,43
3493236,30
3493860,25
3494484,17
3495112,16
3495736,14
3496364,9
3496936,21
3497568,25
3498196,28
3498824,34
3499452,27
3500084,12
3500704,21
3501336,31
3501960,21
3502592,16
3503220,17
3503840,13
3504468,31
3505096,16
3505720,15
3506348,11
3506968,14
3507600,14
3508220,32
3508848,25
3509476,27
3510100,29
3510732,26
3511364,20
3511984,20
3512616,24
3513240,29
3513864,12
3514492,17
3515112,23
3515744,21
3516368,16
3516992,40
3517624,62
3518240,68
3518872,57
3519500,28
3520120,19
3520752,22
3521372,29
3522004,46
3522632,52
3523256,62
3523884,33
3524508,22
3525128,61
3525760,74
3526376,61
3527004,29
3527628,18
3528252,17
3528884,12
3529504,18
3530132,32
3530764,56
3531384,63
3532012,38
3532640,27
3533268,72
3533900,61
3534520,16
3535148,21
3535772,28
3536396,35
3537028,36
3537648,25
3538276,11
3538900,24
3539524,17
3540152,18
3540776,39
3541408,47
3542036,33
3542656,32
3543288,40
3543908,41
3544540,30
3545172,22
3545792,22
3546420,13
3547044,14
3547668,11
3548300,28
3548920,21
3549548,17
3550172,10
3550800,12
3551428,18
3552048,37
3552676,46
3553308,40
3553928,13
3554556,13
3555184,26
3555812,17
3556444,21
3557064,16
3557696,21
3558320,37
3558944,37
3559576,64
3560196,54
3560824,41
3561448,45
3562072,37
3562704,17
3563320,10
3563952,29
3564580,41
3565200,50
3565828,65
3566452,60
3567084,23
3567712,14
3568336,19
3568964,21
3569588,16
3570216,17
3570844,13
3571464,15
3572092,13
3572720,11
3573344,10
3573972,13
3574600,31
3575228,58
3575860,82
3576480,77
3577108,58
3577736,42
3578368,21
3578996,12
3579616,13
3580248,27
3580872,31
3581496,25
3582128,31
3582744,20
3583376,23
3584008,34
3584624,46
3585252,22
3585876,17
3586508,15
3587136,18
3587752,16
3588384,11
3589008,11
3589636,17
3590268,24
3590888,21
3591516,16
3592140,51
3592768,48
3593396,12
3594016,32
3594648,21
3595276,33
3595896,30
3596528,22
3597152,34
3597780,16
3598412,20
3599032,11
3599664,24
3600288,11
3600912,18
3601540,15
3602160,18
3602788,15
3603412,19
3604036,25
3604668,15
3605288,11
3605916,11
3606544,12
3607160,19
3607792,31
3608416,38
3609044,39
3609672,31
3610296,19
3610924,16
3611544,14
3612168,13
3612800,13
3613416,37
3614044,60
3614668,48
3615292,48
3615924,42
3616544,13
3617172,40
3617804,14
3618424,22
3619052,16
3619676,21
3620308,29
3620936,13
3621552,13
3622184,23
3622808,20
3623432,11
3624060,25
3624680,63
3625308,83
3625932,74
3626556,56
3627184,36
3627808,24
3628436,18
3629068,10
3629688,13
3630316,20
3630940,33
3631572,41
3632204,43
3632824,40
3633452,29
3634076,20
3634700,18
3635332,16
3635952,21
3636580,18
3637204,13
3637828,11
3638456,27
3639080,38
3639708,41
3640340,30
3640960,31
3641588,19
3642212,28
3642844,43
3643476,30
3644096,31
3644724,20
3645352,34
3645976,53
3646604,23
3647224,16
3647852,14
3648480,18
3649100,27
3649732,32
3650352,33
3650980,27
3651612,40
3652232,27
3652860,21
3653484,32
3654116,41
3654744,36
3655368,23
3655996,13
3656624,25
3657248,45
3657876,52
3658496,42
3659124,21
3659752,18
3660376,18
3661008,25
3661624,32
3662252,12
3662884,19
3663504,14
3664136,29
3664760,44
3665388,36
3666020,18
3666640,15
3667268,14
3667892,22
3668516,20
3669148,18
3669768,18
3670396,17
3671024,18
3671648,24
3672280,20
3672904,15
3673536,17
3674164,22
3674784,37
3675416,61
3676040,56
3676672,32
3677300,16
3677920,32
3678552,27
3679176,13
3679800,32
3680432,12
3681048,36
3681680,16
3682308,12
3682928,13
3683556,16
3684184,23
3684812,23
3685444,29
3686064,31
3686696,27
3687316,20
3687940,11
3688572,10
3689192,11
3689820,15
3690444,38
3691068,60
3691696,57
3692312,41
3692944,53
3693572,40
3694192,22
3694820,17
3695444,29
3696076,15
3696704,12
3697320,16
3697952,29
3698576,37
3699204,31
3699832,16
3700456,11
3701084,16
3701708,23
3702332,21
3702964,18
3703584,21
3704216,12
3704844,14
3705464,17
3706096,14
3706720,17
3707348,37
3707980,52
3708600,45
3709228,39
3709856,43
3710480,27
3711108,26
3711728,21
3712360,11
3712984,10
3713604,24
3714236,27
3714856,29
3715484,19
3716116,10
3716736,11
3717368,33
3717988,30
3718620,15
3719252,18
3719872,20
3720500,28
3721124,13
3721748,14
3722380,32
3723000,18
3723628,20
3724256,31
3724880,11
3725508,42
3726128,75
3726756,83
3727388,82
3728008,85
3728636,48
3729260,19
3729892,16
3730520,18
3731140,21
3731772,26
3732396,25
3733020,27
3733652,25
3734272,19
3734904,15
3735528,15
3736152,16
3736784,17
3737400,18
3738032,17
3738660,11
3739280,15
3739908,13
3740532,18
3741164,21
3741796,22
3742416,17
3743044,15
3743672,23
3744296,35
3744924,25
3745544,21
3746172,22
3746800,25
3747424,39
3748052,36
3748676,29
3749308,33
3749936,30
3750560,18
3751188,23
3751812,26
3752444,24
3753076,18
3753696,19
3754324,24
3754952,33
3755576,19
3756204,13
3756824,33
3757452,64
3758084,74
3758704,78
3759336,69
3759960,61
3760592,47
3761224,27
3761840,17
3762472,28
3763096,34
3763720,37
3764352,31
3764972,25
3765600,22
3766224,31
3766848,37
3767480,32
3768096,22
3768728,19
3769356,22
3769976,18
3770604,17
3771228,30
3771860,12
3772492,51
3773112,71
3773744,66
3774368,59
3774992,50
3775624,23
3776244,16
3776872,22
3777496,27
3778120,33
3778748,33
3779368,25
3779996,11
3780628,26
3781248,51
3781876,52
3782504,43
3783132,28
3783764,19
3784384,17
3785012,15
3785640,29
3786264,31
3786892,20
3787512,11
3788144,10
3788768,11
3789392,9
3789972,11
3790596,11
3791228,11
3791852,17
3792476,11
3793108,14
3793732,22
3794364,34
3794992,44
3795616,54
3796244,34
3796872,13
3797500,11
3798132,32
3798752,48
3799384,55
3800008,46
3800632,21
3801260,15
3801880,19
3802508,17
3803136,16
3803760,15
3804392,13
3805016,19
3805644,19
3806276,11
3806896,11
3807528,13
3808152,27
3808776,21
3809408,15
3810024,34
3810652,49
3811276,54
3811904,55
3812532,44
3813152,32
3813784,12
3814412,10
3815032,13
3815664,11
3816288,23
3816916,26
3817548,18
3818168,25
3818800,34
3819424,32
3820048,26
3820680,13
3821300,13
3821928,13
3822556,11
3823180,30
3823812,40
3824432,42
3825064,41
3825696,36
3826312,21
3826944,15
3827568,16
3828200,24
3828832,26
3829448,21
3830080,12
3830704,45
3831328,43
3831960,27
3832580,17
3833212,15
3833836,25
3834460,33
3835092,29
3835720,21
3836348,19
3836980,35
3837600,46
3838232,25
3838856,16
3839492,12
3840124,12
3840744,28
3841372,28
3841996,37
3842620,44
3843248,37
3843864,38
3844492,27
3845116,18
3845744,11
3846372,14
3847000,15
3847628,20
3848260,34
3848880,48
3849508,29
3850136,13
3850760,13
3851388,18
3852008,19
3852636,15
3853260,23
3853884,21
3854516,18
3855136,11
3855768,10
3856396,10
3857016,26
3857644,31
3858268,36
3858900,36
3859528,29
3860152,35
3860784,20
3861408,33
3862032,32
3862660,11
3863280,14
3863908,12
3864536,15
3865160,11
3865788,10
3866408,27
3867036,32
3867668,16
3868288,21
3868916,37
3869540,24
3870172,21
3870804,16
3871424,12
3872052,13
3872676,25
3873300,29
3873932,26
3874552,15
3875184,50
3875808,66
3876432,68
3877064,70
3877680,26
3878312,29
3878940,11
3879560,11
3880192,20
3880816,24
3881444,14
3882076,10
3882696,13
3883328,17
3883952,21
3884576,25
3885208,22
3885824,24
3886456,17
3887080,15
3887704,20
3888336,22
3888952,11
3889584,13
3890216,11
3890832,17
3891464,34
3892088,32
3892716,29
3893348,27
3893968,22
3894596,20
3895220,17
3895844,15
3896476,10
3897096,15
3897724,25
3898348,30
3898976,25
3899604,25
3900228,23
3900860,36
3901488,18
3902112,20
3902744,23
3903368,18
3903996,11
3904628,11
3905248,13
3905876,13
3906504,11
3907128,35
3907756,41
3908376,52
3909008,27
3909636,16
3910256,27
3910888,31
3911512,25
3912144,16
3912772,10
3913392,19
3914024,20
3914648,16
3915272,19
3915904,25
3916520,14
3917152,11
3917776,13
3918404,25
3919032,48
3919652,28
3920284,25
3920912,23
3921536,32
3922168,33
3922792,31
3923420,21
3924052,16
3924672,27
3925304,33
3925928,31
3926552,26
3927184,28
3927800,18
3928432,31
3929056,37
3929680,18
3930308,18
3930928,37
3931560,48
3932188,43
3932808,32
3933436,35
3934060,60
3934692,38
3935320,16
3935944,25
3936576,49
3937200,48
3937824,33
3938452,14
3939072,16
3939700,11
3940328,16
3940952,38
3941580,56
3942200,53
3942832,27
3943460,15
3944080,16
3944708,17
3945332,17
3945964,10
3946592,15
3947212,29
3947840,31
3948464,37
3949088,35
3949716,21
3950336,15
3950968,19
3951592,26
3952216,27
3952844,23
3953464,24
3954092,12
3954724,12
3955344,23
3955972,53
3956600,41
3957228,19
3957860,24
3958480,28
3959108,34
3959732,39
3960360,41
3960988,22
3961608,20
3962236,12
3962864,28
3963488,40
3964116,30
3964744,12
3965372,10
3966004,19
3966624,19
3967256,18
3967880,15
3968512,17
3969140,16
3969760,25
3970388,27
3971012,28
3971640,41
3972268,11
3972888,41
3973516,61
3974144,70
3974768,57
3975396,45
3976020,25
3976652,16
3977280,20
3977904,28
3978536,18
3979160,12
3979784,13
3980416,10
3981032,23
3981664,32
3982288,31
3982912,30
3983544,16
3984160,19
3984788,17
3985420,14
3986040,17
3986668,17
3987292,11
3987924,14
3988556,14
3989176,13
3989808,11
3990432,11
3991056,15
3991684,49
3992304,68
3992936,56
3993560,43
3994188,36
3994816,30
3995440,23
3996068,10
3996700,22
3997320,21
3997952,20
3998576,25
3999208,31
3999836,28
4000456,36
4001088,39
4001708,19
4002332,17
4002964,23
4003584,31
4004212,19
4004836,10
4005460,11
4006088,10
4006712,19
4007340,20
4007972,31
4008592,52
4009220,56
4009844,43
4010476,40
4011104,24
4011724,17
4012352,10
4012976,14
4013600,23
4014232,26
4014848,20
4015476,29
4016100,30
4016724,31
4017352,29
4017976,20
4018604,17
4019236,16
4019856,17
4020484,25
4021108,26
4021736,19
4022364,22
4022984,40
4023612,54
4024236,51
4024864,45
4025492,42
4026112,35
4026740,23
4027364,16
4027988,17
4028620,20
4029240,15
4029868,10
4030500,10
4031120,19
4031752,26
4032376,24
4033004,12
4033636,17
4034256,18
4034884,15
4035508,15
4036132,19
4036764,20
4037384,12
4038012,14
4038636,11
4039260,11
4039892,22
4040516,17
4041148,18
4041776,36
4042400,42
4043028,43
4043652,50
4044284,32
4044916,21
4045536,15
4046164,10
4046788,15
4047412,20
4048044,40
4048664,45
4049292,21
4049916,15
4050544,13
4051172,14
4051800,15
4052428,23
4053060,17
4053680,16
4054312,11
4054936,12
4055560,10
4056188,10
4056808,19
4057436,18
4058064,23
4058684,32
4059316,38
4059936,35
4060568,25
4061196,30
4061816,21
4062444,10
4063072,10
4063700,15
4064332,20
4064952,16
4065584,29
4066208,29
4066832,21
4067460,24
4068080,22
4068708,17
4069336,16
4069960,16
4070592,11
4071208,11
4071836,13
4072468,13
4073088,18
4073720,21
4074344,24
4074972,29
4075604,36
4076224,34
4076856,22
4077476,27
4078104,37
4078732,15
4079352,23
4079984,16
4080608,27
4081232,41
4081864,42
4082484,44
4083116,18
4083744,12
4084368,17
4085000,13
4085624,17
4086256,18
4086884,21
4087504,23
4088136,14
4088760,11
4089384,12
4090016,15
4090632,34
4091264,55
4091892,60
4092516,73
4093148,61
4093772,47
4094404,26
4095036,15
4095656,16
4096292,25
4096912,35
4097540,47
4098168,35
4098784,22
4099412,18
4100032,14
4100656,15
4101284,32
4101900,46
4102532,45
4103152,24
4103776,13
4104404,11
4105024,22
4105656,23
4106284,36
4106900,38
4107532,27
4108152,36
4108784,61
4109412,69
4110032,48
4110660,26
4111284,16
4111908,15
4112536,12
4113152,39
4113784,27
4114404,11
4115028,10
4115660,15
4116280,20
4116908,23
4117536,30
4118160,21
4118788,19
4119412,28
4120040,27
4120668,27
4121288,12
4121916,19
4122540,10
4123164,11
4123792,20
4124408,22
4125036,40
4125660,51
4126284,34
4126916,30
4127536,31
4128164,21
4128792,34
4129408,33
4130040,13
4130660,16
4131292,21
4131920,23
4132536,31
4133168,44
4133792,29
4134412,18
4135044,20
4135664,21
4136292,18
4136916,15
4137540,24
4138172,26
4138792,20
4139420,22
4140052,22
4140672,45
4141300,56
4141924,56
4142552,51
4143184,42
4143804,25
4144432,15
4145056,20
4145680,19
4146308,15
4146928,17
4147556,16
4148180,23
4148804,40
4149432,39
4150048,36
4150676,22
4151308,19
4151928,17
4152556,32
4153180,33
4153812,12
4154440,10
4155064,28
4155692,33
4156316,18
4156940,11
4157572,10
4158192,21
4158820,39
4159444,43
4160068,38
4160696,25
4161316,19
4161948,15
4162576,22
4163192,22
4163820,20
4164444,20
4165072,29
4165704,19
4166320,21
4166948,19
4167572,20
4168200,15
4168828,16
4169448,19
4170076,19
4170700,16
4171324,11
4171952,10
4172576,19
4173204,23
4173836,22
4174456,33
4175084,41
4175708,47
4176340,45
4176968,53
4177584,41
4178212,25
4178836,19
4179460,12
4180092,15
4180712,24
4181340,21
4181964,31
4182588,39
4183216,31
4183832,29
4184464,22
4185088,14
4185712,19
4186340,17
4186964,27
4187592,28
4188224,17
4188840,13
4189468,35
4190092,52
4190720,58
4191352,50
4191968,40
4192600,45
4193224,51
4193848,32
4194476,19
4195096,17
4195724,10
4196352,24
4196976,42
4197604,51
4198228,35
4198860,19
4199488,22
4200112,27
4200740,27
4201364,30
4201988,15
4202620,23
4203240,16
4203868,12
4204492,11
4205116,17
4205744,25
4206364,25
4206992,26
4207620,15
4208240,11
4208868,17
4209492,39
4210120,44
4210752,35
4211368,33
4211996,26
4212620,13
4213248,14
4213880,10
4214496,24
4215128,35
4215752,25
4216376,26
4217004,19
4217624,37
4218252,31
4218876,18
4219504,21
4220132,19
4220756,23
4221388,12
4222020,10
4222640,19
4223268,20
4223896,13
4224520,28
4225148,42
4225768,43
4226396,26
4227020,15
4227644,19
4228272,22
4228892,15
4229520,10
4230148,11
4230768,19
4231396,22
4232020,19
4232648,19
4233280,22
4233896,35
4234524,46
4235148,35
4235780,16
4236412,22
4237032,15
4237660,11
4238284,12
4238908,11
4239540,19
4240160,31
4240788,39
4241416,38
4242040,25
4242668,21
4243292,25
4243920,45
4244552,28
4245168,17
4245800,11
4246424,11
4247048,18
4247676,11
4248296,10
4248924,19
4249548,24
4250176,26
4250804,16
4251424,17
4252052,16
4252684,15
4253304,16
4253932,12
4254556,14
4255188,10
4255820,14
4256440,10
4257068,27
4257692,28
4258316,24
4258948,36
4259568,47
4260196,38
4260820,25
4261444,15
4262072,13
4262692,11
4263320,30
4263948,30
4264568,31
4265196,35
4265820,40
4266448,27
4267076,23
4267696,22
4268324,14
4268948,22
4269572,27
4270204,22
4270824,15
4271452,13
4272076,11
4272700,11
4273328,10
4273952,22
4274580,47
4275212,56
4275832,53
4276460,31
4277084,23
4277716,20
4278344,16
4278964,18
4279592,13
4280220,10
4280844,15
4281472,24
4282088,22
4282720,17
4283344,15
4283968,25
4284596,33
4285216,37
4285844,17
4286476,17
4287096,30
4287728,25
4288352,19
4288980,16
4289608,29
4290232,43
4290860,47
4291484,48
4292108,37
4292740,18
4293360,16
4293988,15
4294616,15
4295236,17
4295868,10
4296488,13
4297116,24
4297748,46
4298368,49
4298996,43
4299624,36
4300252,14
4300884,10
4301500,15
4302132,16
4302756,22
4303380,18
4304008,40
4304624,53
4305252,17
4305876,67
4306500,80
4307132,64
4307752,49
4308380,40
4309012,35
4309632,25
4310260,26
4310888,21
4311516,16
4312148,11
4312768,11
4313396,11
4314024,17
4314648,31
4315276,27
4315896,11
4316528,11
4317152,12
4317776,17
4318404,18
4319024,18
4319656,15
4320284,17
4320904,11
4321532,18
4322156,13
4322788,10
4323416,14
4324036,16
4324664,12
4325288,25
4325912,47
4326540,52
4327160,44
4327788,24
4328412,26
4329036,28
4329664,15
4330288,19
4330916,36
4331548,32
4332168,30
4332796,28
4333420,23
4334052,11
4334684,14
4335304,17
4335936,19
4336560,28
4337184,17
4337812,11
4338432,12
4339060,19
4339688,30
4340312,39
4340940,42
4341560,48
4342192,29
4342820,20
4343440,20
4344068,19
4344692,20
4345324,18
4345952,11
4346576,17
4347204,17
4347828,10
4348452,19
4349084,19
4349704,13
4350332,17
4350960,21
4351584,22
4352216,24
4352836,19
4353468,17
4354096,13
4354712,11
4355344,17
4355968,14
4356596,18
4357228,27
4357848,33
4358476,44
4359100,47
4359724,37
4360352,34
4360976,21
4361604,15
4362228,12
4362852,18
4363480,35
4364108,37
4364736,26
4365364,21
4365984,22
4366612,11
4367236,10
4367868,15
4368500,15
4369120,17
4369748,19
4370372,20
4370996,25
4371628,22
4372248,18
4372876,13
4373500,12
4374128,11
4374756,14
4375384,33
4376012,30
4376644,16
4377264,21
4377896,26
4378520,17
4379144,11
4379772,14
4380392,11
4381024,13
4381648,11
4382272,12
4382900,14
4383520,13
4384148,15
4384780,32
4385400,24
4386028,17
4386652,16
4387284,13
4387912,22
4388532,17
4389160,17
4389784,15
4390408,18
4391040,23
4391656,23
4392288,25
4392912,38
4393536,33
4394168,16
4394784,16
4395416,31
4396044,20
4396664,11
4397296,33
4397920,47
4398552,51
4399180,51
4399800,43
4400432,31
4401056,21
4401680,14
4402308,19
4402928,20
4403560,18
4404180,20
4404804,15
4405432,14
4406056,15
4406684,10
4407316,24
4407936,39
4408568,44
4409188,58
4409820,46
4410452,38
4411072,29
4411700,18
4412328,13
4412952,20
4413580,12
4414200,19
4414832,18
4415456,19
4416080,21
4416708,26
4417328,25
4417956,15
4418588,16
4419208,17
4419836,34
4420460,33
4421092,17
4421724,18
4422344,20
4422976,15
4423600,21
4424224,14
4424852,16
4425472,17
4426100,23
4426724,18
4427348,19
4427980,27
4428600,38
4429232,39
4429860,11
4430480,15
4431108,27
4431732,40
4432364,34
4432996,50
4433616,41
4434244,24
4434868,15
4435492,16
4436124,18
4436744,16
4437372,12
4438000,12
4438624,19
4439252,30
4439876,29
4440508,19
4441140,20
4441760,21
4442388,21
4443012,24
4443644,25
4444276,26
4444896,21
4445524,11
4446148,15
4446772,25
4447404,26
4448024,22
4448652,11
4449276,10
4449904,11
4450532,10
4451160,16
4451792,19
4452420,16
4453040,16
4453672,13
4454296,9
4454868,13
4455500,16
4456120,12
4456748,16
4457376,16
4458000,19
4458628,36
4459248,31
4459880,29
4460504,23
4461128,25
4461756,30
4462376,20
4463008,12
4463640,39
4464256,29
4464888,11
4465512,10
4466140,12
4466772,14
4467392,13
4468020,15
4468644,19
4469268,20
4469900,16
4470520,11
4471152,11
4471776,15
4472400,16
4473028,10
4473648,13
4474276,23
4474908,35
4475528,31
4476160,29
4476784,23
4477416,19
4478048,17
4478664,18
4479296,14
4479924,10
4480548,16
4481180,32
4481800,45
4482428,29
4483052,12
4483676,11
4484304,15
4484928,13
4485560,25
4486188,31
4486808,19
4487436,22
4488060,32
4488692,16
4489320,16
4489940,31
4490568,27
4491192,23
4491816,29
4492448,36
4493064,33
4493692,24
4494316,26
4494944,25
4495572,27
4496196,15
4496828,17
4497456,30
4498080,22
4498708,18
4499336,19
4499964,25
4500596,18
4501216,18
4501844,15
4502472,15
4503096,19
4503724,28
4504344,21
4504976,19
4505604,18
4506220,11
4506852,29
4507476,49
4508104,51
4508732,50
4509352,33
4509980,23
4510604,18
4511236,20
4511864,24
4512488,20
4513116,13
4513740,12
4514364,11
4514996,18
4515616,29
4516244,15
4516876,18
4517496,25
4518124,31
4518748,43
4519380,31
4520008,16
4520632,24
4521260,31
4521884,24
4522508,22
4523140,23
4523760,24
4524388,24
4525016,16
4525640,18
4526268,30
4526888,19
4527516,16
4528148,18
4528768,15
4529396,10
4530020,10
4530652,10
4531280,10
4531904,10
4532532,14
4533156,11
4533780,11
4534412,14
4535032,18
4535664,19
4536288,19
4536912,17
4537544,12
4538160,10
4538792,19
4539424,11
4540040,11
4540672,11
4541296,20
4541924,35
4542556,62
4543176,67
4543808,50
4544432,25
4545056,21
4545684,10
4546304,11
4546936,22
4547560,31
4548184,24
4548812,20
4549432,18
4550064,10
4550692,11
4551312,19
4551944,16
4552568,16
4553196,17
4553828,10
4554448,11
4555076,11
4555704,11
4556328,21
4556960,26
4557576,26
4558208,12
4558832,27
4559456,17
4560084,24
4560708,40
4561340,59
4561968,62
4562592,34
4563220,17
4563844,41
4564476,40
4565104,30
4565728,27
4566360,12
4566984,17
4567608,15
4568236,13
4568856,15
4569484,17
4570116,16
4570736,12
4571368,10
4571992,11
4572624,21
4573252,15
4573872,19
4574504,49
4575128,50
4575752,34
4576384,26
4577000,17
4577632,17
4578256,17
4578880,12
4579508,16
4580128,13
4580760,13
4581388,11
4582008,20
4582640,36
4583264,37
4583896,31
4584524,22
4585144,19
4585776,16
4586400,17
4587024,15
4587656,19
4588272,19
4588900,19
4589524,20
4590148,20
4590780,28
4591400,41
4592028,45
4592660,39
4593280,25
4593908,15
4594532,17
4595164,18
4595796,12
4596416,13
4597048,14
4597672,18
4598296,13
4598928,11
4599544,23
4600176,32
4600800,17
4601424,15
4602052,15
4602672,21
4603304,19
4603932,14
4604552,13
4605184,13
4605808,16
4606440,13
4607068,16
4607688,24
4608320,23
4608940,20
4609564,28
4610192,30
4610816,25
4611444,29
4612068,22
4612692,17
4613320,12
4613936,11
4614568,11
4615196,18
4615816,26
4616444,26
4617068,17
4617700,17
4618328,21
4618944,30
4619576,22
4620200,17
4620824,12
4621452,11
4622072,21
4622700,29
4623328,22
4623952,21
4624580,19
4625200,24
4625828,23
4626460,28
4627080,28
4627712,16
4628336,19
4628964,9
4629544,11
4630168,20
4630796,22
4631424,11
4632052,12
4632684,10
4633304,13
4633936,21
4634556,26
4635184,29
4635812,18
4636432,16
4637060,17
4637688,17
4638312,20
4638940,17
4639568,10
4640196,14
4640824,21
4641448,17
4642076,20
4642700,22
4643328,18
4643960,31
4644576,42
4645208,40
4645832,38
4646456,17
4647084,19
4647704,15
4648332,10
4648956,12
4649584,11
4650212,15
4650836,25
4651468,26
4652100,27
4652720,23
4653352,17
4653976,15
4654600,30
4655228,29
4655848,33
4656480,26
4657104,11
4657728,15
4658356,12
4658976,22
4659608,19
4660236,18
4660856,19
4661484,19
4662108,12
4662740,13
4663368,16
4663992,12
4664624,12
4665248,11
4665872,11
4666500,11
4667120,12
4667752,15
4668376,17
4669000,23
4669632,21
4670248,23
4670876,12
4671508,10
4672128,23
4672756,22
4673380,12
4674012,11
4674640,19
4675256,29
4675888,39
4676512,28
4677136,22
4677764,18
4678384,16
4679016,15
4679640,11
4680264,17
4680892,16
4681512,15
4682144,24
4682772,20
4683392,15
4684024,15
4684648,16
4685276,21
4685908,22
4686528,24
4687156,19
4687784,13
4688408,12
4689036,20
4689656,15
4690284,11
4690908,24
4691532,46
4692164,48
4692784,39
4693416,19
4694044,15
4694664,16
4695296,15
4695920,11
4696548,21
4697180,20
4697800,23
4698428,24
4699052,17
4699680,21
4700308,26
4700928,33
4701560,27
4702184,16
4702808,17
4703440,17
4704056,22
4704688,15
4705316,22
4705936,30
4706568,11
4707192,18
4707824,17
4708456,17
4709072,31
4709708,33
4710332,37
4710960,45
4711588,52
4712208,38
4712836,13
4713460,25
4714088,36
4714716,29
4715340,22
4715972,20
4716604,18
4717224,11
4717852,18
4718480,18
4719108,17
4719740,16
4720360,15
4720988,16
4721612,19
4722236,20
4722868,14
4723488,15
4724116,15
4724748,12
4725368,15
4726000,21
4726624,19
4727252,17
4727884,20
4728504,18
4729136,15
4729760,11
4730384,11
4731016,10
4731632,18
4732264,32
4732888,23
4733512,11
4734144,12
4734764,16
4735392,19
4736024,14
4736648,22
4737276,11
4737900,21
4738532,21
4739164,27
4739784,27
4740416,24
4741040,25
4741664,16
4742292,12
4742912,18
4743544,17
4744168,23
4744792,28
4745424,11
4746044,21
4746672,33
4747304,38
4747924,22
4748556,10
4749180,9
4749760,11
4750392,15
4751012,13
4751644,14
4752268,18
4752896,23
4753524,16
4754144,14
4754772,11
4755400,13
4756024,19
4756652,23
4757272,24
4757904,22
4758532,22
4759152,39
4759784,47
4760408,41
4761036,23
4761668,15
4762288,15
4762916,25
4763540,35
4764168,31
4764796,26
4765416,14
4766048,10
4766672,10
4767296,11
4767928,29
4768544,42
4769176,19
4769808,28
4770424,35
4771056,28
4771680,15
4772312,11
4772940,21
4773560,41
4774192,21
4774816,13
4775440,16
4776072,25
4776688,21
4777320,26
4777944,27
4778568,16
4779200,10
4779816,15
4780448,22
4781080,29
4781696,28
4782328,19
4782952,22
4783584,13
4784216,13
4784832,13
4785464,16
4786088,17
4786712,16
4787344,11
4787964,11
4788592,17
4789220,23
4789844,27
4790476,30
4791096,28
4791728,32
4792360,47
4792976,39
4793608,25
4794232,16
4794864,26
4795496,11
4796116,11
4796748,15
4797372,11
4798000,12
4798632,19
4799252,26
4799884,21
4800508,15
4801136,16
4801764,15
4802388,19
4803020,19
4803648,13
4804272,10
4804900,11
4805524,11
4806152,19
4806780,21
4807400,26
4808028,26
4808652,23
4809276,42
4809908,35
4810528,35
4811160,32
4811788,19
4812408,11
4813040,26
4813660,52
4814292,49
4814920,35
4815544,15
4816172,11
4816796,13
4817420,13
4818052,36
4818672,33
4819300,21
4819924,17
4820548,30
4821180,42
4821800,31
4822432,26
4823060,31
4823680,37
4824308,37
4824936,34
4825564,39
4826196,40
4826816,30
4827448,19
4828072,16
4828696,13
4829328,10
4829944,10
4830576,11
4831200,27
4831824,32
4832456,23
4833072,26
4833704,21
4834332,24
4834952,27
4835584,25
4836208,23
4836836,29
4837468,16
4838088,17
4838720,15
4839340,14
4839964,31
4840596,36
4841216,34
4841844,32
4842468,35
4843092,38
4843724,32
4844344,28
4844972,21
4845604,11
4846224,19
4846856,17
4847480,12
4848108,14
4848740,16
4849360,19
4849988,21
4850616,23
4851240,16
4851868,15
4852488,23
4853116,26
4853744,12
4854368,18
4855000,20
4855624,16
4856256,17
4856884,24
4857504,34
4858136,32
4858760,46
4859392,43
4860024,47
4860640,51
4861272,25
4861896,21
4862520,14
4863152,14
4863772,31
4864404,46
4865032,63
4865652,49
4866280,33
4866904,23
4867532,21
4868164,14
4868784,16
4869416,16
4870040,16
4870664,21
4871292,26
4871912,28
4872544,21
4873168,15
4873792,15
4874424,19
4875040,24
4875668,27
4876300,27
4876920,33
4877548,39
4878172,31
4878804,13
4879436,14
4880056,26
4880684,27
4881308,17
4881932,10
4882564,10
4883184,14
4883816,26
4884440,40
4885064,38
4885696,27
4886312,17
4886944,21
4887572,29
4888192,23
4888824,10
4889448,11
4890076,19
4890708,28
4891328,43
4891960,44
4892584,35
4893208,30
4893840,32
4894456,26
4895088,16
4895712,30
4896336,32
4896964,22
4897584,20
4898216,21
4898844,19
4899464,26
4900096,48
4900720,47
4901348,22
4901980,19
4902600,32
4903232,29
4903856,17
4904480,13
4905112,11
4905728,15
4906360,15
4906984,22
4907608,43
4908240,46
4908856,47
4909488,38
4910120,30
4910740,29
4911368,21
4911996,12
4912628,10
4913260,10
4913880,23
4914512,36
4915140,55
4915768,49
4916396,23
4917016,16
4917644,18
4918268,14
4918896,19
4919524,17
4920148,22
4920780,23
4921408,16
4922028,10
4922656,17
4923280,16
4923908,13
4924540,29
4925160,35
4925788,47
4926412,43
4927036,41
4927668,32
4928288,27
4928916,11
4929544,22
4930168,53
4930796,57
4931420,22
4932052,13
4932680,28
4933300,34
4933928,17
4934552,17
4935176,19
4935808,18
4936424,23
4937052,12
4937676,23
4938300,28
4938932,24
4939552,15
4940180,11
4940812,10
4941432,14
4942060,37
4942684,47
4943316,19
4943948,17
4944568,21
4945196,15
4945820,12
4946448,16
4947076,23
4947696,22
4948324,16
4948948,14
4949576,21
4950204,31
4950824,35
4951456,29
4952084,16
4952704,23
4953336,21
4953960,25
4954588,36
4955220,36
4955840,25
4956472,13
4957096,10
4957720,18
4958352,38
4958968,45
4959600,45
4960224,40
4960848,32
4961476,19
4962096,11
4962724,16
4963356,24
4963976,30
4964604,27
4965228,45
4965860,50
4966492,29
4967112,20
4967740,24
4968364,18
4968988,16
4969616,17
4970232,15
4970864,11
4971488,10
4972112,12
4972744,14
4973360,15
4973988,23
4974620,36
4975240,45
4975872,51
4976496,39
4977128,24
4977756,18
4978376,15
4979008,11
4979632,15
4980256,13
4980884,21
4981504,32
4982136,19
4982760,13
4983384,12
4984012,11
4984632,17
4985264,18
4985892,19
4986512,17
4987144,25
4987768,15
4988400,13
4989028,18
4989648,11
4990276,27
4990904,48
4991528,59
4992160,52
4992776,40
4993404,43
4994028,35
4994656,22
4995284,15
4995908,15
4996540,18
4997168,24
4997792,33
4998420,35
4999044,31
4999676,23
5000304,14
5000924,21
5001552,21
5002180,15
5002804,15
5003432,15
5004056,13
5004684,17
5005316,10
5005936,11
5006568,10
5007192,13
5007820,25
5008452,28
5009072,40
5009704,49
5010328,53
5010952,46
5011584,29
5012200,12
5012832,21
5013456,33
5014080,35
5014712,34
5015328,39
5015960,39
5016592,23
5017212,19
5017844,22
5018468,27
5019096,29
5019724,23
5020344,12
5020972,11
5021596,15
5022224,13
5022852,37
5023472,64
5024104,59
5024728,65
5025352,65
5025980,44
5026600,26
5027228,23
5027860,21
5028480,17
5029108,10
5029736,17
5030368,18
5031000,19
5031616,26
5032248,17
5032872,11
5033496,13
5034128,11
5034744,16
5035376,21
5036004,29
5036628,21
5037260,10
5037880,11
5038512,13
5039144,15
5039760,13
5040392,13
5041016,29
5041648,33
5042276,30
5042896,23
5043528,36
5044152,30
5044776,21
5045404,19
5046024,26
5046656,25
5047280,21
5047904,33
5048536,27
5049160,23
5049792,15
5050420,21
5051040,25
5051672,29
5052296,33
5052928,36
5053556,24
5054176,10
5054808,14
5055432,12
5056056,11
5056688,16
5057304,14
5057936,41
5058568,75
5059184,76
5059816,51
5060440,32
5061072,29
5061700,24
5062320,10
5062952,23
5063580,22
5064204,22
5064836,20
5065456,10
5066088,12
5066712,13
5067336,26
5067968,29
5068588,27
5069220,19
5069852,14
5070472,12
5071104,13
5071728,18
5072360,22
5072988,23
5073608,27
5074240,29
5074864,34
5075488,39
5076120,30
5076740,18
5077372,18
5077996,16
5078624,12
5079256,16
5079880,26
5080512,18
5081140,29
5081760,25
5082388,19
5083016,21
5083644,17
5084276,15
5084896,14
5085524,16
5086152,16
5086776,17
5087408,20
5088024,22
5088656,14
5089284,10
5089904,11
5090536,18
5091160,30
5091792,57
5092424,76
5093044,77
5093676,55
5094300,27
5094924,16
5095556,10
5096176,14
5096808,27
5097432,29
5098056,30
5098688,24
5099312,19
5099944,13
5100576,18
5101196,27
5101828,22
5102452,18
5103084,19
5103716,20
5104336,27
5104968,25
5105592,12
5106220,23
5106852,48
5107472,57
5108104,46
5108732,39
5109360,29
5109992,24
5110620,31
5111252,33
5111884,24
5112504,12
5113136,12
5113764,21
5114388,23
5115024,33
5115644,33
5116276,23
5116900,18
5117528,19
5118160,22
5118780,27
5119412,21
5120048,16
5120660,10
5121292,13
5121912,28
5122540,31
5123168,27
5123792,15
5124420,13
5125044,15
5125664,10
5126296,15
5126912,17
5127544,27
5128168,45
5128788,42
5129420,20
5130040,13
5130668,26
5131300,30
5131920,23
5132548,15
5133172,10
5133800,10
5134432,14
5135048,15
5135676,19
5136300,16
5136924,13
5137556,12
5138176,22
5138804,26
5139428,20
5140052,17
5140684,20
5141304,18
5141932,17
5142560,30
5143184,28
5143812,18
5144436,19
5145068,29
5145696,24
5146320,11
5146948,21
5147572,35
5148196,41
5148824,29
5149440,26
5150072,42
5150696,69
5151320,64
5151952,23
5152568,33
5153200,43
5153828,35
5154448,33
5155076,38
5155704,45
5156332,40
5156964,30
5157584,25
5158216,38
5158840,57
5159464,59
5160092,47
5160712,23
5161344,17
5161964,14
5162588,17
5163220,34
5163844,33
5164472,21
5165100,16
5165720,25
5166348,31
5166972,30
5167604,31
5168232,24
5168856,20
5169484,15
5170108,23
5170732,30
5171364,22
5171984,16
5172612,12
5173236,19
5173860,23
5174492,38
5175116,45
5175744,35
5176376,25
5176992,21
5177620,16
5178244,36
5178876,42
5179504,34
5180128,23
5180760,19
5181384,11
5182008,16
5182636,25
5183256,15
5183888,13
5184516,14
5185136,16
5185764,23
5186388,19
5187020,11
5187648,11
5188272,11
5188900,11
5189524,11
5190152,26
5190780,40
5191400,44
5192032,56
5192652,57
5193280,47
5193908,24
5194528,18
5195160,16
5195788,16
5196408,36
5197040,48
5197664,49
5198292,32
5198924,14
5199544,17
5200176,23
5200796,19
5201424,16
5202052,14
5202672,19
5203300,19
5203924,23
5204548,26
5205176,18
5205800,19
5206428,17
5207060,16
5207680,21
5208308,24
5208932,32
5209564,25
5210196,14
5210816,25
5211444,33
5212072,23
5212696,12
5213324,12
5213944,23
5214576,30
5215200,37
5215824,47
5216456,33
5217072,14
5217704,17
5218332,17
5218952,16
5219584,17
5220208,19
5220836,21
5221468,26
5222088,13
5222720,13
5223340,21
5223964,37
5224596,48
5225216,48
5225844,40
5226468,21
5227092,15
5227724,19
5228344,15
5228972,20
5229604,16
5230224,14
5230856,16
5231480,17
5232108,20
5232740,30
5233360,28
5233988,19
5234616,25
5235240,32
5235868,27
5236488,17
5237116,21
5237744,23
5238368,19
5239000,11
5239624,19
5240256,11
5240884,16
5241504,29
5242136,49
5242760,62
5243392,56
5244020,38
5244640,19
5245268,13
5245892,11
5246516,12
5247144,16
5247764,11
5248392,13
5249016,24
5249636,33
5250268,28
5250888,26
5251516,31
5252148,16
5252768,20
5253396,19
5254020,15
5254648,13
5255276,14
5255896,15
5256524,21
5257148,33
5257772,42
5258400,45
5259016,41
5259644,31
5260268,28
5260892,21
5261520,15
5262140,14
5262768,25
5263396,26
5264016,30
5264644,28
5265264,26
5265896,26
5266524,26
5267144,19
5267772,22
5268396,16
5269020,20
5269652,14
5270272,13
5270900,9
5271476,11
5272104,12
5272732,24
5273352,29
5273984,17
5274604,12
5275228,20
5275860,23
5276484,34
5277112,38
5277744,21
5278360,15
5278988,17
5279616,29
5280244,33
5280872,16
5281496,11
5282124,10
5282748,15
5283372,11
5284000,11
5284616,20
5285244,23
5285868,16
5286492,15
5287120,11
5287736,21
5288364,19
5288992,18
5289616,23
5290244,23
5290864,15
5291496,18
5292124,28
5292744,35
5293372,29
5293996,23
5294620,21
5295252,17
5295872,12
5296500,11
5297124,24
5297748,45
5298380,22
5299000,25
5299628,30
5300260,23
5300880,19
5301508,17
5302132,19
5302764,20
5303392,16
5304016,18
5304644,21
5305268,29
5305892,40
5306524,44
5307144,36
5307776,38
5308400,43
5309024,44
5309652,35
5310276,28
5310908,17
5311536,16
5312160,12
5312788,19
5313412,26
5314044,33
5314672,36
5315292,27
5315920,19
5316544,19
5317168,23
5317796,22
5318416,17
5319044,17
5319668,15
5320296,14
5320924,15
5321548,11
5322180,19
5322812,22
5323432,17
5324064,13
5324688,18
5325320,43
5325948,50
5326568,57
5327196,53
5327820,28
5328444,16
5329072,11
5329688,36
5330316,50
5330940,57
5331568,27
5332196,19
5332820,33
5333448,21
5334076,13
5334696,22
5335324,16
5335948,21
5336580,25
5337208,13
5337832,22
5338460,39
5339084,49
5339708,27
5340336,13
5340960,15
5341588,11
5342220,14
5342840,41
5343468,61
5344092,54
5344724,24
5345352,12
5345968,11
5346600,23
5347220,36
5347844,30
5348476,30
5349096,33
5349724,25
5350348,17
5350976,17
5351604,13
5352224,20
5352852,29
5353484,20
5354104,10
5354732,17
5355356,33
5355988,38
5356620,42
5357240,38
5357868,31
5358496,30
5359116,29
5359748,20
5360368,20
5360996,22
5361620,17
5362244,11
5362876,10
5363496,18
5364124,27
5364756,18
5365376,24
5366008,37
5366628,27
5367260,14
5367888,15
5368508,14
5369136,15
5369760,17
5370384,13
5371012,21
5371632,36
5372260,21
5372884,13
5373508,31
5374140,34
5374760,42
5375392,53
5376020,59
5376636,43
5377268,16
5377892,24
5378520,16
5379148,21
5379768,28
5380396,13
5381020,12
5381644,17
5382276,17
5382896,15
5383524,11
5384148,13
5384772,20
5385404,20
5386024,16
5386652,16
5387284,15
5387904,11
5388532,16
5389156,13
5389788,12
5390416,12
5391036,21
5391664,31
5392292,28
5392912,33
5393544,25
5394164,16
5394792,20
5395416,18
5396040,13
5396668,10
5397288,10
5397916,10
5398548,16
5399168,23
5399796,23
5400424,29
5401052,38
5401684,46
5402304,28
5402932,16
5403556,16
5404180,21
5404812,32
5405432,35
5406064,36
5406688,30
5407312,21
5407940,21
5408560,58
5409188,66
5409820,36
5410440,17
5411068,15
5411692,17
5412324,13
5412952,12
5413572,20
5414200,35
5414824,43
5415448,40
5416076,52
5416696,47
5417324,28
5417948,25
5418572,19
5419204,16
5419824,19
5420452,13
5421084,10
5421704,15
5422336,19
5422960,21
5423588,24
5424220,18
5424840,25
5425468,40
5426092,45
5426716,50
5427348,38
5427968,30
5428596,28
5429220,14
5429844,10
5430472,13
5431096,19
5431724,19
5432356,24
5432976,31
5433604,37
5434228,38
5434860,30
5435488,20
5436112,18
5436744,20
5437368,24
5437992,18
5438624,11
5439240,25
5439872,42
5440496,44
5441116,51
5441748,79
5442372,76
5443000,45
5443632,28
5444248,21
5444876,14
5445500,15
5446128,26
5446760,44
5447376,61
5448008,54
5448628,25
5449252,11
5449884,10
5450504,10
5451132,22
5451756,32
5452380,25
5453012,15
5453636,16
5454264,17
5454892,30
5455512,37
5456140,11
5456764,15
5457396,12
5458024,15
5458640,12
5459272,34
5459896,53
5460516,69
5461148,60
5461768,49
5462396,19
5463024,11
5463648,23
5464276,29
5464904,32
5465532,28
5466164,22
5466784,30
5467416,44
5468040,37
5468668,22
5469300,16
5469920,19
5470548,27
5471176,33
5471800,29
5472432,22
5473048,11
5473676,11
5474300,14
5474928,20
5475556,29
5476184,36
5476812,25
5477444,18
5478064,16
5478696,13
5479320,11
5479944,11
5480572,12
5481192,15
5481820,27
5482444,33
5483068,32
5483700,24
5484320,17
5484948,15
5485580,16
5486200,16
5486828,17
5487456,16
5488084,21
5488716,12
5489336,11
5489964,11
5490588,25
5491212,46
5491844,58
5492464,55
5493092,39
5493720,38
5494344,23
5494972,16
5495592,11
5496224,13
5496852,27
5497472,37
5498104,36
5498728,37
5499356,30
5499988,19
5500608,14
5501240,23
5501864,32
5502488,22
5503120,16
5503736,11
5504368,11
5504992,10
5505616,11
5506244,18
5506864,34
5507496,49
5508124,46
5508744,43
5509376,43
5510000,41
5510628,22
5511260,15
5511880,18
5512508,19
5513136,18
5513760,22
5514388,23
5515008,25
5515640,21
5516264,13
5516888,15
5517516,16
5518136,15
5518768,16
5519396,18
5520016,16
5520644,10
5521268,18
5521900,11
5522532,13
5523152,33
5523784,37
5524408,37
5525032,12
5525664,33
5526280,19
5526912,34
5527536,71
5528160,84
5528792,51
5529416,16
5530048,10
5530676,14
5531296,17
5531924,17
5532548,15
5533180,19
5533812,38
5534432,32
5535060,29
5535684,38
5536312,40
5536940,14
5537560,15
5538188,15
5538812,24
5539440,33
5540068,35
5540692,40
5541324,37
5541956,42
5542576,46
5543204,29
5543828,15
5544456,16
5545084,16
5545704,13
5546332,14
5546956,24
5547584,37
5548212,40
5548832,31
5549460,22
5550092,12
5550712,14
5551344,15
5551968,19
5552600,17
5553228,15
5553848,16
5554480,29
5555104,18
5555728,15
5556360,14
5556980,10
5557608,18
5558232,40
5558856,42
5559488,17
5560104,18
5560736,16
5561368,16
5561984,19
5562616,39
5563240,43
5563868,33
5564500,12
5565120,13
5565752,18
5566376,29
5567000,31
5567632,26
5568252,20
5568884,18
5569508,16
5570132,17
5570764,22
5571384,23
5572012,23
5572644,16
5573264,15
5573892,18
5574520,19
5575148,36
5575780,52
5576400,46
5577028,29
5577652,17
5578276,19
5578908,26
5579528,20
5580156,17
5580784,23
5581408,21
5582040,25
5582664,22
5583292,16
5583924,16
5584544,21
5585172,16
5585800,16
5586428,15
5587060,10
5587680,12
5588308,16
5588936,12
5589560,10
5590192,10
5590808,11
5591440,29
5592068,39
5592688,45
5593316,38
5593944,26
5594572,18
5595204,16
5595824,15
5596456,16
5597080,24
5597704,26
5598336,25
5598952,39
5599584,23
5600212,16
5600836,18
5601464,15
5602080,16
5602712,16
5603340,17
5603960,18
5604588,26
5605212,29
5605844,22
5606476,20
5607096,26
5607724,33
5608348,28
5608972,11
5609604,15
5610224,25
5610852,27
5611480,25
5612104,11
5612732,14
5613352,19
5613984,21
5614612,23
5615232,23
5615864,17
5616488,14
5617116,21
5617748,16
5618368,16
5619000,17
5619624,18
5620248,18
5620876,23
5621496,29
5622128,12
5622752,31
5623376,41
5624004,46
5624624,50
5625256,55
5625884,52
5626504,52
5627136,57
5627760,43
5628392,17
5629020,22
5629640,33
5630272,48
5630896,33
5631520,48
5632152,43
5632768,19
5633396,16
5634020,17
5634644,19
5635272,17
5635888,15
5636520,26
5637148,29
5637768,21
5638396,14
5639020,10
5639652,19
5640284,39
5640904,49
5641532,58
5642156,44
5642784,28
5643412,16
5644032,17
5644660,18
5645284,14
5645908,10
5646540,20
5647160,27
5647792,25
5648420,18
5649040,14
5649668,18
5650292,20
5650924,19
5651556,18
5652176,22
5652804,16
5653428,17
5654052,14
5654684,10
5655304,11
5655932,13
5656560,23
5657184,21
5657812,30
5658436,39
5659068,49
5659696,34
5660312,16
5660944,16
5661568,17
5662196,11
5662828,12
5663448,23
5664076,25
5664700,27
5665324,26
5665956,20
5666576,12
5667204,15
5667828,27
5668452,20
5669084,15
5669708,15
5670340,13
5670972,14
5671592,24
5672224,28
5672848,22
5673476,26
5674108,42
5674728,44
5675360,49
5675984,35
5676608,22
5677240,17
5677856,16
5678488,15
5679116,16
5679736,24
5680368,25
5680992,22
5681620,17
5682252,22
5682872,26
5683504,28
5684128,22
5684748,15
5685380,14
5686000,15
5686628,17
5687252,16
5687876,17
5688508,14
5689128,27
5689756,30
5690388,35
5691008,21
5691640,24
5692264,41
5692896,43
5693524,28
5694144,30
5694776,40
5695400,40
5696024,19
5696652,10
5697272,13
5697900,13
5698524,33
5699152,51
5699780,52
5700400,48
5701028,34
5701660,20
5702280,17
5702912,21
5703536,28
5704168,29
5704796,23
5705416,10
5706048,13
5706672,14
5707296,20
5707928,39
5708544,61
5709176,57
5709800,32
5710424,17
5711056,16
5711672,18
5712304,11
5712936,10
5713552,13
5714184,20
5714808,29
5715440,38
5716072,28
5716688,13
5717320,19
5717944,16
5718568,17
5719200,15
5719816,16
5720448,11
5721072,11
5721696,11
5722324,12
5722952,18
5723584,17
5724212,29
5724832,37
5725464,49
5726088,44
5726716,24
5727352,24
5727968,21
5728604,12
5729228,12
5729852,26
5730484,41
5731104,51
5731736,52
5732368,31
5732988,15
5733620,20
5734244,17
5734876,14
5735508,24
5736128,26
5736756,22
5737380,11
5738004,28
5738636,19
5739256,19
5739884,31
5740508,43
5741132,49
5741764,50
5742384,43
5743016,27
5743644,19
5744264,27
5744892,35
5745516,31
5746148,14
5746780,17
5747400,39
5748028,42
5748652,36
5749276,20
5749908,14
5750528,12
5751156,17
5751784,17
5752408,17
5753036,16
5753656,13
5754284,13
5754916,10
5755536,11
5756164,13
5756788,10
5757420,11
5758052,20
5758672,45
5759304,52
5759928,40
5760552,19
5761184,15
5761800,20
5762428,12
5763052,11
5763676,9
5764252,11
5764876,13
5765508,23
5766132,21
5766756,25
5767384,33
5768008,17
5768636,17
5769264,15
5769888,21
5770516,31
5771140,20
5771772,11
5772400,25
5773024,36
5773652,37
5774276,44
5774900,41
5775532,39
5776152,23
5776780,17
5777404,30
5778032,29
5778660,14
5779284,11
5779916,16
5780544,20
5781164,19
5781792,14
5782416,25
5783044,27
5783676,20
5784296,15
5784924,18
5785552,17
5786176,16
5786804,22
5787424,22
5788052,16
5788684,18
5789304,18
5789932,17
5790556,19
5791188,21
5791820,34
5792440,44
5793068,31
5793692,41
5794316,27
5794948,16
5795568,23
5796196,48
5796820,52
5797444,38
5798076,16
5798696,17
5799324,17
5799956,14
5800576,11
5801204,16
5801828,16
5802460,16
5803088,17
5803712,17
5804340,14
5804968,17
5805592,23
5806220,11
5806840,16
5807468,39
5808096,51
5808716,44
5809348,38
5809968,38
5810596,24
5811228,18
5811848,15
5812476,11
5813100,11
5813732,29
5814364,52
5814984,61
5815616,46
5816240,26
5816864,15
5817492,26
5818112,17
5818740,25
5819368,52
5819992,50
5820620,31
5821240,32
5821872,16
5822500,17
5823120,13
5823752,19
5824376,40
5825004,36
5825636,36
5826256,43
5826884,38
5827508,31
5828132,22
5828764,11
5829384,14
5830012,22
5830640,29
5831264,30
5831896,27
5832520,45
5833152,54
5833780,34
5834400,15
5835028,18
5835656,23
5836288,21
5836916,18
5837536,20
5838164,17
5838788,12
5839412,15
5840044,22
5840664,31
5841292,30
5841916,31
5842544,26
5843172,22
5843800,17
5844428,15
5845060,14
5845680,14
5846312,20
5846936,29
5847560,29
5848188,21
5848808,19
5849436,15
5850064,31
5850688,27
5851316,19
5851936,22
5852568,21
5853196,26
5853816,14
5854448,25
5855072,32
5855704,48
5856332,47
5856952,43
5857584,38
5858208,44
5858832,48
5859464,33
5860080,24
5860708,21
5861336,22
5861960,15
5862588,11
5863208,27
5863836,37
5864468,32
5865088,34
5865720,32
5866344,28
5866972,20
5867604,18
5868224,17
5868852,15
5869480,19
5870104,21
5870732,18
5871352,12
5871984,15
5872608,12
5873236,13
5873868,10
5874488,16
5875120,33
5875752,36
5876372,40
5877000,31
5877628,19
5878260,15
5878892,10
5879512,10
5880144,12
5880768,14
5881392,15
5882024,35
5882644,31
5883272,17
5883900,19
5884524,24
5885156,19
5885780,16
5886412,18
5887044,10
5887664,12
5888300,15
5888920,24
5889544,15
5890176,11
5890796,29
5891424,43
5892048,50
5892672,56
5893304,38
5893924,16
5894552,28
5895184,23
5895804,17
5896432,24
5897060,25
5897688,24
5898320,16
5898936,10
5899568,13
5900192,12
5900816,14
5901444,14
5902064,19
5902692,15
5903316,20
5903944,13
5904572,9
5905140,12
5905772,22
5906400,19
5907020,45
5907652,54
5908272,49
5908904,25
5909532,16
5910152,17
5910784,33
5911408,42
5912040,12
5912668,18
5913288,25
5913920,19
5914544,11
5915168,11
5915800,12
5916416,14
5917048,15
5917672,18
5918296,18
5918928,23
5919544,22
5920176,15
5920804,10
5921424,12
5922052,12
5922676,11
5923308,21
5923936,16
5924556,17
5925184,41
5925812,52
5926436,55
5927064,42
5927680,34
5928312,29
5928936,23
5929560,10
5930192,20
5930808,30
5931440,25
5932068,12
5932688,11
5933320,13
5933944,27
5934576,27
5935204,27
5935824,20
5936456,15
5937080,20
5937704,26
5938336,25
5938952,14
5939584,10
5940208,14
5940832,21
5941460,37
5942084,50
5942716,42
5943344,31
5943964,24
5944592,21
5945216,12
5945848,12
5946476,25
5947096,42
5947724,51
5948352,47
5948976,33
5949604,16
5950224,11
5950856,15
5951480,14
5952104,17
5952732,19
5953356,22
5953988,21
5954616,21
5955240,13
5955868,19
5956492,15
5957124,12
5957752,28
5958376,45
5959008,45
5959632,33
5960256,29
5960888,22
5961504,22
5962136,12
5962764,14
5963384,21
5964016,26
5964640,11
5965268,12
5965900,24
5966520,28
5967148,28
5967776,33
5968400,24
5969028,16
5969648,21
5970276,21
5970904,22
5971528,17
5972156,21
5972776,31
5973408,32
5974040,30
5974656,33
5975288,35
5975912,40
5976544,37
5977176,22
5977792,15
5978424,18
5979048,21
5979672,39
5980304,38
5980920,28
5981552,23
5982176,26
5982800,42
5983428,26
5984048,13
5984676,16
5985308,15
5985928,18
5986556,15
5987184,11
5987816,21
5988448,30
5989064,38
5989696,28
5990320,24
5990944,27
5991576,23
5992196,17
5992824,17
5993448,27
5994076,23
5994704,24
5995328,32
5995960,21
5996592,10
5997208,22
5997840,31
5998464,38
5999096,35
5999728,19
6000344,10
6000976,15
6001600,15
6002224,23
6002852,21
6003472,20
6004100,11
6004728,19
6005352,28
6005980,32
6006608,27
6007236,41
6007868,54
6008488,57
6009116,48
6009744,36
6010376,30
6011004,24
6011624,17
6012256,20
6012880,27
6013504,15
6014136,27
6014756,35
6015384,40
6016016,35
6016640,23
6017268,29
6017892,43
6018524,35
6019156,16
6019776,15
6020408,13
6021032,26
6021656,32
6022288,26
6022904,16
6023532,17
6024160,23
6024784,38
6025412,48
6026032,45
6026664,41
6027292,32
6027912,31
6028544,17
6029168,14
6029796,33
6030428,46
6031048,30
6031680,18
6032304,15
6032928,15
6033560,21
6034176,23
6034808,26
6035432,21
6036056,16
6036688,15
6037304,14
6037936,30
6038568,29
6039184,14
6039816,11
6040444,12
6041076,30
6041708,40
6042328,39
6042956,51
6043584,45
6044208,35
6044836,22
6045456,11
6046088,25
6046712,38
6047336,39
6047968,32
6048592,26
6049224,22
6049852,14
6050472,12
6051104,17
6051728,19
6052360,18
6052988,17
6053608,14
6054240,13
6054864,18
6055488,18
6056120,11
6056736,26
6057368,31
6058000,37
6058616,63
6059248,76
6059876,71
6060508,57
6061140,46
6061760,21
6062392,17
6063016,37
6063640,42
6064272,38
6064888,27
6065520,15
6066144,18
6066768,15
6067400,16
6068016,19
6068644,25
6069276,30
6069896,17
6070528,27
6071152,34
6071784,29
6072416,16
6073032,10
6073664,11
6074288,24
6074912,30
6075544,39
6076160,48
6076792,45
6077416,23
6078044,17
6078676,12
6079300,11
6079932,15
6080568,19
6081184,24
6081816,26
6082440,30
6083068,30
6083700,27
6084320,29
6084948,29
6085576,24
6086200,27
6086832,15
6087448,11
6088080,11
6088704,19
6089328,64
6089960,63
6090584,22
6091212,85
6091844,105
6092516,97
6093144,71
6093768,54
6094392,40
6095024,35
6095640,25
6096272,13
6096904,15
6097520,38
6098152,27
6098776,27
6099408,24
6100036,16
6100656,33
6101288,41
6101912,25
6102536,14
6103168,19
6103788,14
6104420,11
6105044,11
6105668,18
6106300,23
6106920,22
6107552,21
6108180,29
6108800,49
6109428,51
6110056,40
6110688,34
6111320,34
6111940,27
6112572,11
6113196,18
6113824,36
6114456,36
6115072,28
6115704,20
6116332,20
6116956,21
6117588,27
6118212,25
6118848,25
6119476,26
6120096,17
6120728,11
6121352,13
6121984,15
6122616,17
6123236,27
6123864,26
6124492,29
6125116,44
6125748,48
6126368,37
6127000,16
6127632,16
6128256,19
6128888,11
6129516,10
6130144,33
6130780,41
6131400,20
6132032,13
6132656,11
6133280,12
6133912,23
6134532,20
6135164,15
6135792,16
6136416,16
6137048,11
6137672,14
6138304,15
6138936,12
6139556,10
6140188,10
6140812,21
6141444,28
6142076,30
6142700,37
6143332,43
6143960,31
6144588,23
6145216,16
6145832,14
6146464,10
6147092,16
6147712,16
6148340,16
6148964,11
6149596,19
6150224,29
6150848,34
6151476,31
6152100,33
6152724,34
6153356,48
6153976,20
6154604,14
6155228,25
6155852,57
6156484,75
6157104,77
6157736,64
6158364,50
6158984,41
6159616,31
6160240,27
6160868,21
6161496,16
6162120,11
6162748,14
6163372,31
6164000,30
6164628,24
6165248,36
6165876,45
6166500,41
6167124,40
6167756,30
6168376,15
6169004,21
6169636,24
6170256,17
6170884,14
6171508,14
6172140,16
6172772,18
6173392,15
6174024,17
6174648,32
6175272,46
6175904,35
6176520,23
6177152,21
6177776,25
6178400,19
6179028,11
6179656,11
6180284,11
6180916,12
6181536,29
6182168,40
6182792,55
6183424,51
6184052,35
6184672,19
6185304,15
6185928,18
6186552,23
6187180,14
6187800,14
6188432,35
6189060,36
6189680,41
6190308,27
6190936,30
6191568,40
6192196,46
6192816,39
6193448,33
6194072,22
6194696,15
6195328,10
6195944,17
6196576,27
6197200,34
6197824,27
6198452,20
6199072,23
6199704,17
6200332,18
6200952,21
6201584,20
6202208,22
6202840,19
6203468,15
6204088,13
6204720,13
6205344,11
6205968,11
6206600,19
6207220,28
6207852,44
6208476,41
6209100,33
6209732,30
6210352,29
6210984,31
6211612,18
6212232,11
6212864,24
6213488,27
6214120,31
6214748,21
6215368,17
6216000,28
6216624,39
6217248,28
6217880,22
6218496,17
6219128,24
6219752,30
6220380,13
6221012,36
6221636,61
6222264,53
6222896,43
6223516,36
6224148,35
6224772,40
6225404,37
6226036,24
6226656,37
6227284,31
6227908,18
6228536,14
6229164,10
6229784,11
6230416,13
6231040,26
6231664,31
6232296,34
6232920,31
6233552,19
6234184,17
6234800,14
6235432,15
6236056,15
6236680,18
6237312,13
6237928,10
6238560,14
6239188,17
6239812,22
6240444,26
6241064,30
6241696,35
6242324,38
6242944,30
6243576,22
6244200,18
6244828,17
6245460,11
6246080,11
6246712,21
6247336,31
6247960,35
6248588,30
6249208,32
6249836,21
6250460,15
6251084,20
6251716,18
6252336,17
6252964,16
6253596,12
6254216,14
6254848,11
6255472,11
6256100,17
6256732,30
6257352,37
6257984,43
6258608,42
6259232,31
6259860,18
6260480,20
6261108,25
6261736,17
6262360,16
6262992,11
