tempo_arduino_micro_s,valor_ADC
500,9
1000,10
1500,11
2000,10
2504,11
3000,12
3508,14
4000,16
4504,18
5000,15
5500,13
6000,10
6500,12
7000,12
7500,14
8000,22
8500,26
9000,27
9500,19
10000,12
10508,11
11028,15
11556,17
12076,23
12604,23
13124,29
13648,34
14172,36
14700,41
15220,38
15748,32
16268,37
16796,34
17316,24
17836,14
18356,10
18876,17
19396,26
19916,28
20436,20
20956,17
21476,15
21996,15
22516,15
23036,18
23564,13
24084,10
24612,10
25132,13
25660,12
26180,11
26708,11
27228,12
27756,17
28276,19
28804,24
29324,33
29852,39
30372,42
30900,38
31420,31
31948,22
32468,15
32996,10
33516,10
34044,10
34564,12
35092,16
35612,15
36140,16
36660,14
37188,14
37708,15
38236,14
38760,18
39284,20
39804,21
40332,20
40852,10
41372,12
41892,16
42412,15
42932,11
43452,11
43972,14
44492,14
45012,14
45532,14
46052,14
46572,16
47092,22
47612,33
48140,36
48660,39
49188,33
49708,17
50236,11
50760,14
51284,17
51804,13
52332,10
52852,14
53380,14
53900,14
54428,14
54948,15
55476,15
55996,14
56524,11
57044,14
57572,20
58096,20
58620,13
59140,14
59668,11
60188,10
60716,10
61240,17
61764,23
62284,27
62812,28
63332,23
63860,19
64384,20
64908,22
65428,28
65948,25
66468,15
66988,11
67508,11
68028,10
68548,10
69068,10
69588,13
70108,14
70628,14
71148,14
71668,13
72192,12
72716,12
73236,13
73764,14
74284,12
74812,12
75332,11
75860,11
76384,10
76908,12
77428,18
77956,25
78476,21
79004,16
79528,17
80052,17
80572,14
81100,11
81620,10
82148,10
82668,10
83196,10
83720,10
84244,9
84704,10
85244,10
85764,16
86292,16
86812,14
87340,14
87860,14
88388,15
88908,12
89436,12
89960,13
90484,10
91004,10
91532,10
92052,10
92572,15
93092,11
93612,10
94132,10
94652,15
95176,18
95696,15
96212,14
96732,14
97252,14
97772,15
98292,17
98812,10
99340,17
99860,18
100388,19
100952,24
101536,17
102108,12
102688,15
103256,17
103832,19
104400,18
104976,14
105552,13
106120,11
106704,10
107272,15
107856,20
108424,42
109008,52
109584,47
110152,30
110736,27
111304,43
111888,41
112460,38
113040,40
113608,32
114176,23
114752,13
115320,10
115904,11
116472,13
117056,14
117624,19
118208,16
118776,19
119352,19
119936,14
120508,14
121088,15
121656,18
122240,16
122808,15
123384,19
123968,19
124536,18
125120,16
125688,14
126272,12
126844,14
127424,11
127992,19
128572,20
129152,27
129720,25
130296,30
130864,34
131448,30
132016,27
132592,14
133168,11
133736,12
134312,14
134884,13
135464,12
136032,16
136616,17
137184,18
137760,20
138344,26
138912,19
139496,11
140068,12
140648,15
141216,14
141792,24
142376,24
142948,12
143528,24
144096,31
144680,36
145248,48
145832,52
146400,38
146976,18
147560,14
148128,19
148712,15
149280,15
149864,11
150432,19
151008,19
151592,15
152164,11
152744,14
153316,17
153896,20
154464,26
155048,29
155616,30
156192,22
156776,14
157348,12
157928,9
158448,13
159024,21
159596,26
160176,23
160744,25
161312,24
161896,17
162464,17
163048,15
163616,18
164200,16
164768,13
165336,9
165852,11
166424,26
167004,25
167576,20
168152,11
168720,11
169304,14
169872,15
170448,15
171024,18
171592,15
172176,16
172744,15
173328,14
173896,17
174480,15
175048,13
175616,12
176200,11
176768,10
177344,12
177912,22
178496,29
179064,33
179648,36
180216,30
180792,27
181376,28
181944,28
182528,21
183096,17
183680,17
184248,13
184824,12
185408,16
185976,22
186560,27
187128,29
187712,32
188284,32
188864,24
189432,23
190012,19
190592,18
191164,15
191744,13
192316,11
192896,13
193464,18
194040,25
194624,30
195192,27
195776,27
196344,35
196928,35
197496,30
198080,23
198648,12
199224,11
199808,14
200376,15
200960,9
201476,13
202056,15
202628,17
203208,17
203784,19
204356,24
204936,22
205504,24
206080,24
206648,25
207224,27
207792,20
208368,11
208952,19
209520,28
210104,35
210672,40
211256,34
211824,33
212400,35
212968,33
213544,28
214128,16
214696,12
215280,15
215848,17
216432,11
217000,11
217576,23
218160,37
218728,34
219312,31
219880,23
220464,15
221032,15
221616,15
222184,14
222760,11
223344,16
223916,23
224496,15
225072,11
225656,11
226224,17
226792,32
227376,39
227944,32
228528,18
229096,19
229680,23
230248,27
230832,30
231400,33
231976,32
232560,24
233128,15
233712,11
234280,14
234864,19
235436,32
236012,35
236592,34
237164,27
237744,22
238316,18
238896,11
239464,10
240048,11
240616,11
241196,14
241776,12
242344,18
242928,25
243500,25
244080,21
244648,23
245224,26
245808,26
246376,23
246952,20
247520,24
248104,23
248672,19
249256,16
249828,10
250400,19
250984,24
251552,19
252136,10
252708,14
253288,13
253860,14
254436,15
255016,19
255588,25
256168,16
256740,15
257320,18
257888,23
258464,22
259032,13
259608,13
260192,16
260760,16
261344,25
261912,27
262496,24
263064,25
263632,24
264216,26
264784,25
265368,14
265936,14
266520,17
267088,15
267672,16
268240,16
268816,11
269400,15
269968,13
270544,19
271112,17
271696,17
272264,15
272848,17
273424,23
273996,18
274576,11
275144,12
275728,11
276308,10
276888,12
277456,14
278032,14
278616,15
279184,18
279768,35
280340,57
280920,65
281492,59
282068,49
282648,42
283216,30
283800,27
284372,18
284952,10
285524,19
286104,27
286676,26
287252,24
287832,24
288404,21
288984,18
289552,17
290136,13
290704,10
291280,16
291864,18
292432,14
293016,11
293588,12
294168,15
294740,19
295320,21
295892,23
296468,29
297048,30
297616,22
298200,18
298772,14
299352,12
299924,10
300500,10
301080,13
301652,14
302232,19
302804,23
303384,25
303956,31
304540,37
305116,34
305692,21
306272,18
306844,19
307424,21
308000,19
308584,15
309152,16
309732,11
310312,11
310884,15
311464,18
312036,23
312616,32
313188,30
313768,22
314344,27
314924,22
315504,18
316076,14
316656,18
317236,27
317816,43
318396,47
318972,48
319552,32
320124,25
320704,18
321272,15
321856,16
322424,10
323008,12
323576,10
324152,13
324736,13
325308,10
325888,10
326460,13
327040,13
327608,15
328188,15
328768,16
329336,17
329920,15
330488,11
331064,12
331632,19
332216,15
332784,15
333364,19
333944,13
334512,10
335096,13
335664,18
336248,13
336816,14
337392,15
337968,15
338536,13
339112,11
339684,10
340264,9
340780,10
341360,11
341928,17
342504,19
343088,13
343656,12
344240,22
344808,24
345392,25
345964,35
346544,47
347116,52
347692,38
348272,26
348840,14
349424,12
349996,11
350576,9
351096,10
351672,17
352244,25
352816,24
353400,19
353968,17
354552,17
355124,19
355704,15
356276,19
356852,19
357432,11
358004,10
358584,11
359152,11
359736,11
360308,11
360888,15
361456,13
362032,15
362616,14
363188,15
363768,18
364344,17
364928,18
365496,22
366076,13
366656,9
367176,11
367752,10
368324,10
368904,10
369472,14
370056,16
370624,18
371204,15
371784,16
372356,16
372936,14
373508,10
374088,9
374604,10
375184,13
375756,11
376332,17
376912,17
377484,17
378064,17
378636,22
379216,27
379788,25
380368,19
380944,22
381516,41
382096,37
382668,16
383248,12
383828,18
384412,25
384984,27
385560,34
386144,47
386712,47
387296,29
387864,16
388448,33
389020,46
389596,43
390176,22
390748,11
391328,26
391900,35
392480,26
393056,24
393640,29
394208,22
394788,15
395368,15
395940,16
396520,19
397100,19
397680,17
398252,13
398828,11
399408,11
399980,11
400560,9
401080,10
401656,10
402224,19
402808,25
403376,28
403952,35
404536,35
405108,33
405688,28
406260,37
406840,31
407412,35
407992,29
408564,16
409140,11
409720,12
410292,23
410872,30
411440,27
412024,25
412592,41
413168,40
413752,35
414324,35
414904,28
415472,21
416056,14
416624,13
417200,12
417768,18
418344,18
418928,13
419496,17
420080,21
420648,21
421224,20
421792,17
422368,10
422952,14
423520,25
424104,24
424672,20
425256,13
425824,14
426408,35
426976,37
427556,31
428136,34
428708,47
429288,48
429856,45
430440,40
431008,35
431588,23
432168,22
432736,26
433320,18
433888,10
434472,21
435044,22
435624,25
436192,29
436768,23
437352,19
437924,28
438504,29
439072,22
439656,19
440228,15
440804,11
441384,10
441956,14
442536,20
443108,18
443688,13
444256,15
444840,16
445408,16
445988,20
446568,20
447140,14
447720,17
448300,26
448880,19
449448,11
450024,10
450608,15
451176,24
451760,25
452328,22
452912,15
453484,14
454064,14
454636,16
455212,15
455792,11
456364,10
456944,11
457516,10
458096,11
458676,11
459252,11
459832,11
460404,11
460984,14
461552,22
462136,33
462708,42
463288,41
463860,34
464436,30
465016,19
465588,12
466168,10
466744,12
467328,16
467896,15
468476,13
469056,20
469628,20
470208,15
470780,15
471360,18
471940,15
472520,11
473104,10
473676,11
474256,11
474828,21
475408,28
475980,29
476560,16
477140,23
477716,44
478296,52
478872,44
479448,30
480028,24
480608,25
481180,28
481756,22
482336,13
482908,10
483488,10
484060,10
484640,11
485212,11
485792,15
486364,21
486940,25
487520,30
488092,21
488672,11
489244,21
489824,21
490396,12
490972,11
491552,14
492124,11
492704,14
493276,14
493856,25
494428,26
495008,14
495580,28
496156,40
496736,40
497304,41
497888,33
498460,24
499040,12
499612,15
500184,25
500768,32
501340,24
501920,11
502492,14
503072,16
503644,19
504224,19
504796,16
505372,10
505952,10
506524,10
507104,9
507624,10
508200,19
508772,36
509352,37
509932,33
510508,29
511088,28
511664,31
512244,27
512816,15
513392,15
513960,13
514536,22
515120,25
515688,27
516272,31
516840,66
517424,83
517992,89
518576,67
519144,42
519724,18
520304,20
520872,29
521456,37
522028,46
522608,40
523176,28
523756,28
524336,27
524908,26
525488,32
526056,30
526640,22
527212,11
527792,28
528364,35
528936,49
529520,47
530092,33
530672,27
531244,27
531824,12
532396,11
532972,15
533552,11
534124,21
534704,42
535276,64
535856,55
536428,19
537008,19
537580,38
538156,43
538736,51
539308,64
539888,40
540460,20
541040,10
541612,25
542188,33
542768,48
543336,56
543920,63
544492,53
545072,42
545644,25
546224,16
546796,13
547372,14
547952,11
548524,12
549104,10
549676,22
550256,18
550828,18
551404,27
551984,56
552556,60
553136,59
553708,40
554288,21
554860,16
555440,37
556020,52
556596,68
557176,74
557748,67
558328,60
558908,50
559488,50
560068,33
560644,24
561224,17
561796,15
562376,15
562948,18
563528,12
564104,11
564688,12
565264,11
565836,17
566416,20
566984,24
567568,21
568140,28
568720,22
569292,22
569868,19
570448,19
571020,26
571600,30
572180,33
572760,33
573340,22
573916,13
574496,10
575068,11
575648,14
576220,23
576800,28
577368,39
577952,42
578520,41
579100,40
579680,31
580252,31
580832,27
581404,15
581984,9
582504,18
583080,26
583652,25
584228,17
584808,10
585376,11
585960,13
586532,24
587112,37
587684,33
588260,24
588840,10
589408,21
589992,22
590564,21
591144,16
591716,15
592296,11
592876,19
593452,29
594032,20
594604,14
595184,16
595756,30
596336,34
596916,38
597492,32
598072,23
598644,15
599224,14
599796,11
600376,11
600956,10
601536,10
602120,10
602696,13
603272,23
603844,29
604424,30
605004,31
605584,20
606156,18
606732,16
607312,12
607884,10
608464,11
609044,10
609624,15
610196,25
610772,35
611352,36
611928,26
612504,17
613076,15
613660,12
614236,14
614820,15
615392,15
615972,10
616552,17
617124,22
617704,23
618276,33
618856,34
619428,25
620004,15
620584,15
621156,14
621736,18
622308,14
622888,10
623460,11
624040,12
624620,22
625196,28
625776,31
626348,37
626928,38
627508,29
628088,26
628660,24
629236,15
629816,15
630388,10
630968,11
631544,26
632120,36
632700,45
633280,36
633864,16
634436,23
635016,39
635588,49
636168,57
636748,62
637328,48
637908,35
638484,17
639064,11
639640,15
640220,16
640792,9
641316,10
641888,11
642472,16
643044,37
643620,80
644200,100
644820,85
645396,71
645972,59
646552,39
647124,18
647700,11
648280,19
648848,11
649432,15
650004,11
650584,12
651156,24
651732,25
652312,34
652884,39
653464,35
654036,32
654616,27
655196,26
655776,27
656352,21
656928,24
657512,26
658084,26
658664,26
659232,14
659816,17
660388,29
660964,40
661544,46
662116,19
662696,19
663268,14
663848,24
664420,32
665000,26
665572,18
666148,17
666728,16
667296,16
667880,11
668448,13
669032,13
669600,31
670176,32
670760,23
671328,17
671912,12
672484,15
673064,17
673636,21
674216,18
674788,11
675364,18
675944,25
676512,30
677096,21
677668,17
678248,14
678820,24
679392,22
679976,18
680548,11
681128,24
681696,16
682280,22
682848,47
683432,52
684004,43
684576,30
685160,15
685732,14
686312,19
686884,27
687464,34
688036,29
688608,14
689192,13
689764,10
690344,13
690916,10
691496,11
692076,18
692656,20
693228,26
693804,24
694384,17
694956,22
695536,38
696116,24
696696,13
697264,35
697844,47
698424,43
698992,35
699576,31
700148,24
700728,13
701308,11
701888,18
702472,14
703044,14
703624,15
704196,31
704776,35
705348,24
705928,11
706496,10
707076,11
707656,11
708228,12
708808,11
709376,19
709960,28
710532,21
711112,17
711688,14
712260,14
712840,15
713412,19
713992,23
714572,17
715152,14
715724,14
716300,10
716880,13
717452,10
718032,9
718552,13
719128,21
719700,27
720280,21
720848,19
721424,22
722008,11
722576,15
723160,13
723732,13
724312,15
724884,11
725456,12
726040,11
726612,18
727192,29
727764,17
728344,17
728916,28
729496,41
730068,55
730644,64
731224,66
731796,40
732376,19
732956,10
733536,11
734108,11
734684,27
735264,29
735836,34
736420,33
736988,45
737568,37
738140,28
738720,16
739292,15
739868,27
740448,25
741020,13
741600,11
742172,12
742752,15
743332,18
743908,14
744488,14
745056,35
745640,51
746212,33
746792,35
747372,22
747952,15
748532,39
749108,67
749688,56
750260,30
750840,11
751420,26
752000,27
752576,25
753156,17
753736,29
754308,36
754888,35
755460,46
756040,43
756612,21
757192,16
757776,16
758348,10
758928,23
759500,26
760080,19
760660,16
761240,15
761812,30
762388,35
762968,28
763540,23
764120,23
764700,17
765280,18
765860,27
766436,14
767016,20
767592,36
768172,44
768740,44
769320,31
769888,31
770472,16
771044,25
771620,15
772200,10
772772,11
773352,32
773932,15
774512,16
775084,35
775660,58
776240,50
776812,44
777392,26
777964,19
778544,15
779124,19
779704,16
780284,10
780860,10
781440,10
782012,10
782592,41
783164,82
783744,83
784324,88
784900,96
785480,92
786052,75
786632,43
787204,19
787784,14
788356,21
788936,47
789520,56
790092,40
790672,26
791244,13
791824,11
792404,10
792984,15
793564,14
794140,14
794720,17
795292,19
795872,19
796452,24
797032,18
797612,9
798136,13
798708,9
799232,12
799808,16
800384,11
800960,10
801528,14
802112,19
802684,27
803264,31
803836,24
804412,14
804992,22
805564,19
806144,11
806716,14
807296,21
807868,19
808444,13
809024,11
809596,13
810176,11
810748,14
811328,18
811908,32
812488,48
813072,42
813644,34
814224,29
814796,27
815376,22
815956,11
816540,20
817116,33
817692,32
818272,27
818844,21
819424,15
820000,15
820576,16
821144,18
821712,19
822296,18
822864,19
823448,13
824016,14
824600,10
825168,20
825752,20
826320,15
826896,12
827480,15
828048,16
828632,17
829204,22
829784,15
830352,11
830932,18
831512,31
832084,32
832664,27
833232,17
833808,13
834376,13
834960,27
835528,22
836104,16
836688,16
837256,20
837840,17
838412,12
838992,11
839564,11
840144,14
840720,29
841288,47
841872,57
842440,43
843024,32
843596,11
844176,31
844748,36
845324,46
845904,59
846476,51
847056,33
847628,27
848208,28
848776,29
849360,20
849936,12
850504,11
851088,14
851660,28
852240,28
852808,38
853392,36
853964,18
854540,14
855120,11
855692,15
856272,21
856844,31
857424,38
857996,33
858576,24
859152,16
859724,11
860304,12
860872,16
861456,24
862024,32
862608,40
863180,38
863756,42
864336,37
864908,18
865488,14
866056,13
866640,25
867208,28
867792,27
868368,21
868940,16
869520,16
870092,26
870672,22
871248,16
871832,11
872404,12
872976,30
873560,27
874132,12
874712,28
875284,23
875864,15
876436,15
877012,12
877592,15
878164,16
878744,15
879316,14
879896,14
880476,11
881056,29
881624,54
882200,37
882784,22
883356,12
883936,11
884508,14
885088,23
885660,26
886236,17
886816,14
887388,14
887968,18
888540,16
889120,11
889692,23
890272,23
890844,19
891420,22
892000,16
892572,51
893152,56
893732,39
894312,32
894892,21
895468,18
896052,30
896620,27
897200,42
897772,68
898352,83
898924,46
899504,28
900076,32
900652,43
901232,49
901800,46
902384,45
902956,52
903536,53
904108,46
904680,42
905264,30
905836,16
906416,66
906988,87
907568,81
908140,76
908720,78
909300,84
909876,91
910456,99
911028,76
911608,48
912188,28
912768,17
913340,12
913916,12
914496,12
915068,18
915648,13
916220,12
916800,29
917380,45
917960,40
918544,30
919116,28
919696,17
920272,14
920848,14
921428,15
922012,18
922584,22
923160,21
923744,16
924316,12
924896,11
925464,11
926048,13
926620,18
927196,31
927776,52
928352,54
928928,32
929500,29
930080,31
930652,28
931232,16
931804,10
932380,13
932960,19
933532,19
934112,16
934692,15
935272,12
935844,21
936420,33
937000,30
937572,27
938152,17
938728,13
939304,18
939884,22
940464,14
941044,10
941620,15
942200,15
942772,11
943352,16
943924,22
944504,24
945084,16
945660,19
946240,35
946812,43
947392,36
947964,41
948544,25
949116,10
949696,14
950280,23
950852,16
951432,12
952008,11
952584,13
953156,17
953736,22
954316,22
954892,19
955472,19
956044,27
956624,23
957204,21
957784,16
958364,15
958940,21
959524,13
960096,11
960672,15
961244,19
961824,26
962396,26
962976,22
963556,11
964132,11
964712,10
965284,10
965864,10
966436,14
967016,39
967588,58
968164,46
968744,38
969316,56
969896,59
970468,49
971048,45
971628,26
972208,11
972788,13
973364,18
973944,21
974516,13
975096,11
975668,22
976248,16
976828,26
977404,33
977984,24
978556,19
979136,24
979712,20
980288,15
980868,14
981448,10
982024,21
982596,17
983176,24
983748,27
984328,35
984896,35
985480,41
986052,49
986624,46
987208,35
987780,26
988360,12
988932,13
989512,11
990084,16
990664,22
991240,16
991812,13
992392,11
992964,10
993544,11
994116,17
994696,13
995268,15
995844,29
996424,56
996996,44
997576,45
998148,50
998728,48
999304,30
999888,11
1000472,12
1001088,11
1001716,17
1002340,15
1002968,21
1003596,22
1004216,15
1004844,13
1005464,10
1006088,11
1006716,23
1007336,27
1007964,29
1008588,16
1009212,11
1009840,18
1010464,17
1011092,16
1011724,20
1012344,39
1012972,36
1013596,42
1014224,51
1014856,49
1015472,51
1016104,25
1016728,28
1017352,35
1017980,27
1018600,21
1019228,15
1019852,33
1020476,53
1021108,54
1021728,51
1022356,47
1022988,38
1023608,26
1024240,24
1024860,38
1025488,43
1026116,36
1026732,13
1027360,16
1027984,20
1028612,18
1029240,30
1029856,49
1030484,51
1031104,40
1031728,31
1032356,22
1032972,25
1033600,41
1034224,41
1034848,27
1035476,18
1036096,14
1036728,15
1037356,18
1037976,15
1038604,11
1039224,10
1039856,11
1040484,10
1041100,13
1041732,21
1042352,15
1042976,16
1043604,15
1044220,14
1044852,19
1045472,32
1046092,33
1046724,28
1047340,25
1047972,12
1048600,11
1049216,15
1049844,16
1050468,12
1051096,19
1051724,16
1052344,15
1052972,15
1053592,15
1054216,16
1054848,13
1055464,11
1056092,10
1056712,14
1057336,22
1057964,27
1058580,23
1059212,11
1059832,13
1060456,20
1061084,14
1061708,14
1062336,15
1062964,18
1063584,11
1064212,12
1064836,20
1065464,25
1066092,30
1066708,25
1067340,17
1067964,12
1068584,13
1069216,13
1069832,19
1070460,28
1071084,35
1071708,21
1072336,14
1072952,19
1073580,32
1074212,34
1074832,21
1075460,20
1076084,17
1076712,20
1077340,18
1077960,15
1078588,42
1079208,51
1079832,53
1080460,59
1081080,59
1081708,36
1082328,33
1082952,25
1083580,11
1084200,28
1084828,30
1085456,15
1086072,17
1086700,29
1087324,38
1087956,32
1088584,23
1089200,24
1089828,11
1090452,35
1091076,49
1091708,46
1092328,34
1092956,11
1093580,25
1094204,28
1094832,31
1095448,43
1096080,52
1096700,38
1097328,28
1097956,17
1098580,11
1099208,23
1099836,26
1100456,21
1101084,21
1101708,14
1102340,23
1102968,24
1103584,27
1104216,26
1104840,25
1105460,21
1106092,11
1106712,9
1107288,16
1107908,27
1108532,29
1109164,14
1109784,18
1110412,22
1111036,18
1111664,18
1112292,18
1112916,15
1113548,10
1114180,11
1114800,12
1115428,19
1116052,41
1116680,80
1117308,80
1117928,72
1118556,74
1119184,61
1119808,20
1120436,44
1121056,41
1121684,39
1122312,23
1122936,17
1123564,11
1124188,22
1124816,25
1125448,18
1126064,10
1126692,20
1127316,29
1127940,24
1128572,14
1129192,14
1129820,15
1130444,11
1131064,11
1131696,10
1132312,18
1132940,23
1133564,12
1134192,21
1134820,25
1135444,29
1136072,40
1136704,29
1137320,15
1137948,14
1138572,15
1139200,12
1139828,11
1140448,13
1141076,11
1141700,13
1142324,11
1142956,12
1143576,26
1144204,31
1144828,28
1145456,27
1146084,27
1146708,21
1147340,22
1147968,15
1148588,10
1149216,11
1149840,14
1150468,11
1151096,10
1151720,12
1152348,14
1152972,14
1153596,15
1154224,14
1154840,14
1155468,15
1156092,19
1156720,18
1157348,18
1157972,17
1158600,13
1159228,12
1159848,18
1160476,23
1161100,27
1161728,23
1162356,23
1162976,21
1163604,21
1164228,11
1164852,10
1165480,11
1166096,11
1166724,13
1167348,21
1167972,30
1168600,29
1169224,17
1169852,17
1170484,18
1171104,18
1171732,17
1172356,18
1172988,21
1173616,24
1174232,18
1174864,11
1175488,19
1176112,15
1176740,15
1177360,37
1177988,31
1178612,20
1179236,24
1179864,25
1180488,23
1181120,15
1181748,16
1182368,21
1182996,19
1183620,24
1184252,30
1184880,39
1185496,27
1186128,14
1186752,29
1187376,37
1188004,24
1188624,27
1189252,37
1189876,22
1190500,15
1191128,15
1191752,12
1192380,11
1193012,10
1193632,17
1194260,15
1194884,15
1195512,21
1196144,26
1196764,37
1197392,43
1198020,36
1198644,22
1199272,10
1199892,12
1200520,21
1201144,13
1201768,14
1202396,24
1203020,27
1203652,18
1204280,15
1204896,18
1205528,24
1206152,22
1206780,20
1207412,24
1208032,39
1208660,46
1209284,28
1209908,12
1210536,19
1211156,23
1211784,24
1212408,22
1213032,24
1213660,24
1214284,19
1214916,13
1215544,10
1216168,12
1216796,13
1217420,15
1218048,16
1218680,14
1219296,15
1219924,18
1220548,17
1221172,15
1221800,15
1222424,21
1223052,11
1223676,14
1224304,18
1224932,15
1225556,13
1226188,18
1226820,16
1227440,15
1228068,16
1228696,16
1229320,16
1229948,21
1230568,36
1231196,50
1231820,56
1232444,50
1233072,39
1233688,36
1234316,32
1234940,34
1235568,29
1236196,17
1236820,14
1237448,26
1238076,31
1238696,27
1239324,33
1239948,40
1240580,23
1241208,13
1241824,23
1242452,21
1243076,11
1243700,18
1244328,19
1244944,18
1245576,17
1246200,21
1246824,21
1247452,17
1248076,15
1248704,10
1249336,10
1249952,14
1250580,12
1251204,10
1251832,14
1252460,15
1253080,15
1253708,15
1254332,15
1254960,9
1255536,15
1256160,19
1256788,11
1257412,15
1258036,22
1258664,14
1259288,11
1259916,20
1260540,30
1261168,23
1261796,15
1262420,14
1263052,13
1263680,18
1264296,10
1264928,20
1265552,23
1266180,23
1266812,12
1267432,12
1268060,11
1268684,22
1269308,24
1269940,20
1270560,16
1271188,16
1271820,18
1272440,21
1273068,18
1273692,11
1274324,26
1274952,38
1275572,66
1276200,65
1276824,37
1277448,34
1278080,44
1278696,44
1279328,32
1279952,24
1280576,20
1281204,16
1281820,11
1282448,16
1283076,12
1283696,11
1284324,14
1284944,11
1285572,27
1286204,40
1286824,40
1287452,30
1288072,23
1288700,11
1289332,10
1289952,11
1290580,11
1291200,11
1291824,21
1292452,28
1293072,43
1293700,39
1294324,37
1294944,28
1295576,17
1296196,20
1296828,24
1297456,18
1298072,14
1298700,10
1299324,20
1299952,39
1300580,33
1301200,31
1301828,41
1302452,41
1303072,37
1303704,21
1304320,15
1304948,11
1305572,15
1306196,16
1306828,20
1307448,33
1308076,38
1308708,32
1309328,19
1309956,20
1310580,21
1311212,19
1311840,16
1312456,15
1313084,13
1313704,15
1314328,11
1314956,14
1315576,11
1316204,9
1316772,10
1317400,16
1318028,22
1318648,25
1319276,16
1319896,14
1320520,19
1321148,14
1321764,11
1322396,12
1323024,12
1323640,18
1324268,15
1324892,11
1325520,17
1326148,22
1326768,29
1327396,26
1328020,18
1328644,21
1329272,25
1329888,33
1330520,25
1331144,16
1331768,13
1332396,14
1333016,15
1333644,11
1334264,26
1334888,35
1335516,31
1336140,27
1336768,16
1337396,16
1338016,19
1338644,13
1339268,10
1339896,12
1340524,11
1341144,11
1341772,15
1342396,29
1343016,37
1343648,40
1344264,33
1344892,28
1345512,26
1346136,19
1346764,16
1347380,21
1348012,10
1348640,11
1349256,12
1349884,13
1350508,21
1351136,31
1351764,37
1352384,30
1353012,17
1353632,18
1354252,15
1354884,11
1355504,11
1356132,12
1356756,10
1357380,16
1358008,14
1358624,11
1359252,14
1359884,16
1360504,24
1361132,34
1361756,36
1362384,35
1363012,37
1363632,32
1364260,13
1364884,11
1365508,17
1366136,16
1366760,13
1367388,15
1368012,19
1368632,14
1369260,16
1369880,25
1370508,27
1371132,35
1371760,39
1372388,30
1373012,18
1373640,13
1374268,10
1374888,12
1375516,10
1376140,12
1376768,21
1377396,19
1378016,31
1378644,40
1379268,42
1379888,42
1380520,39
1381136,35
1381764,29
1382388,16
1383012,10
1383644,12
1384264,22
1384896,37
1385524,36
1386144,27
1386772,15
1387396,17
1388028,21
1388656,41
1389272,35
1389904,11
1390528,23
1391152,35
1391780,31
1392400,27
1393028,24
1393652,21
1394276,17
1394904,15
1395528,30
1396156,26
1396784,11
1397404,11
1398032,11
1398656,15
1399284,15
1399912,21
1400536,25
1401164,29
1401788,26
1402412,17
1403040,14
1403664,19
1404292,18
1404916,13
1405540,12
1406168,11
1406792,19
1407420,20
1408052,15
1408668,15
1409296,10
1409920,13
1410548,14
1411176,16
1411800,17
1412428,29
1413052,43
1413676,52
1414304,43
1414928,30
1415556,14
1416180,11
1416804,22
1417432,25
1418056,22
1418684,29
1419316,18
1419936,16
1420564,17
1421188,17
1421820,20
1422448,15
1423064,14
1423696,14
1424320,11
1424940,11
1425572,16
1426192,20
1426820,17
1427444,21
1428068,26
1428696,23
1429320,24
1429952,29
1430580,15
1431200,15
1431828,15
1432452,11
1433084,10
1433716,10
1434332,15
1434964,17
1435584,18
1436208,16
1436836,14
1437456,15
1438084,11
1438708,10
1439332,19
1439960,21
1440584,19
1441212,13
1441840,11
1442456,12
1443084,20
1443708,31
1444336,34
1444964,39
1445584,35
1446212,16
1446836,13
1447456,20
1448088,26
1448704,23
1449332,28
1449956,21
1450580,13
1451208,13
1451824,14
1452452,15
1453084,19
1453704,23
1454332,28
1454956,25
1455584,21
1456216,17
1456832,20
1457460,17
1458084,16
1458708,10
1459336,11
1459952,14
1460580,23
1461204,21
1461828,15
1462456,18
1463072,15
1463700,10
1464332,10
1464952,13
1465580,20
1466204,37
1466836,45
1467464,48
1468080,49
1468712,43
1469336,21
1469960,23
1470588,27
1471208,25
1471836,32
1472464,45
1473084,56
1473716,60
1474336,49
1474964,38
1475596,24
1476216,21
1476844,26
1477468,25
1478096,21
1478724,22
1479344,28
1479972,35
1480596,32
1481220,29
1481852,26
1482472,13
1483100,21
1483724,31
1484348,30
1484976,28
1485596,21
1486228,15
1486856,16
1487472,23
1488104,23
1488724,18
1489356,17
1489984,46
1490600,33
1491228,11
1491852,11
1492480,11
1493108,10
1493728,19
1494356,26
1494984,29
1495608,25
1496236,14
1496856,23
1497484,41
1498108,45
1498736,34
1499364,11
1499988,16
1500620,20
1501248,27
1501868,22
1502496,15
1503120,15
1503748,15
1504380,14
1505000,11
1505628,16
1506252,21
1506876,16
1507504,13
1508128,11
1508756,15
1509388,16
1510008,15
1510636,13
1511260,15
1511892,20
1512524,23
1513144,19
1513772,16
1514396,12
1515024,21
1515652,23
1516272,31
1516900,34
1517524,28
1518148,12
1518780,16
1519400,22
1520028,21
1520660,32
1521280,29
1521908,32
1522532,36
1523164,32
1523796,25
1524416,13
1525044,17
1525668,28
1526292,23
1526924,16
1527544,16
1528172,15
1528796,15
1529424,19
1530052,15
1530672,17
1531304,12
1531932,10
1532552,12
1533184,16
1533808,32
1534436,32
1535068,14
1535688,33
1536320,56
1536940,47
1537564,31
1538192,27
1538812,23
1539440,13
1540060,15
1540684,17
1541312,26
1541936,32
1542564,17
1543192,10
1543812,14
1544440,16
1545064,16
1545692,14
1546320,10
1546944,11
1547572,17
1548196,23
1548820,13
1549448,21
1550064,25
1550696,23
1551320,21
1551944,15
1552572,16
1553192,25
1553820,18
1554452,14
1555072,19
1555704,11
1556328,10
1556956,10
1557588,14
1558208,11
1558836,11
1559460,12
1560084,17
1560712,14
1561336,15
1561964,14
1562588,17
1563212,13
1563840,26
1564456,28
1565088,25
1565716,21
1566336,13
1566964,14
1567588,31
1568220,40
1568848,27
1569464,14
1570092,15
1570716,19
1571340,25
1571972,23
1572592,11
1573220,16
1573844,20
1574468,16
1575100,10
1575720,19
1576348,22
1576980,14
1577600,15
1578228,17
1578852,27
1579484,25
1580112,26
1580736,22
1581368,19
1581992,11
1582616,11
1583244,13
1583864,15
1584496,10
1585116,13
1585744,15
1586372,16
1586992,14
1587624,23
1588252,32
1588872,37
1589500,37
1590124,27
1590756,11
1591384,11
1592008,11
1592636,11
1593260,12
1593888,16
1594516,13
1595136,21
1595768,20
1596392,11
1597016,13
1597648,22
1598264,29
1598892,32
1599524,21
1600144,21
1600772,24
1601392,27
1602024,29
1602652,30
1603272,31
1603900,25
1604520,17
1605144,10
1605772,16
1606392,24
1607020,19
1607644,17
1608268,12
1608896,10
1609512,13
1610144,25
1610772,24
1611392,16
1612020,15
1612644,15
1613276,10
1613904,10
1614520,9
1615100,13
1615728,13
1616356,11
1616988,19
1617608,17
1618236,11
1618860,13
1619484,15
1620112,20
1620728,18
1621356,11
1621980,11
1622604,11
1623232,10
1623856,17
1624484,22
1625116,25
1625736,15
1626364,13
1626988,29
1627620,36
1628248,40
1628864,49
1629496,48
1630116,41
1630740,30
1631372,11
1631992,20
1632624,15
1633248,14
1633872,15
1634500,15
1635120,19
1635752,16
1636380,15
1637000,20
1637628,24
1638252,29
1638884,23
1639512,11
1640128,14
1640756,19
1641376,28
1641996,25
1642624,22
1643244,20
1643872,18
1644496,17
1645116,25
1645744,32
1646368,39
1646996,31
1647624,23
1648240,18
1648868,10
1649488,19
1650116,19
1650744,22
1651360,23
1651988,20
1652608,17
1653236,16
1653868,18
1654484,23
1655116,24
1655736,17
1656360,14
1656988,22
1657608,26
1658236,22
1658856,22
1659480,26
1660108,25
1660728,21
1661356,16
1661984,14
1662600,13
1663232,11
1663852,12
1664484,10
1665112,18
1665728,12
1666356,15
1666980,12
1667600,11
1668228,14
1668844,15
1669472,14
1670096,16
1670716,14
1671348,10
1671968,13
1672596,15
1673224,15
1673840,12
1674468,11
1675092,16
1675720,22
1676352,24
1676968,27
1677596,21
1678220,18
1678848,17
1679476,16
1680096,20
1680720,27
1681344,32
1681964,26
1682592,14
1683212,16
1683840,20
1684464,27
1685088,38
1685716,39
1686336,33
1686968,19
1687596,14
1688216,23
1688844,20
1689468,18
1690096,24
1690724,36
1691344,39
1691972,61
1692592,82
1693216,84
1693844,54
1694464,37
1695092,30
1695716,23
1696336,20
1696964,11
1697580,10
1698212,10
1698840,10
1699456,11
1700084,11
1700708,12
1701336,12
1701964,14
1702584,19
1703212,22
1703832,19
1704456,15
1705084,11
1705704,17
1706332,17
1706956,14
1707576,23
1708208,17
1708824,19
1709452,21
1710076,27
1710704,21
1711332,15
1711956,14
1712588,14
1713216,10
1713840,11
1714468,10
1715092,15
1715720,12
1716348,10
1716968,11
1717596,11
1718220,17
1718844,15
1719472,14
1720096,17
1720724,21
1721352,11
1721976,15
1722604,27
1723228,21
1723856,11
1724484,18
1725104,13
1725732,12
1726356,14
1726984,15
1727612,14
1728232,15
1728860,14
1729484,13
1730104,14
1730736,19
1731352,13
1731980,11
1732604,11
1733232,14
1733860,14
1734484,18
1735112,24
1735740,20
1736360,20
1736988,33
1737612,41
1738240,37
1738868,20
1739488,12
1740116,37
1740744,49
1741368,33
1741996,12
1742616,11
1743244,16
1743868,25
1744496,27
1745124,40
1745748,55
1746376,59
1747004,46
1747624,35
1748252,28
1748876,16
1749504,16
1750132,18
1750752,19
1751380,15
1752004,15
1752628,18
1753256,14
1753876,16
1754504,18
1755128,23
1755752,22
1756380,19
1757004,20
1757636,21
1758264,13
1758884,11
1759512,18
1760136,26
1760764,34
1761392,35
1762016,37
1762644,30
1763264,21
1763884,13
1764516,10
1765136,12
1765764,11
1766388,10
1767012,14
1767640,15
1768264,19
1768892,22
1769520,22
1770140,19
1770768,19
1771392,18
1772020,19
1772648,14
1773272,10
1773900,11
1774524,13
1775148,12
1775780,12
1776400,13
1777028,14
1777652,15
1778276,17
1778904,17
1779528,14
1780156,19
1780788,17
1781408,11
1782036,27
1782660,18
1783292,18
1783920,21
1784536,14
1785168,15
1785792,15
1786416,20
1787044,28
1787664,30
1788292,30
1788916,28
1789540,27
1790172,17
1790796,12
1791428,30
1792056,42
1792676,41
1793308,27
1793928,16
1794556,17
1795188,18
1795808,20
1796436,21
1797060,23
1797684,22
1798316,20
1798936,22
1799564,21
1800188,10
1800816,14
1801444,21
1802068,26
1802696,26
1803328,31
1803944,34
1804572,21
1805196,13
1805824,12
1806452,15
1807072,17
1807700,13
1808324,11
1808944,12
1809572,14
1810192,17
1810820,20
1811444,18
1812068,18
1812696,22
1813320,27
1813948,23
1814576,14
1815200,10
1815828,10
1816452,11
1817080,11
1817712,13
1818328,16
1818956,15
1819580,15
1820204,15
1820832,14
1821448,11
1822080,14
1822704,15
1823328,15
1823956,13
1824580,12
1825212,10
1825840,11
1826456,14
1827084,17
1827708,18
1828340,18
1828968,21
1829584,22
1830212,24
1830840,27
1831460,21
1832092,10
1832712,9
1833288,11
1833920,23
1834540,30
1835172,20
1835792,17
1836420,17
1837044,18
1837668,27
1838300,21
1838924,13
1839556,12
1840184,10
1840800,24
1841432,31
1842056,31
1842684,40
1843316,42
1843932,33
1844564,16
1845184,38
1845808,52
1846436,64
1847056,77
1847684,64
1848304,52
1848928,50
1849560,62
1850184,48
1850812,34
1851440,13
1852064,17
1852692,24
1853316,23
1853948,22
1854576,16
1855196,10
1855824,12
1856448,11
1857068,19
1857700,22
1858320,20
1858948,13
1859572,12
1860196,23
1860824,35
1861448,39
1862076,35
1862708,20
1863328,11
1863956,10
1864580,11
1865212,10
1865840,11
1866456,12
1867084,13
1867708,14
1868332,21
1868964,21
1869584,20
1870212,15
1870836,15
1871460,11
1872088,20
1872712,16
1873340,10
1873972,10
1874592,13
1875220,16
1875844,20
1876472,17
1877100,18
1877720,16
1878348,15
1878976,17
1879600,22
1880228,26
1880848,20
1881476,10
1882100,19
1882724,22
1883356,17
1883980,14
1884612,12
1885240,15
1885856,14
1886488,15
1887112,17
1887740,18
1888372,12
1888992,14
1889620,25
1890244,47
1890868,50
1891496,35
1892116,15
1892744,11
1893368,15
1893992,36
1894624,61
1895244,64
1895876,77
1896504,66
1897120,38
1897752,13
1898376,10
1899004,13
1899636,22
1900256,31
1900884,15
1901508,19
1902132,23
1902764,16
1903384,16
1904012,14
1904636,10
1905264,11
1905892,11
1906516,15
1907148,15
1907780,16
1908400,17
1909028,14
1909652,13
1910280,15
1910908,14
1911528,17
1912160,21
1912784,21
1913408,18
1914040,14
1914656,11
1915288,13
1915916,10
1916536,10
1917168,11
1917792,16
1918424,21
1919052,20
1919672,16
1920304,21
1920928,16
1921548,11
1922176,12
1922800,11
1923428,22
1924052,32
1924676,26
1925304,17
1925920,16
1926552,17
1927180,18
1927800,19
1928428,19
1929052,37
1929680,47
1930308,35
1930928,34
1931556,23
1932180,18
1932804,37
1933436,36
1934056,30
1934684,34
1935308,28
1935936,19
1936564,15
1937184,14
1937812,13
1938444,16
1939064,16
1939692,11
1940316,12
1940948,15
1941576,25
1942200,38
1942828,46
1943452,56
1944080,56
1944708,50
1945328,34
1945960,25
1946580,19
1947204,11
1947832,10
1948456,13
1949084,11
1949716,12
1950336,13
1950964,12
1951588,19
1952220,22
1952848,26
1953472,25
1954100,23
1954724,18
1955348,16
1955980,10
1956600,15
1957228,23
1957852,23
1958476,17
1959108,12
1959728,13
1960356,20
1960988,28
1961608,22
1962236,17
1962860,25
1963492,31
1964120,32
1964744,25
1965376,23
1966000,15
1966624,9
1967200,10
1967824,11
1968452,17
1969076,20
1969700,20
1970328,17
1970944,14
1971576,11
1972200,11
1972820,10
1973448,10
1974072,11
1974700,11
1975332,10
1975952,11
1976580,15
1977204,14
1977836,14
1978464,17
1979080,17
1979712,20
1980336,12
1980960,11
1981588,11
1982208,13
1982836,11
1983460,10
1984084,12
1984712,22
1985336,30
1985964,21
1986592,22
1987216,23
1987844,18
1988464,12
1989096,15
1989724,12
1990344,11
1990972,13
1991600,13
1992220,12
1992852,10
1993472,13
1994100,13
1994728,15
1995348,15
1995980,18
1996600,26
1997232,25
1997860,11
1998480,17
1999108,17
1999732,11
2000364,11
2000992,26
2001608,39
2002240,33
2002860,25
2003484,29
2004116,24
2004736,19
2005364,10
2005988,28
2006612,44
2007240,44
2007864,33
2008492,14
2009120,14
2009736,24
2010368,38
2010992,45
2011620,39
2012248,36
2012872,31
2013500,27
2014124,13
2014748,11
2015376,10
2016000,12
2016628,16
2017252,21
2017876,18
2018504,19
2019128,21
2019756,19
2020388,16
2021008,20
2021636,25
2022260,36
2022892,26
2023520,14
2024144,11
2024772,12
2025396,17
2026020,32
2026652,28
2027272,25
2027900,15
2028524,22
2029148,16
2029780,18
2030404,30
2031032,38
2031664,42
2032280,39
2032908,20
2033532,11
2034164,17
2034796,26
2035416,27
2036044,15
2036668,15
2037292,14
2037924,11
2038544,12
2039172,10
2039800,12
2040424,12
2041052,16
2041676,13
2042308,12
2042936,11
2043560,18
2044188,25
2044812,31
2045444,33
2046072,28
2046696,21
2047328,24
2047952,17
2048576,11
2049204,19
2049820,18
2050448,11
2051068,10
2051692,21
2052320,22
2052944,14
2053572,17
2054200,21
2054816,23
2055444,20
2056068,15
2056696,16
2057324,10
2057944,14
2058572,20
2059192,19
2059816,17
2060444,14
2061064,14
2061692,18
2062312,15
2062936,10
2063564,10
2064184,11
2064812,11
2065440,20
2066056,16
2066684,19
2067308,24
2067936,29
2068564,25
2069180,17
2069812,15
2070432,14
2071056,11
2071684,10
2072304,18
2072932,13
2073556,11
2074180,12
2074808,10
2075424,11
2076056,11
2076684,14
2077304,15
2077932,20
2078556,20
2079188,17
2079816,11
2080436,10
2081064,12
2081684,10
2082308,11
2082936,12
2083560,10
2084188,10
2084808,12
2085432,14
2086060,16
2086680,21
2087308,28
2087932,22
2088552,16
2089184,11
2089804,11
2090432,14
2091064,11
2091680,11
2092308,13
2092932,19
2093560,32
2094188,40
2094808,37
2095436,36
2096060,41
2096680,35
2097308,27
2097928,18
2098556,9
2099128,12
2099752,17
2100380,14
2101000,13
2101628,16
2102252,17
2102872,16
2103504,16
2104120,17
2104748,11
2105376,10
2106000,11
2106628,12
2107252,11
2107880,12
2108508,11
2109128,16
2109756,23
2110380,23
2111004,19
2111636,14
2112256,17
2112884,18
2113508,12
2114132,10
2114760,9
2115324,13
2115956,11
2116580,10
2117204,10
2117832,10
2118448,17
2119080,19
2119708,14
2120328,14
2120956,18
2121580,25
2122212,10
2122840,13
2123456,14
2124088,17
2124712,29
2125336,37
2125964,27
2126584,22
2127212,15
2127836,28
2128460,28
2129092,42
2129712,51
2130340,39
2130972,23
2131592,12
2132220,13
2132844,16
2133472,23
2134100,19
2134720,16
2135348,21
2135972,27
2136596,22
2137228,17
2137848,14
2138476,24
2139100,13
2139724,15
2140352,17
2140972,23
2141600,29
2142228,24
2142848,19
2143476,15
2144100,14
2144728,15
2145360,16
2145976,13
2146604,10
2147228,10
2147852,11
2148480,12
2149096,14
2149728,20
2150352,13
2150976,10
2151604,14
2152224,16
2152852,21
2153480,21
2154104,13
2154732,18
2155356,27
2155984,20
2156616,16
2157236,17
2157864,16
2158488,15
2159112,11
2159740,14
2160360,15
2160988,14
2161612,14
2162236,23
2162864,14
2163480,15
2164112,14
2164736,10
2165360,12
2165988,11
2166612,29
2167240,31
2167872,13
2168488,16
2169120,17
2169744,15
2170372,14
2171004,11
2171624,14
2172252,13
2172876,13
2173500,15
2174128,27
2174748,40
2175376,34
2176008,30
2176620,41
2177248,54
2177872,49
2178500,37
2179132,28
2179752,13
2180380,12
2181004,14
2181636,11
2182264,12
2182880,16
2183512,17
2184136,17
2184756,19
2185388,24
2186008,26
2186636,16
2187260,15
2187888,15
2188516,12
2189140,10
2189772,11
2190400,11
2191016,13
2191648,13
2192272,13
2192900,12
2193532,16
2194152,15
2194780,16
2195404,21
2196028,28
2196660,26
2197280,28
2197908,28
2198540,24
2199160,23
2199788,24
2200416,21
2201044,11
2201676,16
2202296,21
2202924,21
2203548,21
2204172,15
2204800,13
2205416,18
2206048,17
2206672,18
2207296,19
2207924,16
2208544,19
2209172,14
2209804,16
2210424,21
2211052,18
2211676,18
2212308,24
2212936,35
2213560,47
2214188,43
2214812,25
2215436,13
2216068,12
2216688,13
2217316,16
2217940,16
2218564,21
2219192,15
2219816,17
2220444,17
2221076,22
2221696,32
2222324,24
2222948,24
2223580,23
2224212,22
2224832,13
2225460,12
2226084,12
2226708,13
2227340,18
2227960,25
2228588,26
2229212,25
2229836,21
2230468,32
2231088,40
2231716,52
2232348,46
2232968,31
2233596,14
2234220,12
2234852,29
2235484,31
2236104,23
2236736,18
2237360,21
2237984,17
2238616,14
2239232,12
2239864,10
2240488,11
2241112,11
2241740,16
2242360,19
2242988,17
2243620,16
2244240,31
2244868,21
2245492,19
2246120,18
2246752,15
2247368,14
2247996,11
2248620,12
2249244,13
2249876,12
2250496,11
2251124,13
2251752,15
2252376,15
2253008,18
2253624,30
2254252,35
2254880,37
2255496,39
2256128,29
2256748,13
2257380,22
2258008,39
2258624,54
2259252,59
2259876,57
2260500,48
2261128,31
2261744,28
2262372,30
2263000,33
2263624,29
2264252,22
2264872,15
2265500,11
2266132,10
2266752,17
2267380,19
2268004,23
2268636,24
2269264,20
2269884,17
2270512,15
2271136,11
2271760,15
2272392,11
2273008,16
2273636,13
2274260,11
2274884,13
2275516,18
2276136,13
2276764,13
2277396,14
2278016,15
2278644,21
2279268,39
2279900,47
2280528,42
2281152,22
2281780,11
2282404,10
2283028,10
2283660,14
2284280,27
2284908,29
2285532,19
2286156,15
2286788,14
2287408,20
2288036,18
2288668,12
2289288,11
2289916,14
2290540,11
2291172,13
2291804,18
2292424,18
2293052,16
2293680,23
2294304,25
2294932,26
2295552,19
2296180,9
2296752,10
2297384,16
2298012,12
2298632,11
2299260,11
2299884,11
2300508,13
2301140,14
2301764,15
2302392,14
2303024,14
2303640,14
2304272,15
2304892,16
2305524,24
2306152,12
2306768,15
2307396,26
2308020,33
2308644,44
2309272,49
2309888,36
2310520,34
2311140,29
2311764,15
2312396,14
2313016,11
2313644,12
2314276,10
2314896,10
2315524,10
2316148,11
2316776,10
2317408,10
2318028,13
2318656,16
2319280,29
2319904,34
2320536,36
2321152,27
2321780,25
2322404,19
2323028,16
2323660,14
2324280,13
2324908,12
2325540,28
2326160,39
2326788,51
2327412,49
2328044,36
2328672,22
2329292,11
2329920,13
2330544,10
2331168,12
2331796,10
2332416,9
2332992,14
2333624,13
2334248,18
2334876,15
2335496,15
2336124,37
2336748,43
2337372,32
2338000,12
2338624,23
2339252,20
2339880,12
2340504,21
2341132,30
2341756,30
2342388,19
2343016,15
2343640,14
2344268,16
2344892,16
2345516,15
2346148,20
2346768,17
2347396,13
2348024,11
2348644,11
2349276,10
2349900,14
2350532,10
2351164,10
2351784,14
2352416,16
2353040,14
2353668,15
2354300,10
2354920,10
2355552,23
2356176,24
2356796,19
2357428,20
2358048,17
2358676,13
2359308,20
2359928,21
2360560,19
2361184,15
2361812,15
2362444,18
2363064,35
2363692,39
2364316,29
2364940,18
2365572,10
2366192,11
2366824,13
2367448,17
2368072,25
2368700,22
2369320,25
2369948,23
2370580,16
2371200,12
2371828,13
2372452,14
2373084,10
2373716,12
2374336,16
2374968,15
2375592,15
2376216,14
2376844,15
2377464,17
2378092,18
2378716,16
2379340,12
2379972,16
2380592,22
2381224,21
2381852,31
2382472,37
2383100,35
2383724,29
2384356,23
2384988,14
2385608,17
2386236,19
2386860,13
2387484,12
2388116,10
2388736,13
2389364,10
2389992,12
2390616,10
2391244,11
2391864,11
2392496,12
2393124,14
2393744,17
2394372,23
2395000,23
2395628,15
2396260,10
2396880,11
2397508,10
2398132,11
2398760,9
2399336,10
2399964,10
2400596,12
2401220,23
2401844,42
2402472,45
2403088,39
2403720,33
2404344,36
2404968,39
2405596,24
2406220,21
2406852,49
2407484,66
2408104,65
2408732,37
2409356,32
2409988,43
2410616,38
2411236,33
2411864,37
2412488,29
2413112,21
2413740,16
2414360,11
2414988,10
2415616,10
2416240,17
2416868,17
2417492,15
2418124,26
2418752,29
2419372,29
2420000,30
2420624,31
2421252,27
2421884,24
2422504,17
2423132,19
2423756,18
2424384,15
2425012,11
2425632,21
2426260,39
2426892,46
2427512,37
2428144,32
2428768,22
2429396,14
2430028,11
2430648,21
2431280,21
2431904,17
2432528,10
2433160,11
2433776,22
2434404,25
2435028,18
2435652,14
2436284,15
2436904,41
2437532,66
2438164,68
2438784,64
2439412,39
2440040,38
2440668,31
2441296,16
2441920,13
2442548,26
2443172,38
2443800,37
2444428,28
2445048,17
2445676,16
2446300,25
2446928,29
2447556,23
2448176,19
2448804,10
2449436,10
2450056,17
2450684,21
2451312,29
2451940,35
2452572,35
2453192,27
2453824,17
2454448,11
2455072,16
2455704,26
2456320,27
2456952,16
2457576,14
2458200,26
2458832,29
2459448,39
2460076,37
2460708,32
2461328,23
2461956,19
2462580,19
2463212,23
2463840,33
2464460,28
2465088,25
2465708,25
2466332,19
2466964,10
2467584,18
2468212,24
2468836,28
2469460,25
2470088,19
2470704,17
2471336,13
2471964,21
2472584,29
2473212,19
2473836,14
2474468,18
2475096,11
2475716,20
2476344,22
2476968,26
2477592,36
2478220,41
2478840,33
2479468,27
2480092,20
2480716,25
2481344,20
2481960,11
2482592,11
2483220,10
2483836,10
2484468,12
2485092,18
2485720,25
2486352,22
2486968,19
2487600,11
2488224,11
2488848,13
2489476,18
2490096,11
2490724,11
2491348,16
2491972,33
2492604,38
2493224,27
2493852,27
2494484,34
2495104,37
2495736,31
2496360,26
2496988,25
2497620,13
2498240,9
2498816,11
2499440,11
2500068,15
2500696,16
2501320,20
2501948,21
2502572,28
2503196,26
2503828,16
2504448,11
2505076,10
2505700,10
2506324,11
2506956,11
2507576,21
2508208,25
2508836,12
2509456,20
2510084,23
2510708,25
2511336,28
2511968,30
2512588,24
2513216,22
2513844,18
2514468,13
2515096,10
2515716,11
2516344,10
2516972,10
2517596,11
2518224,20
2518848,27
2519480,19
2520108,14
2520728,15
2521356,13
2521984,18
2522612,20
2523244,15
2523864,11
2524492,11
2525120,13
2525740,14
2526372,14
2526992,14
2527624,17
2528248,30
2528872,47
2529500,62
2530128,57
2530756,43
2531388,28
2532008,15
2532636,10
2533264,10
2533892,12
2534524,25
2535144,36
2535776,26
2536400,19
2537024,20
2537652,18
2538272,26
2538904,30
2539532,17
2540152,12
2540784,11
2541408,11
2542036,12
2542668,14
2543288,19
2543920,26
2544544,28
2545168,28
2545800,26
2546416,16
2547048,13
2547672,19
2548296,18
2548924,14
2549544,15
2550176,17
2550804,14
2551424,15
2552056,16
2552680,17
2553312,14
2553940,19
2554560,21
2555192,16
2555816,11
2556440,10
2557072,15
2557692,20
2558324,17
2558948,15
2559576,14
2560208,18
2560824,25
2561448,20
2562076,17
2562696,12
2563324,10
2563944,11
2564572,11
2565204,18
2565820,20
2566452,22
2567072,19
2567696,11
2568324,19
2568940,24
2569572,23
2570196,15
2570820,13
2571448,10
2572064,18
2572696,23
2573324,16
2573944,16
2574572,16
2575196,12
2575824,23
2576456,39
2577072,42
2577700,41
2578324,44
2578948,40
2579580,30
2580200,11
2580828,15
2581452,12
2582072,12
2582704,9
2583268,14
2583900,13
2584524,13
2585148,19
2585776,16
2586400,15
2587028,16
2587656,13
2588272,14
2588904,16
2589524,10
2590156,14
2590784,14
2591408,11
2592036,11
2592660,15
2593284,19
2593912,18
2594536,16
2595164,15
2595788,16
2596412,13
2597044,10
2597664,13
2598292,11
2598924,10
2599544,20
2600172,24
2600796,16
2601428,15
2602056,13
2602676,15
2603304,14
2603928,16
2604552,17
2605180,15
2605800,13
2606428,11
2607052,11
2607676,12
2608308,10
2608928,12
2609556,15
2610188,15
2610808,16
2611436,15
2612060,20
2612692,37
2613320,38
2613940,33
2614568,25
2615192,19
2615816,12
2616444,11
2617064,11
2617692,12
2618316,13
2618940,15
2619572,20
2620192,25
2620820,32
2621452,24
2622068,12
2622700,11
2623324,11
2623952,11
2624580,10
2625196,12
2625828,23
2626448,15
2627076,14
2627704,20
2628328,23
2628956,24
2629576,14
2630200,12
2630832,13
2631448,12
2632076,11
2632700,11
2633328,25
2633956,47
2634580,55
2635208,47
2635836,18
2636456,15
2637084,20
2637708,43
2638336,42
2638964,24
2639584,12
2640212,11
2640836,12
2641456,30
2642088,41
2642704,55
2643332,52
2643952,31
2644576,18
2645204,15
2645828,14
2646456,16
2647084,16
2647704,12
2648332,10
2648952,10
2649584,11
2650212,14
2650832,23
2651460,17
2652084,15
2652708,19
2653336,22
2653952,19
2654584,17
2655208,13
2655832,18
2656460,17
2657080,12
2657708,11
2658336,11
2658960,15
2659588,17
2660212,20
2660840,26
2661472,43
2662088,51
2662720,44
2663340,27
2663964,17
2664592,11
2665208,10
2665836,13
2666460,12
2667080,11
2667708,14
2668328,15
2668956,14
2669584,15
2670200,14
2670832,13
2671452,13
2672084,13
2672712,10
2673328,10
2673956,13
2674580,16
2675204,12
2675832,13
2676456,15
2677084,13
2677708,22
2678332,38
2678960,31
2679584,27
2680212,27
2680844,22
2681464,15
2682092,16
2682716,14
2683344,10
2683976,10
2684592,15
2685220,15
2685844,15
2686468,24
2687100,26
2687720,25
2688348,30
2688972,25
2689592,13
2690224,10
2690840,15
2691468,23
2692092,23
2692720,26
2693348,29
2693972,27
2694600,38
2695228,40
2695848,38
2696476,32
2697100,25
2697728,17
2698360,10
2698976,14
2699604,27
2700228,42
2700852,56
2701480,55
2702096,43
2702728,30
2703352,27
2703976,20
2704604,14
2705228,10
2705856,9
2706428,13
2707060,13
2707688,12
2708312,20
2708940,26
2709572,35
2710192,42
2710820,39
2711444,29
2712072,27
2712700,38
2713320,44
2713948,38
2714572,27
2715196,14
2715824,16
2716448,15
2717076,11
2717708,20
2718328,20
2718956,15
2719580,14
2720212,15
2720840,13
2721456,12
2722084,15
2722708,18
2723332,19
2723964,16
2724584,11
2725212,11
2725836,10
2726456,13
2727084,16
2727704,29
2728332,29
2728956,25
2729576,19
2730208,13
2730832,13
2731460,10
2732092,10
2732712,13
2733340,13
2733964,11
2734596,17
2735224,13
2735848,19
2736476,18
2737100,14
2737724,16
2738356,31
2738976,32
2739608,16
2740236,10
2740856,20
2741484,17
2742108,11
2742740,19
2743368,19
2743984,21
2744616,39
2745240,61
2745864,68
2746492,55
2747112,24
2747740,11
2748364,17
2748988,19
2749620,20
2750240,30
2750868,27
2751500,22
2752120,23
2752748,17
2753372,14
2754000,11
2754632,21
2755248,29
2755876,22
2756500,18
2757124,19
2757756,14
2758376,12
2759008,11
2759632,20
2760256,28
2760884,36
2761504,40
2762132,24
2762764,10
2763384,11
2764012,13
2764636,12
2765268,18
2765896,12
2766520,11
2767148,12
2767772,15
2768396,16
2769024,16
2769648,14
2770276,17
2770900,16
2771524,13
2772152,11
2772776,12
2773404,13
2774036,12
2774656,15
2775284,11
2775908,16
2776540,19
2777168,15
2777792,15
2778420,14
2779044,10
2779668,11
2780300,18
2780920,21
2781548,15
2782172,14
2782796,12
2783428,10
2784048,12
2784676,25
2785308,25
2785928,30
2786556,24
2787180,20
2787808,11
2788440,11
2789056,14
2789684,17
2790308,25
2790936,29
2791564,20
2792184,12
2792812,18
2793436,27
2794060,27
2794692,20
2795312,23
2795940,22
2796572,16
2797192,17
2797820,16
2798444,13
2799076,11
2799708,12
2800328,11
2800956,14
2801580,15
2802204,25
2802836,27
2803456,33
2804084,20
2804708,10
2805332,10
2805960,10
2806584,12
2807212,13
2807840,25
2808464,23
2809092,18
2809716,19
2810348,17
2810976,15
2811596,18
2812224,23
2812848,21
2813472,18
2814100,11
2814720,13
2815348,11
2815976,12
2816600,14
2817228,14
2817848,15
2818476,13
2819104,16
2819728,17
2820356,14
2820980,10
2821608,12
2822240,12
2822856,14
2823484,16
2824108,22
2824732,11
2825360,13
2825984,23
2826612,27
2827236,24
2827860,23
2828488,26
2829112,26
2829740,20
2830372,16
2830992,16
2831620,10
2832244,15
2832876,21
2833504,23
2834120,21
2834752,29
2835376,25
2836000,21
2836628,16
2837248,13
2837876,11
2838500,13
2839124,11
2839756,11
2840376,11
2841004,11
2841636,12
2842256,13
2842884,19
2843508,26
2844136,33
2844768,38
2845384,26
2846012,15
2846640,11
2847264,11
2847892,10
2848512,12
2849140,14
2849764,15
2850388,15
2851020,20
2851640,23
2852268,29
2852900,34
2853520,37
2854148,37
2854776,31
2855404,13
2856036,14
2856656,14
2857284,16
2857908,21
2858532,34
2859164,54
2859784,59
2860416,43
2861040,23
2861664,18
2862292,24
2862916,27
2863548,22
2864180,10
2864800,17
2865428,11
2866056,12
2866684,11
2867316,16
2867936,16
2868564,16
2869188,27
2869808,34
2870440,28
2871056,17
2871684,13
2872308,18
2872932,22
2873560,16
2874188,12
2874816,15
2875444,10
2876064,17
2876692,14
2877316,16
2877948,16
2878580,19
2879200,16
2879828,16
2880456,20
2881076,12
2881704,10
2882328,11
2882956,11
2883580,10
2884200,11
2884832,14
2885452,14
2886084,15
2886712,14
2887328,13
2887956,18
2888580,17
2889208,14
2889836,10
2890456,11
2891084,11
2891708,12
2892332,19
2892960,21
2893576,24
2894204,27
2894828,34
2895452,29
2896080,20
2896704,13
2897332,11
2897960,10
2898584,14
2899212,12
2899832,12
2900464,17
2901092,19
2901712,20
2902344,25
2902968,24
2903592,23
2904220,11
2904840,19
2905468,17
2906092,13
2906716,11
2907348,11
2907972,11
2908604,11
2909232,14
2909856,19
2910484,20
2911108,23
2911740,20
2912372,14
2912992,9
2913568,11
2914192,15
2914820,10
2915452,14
2916072,15
2916700,16
2917324,16
2917948,21
2918580,24
2919200,17
2919828,15
2920460,14
2921080,10
2921708,15
2922332,11
2922960,10
2923592,10
2924208,11
2924836,11
2925460,12
2926084,15
2926716,14
2927336,15
2927968,15
2928592,15
2929216,11
2929844,11
2930464,11
2931092,17
2931724,35
2932344,51
2932972,38
2933596,33
2934228,44
2934860,36
2935480,25
2936108,18
2936736,27
2937360,20
2937988,16
2938608,16
2939240,16
2939864,24
2940488,35
2941116,28
2941736,12
2942368,11
2942996,15
2943616,16
2944248,18
2944872,22
2945500,18
2946132,26
2946752,44
2947380,47
2948004,34
2948628,24
2949260,16
2949880,10
2950508,19
2951132,21
2951756,20
2952384,17
2953000,19
2953632,23
2954260,26
2954880,19
2955508,14
2956132,16
2956764,17
2957396,15
2958016,11
2958644,21
2959268,37
2959892,39
2960524,32
2961144,19
2961772,22
2962396,19
2963020,11
2963652,12
2964272,12
2964900,10
2965532,14
2966152,19
2966780,19
2967404,15
2968036,17
2968664,20
2969288,24
2969916,24
2970540,12
2971164,13
2971792,10
2972416,13
2973044,16
2973668,11
2974292,11
2974920,10
2975544,11
2976172,23
2976800,32
2977424,37
2978052,45
2978676,47
2979304,48
2979936,34
2980552,13
2981184,15
2981808,26
2982432,34
2983060,37
2983680,30
2984308,21
2984932,15
2985556,17
2986188,17
2986808,25
2987436,35
2988068,45
2988688,51
2989320,42
2989944,28
2990572,22
2991204,12
2991824,14
2992456,25
2993076,36
2993704,41
2994332,40
2994952,45
2995584,52
2996208,45
2996832,35
2997460,22
2998084,14
2998712,18
2999344,23
2999964,18
3000596,16
3001220,19
3001848,13
3002476,19
3003096,21
3003728,25
3004352,17
3004976,11
3005604,18
3006224,24
3006856,19
3007480,16
3008104,13
3008732,24
3009356,34
3009988,33
3010616,26
3011240,32
3011868,28
3012492,26
3013124,28
3013752,28
3014372,25
3015004,16
3015628,10
3016252,12
3016884,16
3017504,18
3018136,19
3018768,22
3019384,19
3020016,15
3020640,11
3021272,11
3021900,12
3022520,11
3023148,20
3023776,35
3024400,42
3025028,30
3025648,22
3026276,27
3026904,31
3027528,25
3028156,22
3028776,19
3029408,14
3030036,11
3030656,10
3031288,11
3031912,14
3032544,16
3033172,16
3033792,14
3034420,16
3035044,19
3035668,22
3036300,22
3036920,21
3037548,11
3038176,15
3038800,21
3039428,19
3040048,13
3040680,11
3041308,11
3041928,11
3042556,16
3043180,17
3043812,21
3044444,16
3045064,15
3045696,11
3046320,13
3046944,14
3047572,10
3048192,13
3048820,15
3049444,13
3050072,12
3050700,11
3051320,24
3051952,33
3052580,27
3053200,18
3053828,11
3054456,11
3055084,20
3055716,16
3056336,11
3056964,24
3057588,40
3058216,52
3058848,51
3059464,44
3060096,43
3060720,27
3061344,23
3061976,20
3062600,23
3063232,37
3063860,33
3064480,22
3065112,19
3065736,11
3066368,15
3066996,20
3067616,21
3068248,17
3068872,17
3069496,18
3070128,14
3070748,15
3071376,12
3072012,10
3072628,15
3073260,19
3073880,16
3074512,11
3075140,10
3075760,15
3076388,17
3077012,14
3077640,17
3078268,22
3078888,25
3079516,12
3080140,10
3080764,11
3081396,11
3082016,15
3082644,11
3083276,10
3083896,13
3084524,16
3085148,15
3085780,14
3086408,14
3087024,13
3087652,11
3088276,13
3088900,10
3089532,10
3090152,12
3090780,12
3091408,12
3092032,17
3092660,22
3093280,24
3093908,25
3094540,19
3095160,17
3095788,17
3096416,15
3097044,13
3097676,10
3098296,15
3098924,13
3099548,14
3100172,15
3100804,14
3101424,23
3102056,22
3102680,21
3103304,21
3103936,20
3104552,17
3105184,21
3105816,26
3106432,27
3107064,22
3107688,13
3108316,32
3108948,50
3109568,64
3110200,61
3110824,43
3111448,23
3112080,12
3112696,11
3113328,11
3113952,10
3114576,12
3115204,12
3115824,22
3116456,23
3117084,16
3117704,15
3118336,15
3118960,14
3119588,15
3120220,14
3120840,13
3121468,19
3122092,19
3122716,17
3123348,10
3123968,12
3124596,11
3125220,11
3125844,20
3126476,22
3127096,22
3127724,16
3128356,14
3128976,19
3129604,16
3130228,13
3130860,10
3131488,10
3132112,12
3132744,16
3133368,27
3133992,21
3134624,27
3135240,22
3135872,15
3136496,15
3137120,26
3137748,19
3138372,10
3139004,13
3139636,14
3140256,19
3140884,21
3141508,18
3142140,13
3142772,16
3143392,15
3144024,13
3144648,14
3145272,15
3145900,18
3146520,17
3147152,14
3147780,21
3148400,46
3149032,53
3149656,65
3150284,69
3150916,67
3151536,51
3152168,25
3152792,15
3153416,20
3154048,28
3154664,39
3155292,43
3155916,28
3156544,18
3157172,15
3157792,14
3158424,13
3159052,12
3159672,17
3160304,27
3160928,21
3161560,18
3162192,18
3162808,23
3163440,23
3164064,15
3164688,11
3165320,10
3165936,11
3166568,11
3167192,11
3167816,15
3168448,18
3169072,23
3169704,25
3170332,23
3170952,19
3171584,13
3172208,11
3172840,12
3173468,12
3174088,11
3174720,13
3175344,16
3175968,31
3176600,37
3177216,31
3177848,20
3178472,21
3179096,17
3179728,10
3180344,10
3180976,10
3181604,10
3182224,10
3182856,13
3183480,12
3184112,13
3184740,16
3185360,18
3185992,13
3186616,21
3187240,17
3187868,10
3188488,11
3189116,13
3189744,11
3190368,13
3191000,10
3191628,14
3192260,25
3192892,36
3193512,39
3194144,33
3194772,23
3195400,12
3196032,10
3196648,13
3197280,11
3197904,12
3198528,17
3199160,13
3199780,12
3200412,11
3201040,14
3201660,14
3202292,17
3202912,19
3203544,20
3204172,14
3204792,13
3205420,15
3206044,19
3206668,11
3207296,17
3207912,19
3208540,23
3209164,26
3209788,25
3210416,17
3211032,17
3211664,16
3212292,11
3212912,15
3213540,12
3214164,11
3214796,17
3215424,10
3216040,20
3216668,22
3217292,18
3217920,15
3218552,15
3219168,15
3219796,17
3220424,17
3221048,21
3221676,20
3222296,16
3222924,13
3223548,12
3224176,12
3224804,10
3225428,12
3226060,21
3226688,24
3227312,29
3227940,31
3228564,17
3229188,10
3229820,10
3230440,11
3231068,11
3231692,10
3232320,12
3232948,10
3233568,15
3234196,17
3234828,14
3235448,16
3236076,18
3236700,16
3237332,11
3237960,10
3238584,18
3239212,25
3239836,14
3240460,11
3241092,10
3241712,12
3242340,11
3242964,13
3243588,15
3244220,16
3244840,15
3245468,11
3246100,12
3246720,15
3247348,18
3247972,15
3248604,11
3249236,18
3249856,24
3250484,20
3251112,14
3251736,15
3252364,16
3252984,17
3253612,13
3254236,10
3254864,11
3255492,25
3256112,21
3256744,11
3257372,14
3257992,24
3258620,33
3259248,24
3259876,22
3260508,16
3261128,14
3261756,15
3262384,12
3263008,11
3263640,10
3264256,9
3264836,12
3265464,16
3266088,11
3266716,15
3267336,12
3267964,28
3268588,18
3269216,18
3269844,20
3270468,14
3271100,13
3271728,15
3272352,12
3272980,16
3273608,12
3274236,13
3274868,11
3275488,23
3276120,42
3276744,28
3277368,22
3277996,20
3278616,24
3279244,24
3279864,28
3280488,26
3281116,17
3281736,12
3282368,19
3282996,10
3283616,12
3284244,27
3284864,32
3285492,20
3286120,15
3286736,19
3287364,21
3287984,20
3288608,13
3289236,10
3289856,18
3290484,28
3291104,38
3291728,54
3292356,44
3292976,29
3293604,19
3294232,18
3294848,19
3295476,25
3296100,29
3296728,27
3297356,18
3297976,13
3298604,9
3299172,11
3299804,10
3300436,10
3301056,17
3301684,20
3302308,20
3302932,21
3303560,23
3304176,23
3304804,21
3305428,16
3306052,13
3306680,12
3307296,15
3307924,15
3308556,14
3309176,17
3309804,25
3310428,29
3311056,28
3311684,29
3312304,27
3312932,24
3313556,12
3314184,12
3314812,12
3315432,11
3316060,10
3316684,10
3317308,13
3317936,14
3318560,19
3319188,17
3319816,16
3320440,15
3321068,12
3321692,11
3322320,12
3322948,11
3323568,11
3324196,11
3324820,27
3325444,43
3326076,48
3326696,37
3327324,23
3327952,19
3328576,13
3329204,10
3329820,25
3330452,31
3331080,23
3331696,11
3332324,22
3332948,23
3333576,13
3334204,14
3334824,21
3335452,19
3336076,21
3336704,18
3337332,12
3337952,15
3338580,12
3339204,10
3339824,17
3340456,21
3341072,21
3341704,16
3342324,19
3342948,18
3343580,16
3344200,15
3344832,20
3345460,31
3346080,33
3346708,29
3347332,21
3347960,11
3348588,14
3349208,22
3349836,21
3350460,33
3351084,25
3351712,21
3352332,14
3352960,14
3353584,13
3354208,11
3354836,14
3355460,15
3356092,14
3356720,13
3357340,10
3357968,11
3358592,11
3359224,17
3359852,27
3360472,37
3361100,38
3361724,39
3362344,36
3362976,17
3363592,13
3364220,25
3364844,23
3365464,15
3366096,12
3366712,11
3367340,15
3367972,18
3368592,21
3369220,25
3369844,30
3370472,34
3371100,30
3371720,16
3372348,11
3372972,12
3373596,13
3374224,10
3374848,13
3375476,24
3376100,43
3376724,50
3377352,33
3377976,38
3378604,49
3379236,44
3379852,28
3380480,24
3381104,16
3381732,12
3382364,9
3382932,16
3383564,27
3384188,30
3384816,29
3385448,18
3386064,17
3386692,27
3387316,28
3387940,19
3388572,14
3389192,12
3389820,12
3390444,12
3391068,13
3391700,11
3392324,22
3392952,16
3393580,19
3394200,29
3394828,21
3395452,10
3396080,11
3396712,27
3397328,20
3397956,13
3398580,22
3399204,19
3399836,14
3400456,14
3401084,16
3401708,17
3402332,15
3402960,15
3403576,12
3404204,15
3404836,11
3405452,14
3406084,10
3406704,12
3407336,12
3407964,12
3408584,16
3409212,22
3409836,24
3410460,20
3411088,14
3411712,15
3412340,11
3412964,13
3413588,11
3414220,9
3414788,10
3415420,14
3416044,13
3416668,16
3417300,22
3417924,16
3418552,16
3419180,14
3419800,20
3420428,11
3421052,19
3421684,33
3422312,34
3422936,31
3423564,15
3424192,13
3424812,12
3425444,12
3426064,15
3426692,16
3427316,14
3427940,15
3428572,13
3429196,11
3429824,12
3430456,12
3431072,16
3431700,11
3432324,22
3432956,27
3433584,12
3434208,35
3434836,41
3435464,37
3436088,25
3436716,16
3437336,17
3437968,20
3438596,12
3439216,27
3439848,41
3440472,22
3441100,21
3441732,34
3442352,47
3442980,59
3443604,60
3444228,30
3444860,18
3445480,17
3446108,16
3446732,15
3447356,21
3447984,25
3448604,23
3449232,23
3449860,26
3450480,34
3451108,41
3451732,33
3452364,25
3452992,69
3453616,67
3454244,61
3454868,46
3455496,41
3456124,16
3456744,17
3457372,35
3457996,48
3458616,54
3459248,34
3459864,15
3460492,16
3461116,14
3461744,17
3462372,14
3462996,15
3463628,18
3464256,14
3464880,22
3465508,29
3466132,46
3466760,53
3467388,50
3468008,24
3468636,22
3469260,44
3469884,53
3470516,46
3471136,49
3471768,40
3472396,48
3473016,37
3473644,15
3474268,13
3474900,29
3475528,43
3476152,37
3476784,20
3477408,25
3478032,18
3478660,44
3479280,64
3479908,57
3480536,48
3481160,41
3481792,41
3482408,59
3483036,49
3483664,39
3484284,50
3484912,61
3485536,46
3486164,16
3486792,26
3487416,41
3488044,30
3488668,35
3489288,71
3489920,116
3490588,156
3491264,167
3491944,117
3492612,76
3493236,59
3493860,21
3494484,15
3495112,34
3495736,44
3496364,29
3496996,14
3497616,27
3498244,34
3498868,46
3499496,88
3500128,119
3500800,86
3501420,57
3502048,24
3502672,21
3503300,41
3503920,32
3504552,18
3505180,22
3505800,18
3506428,11
3507052,23
3507684,43
3508316,46
3508936,26
3509564,16
3510192,15
3510816,15
3511444,21
3512064,26
3512696,13
3513320,17
3513944,11
3514572,14
3515192,21
3515824,28
3516456,30
3517072,37
3517704,30
3518328,32
3518960,19
3519588,26
3520208,26
3520840,24
3521460,37
3522084,27
3522716,23
3523336,29
3523964,12
3524588,15
3525212,22
3525840,20
3526456,15
3527084,17
3527716,24
3528336,28
3528964,16
3529588,10
3530220,11
3530848,10
3531468,13
3532096,13
3532720,11
3533348,12
3533976,14
3534592,15
3535224,19
3535848,20
3536472,25
3537100,21
3537720,24
3538348,31
3538980,32
3539600,27
3540228,25
3540852,16
3541484,10
3542112,14
3542732,19
3543360,18
3543984,15
3544608,15
3545236,20
3545856,35
3546484,37
3547108,27
3547732,31
3548364,32
3548984,17
3549612,12
3550244,12
3550864,15
3551492,14
3552120,15
3552748,15
3553380,14
3554000,12
3554628,16
3555252,18
3555876,17
3556508,14
3557128,13
3557756,11
3558384,13
3559008,22
3559636,21
3560264,29
3560892,27
3561524,19
3562144,13
3562776,14
3563400,31
3564028,30
3564660,26
3565280,24
3565908,15
3566536,11
3567160,13
3567788,18
3568408,18
3569036,17
3569660,16
3570288,17
3570916,13
3571544,13
3572172,17
3572804,22
3573424,15
3574056,15
3574680,22
3575304,12
3575936,23
3576552,23
3577184,21
3577808,19
3578432,26
3579064,35
3579680,62
3580312,61
3580944,37
3581564,20
3582192,10
3582820,20
3583452,29
3584084,46
3584700,65
3585332,49
3585952,43
3586576,39
3587208,26
3587824,23
3588452,21
3589076,20
3589700,27
3590332,15
3590952,33
3591584,76
3592212,84
3592832,69
3593460,59
3594088,35
3594716,19
3595348,10
3595968,11
3596600,15
3597224,16
3597848,10
3598476,12
3599096,21
3599728,20
3600352,13
3600976,16
3601604,24
3602224,27
3602852,20
3603484,16
3604104,11
3604732,12
3605356,23
3605988,25
3606616,13
3607232,37
3607860,45
3608484,37
3609108,29
3609736,24
3610360,19
3610988,19
3611612,15
3612236,10
3612864,16
3613480,27
3614108,30
3614740,18
3615360,17
3615988,20
3616612,16
3617244,18
3617872,14
3618488,16
3619120,23
3619744,23
3620368,23
3620996,18
3621616,11
3622244,10
3622868,14
3623492,24
3624124,14
3624744,12
3625372,36
3626004,55
3626624,43
3627252,31
3627876,27
3628508,42
3629136,38
3629756,29
3630384,24
3631008,20
3631632,14
3632264,10
3632880,30
3633508,36
3634132,26
3634760,21
3635388,25
3636008,17
3636636,33
3637268,26
3637888,29
3638516,20
3639140,11
3639772,11
3640404,11
3641024,13
3641652,11
3642276,27
3642900,33
3643528,31
3644152,18
3644784,17
3645408,21
3646032,24
3646660,29
3647280,28
3647908,26
3648540,28
3649160,21
3649788,11
3650412,22
3651040,35
3651672,35
3652292,25
3652920,30
3653544,22
3654168,18
3654796,17
3655416,13
3656048,11
3656668,11
3657292,12
3657924,10
3658544,11
3659172,15
3659804,15
3660424,23
3661056,33
3661680,30
3662308,21
3662940,18
3663560,23
3664192,17
3664812,10
3665436,11
3666068,10
3666688,12
3667316,15
3667940,15
3668564,14
3669196,14
3669816,15
3670444,11
3671076,10
3671696,12
3672324,23
3672952,31
3673580,28
3674212,20
3674832,11
3675464,21
3676088,32
3676712,48
3677344,35
3677960,23
3678592,25
3679216,24
3679840,16
3680472,11
3681096,11
3681724,10
3682356,16
3682976,14
3683604,11
3684232,19
3684860,23
3685492,24
3686112,27
3686744,18
3687364,11
3687988,17
3688616,12
3689240,10
3689868,14
3690492,12
3691112,13
3691744,11
3692368,15
3692996,15
3693624,16
3694248,15
3694876,19
3695500,21
3696132,16
3696760,23
3697376,11
3698008,10
3698632,11
3699256,11
3699884,10
3700504,11
3701132,15
3701756,19
3702384,15
3703016,17
3703640,13
3704268,13
3704900,12
3705520,13
3706152,9
3706724,11
3707360,11
3707988,10
3708608,15
3709236,23
3709864,28
3710488,24
3711116,18
3711736,17
3712368,22
3712992,18
3713612,11
3714244,10
3714864,11
3715492,17
3716124,22
3716744,20
3717372,17
3717996,16
3718628,24
3719256,30
3719880,34
3720508,24
3721132,17
3721756,23
3722388,25
3723008,42
3723636,42
3724260,31
3724888,21
3725516,16
3726136,15
3726764,22
3727396,26
3728016,15
3728644,11
3729268,26
3729896,26
3730524,19
3731144,25
3731776,32
3732400,39
3733024,37
3733656,31
3734272,19
3734904,23
3735528,20
3736152,25
3736784,31
3737400,31
3738032,31
3738660,22
3739280,12
3739908,23
3740532,26
3741164,17
3741796,10
3742416,27
3743044,27
3743668,22
3744296,24
3744924,23
3745544,15
3746172,10
3746800,9
3747372,22
3748004,24
3748624,15
3749252,10
3749880,14
3750504,19
3751132,14
3751756,14
3752388,15
3753020,19
3753640,33
3754268,31
3754892,20
3755524,14
3756156,18
3756776,18
3757408,13
3758032,11
3758656,31
3759288,47
3759908,49
3760540,50
3761172,42
3761792,40
3762424,31
3763048,19
3763680,13
3764308,10
3764928,11
3765556,10
3766184,11
3766808,14
3767436,21
3768056,38
3768688,36
3769312,27
3769936,17
3770564,10
3771184,13
3771816,14
3772444,21
3773064,23
3773696,21
3774320,21
3774948,16
3775580,14
3776200,13
3776832,15
3777456,13
3778080,22
3778708,39
3779328,35
3779956,24
3780580,21
3781208,26
3781836,32
3782456,32
3783084,39
3783716,52
3784336,49
3784964,39
3785588,22
3786220,14
3786852,21
3787472,40
3788104,37
3788728,23
3789352,34
3789984,25
3790600,21
3791232,12
3791856,13
3792480,24
3793108,35
3793736,37
3794364,22
3794996,20
3795616,18
3796244,14
3796872,16
3797500,12
3798132,42
3798752,37
3799384,25
3800008,11
3800632,14
3801260,15
3801880,15
3802508,15
3803136,15
3803760,11
3804392,13
3805016,12
3805644,11
3806276,10
3806896,15
3807528,17
3808152,18
3808776,13
3809408,17
3810024,27
3810652,30
3811280,25
3811904,29
3812532,25
3813152,19
3813784,12
3814412,10
3815032,11
3815664,11
3816288,14
3816916,18
3817548,16
3818168,18
3818800,19
3819424,19
3820048,18
3820676,17
3821296,21
3821928,15
3822552,15
3823176,13
3823808,12
3824428,11
3825060,11
3825688,30
3826312,33
3826944,21
3827568,16
3828200,14
3828828,21
3829448,24
3830080,13
3830704,21
3831328,15
3831960,10
3832580,15
3833212,16
3833836,13
3834460,27
3835092,26
3835720,23
3836348,23
3836980,18
3837600,18
3838232,23
3838856,23
3839492,20
3840124,14
3840744,11
3841372,14
3841996,11
3842620,16
3843248,21
3843864,35
3844492,37
3845116,26
3845744,22
3846372,15
3847000,11
3847628,10
3848260,10
3848880,11
3849508,14
3850136,16
3850760,17
3851388,19
3852008,21
3852636,24
3853260,20
3853884,14
3854516,10
3855136,11
3855768,11
3856396,10
3857016,12
3857644,11
3858268,10
3858900,14
3859528,16
3860148,15
3860776,17
3861400,19
3862024,47
3862656,42
3863272,35
3863904,37
3864528,19
3865152,25
3865784,49
3866400,59
3867028,44
3867660,18
3868280,15
3868908,17
3869532,31
3870164,40
3870796,29
3871416,15
3872044,13
3872668,14
3873292,19
3873924,10
3874544,11
3875172,15
3875800,33
3876424,56
3877052,60
3877672,52
3878304,37
3878932,21
3879552,17
3880184,11
3880808,11
3881436,10
3882068,10
3882688,11
3883320,26
3883944,34
3884568,30
3885200,23
3885816,23
3886448,25
3887072,12
3887696,13
3888328,17
3888944,19
3889576,16
3890204,12
3890824,15
3891456,17
3892080,19
3892708,23
3893336,36
3893960,49
3894588,52
3895212,34
3895836,24
3896468,15
3897088,15
3897716,17
3898340,11
3898968,12
3899596,15
3900216,15
3900848,15
3901476,14
3902096,15
3902724,21
3903352,14
3903980,11
3904616,11
3905232,13
3905864,10
3906488,14
3907112,22
3907740,19
3908360,17
3908988,15
3909616,16
3910240,31
3910872,40
3911496,37
3912128,33
3912756,24
3913376,21
3914008,15
3914632,14
3915260,12
3915892,16
3916512,19
3917144,19
3917768,18
3918392,15
3919024,14
3919644,16
3920272,12
3920904,12
3921524,15
3922152,21
3922780,27
3923408,21
3924036,21
3924656,25
3925284,16
3925908,35
3926536,55
3927168,33
3927784,21
3928416,23
3929040,13
3929664,15
3930292,13
3930912,9
3931492,13
3932120,15
3932744,14
3933376,18
3933992,26
3934624,20
3935252,16
3935872,16
3936504,13
3937128,13
3937756,28
3938388,30
3939008,12
3939636,10
3940264,11
3940888,12
3941516,11
3942136,15
3942768,15
3943388,15
3944012,15
3944644,15
3945264,12
3945892,12
3946524,18
3947144,23
3947776,18
3948400,13
3949028,14
3949660,14
3950280,25
3950908,35
3951536,29
3952160,21
3952788,14
3953408,21
3954036,30
3954664,27
3955288,21
3955916,12
3956536,11
3957164,11
3957796,14
3958416,19
3959044,24
3959668,31
3960300,37
3960932,32
3961552,26
3962184,29
3962808,32
3963432,12
3964064,10
3964680,11
3965312,15
3965936,11
3966560,11
3967192,25
3967816,47
3968448,48
3969076,32
3969696,16
3970324,15
3970948,29
3971580,30
3972212,15
3972832,9
3973412,11
3974040,13
3974664,11
3975292,15
3975912,24
3976544,20
3977168,15
3977792,15
3978420,17
3979040,21
3979668,23
3980300,16
3980920,16
3981548,13
3982172,10
3982804,10
3983436,12
3984056,19
3984684,23
3985308,21
3985932,16
3986564,13
3987184,10
3987816,15
3988440,14
3989064,11
3989696,10
3990312,13
3990944,13
3991576,15
3992196,19
3992824,18
3993452,20
3994084,19
3994712,15
3995332,10
3995960,11
3996588,11
3997212,11
3997840,10
3998464,26
3999096,26
3999720,17
4000344,17
4000972,23
4001592,29
4002220,39
4002852,40
4003472,31
4004100,28
4004724,29
4005356,13
4005984,10
4006604,12
4007232,25
4007856,21
4008480,12
4009108,14
4009728,15
4010356,15
4010980,20
4011604,31
4012236,35
4012856,55
4013484,78
4014116,54
4014736,38
4015364,23
4015988,10
4016620,26
4017248,56
4017864,78
4018496,85
4019120,59
4019744,37
4020372,26
4020992,28
4021620,20
4022244,21
4022868,26
4023500,27
4024120,22
4024748,12
4025380,17
4026000,25
4026628,23
4027252,19
4027884,17
4028512,22
4029136,41
4029764,44
4030388,47
4031016,33
4031648,20
4032264,18
4032892,15
4033516,12
4034140,15
4034772,15
4035396,15
4036024,15
4036652,19
4037272,29
4037900,21
4038524,17
4039156,15
4039788,18
4040408,19
4041036,11
4041660,13
4042284,18
4042916,25
4043536,29
4044164,34
4044792,25
4045416,29
4046044,37
4046668,30
4047300,22
4047928,14
4048552,9
4049128,11
4049760,14
4050388,13
4051020,14
4051640,15
4052268,17
4052892,26
4053516,27
4054148,24
4054768,14
4055400,10
4056020,11
4056644,11
4057276,16
4057896,19
4058524,17
4059156,16
4059776,15
4060408,17
4061028,23
4061660,24
4062292,26
4062912,23
4063544,13
4064168,10
4064792,10
4065420,12
4066040,13
4066668,14
4067292,15
4067916,17
4068548,16
4069168,20
4069796,18
4070428,20
4071048,15
4071676,15
4072304,19
4072932,26
4073564,27
4074184,35
4074816,29
4075440,17
4076064,15
4076692,15
4077312,17
4077944,20
4078568,16
4079192,11
4079824,20
4080444,41
4081072,49
4081704,48
4082324,37
4082952,34
4083576,37
4084208,34
4084836,22
4085456,16
4086088,23
4086712,18
4087336,13
4087968,15
4088584,17
4089216,14
4089840,17
4090464,15
4091096,46
4091720,59
4092352,52
4092984,45
4093600,38
4094232,30
4094856,15
4095488,29
4096120,47
4096736,31
4097364,12
4097984,12
4098604,22
4099232,27
4099848,13
4100476,16
4101096,16
4101720,15
4102348,14
4102968,20
4103596,17
4104224,11
4104840,10
4105468,12
4106092,12
4106720,15
4107348,12
4107968,13
4108596,14
4109220,16
4109840,15
4110472,15
4111088,17
4111716,27
4112340,28
4112964,20
4113592,13
4114208,20
4114836,29
4115468,26
4116088,24
4116716,13
4117340,15
4117968,17
4118596,24
4119216,27
4119844,24
4120468,21
4121092,18
4121724,12
4122340,11
4122972,10
4123592,14
4124216,17
4124844,12
4125464,29
4126092,36
4126716,40
4127340,43
4127968,35
4128592,37
4129220,27
4129848,21
4130472,25
4131100,33
4131724,25
4132352,13
4132984,10
4133600,21
4134228,30
4134852,33
4135476,29
4136108,26
4136728,26
4137356,24
4137980,27
4138608,24
4139236,17
4139860,17
4140488,12
4141120,18
4141736,33
4142364,40
4142988,33
4143620,31
4144248,28
4144872,27
4145500,23
4146124,21
4146748,22
4147380,12
4148000,11
4148628,10
4149256,11
4149872,12
4150504,17
4151124,22
4151756,31
4152388,39
4153008,39
4153636,35
4154260,29
4154884,23
4155516,15
4156136,11
4156768,12
4157392,15
4158016,25
4158644,16
4159264,67
4159896,85
4160524,70
4161144,65
4161772,78
4162392,63
4163024,33
4163652,14
4164272,47
4164900,39
4165524,22
4166148,14
4166780,10
4167400,15
4168028,19
4168652,19
4169272,19
4169904,12
4170520,15
4171148,13
4171772,11
4172400,11
4173028,12
4173652,11
4174280,14
4174912,18
4175528,16
4176156,17
4176780,21
4177412,23
4178040,26
4178656,28
4179284,23
4179908,19
4180528,10
4181160,10
4181776,12
4182404,18
4183028,27
4183652,34
4184280,31
4184904,26
4185536,28
4186164,28
4186784,22
4187412,19
4188036,11
4188668,13
4189296,11
4189912,11
4190544,15
4191168,16
4191792,21
4192424,25
4193040,33
4193668,35
4194292,35
4194916,30
4195548,24
4196172,30
4196800,33
4197428,26
4198048,17
4198680,10
4199300,14
4199932,18
4200560,22
4201176,27
4201804,30
4202428,29
4203052,33
4203680,24
4204296,24
4204924,31
4205548,32
4206172,35
4206800,20
4207424,20
4208052,41
4208684,50
4209304,39
4209932,32
4210556,36
4211184,34
4211816,33
4212432,29
4213064,19
4213688,19
4214312,24
4214940,17
4215560,12
4216188,11
4216812,16
4217436,18
4218068,16
4218692,19
4219324,19
4219952,13
4220572,11
4221200,11
4221824,12
4222452,10
4223084,12
4223704,12
4224336,11
4224956,13
4225580,22
4226208,22
4226832,25
4227460,35
4228084,38
4228708,37
4229336,23
4229960,17
4230588,10
4231220,12
4231840,14
4232468,17
4233092,18
4233724,27
4234352,17
4234968,14
4235600,19
4236224,33
4236848,37
4237476,47
4238096,56
4238724,53
4239348,39
4239976,19
4240604,11
4241228,23
4241856,36
4242488,30
4243104,19
4243732,15
4244360,14
4244988,13
4245616,16
4246240,35
4246868,51
4247492,55
4248120,41
4248748,10
4249368,23
4249996,36
4250620,34
4251248,18
4251876,18
4252500,24
4253132,31
4253760,21
4254380,11
4255008,11
4255632,10
4256264,11
4256892,10
4257512,12
4258140,16
4258764,20
4259392,24
4260020,24
4260636,20
4261268,15
4261896,15
4262516,18
4263144,21
4263768,15
4264396,13
4265024,12
4265640,10
4266272,18
4266892,35
4267524,35
4268152,33
4268772,27
4269400,25
4270024,19
4270648,14
4271276,10
4271896,11
4272524,10
4273148,10
4273776,16
4274404,18
4275028,17
4275660,15
4276288,14
4276912,17
4277540,16
4278164,14
4278792,20
4279420,25
4280040,17
4280668,10
4281292,13
4281916,10
4282548,20
4283168,17
4283796,15
4284428,18
4285048,16
4285676,35
4286300,41
4286932,41
4287564,31
4288184,19
4288812,11
4289436,13
4290060,15
4290688,12
4291308,10
4291936,15
4292560,16
4293184,14
4293812,16
4294432,20
4295060,29
4295692,34
4296312,29
4296940,27
4297568,21
4298196,13
4298828,10
4299448,15
4300080,24
4300704,16
4301328,35
4301956,26
4302576,27
4303204,16
4303828,14
4304452,24
4305084,54
4305704,89
4306332,87
4306964,60
4307584,25
4308212,11
4308836,23
4309468,37
4310096,32
4310720,37
4311348,41
4311972,29
4312600,32
4313228,39
4313848,32
4314476,17
4315100,13
4315728,15
4316356,13
4316976,14
4317604,16
4318236,33
4318856,34
4319488,21
4320112,11
4320740,13
4321372,20
4321992,27
4322620,23
4323244,24
4323868,26
4324496,23
4325112,14
4325744,15
4326368,15
4326992,17
4327620,23
4328240,24
4328868,21
4329500,22
4330120,15
4330748,11
4331372,11
4332004,10
4332636,10
4333256,11
4333884,13
4334508,15
4335136,15
4335764,17
4336384,24
4337012,23
4337636,31
4338264,37
4338892,41
4339512,29
4340144,15
4340772,10
4341392,12
4342024,21
4342648,30
4343276,31
4343908,33
4344528,28
4345156,25
4345780,18
4346404,13
4347036,9
4347604,12
4348236,16
4348860,23
4349484,29
4350116,32
4350736,33
4351368,22
4351992,14
4352616,15
4353248,12
4353868,10
4354500,11
4355128,10
4355748,12
4356376,15
4357000,20
4357628,25
4358260,34
4358880,34
4359508,35
4360132,34
4360756,35
4361388,28
4362008,25
4362636,20
4363260,11
4363888,13
4364516,18
4365140,13
4365772,10
4366400,13
4367016,15
4367648,14
4368272,15
4368900,24
4369532,26
4370152,13
4370780,12
4371408,10
4372028,11
4372660,13
4373280,43
4373908,37
4374540,28
4375160,16
4375792,17
4376416,20
4377044,30
4377676,40
4378296,30
4378924,12
4379548,12
4380172,10
4380804,14
4381424,21
4382056,21
4382680,11
4383304,12
4383936,13
4384552,14
4385180,15
4385812,18
4386432,17
4387060,12
4387684,13
4388316,14
4388948,10
4389568,11
4390200,11
4390824,21
4391448,43
4392076,54
4392696,58
4393328,56
4393952,43
4394576,29
4395204,22
4395824,18
4396456,11
4397084,12
4397704,25
4398336,25
4398960,26
4399592,15
4400220,13
4400840,15
4401468,14
4402092,16
4402716,16
4403348,13
4403968,17
4404596,17
4405220,12
4405844,11
4406472,14
4407096,14
4407724,18
4408356,16
4408976,19
4409604,20
4410228,22
4410860,27
4411488,34
4412112,27
4412744,13
4413368,13
4413992,17
4414624,19
4415240,17
4415872,11
4416496,13
4417120,16
4417748,13
4418372,16
4419004,15
4419632,14
4420256,28
4420884,38
4421508,43
4422140,43
4422772,46
4423392,40
4424024,24
4424644,23
4425268,47
4425900,46
4426520,45
4427148,45
4427772,46
4428400,41
4429028,31
4429652,31
4430284,41
4430912,30
4431532,22
4432160,15
4432784,13
4433412,11
4434044,14
4434664,14
4435292,14
4435916,17
4436540,28
4437172,38
4437792,40
4438424,17
4439052,41
4439672,48
4440304,40
4440928,39
4441556,27
4442188,15
4442808,25
4443436,41
4444064,50
4444688,26
4445316,10
4445936,18
4446564,22
4447192,17
4447816,13
4448448,10
4449064,10
4449692,11
4450324,18
4450944,21
4451576,23
4452200,21
4452828,21
4453460,22
4454080,30
4454712,29
4455336,23
4455960,17
4456592,11
4457208,19
4457836,29
4458464,45
4459088,56
4459716,48
4460336,31
4460968,21
4461596,22
4462216,32
4462848,25
4463472,18
4464104,17
4464732,30
4465352,22
4465980,11
4466608,13
4467232,29
4467860,26
4468480,21
4469108,17
4469736,15
4470360,13
4470992,15
4471608,15
4472240,12
4472872,11
4473488,11
4474120,12
4474744,15
4475376,27
4476008,28
4476624,19
4477256,17
4477880,15
4478504,15
4479136,11
4479756,10
4480388,10
4481012,10
4481632,11
4482264,18
4482888,24
4483516,33
4484148,32
4484768,27
4485396,31
4486020,26
4486652,13
4487280,18
4487904,33
4488532,44
4489156,41
4489780,28
4490412,16
4491032,12
4491660,29
4492288,63
4492912,87
4493540,98
4494164,120
4494848,102
4495524,61
4496144,38
4496772,21
4497396,11
4498020,20
4498652,28
4499276,25
4499904,23
4500536,24
4501156,18
4501784,28
4502412,57
4503040,40
4503668,22
4504288,14
4504920,11
4505544,24
4506168,45
4506800,59
4507416,49
4508044,26
4508668,15
4509296,15
4509924,15
4510548,15
4511180,14
4511812,13
4512432,23
4513060,23
4513684,16
4514308,15
4514940,10
4515560,11
4516188,12
4516812,15
4517436,18
4518068,18
4518688,20
4519316,20
4519948,11
4520568,14
4521196,13
4521820,12
4522452,12
4523080,11
4523704,11
4524332,14
4524956,13
4525580,14
4526212,14
4526832,16
4527460,14
4528084,14
4528708,10
4529340,18
4529960,22
4530588,22
4531220,21
4531840,32
4532468,38
4533092,33
4533724,17
4534356,15
4534976,22
4535608,17
4536232,18
4536856,11
4537484,13
4538104,19
4538732,11
4539360,9
4539932,11
4540568,11
4541184,15
4541816,30
4542440,35
4543064,33
4543696,28
4544312,20
4544944,13
4545572,14
4546192,21
4546824,21
4547444,13
4548076,11
4548708,11
4549328,17
4549956,19
4550584,19
4551208,19
4551836,17
4552456,31
4553084,25
4553708,15
4554336,11
4554964,21
4555588,18
4556220,11
4556852,14
4557472,15
4558100,12
4558724,15
4559356,14
4559988,19
4560608,46
4561240,50
4561864,61
4562488,83
4563116,81
4563736,52
4564368,17
4564992,10
4565616,11
4566248,13
4566872,19
4567504,25
4568132,22
4568752,15
4569384,15
4570008,11
4570632,11
4571260,29
4571880,53
4572512,69
4573136,40
4573760,23
4574388,11
4575008,17
4575640,27
4576272,28
4576888,23
4577520,17
4578144,17
4578776,20
4579404,22
4580024,16
4580652,13
4581280,14
4581904,13
4582536,10
4583152,11
4583784,19
4584408,24
4585032,17
4585664,16
4586280,15
4586912,12
4587540,16
4588160,19
4588788,17
4589412,18
4590044,19
4590676,12
4591296,11
4591928,13
4592552,15
4593176,14
4593804,14
4594424,20
4595052,38
4595680,43
4596304,33
4596932,18
4597552,12
4598184,13
4598812,23
4599432,38
4600064,27
4600688,16
4601316,18
4601948,18
4602568,15
4603196,10
4603824,15
4604448,18
4605080,19
4605696,21
4606328,16
4606952,15
4607576,13
4608208,11
4608824,19
4609452,22
4610080,32
4610696,42
4611328,28
4611948,21
4612580,27
4613208,25
4613832,22
4614460,13
4615084,10
4615708,11
4616336,13
4616960,17
4617588,16
4618212,14
4618840,13
4619468,14
4620088,15
4620716,17
4621348,14
4621968,19
4622596,24
4623220,16
4623852,12
4624484,10
4625104,13
4625732,15
4626360,13
4626984,18
4627612,23
4628232,31
4628864,28
4629484,21
4630108,23
4630740,29
4631364,31
4631992,14
4632624,11
4633244,12
4633872,15
4634496,22
4635128,24
4635756,28
4636376,17
4637004,11
4637628,10
4638256,14
4638884,12
4639504,11
4640136,16
4640756,20
4641380,15
4642008,47
4642632,57
4643260,59
4643892,50
4644512,33
4645140,23
4645764,10
4646396,25
4647028,34
4647648,15
4648276,10
4648900,10
4649528,18
4650156,23
4650776,20
4651404,13
4652032,14
4652656,17
4653284,15
4653908,12
4654540,11
4655172,10
4655792,11
4656424,13
4657048,13
4657672,15
4658300,13
4658920,15
4659552,15
4660176,17
4660796,15
4661428,20
4662048,27
4662676,18
4663308,11
4663928,10
4664560,11
4665184,12
4665812,11
4666444,11
4667064,17
4667692,25
4668320,25
4668944,17
4669572,12
4670192,11
4670820,15
4671444,11
4672072,11
4672700,10
4673320,13
4673948,21
4674580,22
4675200,34
4675828,27
4676452,19
4677084,17
4677712,18
4678336,11
4678968,19
4679592,15
4680216,11
4680844,11
4681464,11
4682092,14
4682720,19
4683344,17
4683972,14
4684592,18
4685224,23
4685852,18
4686472,13
4687100,11
4687728,26
4688356,43
4688988,28
4689608,13
4690236,11
4690860,11
4691484,11
4692116,17
4692736,24
4693364,25
4693992,33
4694616,33
4695244,32
4695864,34
4696496,41
4697124,53
4697744,59
4698372,47
4699000,28
4699628,11
4700260,28
4700880,36
4701508,24
4702136,18
4702760,15
4703392,10
4704008,10
4704640,11
4705264,11
4705888,10
4706520,12
4707144,11
4707776,11
4708408,14
4709024,18
4709656,20
4710284,23
4710916,25
4711544,15
4712168,11
4712796,11
4713424,13
4714048,11
4714676,14
4715296,19
4715928,24
4716556,29
4717176,38
4717808,38
4718432,34
4719060,31
4719692,12
4720312,25
4720944,14
4721568,16
4722192,17
4722824,19
4723440,28
4724068,13
4724692,22
4725316,17
4725948,29
4726568,38
4727196,42
4727828,36
4728448,44
4729080,40
4729704,26
4730332,13
4730964,10
4731584,11
4732216,11
4732840,13
4733464,17
4734096,15
4734712,14
4735344,15
4735968,17
4736596,16
4737224,14
4737848,12
4738476,19
4739108,30
4739728,24
4740360,11
4740984,12
4741612,19
4742244,32
4742864,38
4743496,24
4744120,18
4744744,11
4745376,10
4745992,16
4746624,23
4747248,16
4747872,10
4748504,21
4749128,34
4749760,26
4750388,13
4751008,15
4751640,15
4752264,20
4752896,19
4753524,12
4754144,10
4754776,11
4755400,14
4756024,23
4756652,24
4757272,17
4757904,12
4758532,17
4759152,22
4759784,21
4760408,24
4761036,17
4761668,11
4762288,11
4762916,15
4763540,14
4764168,13
4764796,14
4765416,14
4766048,13
4766672,15
4767296,15
4767928,14
4768544,16
4769176,22
4769808,24
4770424,31
4771056,13
4771680,11
4772312,11
4772940,11
4773560,12
4774192,13
4774816,21
4775440,31
4776072,42
4776688,44
4777320,33
4777944,26
4778568,18
4779200,11
4779816,10
4780448,16
4781080,20
4781696,11
4782328,11
4782952,12
4783584,18
4784216,21
4784832,25
4785464,20
4786088,17
4786712,12
4787344,11
4787964,50
4788592,64
4789220,47
4789844,45
4790476,40
4791096,21
4791728,15
4792360,28
4792976,41
4793608,26
4794232,16
4794864,16
4795496,16
4796116,10
4796748,11
4797372,10
4797996,13
4798632,27
4799252,29
4799884,24
4800508,18
4801136,18
4801764,21
4802388,26
4803020,19
4803648,14
4804272,11
4804900,10
4805524,11
4806152,13
4806780,11
4807400,15
4808028,28
4808652,36
4809276,30
4809908,24
4810528,42
4811156,65
4811788,65
4812408,50
4813040,22
4813660,11
4814292,13
4814920,18
4815544,13
4816172,10
4816796,14
4817420,15
4818052,13
4818672,17
4819300,20
4819924,17
4820548,13
4821180,10
4821800,11
4822432,11
4823060,15
4823680,20
4824308,13
4824936,17
4825564,25
4826196,25
4826816,19
4827444,21
4828072,22
4828696,25
4829328,20
4829944,12
4830576,10
4831200,14
4831824,20
4832456,31
4833072,31
4833704,33
4834332,23
4834952,18
4835584,15
4836208,15
4836836,11
4837468,10
4838088,11
4838720,11
4839340,11
4839964,11
4840596,10
4841216,11
4841844,13
4842468,14
4843092,14
4843724,14
4844344,19
4844972,18
4845604,24
4846224,31
4846856,31
4847480,25
4848108,26
4848740,26
4849360,27
4849988,19
4850616,15
4851240,15
4851868,21
4852488,27
4853116,32
4853744,29
4854368,27
4855000,19
4855624,15
4856256,11
4856884,11
4857504,13
4858136,21
4858760,34
4859392,35
4860020,33
4860640,28
4861272,30
4861896,25
4862520,15
4863152,10
4863772,10
4864404,10
4865032,10
4865656,15
4866284,16
4866908,20
4867540,27
4868168,23
4868788,25
4869416,23
4870044,20
4870668,11
4871296,11
4871916,10
4872548,13
4873172,17
4873796,15
4874428,26
4875048,32
4875676,19
4876308,14
4876928,35
4877556,51
4878180,40
4878812,35
4879444,19
4880064,11
4880692,17
4881316,29
4881940,30
4882572,13
4883192,11
4883824,24
4884448,27
4885072,25
4885700,19
4886320,11
4886952,23
4887580,30
4888200,27
4888832,16
4889456,12
4890084,12
4890716,10
4891336,11
4891968,13
4892592,15
4893216,17
4893848,26
4894464,35
4895096,39
4895720,38
4896344,29
4896972,21
4897592,20
4898224,15
4898852,10
4899472,14
4900104,23
4900728,23
4901360,24
4901988,26
4902608,25
4903240,15
4903864,12
4904488,11
4905120,12
4905736,12
4906368,12
4906992,17
4907616,28
4908248,26
4908872,21
4909504,17
4910136,27
4910752,30
4911384,30
4912012,26
4912640,22
4913272,16
4913892,13
4914524,11
4915152,9
4915728,10
4916356,11
4916976,17
4917604,21
4918228,31
4918852,37
4919480,28
4920104,27
4920732,27
4921364,20
4921984,14
4922612,13
4923236,23
4923868,17
4924496,13
4925112,18
4925744,23
4926368,30
4926992,36
4927624,51
4928240,62
4928868,74
4929492,59
4930116,34
4930744,16
4931360,11
4931992,23
4932620,20
4933240,21
4933868,16
4934492,18
4935124,19
4935752,17
4936376,13
4937004,13
4937628,19
4938252,15
4938880,10
4939504,11
4940136,15
4940760,25
4941384,23
4942012,24
4942632,35
4943260,35
4943892,27
4944512,23
4945140,16
4945764,20
4946396,17
4947028,12
4947648,10
4948276,11
4948900,12
4949524,11
4950156,12
4950776,14
4951408,16
4952032,19
4952656,20
4953284,12
4953904,10
4954536,10
4955164,12
4955784,21
4956416,22
4957040,16
4957668,12
4958300,14
4958920,14
4959548,14
4960176,14
4960800,15
4961428,10
4962048,25
4962676,61
4963300,63
4963924,35
4964556,13
4965176,13
4965804,21
4966436,36
4967056,64
4967684,77
4968308,67
4968936,54
4969564,35
4970184,11
4970812,14
4971440,19
4972064,43
4972692,62
4973312,56
4973944,41
4974568,54
4975192,64
4975824,64
4976444,50
4977072,26
4977700,14
4978320,12
4978948,10
4979576,17
4980204,21
4980836,10
4981456,15
4982088,24
4982708,33
4983336,36
4983964,34
4984584,36
4985216,37
4985840,37
4986464,34
4987096,24
4987720,17
4988348,12
4988980,11
4989600,15
4990228,19
4990856,22
4991488,31
4992120,48
4992736,52
4993364,55
4993988,64
4994612,60
4995244,37
4995864,16
4996492,9
4997068,11
4997696,13
4998324,10
4998944,11
4999572,11
5000204,19
5000824,24
5001452,26
5002076,27
5002708,33
5003340,18
5003960,11
5004592,12
5005216,15
5005840,11
5006468,15
5007088,18
5007720,15
5008344,13
5008968,14
5009596,18
5010216,26
5010848,31
5011476,30
5012096,28
5012728,17
5013352,13
5013984,14
5014612,13
5015232,11
5015864,10
5016488,11
5017112,15
5017744,22
5018360,26
5018992,31
5019616,24
5020240,22
5020868,15
5021488,13
5022116,13
5022748,16
5023368,16
5024000,12
5024620,13
5025252,17
5025884,16
5026504,17
5027136,32
5027760,39
5028384,35
5029016,25
5029632,52
5030264,57
5030888,49
5031512,54
5032144,53
5032768,38
5033400,15
5034028,32
5034648,69
5035280,65
5035904,50
5036536,31
5037168,18
5037784,17
5038416,11
5039040,10
5039668,11
5040300,17
5040920,29
5041548,37
5042180,28
5042800,19
5043432,20
5044056,21
5044684,16
5045316,12
5045936,14
5046568,14
5047192,11
5047816,11
5048448,11
5049064,12
5049696,11
5050320,16
5050944,15
5051576,13
5052192,15
5052824,17
5053456,16
5054076,15
5054708,13
5055332,13
5055964,12
5056596,10
5057216,13
5057848,36
5058472,45
5059096,36
5059728,20
5060344,16
5060976,24
5061600,27
5062224,29
5062856,20
5063472,10
5064104,16
5064736,23
5065356,27
5065988,16
5066612,14
5067244,13
5067876,13
5068496,15
5069128,14
5069752,14
5070380,11
5071012,12
5071632,12
5072264,27
5072892,23
5073516,13
5074148,11
5074772,14
5075404,21
5076036,20
5076656,15
5077288,15
5077912,11
5078536,14
5079168,27
5079792,27
5080424,20
5081048,16
5081672,14
5082300,11
5082920,11
5083552,14
5084180,26
5084800,35
5085428,33
5086056,39
5086688,51
5087316,46
5087936,34
5088572,12
5089196,17
5089820,26
5090452,26
5091072,16
5091704,15
5092328,18
5092952,33
5093584,31
5094204,19
5094836,14
5095468,10
5096088,10
5096716,16
5097344,26
5097976,27
5098608,22
5099224,15
5099856,13
5100484,13
5101108,13
5101740,12
5102360,17
5102992,18
5103624,10
5104248,13
5104880,30
5105504,43
5106136,38
5106768,37
5107388,38
5108020,26
5108644,13
5109268,26
5109900,46
5110520,35
5111152,12
5111780,17
5112404,16
5113036,13
5113656,15
5114288,12
5114920,12
5115544,18
5116176,19
5116804,14
5117436,15
5118068,14
5118692,14
5119324,15
5119952,19
5120580,10
5121208,15
5121824,24
5122452,28
5123080,22
5123704,22
5124332,12
5124956,15
5125584,26
5126212,50
5126832,47
5127460,35
5128084,25
5128708,16
5129340,11
5129960,25
5130588,36
5131212,24
5131836,13
5132464,11
5133084,11
5133712,15
5134340,19
5134960,20
5135588,17
5136212,11
5136844,15
5137472,15
5138088,11
5138720,11
5139344,13
5139972,15
5140604,24
5141224,22
5141852,19
5142476,15
5143100,18
5143728,20
5144348,22
5144976,23
5145604,26
5146224,21
5146852,15
5147476,11
5148108,10
5148736,19
5149356,21
5149984,21
5150608,21
5151240,16
5151868,14
5152488,15
5153116,11
5153740,13
5154364,13
5154996,16
5155616,23
5156244,23
5156876,14
5157496,11
5158124,17
5158752,24
5159380,22
5160012,20
5160632,20
5161264,27
5161884,24
5162508,13
5163140,11
5163760,13
5164388,13
5165012,14
5165636,21
5166268,30
5166888,45
5167516,35
5168148,18
5168768,17
5169396,13
5170020,11
5170652,13
5171284,10
5171904,11
5172532,10
5173156,11
5173780,23
5174408,51
5175032,93
5175660,82
5176288,57
5176912,54
5177540,62
5178160,61
5178788,37
5179420,10
5180040,32
5180668,30
5181296,20
5181924,19
5182556,22
5183176,25
5183808,24
5184432,19
5185056,20
5185684,24
5186304,27
5186932,22
5187556,14
5188180,13
5188812,14
5189432,17
5190064,12
5190692,11
5191312,23
5191944,36
5192568,43
5193196,29
5193828,16
5194448,16
5195076,17
5195704,12
5196328,11
5196960,15
5197576,13
5198208,13
5198832,13
5199456,11
5200084,16
5200708,15
5201340,15
5201968,20
5202592,23
5203220,13
5203844,13
5204472,14
5205104,16
5205720,12
5206352,15
5206976,10
5207600,17
5208228,17
5208848,21
5209476,23
5210104,21
5210728,22
5211356,20
5211984,19
5212612,21
5213244,17
5213864,14
5214492,19
5215120,16
5215748,11
5216380,10
5217000,13
5217628,22
5218252,25
5218880,30
5219508,26
5220128,19
5220760,11
5221388,22
5222008,24
5222640,23
5223260,19
5223892,15
5224520,22
5225144,23
5225772,21
5226396,20
5227020,22
5227652,25
5228272,24
5228900,18
5229524,11
5230148,12
5230780,12
5231400,12
5232032,11
5232660,10
5233280,15
5233908,15
5234536,15
5235164,17
5235796,22
5236416,21
5237048,15
5237672,11
5238296,15
5238928,19
5239544,20
5240176,22
5240800,21
5241424,19
5242056,15
5242672,14
5243304,15
5243932,14
5244552,12
5245180,12
5245804,16
5246432,19
5247064,18
5247680,14
5248308,10
5248932,11
5249556,12
5250184,14
5250800,17
5251428,13
5252052,15
5252676,12
5253304,11
5253920,11
5254548,11
5255176,12
5255800,18
5256428,16
5257052,11
5257680,13
5258308,19
5258928,21
5259556,23
5260180,18
5260804,14
5261436,10
5262056,11
5262684,9
5263256,10
5263888,12
5264516,11
5265136,11
5265764,9
5266336,10
5266960,13
5267588,13
5268208,16
5268836,18
5269460,11
5270084,18
5270712,20
5271332,14
5271960,12
5272592,10
5273212,11
5273840,15
5274464,22
5275092,17
5275724,50
5276344,40
5276972,29
5277596,21
5278220,11
5278852,18
5279472,40
5280100,70
5280724,87
5281348,60
5281976,25
5282592,15
5283224,36
5283852,53
5284472,48
5285100,36
5285724,24
5286352,28
5286980,21
5287600,15
5288228,10
5288852,14
5289476,16
5290108,14
5290728,15
5291356,25
5291980,32
5292604,27
5293236,18
5293856,21
5294484,48
5295116,56
5295736,52
5296364,37
5296988,28
5297620,19
5298248,34
5298864,47
5299496,43
5300120,20
5300744,16
5301372,18
5301992,14
5302620,13
5303244,11
5303868,19
5304500,24
5305120,22
5305748,18
5306380,14
5307000,11
5307628,11
5308252,16
5308884,20
5309512,19
5310132,18
5310760,22
5311384,22
5312012,14
5312640,10
5313256,13
5313884,11
5314512,10
5315136,10
5315764,11
5316384,21
5317012,27
5317644,22
5318264,19
5318896,17
5319520,17
5320148,16
5320780,16
5321400,13
5322032,13
5322656,15
5323280,12
5323908,18
5324528,23
5325160,23
5325780,44
5326404,42
5327032,39
5327648,31
5328280,30
5328908,28
5329528,25
5330156,21
5330780,10
5331408,23
5332036,18
5332656,11
5333284,15
5333908,19
5334536,23
5335164,32
5335784,34
5336412,27
5337036,20
5337660,14
5338288,12
5338912,12
5339540,11
5340172,10
5340792,13
5341420,13
5342044,15
5342676,29
5343308,30
5343928,34
5344560,37
5345184,30
5345808,24
5346436,10
5347056,11
5347684,31
5348308,31
5348932,13
5349560,10
5350184,20
5350816,43
5351444,60
5352064,57
5352692,39
5353316,15
5353948,12
5354576,14
5355196,24
5355824,27
5356448,20
5357072,11
5357704,14
5358324,17
5358952,27
5359576,35
5360200,40
5360828,31
5361448,32
5362076,39
5362708,58
5363328,59
5363956,55
5364580,49
5365212,43
5365840,27
5366464,15
5367092,29
5367716,47
5368340,37
5368972,31
5369592,33
5370224,23
5370848,18
5371472,18
5372100,12
5372720,11
5373352,12
5373980,11
5374600,19
5375232,21
5375856,23
5376488,35
5377116,38
5377736,34
5378364,35
5378988,15
5379612,10
5380240,10
5380856,10
5381488,16
5382112,23
5382736,24
5383364,34
5383984,36
5384612,24
5385244,22
5385864,23
5386492,11
5387116,11
5387748,10
5388376,10
5389000,11
5389628,20
5390252,24
5390876,23
5391508,22
5392128,23
5392756,24
5393380,34
5394004,52
5394636,48
5395256,42
5395884,32
5396516,16
5397136,10
5397764,17
5398388,27
5399020,23
5399652,20
5400272,26
5400904,29
5401528,30
5402152,24
5402780,22
5403400,24
5404028,28
5404656,29
5405280,17
5405908,14
5406532,42
5407164,52
5407796,53
5408416,45
5409044,33
5409668,23
5410296,17
5410924,44
5411544,64
5412172,42
5412796,43
5413420,35
5414052,14
5414672,12
5415300,24
5415924,52
5416552,58
5417180,43
5417804,30
5418436,27
5419064,33
5419684,24
5420312,16
5420936,10
5421564,10
5422196,10
5422816,12
5423444,12
5424072,16
5424696,23
5425324,40
5425944,44
5426572,41
5427200,34
5427824,26
5428452,17
5429076,13
5429704,11
5430336,13
5430956,13
5431584,11
5432208,10
5432840,22
5433468,28
5434088,38
5434716,38
5435344,37
5435968,33
5436596,20
5437216,12
5437848,14
5438476,18
5439096,15
5439728,11
5440352,12
5440980,22
5441608,55
5442224,58
5442856,55
5443480,57
5444104,65
5444732,50
5445352,26
5445980,12
5446604,13
5447228,17
5447860,13
5448480,15
5449108,11
5449736,14
5450356,13
5450984,14
5451608,19
5452236,18
5452868,10
5453488,12
5454116,11
5454740,11
5455364,11
5455996,11
5456616,11
5457244,15
5457868,22
5458492,24
5459124,26
5459744,32
5460372,31
5461004,27
5461624,22
5462252,17
5462876,18
5463508,12
5464140,12
5464760,19
5465388,16
5466016,13
5466640,21
5467268,21
5467888,16
5468516,14
5469140,13
5469764,10
5470396,10
5471016,12
5471648,18
5472276,22
5472896,17
5473524,14
5474148,15
5474780,15
5475412,16
5476032,29
5476660,33
5477288,28
5477912,15
5478540,10
5479160,14
5479788,15
5480412,14
5481036,17
5481668,18
5482288,12
5482916,13
5483548,22
5484168,19
5484796,19
5485424,21
5486052,11
5486684,13
5487304,26
5487936,26
5488560,20
5489184,15
5489812,16
5490432,24
5491060,20
5491688,16
5492312,15
5492940,21
5493560,26
5494192,31
5494820,22
5495440,11
5496068,10
5496696,13
5497324,17
5497956,16
5498576,14
5499204,11
5499828,17
5500456,21
5501084,23
5501704,20
5502336,19
5502960,17
5503584,19
5504216,16
5504840,12
5505468,13
5506100,16
5506720,13
5507348,11
5507972,14
5508604,16
5509236,18
5509856,22
5510484,24
5511108,19
5511732,12
5512364,10
5512984,15
5513612,17
5514240,17
5514864,14
5515496,15
5516120,19
5516752,25
5517384,33
5518000,27
5518632,21
5519256,13
5519880,55
5520512,72
5521128,51
5521760,43
5522384,44
5523008,28
5523640,17
5524256,11
5524888,22
5525516,19
5526136,18
5526768,28
5527392,25
5528024,29
5528652,33
5529272,28
5529904,20
5530528,11
5531152,10
5531780,9
5532348,10
5532980,14
5533604,19
5534228,15
5534860,13
5535480,14
5536112,12
5536732,17
5537356,25
5537988,24
5538608,25
5539236,28
5539868,22
5540488,12
5541116,11
5541744,15
5542372,24
5543004,25
5543624,32
5544256,25
5544880,23
5545504,21
5546136,12
5546752,16
5547384,25
5548008,23
5548632,21
5549264,19
5549880,20
5550512,24
5551144,27
5551760,21
5552392,17
5553016,12
5553648,11
5554276,14
5554896,39
5555528,51
5556152,46
5556776,28
5557408,19
5558024,18
5558656,24
5559280,26
5559904,25
5560536,18
5561160,15
5561792,17
5562420,21
5563040,11
5563672,11
5564296,11
5564928,11
5565556,12
5566176,13
5566808,13
5567432,14
5568056,15
5568688,17
5569304,11
5569936,11
5570568,15
5571184,20
5571816,23
5572440,22
5573068,24
5573700,17
5574320,12
5574952,17
5575576,20
5576200,25
5576828,31
5577448,37
5578080,32
5578704,21
5579328,14
5579960,10
5580576,10
5581208,11
5581840,18
5582456,29
5583084,31
5583712,30
5584340,28
5584972,18
5585592,15
5586224,15
5586848,23
5587472,25
5588100,27
5588720,19
5589348,12
5589976,11
5590600,11
5591232,17
5591848,25
5592480,24
5593108,56
5593728,76
5594356,55
5594984,44
5595612,31
5596244,10
5596864,17
5597492,28
5598120,52
5598744,60
5599376,48
5599992,29
5600624,21
5601252,33
5601876,36
5602504,25
5603124,19
5603752,15
5604384,11
5605004,13
5605632,11
5606256,12
5606888,11
5607516,16
5608136,38
5608764,54
5609388,66
5610016,75
5610644,64
5611264,53
5611896,15
5612520,13
5613144,18
5613772,13
5614392,11
5615024,11
5615652,13
5616272,13
5616900,13
5617524,15
5618156,13
5618788,12
5619408,11
5620036,13
5620660,13
5621284,19
5621916,26
5622536,21
5623164,12
5623792,16
5624416,21
5625044,29
5625672,24
5626300,18
5626932,14
5627552,14
5628184,23
5628808,28
5629436,22
5630068,20
5630688,12
5631320,10
5631948,11
5632572,14
5633204,20
5633824,27
5634452,26
5635084,26
5635704,20
5636332,12
5636956,19
5637588,24
5638216,19
5638840,13
5639468,11
5640092,11
5640716,15
5641348,19
5641968,22
5642596,22
5643220,24
5643844,21
5644472,16
5645096,13
5645724,10
5646356,9
5646924,10
5647556,10
5648176,11
5648804,13
5649436,16
5650056,20
5650684,26
5651308,27
5651940,31
5652572,26
5653192,15
5653820,14
5654444,21
5655068,13
5655696,13
5656320,16
5656948,17
5657572,20
5658200,24
5658828,17
5659448,21
5660076,22
5660708,31
5661328,32
5661960,34
5662584,41
5663212,36
5663844,18
5664464,12
5665092,10
5665716,11
5666340,20
5666972,24
5667592,24
5668224,19
5668848,16
5669468,11
5670100,11
5670724,10
5671356,10
5671988,10
5672608,21
5673240,30
5673864,33
5674492,19
5675124,21
5675744,26
5676376,24
5677000,21
5677624,57
5678256,53
5678872,25
5679504,11
5680132,13
5680752,16
5681380,12
5682008,16
5682636,29
5683268,16
5683888,14
5684516,16
5685140,13
5685768,21
5686396,24
5687016,22
5687648,25
5688272,25
5688896,18
5689524,11
5690144,12
5690776,21
5691404,29
5692024,27
5692656,33
5693280,29
5693912,19
5694540,22
5695160,17
5695792,13
5696416,13
5697040,10
5697668,14
5698288,11
5698916,10
5699540,14
5700164,19
5700796,18
5701416,15
5702048,16
5702676,16
5703296,14
5703928,16
5704552,24
5705180,21
5705812,16
5706432,24
5707064,27
5707688,23
5708312,30
5708944,30
5709560,30
5710192,29
5710816,24
5711440,13
5712072,12
5712688,10
5713320,12
5713952,19
5714568,24
5715196,25
5715824,20
5716456,22
5717088,23
5717704,18
5718336,14
5718964,15
5719588,10
5720220,10
5720840,10
5721472,12
5722096,13
5722720,11
5723352,17
5723976,17
5724608,21
5725240,30
5725856,29
5726488,21
5727112,17
5727744,16
5728376,20
5728996,17
5729624,12
5730248,11
5730876,10
5731508,10
5732128,10
5732760,15
5733392,22
5734016,23
5734648,23
5735272,18
5735904,11
5736532,12
5737152,13
5737780,16
5738404,13
5739028,13
5739660,13
5740280,11
5740908,11
5741532,13
5742156,14
5742788,14
5743408,15
5744036,15
5744668,12
5745288,11
5745916,18
5746540,20
5747172,21
5747804,20
5748424,21
5749052,17
5749680,15
5750304,17
5750932,28
5751552,29
5752184,17
5752808,19
5753432,19
5754064,11
5754680,11
5755312,13
5755944,14
5756560,12
5757192,46
5757816,77
5758448,61
5759076,42
5759696,37
5760328,33
5760948,25
5761572,11
5762204,22
5762824,26
5763452,14
5764076,13
5764700,20
5765328,19
5765944,16
5766576,21
5767204,20
5767824,22
5768452,21
5769076,18
5769708,14
5770336,16
5770952,21
5771584,24
5772208,25
5772832,22
5773460,10
5774080,25
5774708,40
5775332,42
5775960,36
5776588,24
5777208,17
5777836,20
5778468,24
5779088,19
5779716,12
5780340,11
5780972,11
5781600,15
5782224,12
5782856,12
5783480,13
5784104,13
5784732,16
5785352,18
5785984,19
5786604,22
5787228,26
5787860,27
5788484,21
5789112,17
5789740,18
5790360,19
5790992,13
5791616,13
5792244,17
5792876,22
5793496,26
5794124,25
5794748,31
5795376,32
5796004,26
5796624,19
5797252,17
5797876,18
5798500,15
5799132,15
5799756,15
5800384,14
5801016,15
5801632,15
5802264,25
5802888,27
5803516,13
5804148,16
5804768,33
5805400,40
5806024,24
5806648,11
5807276,19
5807896,32
5808528,45
5809156,43
5809776,39
5810408,31
5811032,19
5811664,10
5812292,10
5812912,12
5813544,10
5814168,10
5814792,11
5815424,11
5816040,10
5816672,12
5817296,17
5817920,15
5818548,16
5819168,16
5819800,15
5820428,18
5821048,14
5821680,11
5822304,13
5822932,11
5823564,10
5824184,18
5824812,22
5825436,23
5826060,27
5826692,24
5827312,27
5827940,26
5828568,18
5829192,16
5829820,19
5830440,11
5831068,29
5831700,40
5832320,43
5832948,37
5833576,23
5834208,17
5834836,22
5835456,33
5836088,32
5836712,21
5837336,16
5837968,12
5838588,13
5839216,69
5839840,100
5840516,94
5841140,81
5841764,57
5842396,30
5843028,16
5843648,45
5844276,61
5844900,34
5845524,12
5846156,23
5846776,34
5847408,41
5848032,32
5848656,15
5849284,10
5849904,17
5850532,23
5851164,27
5851784,28
5852416,17
5853040,10
5853668,9
5854248,15
5854872,16
5855504,11
5856128,11
5856756,11
5857388,10
5858008,17
5858636,19
5859260,22
5859884,25
5860516,24
5861136,15
5861764,11
5862392,10
5863016,12
5863648,20
5864272,24
5864900,17
5865532,17
5866152,15
5866784,15
5867408,16
5868040,15
5868668,15
5869288,12
5869916,11
5870544,11
5871168,26
5871800,27
5872420,22
5873048,20
5873680,22
5874300,12
5874932,17
5875556,14
5876188,15
5876816,16
5877440,22
5878072,39
5878696,44
5879320,27
5879952,11
5880572,15
5881200,11
5881828,11
5882452,15
5883084,27
5883704,34
5884336,16
5884964,25
5885584,37
5886216,40
5886840,31
5887472,26
5888104,12
5888720,15
5889348,22
5889972,18
5890596,12
5891228,18
5891848,17
5892476,19
5893104,16
5893728,15
5894360,11
5894984,13
5895616,13
5896244,13
5896864,18
5897496,13
5898120,12
5898752,11
5899380,10
5900000,16
5900628,21
5901252,26
5901876,25
5902508,15
5903128,15
5903760,11
5904388,10
5905008,13
5905636,15
5906260,13
5906892,12
5907524,13
5908144,16
5908776,16
5909400,18
5910024,23
5910652,26
5911272,23
5911904,20
5912528,15
5913152,12
5913784,12
5914400,13
5915028,11
5915660,10
5916280,13
5916908,15
5917536,15
5918164,16
5918796,18
5919416,15
5920048,15
5920668,12
5921292,11
5921920,12
5922544,12
5923172,12
5923800,11
5924424,16
5925052,21
5925672,20
5926304,20
5926932,18
5927552,19
5928184,20
5928808,19
5929436,15
5930068,18
5930688,14
5931320,10
5931944,11
5932568,14
5933200,18
5933816,21
5934448,19
5935072,21
5935696,23
5936328,18
5936944,19
5937576,17
5938204,11
5938824,10
5939456,11
5940080,21
5940708,26
5941336,21
5941960,16
5942588,15
5943212,19
5943836,21
5944468,29
5945088,40
5945716,37
5946340,21
5946964,10
5947596,10
5948216,11
5948844,10
5949476,12
5950096,15
5950724,16
5951352,22
5951980,23
5952616,17
5953232,11
5953864,13
5954488,13
5955112,12
5955740,14
5956360,21
5956992,31
5957616,13
5958240,53
5958868,62
5959496,51
5960128,40
5960756,36
5961376,15
5962008,21
5962632,36
5963260,43
5963892,36
5964512,28
5965144,12
5965768,18
5966392,26
5967020,34
5967640,45
5968272,47
5968896,30
5969520,16
5970152,11
5970776,11
5971404,15
5972036,17
5972656,12
5973288,12
5973912,15
5974536,17
5975168,16
5975784,19
5976416,18
5977040,18
5977664,13
5978292,11
5978912,9
5979492,10
5980120,11
5980748,13
5981376,16
5982000,16
5982632,16
5983260,16
5983880,14
5984512,14
5985136,16
5985768,17
5986396,10
5987016,11
5987648,12
5988272,11
5988896,10
5989528,14
5990144,15
5990776,19
5991404,20
5992028,15
5992656,14
5993276,17
5993904,24
5994536,27
5995156,28
5995788,27
5996412,30
5997044,36
5997676,36
5998296,33
5998928,33
5999552,31
6000176,23
6000808,21
6001424,18
6002056,15
6002680,14
6003304,25
6003932,26
6004556,23
6005188,21
6005820,18
6006440,17
6007068,13
6007692,13
6008324,25
6008956,23
6009576,21
6010208,21
6010832,18
6011456,13
6012088,11
6012704,41
6013336,39
6013968,25
6014592,13
6015224,11
6015852,30
6016484,47
6017112,62
6017732,72
6018360,55
6018988,37
6019612,17
6020244,10
6020864,11
6021496,20
6022120,19
6022744,15
6023372,12
6023992,16
6024624,22
6025252,26
6025872,16
6026504,15
6027128,17
6027760,17
6028388,29
6029008,38
6029636,44
6030264,45
6030888,39
6031520,36
6032136,29
6032768,14
6033392,20
6034016,25
6034648,16
6035272,18
6035904,19
6036536,16
6037152,24
6037784,23
6038408,19
6039040,14
6039668,16
6040288,13
6040920,14
6041548,28
6042172,25
6042804,20
6043424,24
6044056,21
6044684,29
6045304,31
6045936,23
6046560,19
6047188,16
6047820,10
6048440,10
6049072,11
6049696,15
6050320,15
6050952,15
6051568,15
6052200,18
6052824,11
6053452,12
6054080,10
6054704,18
6055336,14
6055968,11
6056584,12
6057216,11
6057840,14
6058472,18
6059104,19
6059724,17
6060356,16
6060980,15
6061604,14
6062236,14
6062856,10
6063488,10
6064112,11
6064736,16
6065364,13
6065992,11
6066620,16
6067252,16
6067872,23
6068500,33
6069128,35
6069756,29
6070388,20
6071008,12
6071640,11
6072264,11
6072888,11
6073520,11
6074136,10
6074768,18
6075400,30
6076020,38
6076648,43
6077276,42
6077908,27
6078540,16
6079160,10
6079792,12
6080420,14
6081044,15
6081676,12
6082296,16
6082928,13
6083548,14
6084172,16
6084804,16
6085424,20
6086056,12
6086684,20
6087304,32
6087936,31
6088560,25
6089188,17
6089820,14
6090440,11
6091072,14
6091696,43
6092320,63
6092952,69
6093568,45
6094200,28
6094824,16
6095448,13
6096076,10
6096696,14
6097324,19
6097956,17
6098576,12
6099208,12
6099832,17
6100460,20
6101092,25
6101712,27
6102344,29
6102968,26
6103596,19
6104228,15
6104848,11
6105480,12
6106104,11
6106728,11
6107360,11
6107984,14
6108616,16
6109248,23
6109864,33
6110496,32
6111120,38
6111752,65
6112384,48
6113004,25
6113636,11
6114260,16
6114884,25
6115516,36
6116136,53
6116768,60
6117400,38
6118020,24
6118652,14
6119276,11
6119908,12
6120540,10
6121160,16
6121792,13
6122416,13
6123040,11
6123672,11
6124292,20
6124920,31
6125548,47
6126172,48
6126804,33
6127428,40
6128060,46
6128692,40
6129312,25
6129944,13
6130568,11
6131200,10
6131828,21
6132452,24
6133080,21
6133708,15
6134336,15
6134968,14
6135588,17
6136220,26
6136852,22
6137472,20
6138108,29
6138732,25
6139364,17
6139996,16
6140620,24
6141252,35
6141880,41
6142504,37
6143136,45
6143756,39
6144392,43
6145016,61
6145636,49
6146268,25
6146892,15
6147520,11
6148148,10
6148768,11
6149396,18
6150020,36
6150652,44
6151280,44
6151904,50
6152536,40
6153160,29
6153784,17
6154412,10
6155032,11
6155660,15
6156288,10
6156912,12
6157540,17
6158164,31
6158796,39
6159428,35
6160048,29
6160676,18
6161300,18
6161924,25
6162556,31
6163176,38
6163808,25
6164432,11
6165056,12
6165684,13
6166304,18
6166936,19
6167564,15
6168184,14
6168812,14
6169436,11
6170068,20
6170700,26
6171320,29
6171948,25
6172576,20
6173200,23
6173828,22
6174448,41
6175080,18
6175704,13
6176328,16
6176956,16
6177576,11
6178208,15
6178836,24
6179456,11
6180088,29
6180712,35
6181340,32
6181972,16
6182592,10
6183220,19
6183848,21
6184472,21
6185104,23
6185720,16
6186348,12
6186972,13
6187600,16
6188228,14
6188848,14
6189476,11
6190108,14
6190728,23
6191356,28
6191984,25
6192616,25
6193248,25
6193864,27
6194496,26
6195120,26
6195744,19
6196376,10
6196996,14
6197624,20
6198248,18
6198872,16
6199504,15
6200124,15
6200752,15
6201384,16
6202000,19
6202632,21
6203256,30
6203888,22
6204516,26
6205136,30
6205768,17
6206392,13
6207016,14
6207648,18
6208268,21
6208896,21
6209520,23
6210144,21
6210776,26
6211400,52
6212028,45
6212660,22
6213280,13
6213908,11
6214536,11
6215164,10
6215796,11
6216416,14
6217044,25
6217672,25
6218296,21
6218928,25
6219544,26
6220176,11
6220808,19
6221424,33
6222056,37
6222680,30
6223312,18
6223944,13
6224564,16
6225192,16
6225820,14
6226444,15
6227076,16
6227696,11
6228324,17
6228952,31
6229576,33
6230208,27
6230824,11
6231456,13
6232084,16
6232704,18
6233336,15
6233960,14
6234588,15
6235220,13
6235840,11
6236472,10
6237096,13
6237720,11
6238352,18
6238972,15
6239604,13
6240228,25
6240852,26
6241480,19
6242104,14
6242732,15
6243364,26
6243984,31
6244616,26
6245240,25
6245872,24
6246500,12
6247120,17
6247748,44
6248372,56
6248996,28
6249624,14
6250248,17
6250876,15
6251504,17
6252128,15
6252760,12
6253384,15
6254012,16
6254644,10
6255264,17
6255896,13
6256520,15
6257152,17
6257780,22
6258400,31
6259028,29
6259656,25
6260280,25
6260908,28
6261528,20
6262160,12
6262788,12
