tempo_arduino_micro_s,valor_ADC
500,20
1004,11
1504,10
2000,18
2508,25
3000,34
3508,39
4000,41
4508,41
5000,41
5500,39
6000,36
6500,32
7000,30
7500,28
8000,24
8500,21
9000,19
9500,14
10000,12
10508,10
11028,10
11556,10
12076,12
12604,18
13124,28
13648,34
14172,42
14700,45
15220,41
15748,37
16268,32
16796,24
17316,18
17836,10
18356,14
18876,22
19396,32
19916,33
20436,32
20956,39
21476,41
21996,39
22516,34
23036,32
23564,32
24084,35
24612,32
25132,25
25660,18
26180,13
26708,12
27228,11
27756,12
28276,10
28804,10
29324,17
29852,24
30372,33
30900,37
31420,36
31948,30
32472,26
32996,28
33516,25
34044,21
34564,12
35092,10
35612,16
36140,19
36660,22
37188,32
37708,33
38236,35
38760,34
39284,35
39804,30
40332,26
40852,24
41372,21
41892,18
42412,12
42932,10
43452,10
43972,10
44492,10
45012,10
45532,13
46052,22
46572,31
47092,36
47612,39
48140,37
48660,35
49188,29
49708,25
50236,20
50760,13
51284,10
51804,15
52332,25
52852,33
53380,39
53900,43
54428,44
54948,41
55476,38
55996,35
56524,29
57044,29
57572,26
58096,23
58620,20
59140,15
59668,11
60188,10
60716,10
61240,10
61764,11
62284,14
62812,22
63332,32
63860,39
64384,44
64908,44
65428,39
65948,35
66468,28
66988,22
67508,12
68028,11
68548,17
69068,27
69588,35
70112,39
70632,44
71148,43
71668,38
72192,35
72716,35
73240,31
73764,27
74284,25
74812,20
75332,19
75860,13
76384,11
76908,10
77428,10
77956,11
78476,12
79004,15
79528,21
80052,31
80572,37
81100,40
81620,41
82148,37
82668,29
83196,24
83716,20
84244,11
84764,11
85292,18
85812,26
86340,35
86860,40
87388,43
87908,41
88436,41
88956,38
89484,32
90004,30
90524,26
91044,21
91564,18
92084,17
92604,12
93124,10
93644,10
94164,10
94684,11
95204,11
95724,16
96248,19
96764,22
97292,30
97812,38
98340,35
98860,32
99388,28
99908,20
100436,15
101000,10
101584,15
102156,28
102736,36
103304,41
103880,47
104456,50
105024,39
105600,32
106168,27
106744,25
107312,20
107896,19
108464,16
109040,15
109624,11
110192,12
110768,11
111336,10
111920,9
112440,12
113016,20
113584,32
114160,48
114744,47
115312,41
115896,35
116464,31
117048,21
117616,11
118200,13
118768,23
119344,29
119928,35
120500,43
121080,48
121648,45
122232,35
122804,29
123376,30
123960,28
124528,24
125112,22
125680,18
126264,14
126832,11
127416,10
127988,10
128564,12
129144,19
129712,27
130288,35
130856,44
131440,45
132008,40
132584,32
133160,27
133728,19
134304,10
134872,14
135456,28
136024,38
136608,44
137176,43
137752,40
138336,35
138904,31
139488,29
140056,28
140640,24
141208,21
141784,19
142368,14
142940,11
143520,11
144088,10
144672,10
145240,13
145824,16
146392,30
146972,34
147552,46
148120,44
148704,39
149272,33
149856,25
150424,19
151000,11
151584,12
152156,22
152736,34
153308,40
153888,44
154456,47
155040,39
155608,35
156184,34
156768,31
157340,27
157920,23
158492,18
159072,13
159644,11
160220,10
160800,10
161368,11
161944,14
162512,19
163096,27
163664,35
164248,42
164816,39
165384,35
165960,30
166528,26
167112,22
167680,11
168256,12
168824,20
169400,29
169968,40
170544,45
171120,41
171688,34
172272,28
172840,30
173424,30
173996,31
174572,29
175152,27
175724,18
176304,11
176872,11
177456,9
177972,10
178552,12
179124,18
179700,26
180280,34
180848,43
181432,47
182000,43
182584,31
183152,26
183736,18
184308,10
184884,14
185464,24
186032,32
186616,40
187184,43
187768,40
188336,36
188912,32
189496,33
190064,30
190648,26
191220,23
191800,21
192372,14
192952,13
193520,13
194096,9
194628,10
195200,13
195784,18
196352,26
196936,36
197504,41
198088,37
198664,35
199232,30
199816,27
200388,22
200968,12
201536,13
202120,24
202692,33
203268,40
203848,48
204420,48
205000,44
205568,35
206144,31
206712,29
207296,25
207864,25
208440,21
209024,14
209592,9
210116,10
210688,11
211272,9
211788,11
212368,14
212936,27
213512,34
214096,39
214664,38
215248,35
215816,30
216400,25
216968,19
217544,10
218120,17
218688,24
219272,31
219840,35
220424,36
220992,37
221576,33
222148,31
222724,30
223304,31
223876,26
224456,21
225024,19
225608,13
226176,10
226752,9
227268,10
227840,11
228424,11
228992,18
229576,28
230148,36
230728,40
231296,43
231880,37
232456,33
233024,30
233608,24
234176,15
234760,11
235332,22
235912,33
236484,41
237056,47
237640,48
238208,46
238792,37
239364,33
239944,29
240516,23
241096,19
241672,22
242240,18
242824,18
243396,11
243976,10
244548,10
245128,11
245696,13
246276,20
246856,30
247424,42
248008,41
248576,39
249160,35
249732,29
250312,20
250888,11
251456,15
252040,22
252608,32
253192,29
253764,35
254344,44
254916,43
255492,38
256072,36
256644,33
257224,28
257792,28
258368,21
258936,14
259520,10
260088,9
260604,10
261184,11
261752,13
262336,17
262904,26
263488,36
264056,44
264640,43
265208,34
265784,30
266368,24
266936,23
267520,12
268088,11
268672,19
269244,29
269816,37
270400,42
270968,49
271552,47
272124,42
272704,34
273272,26
273856,18
274428,20
275000,20
275584,15
276156,13
276736,11
277304,10
277888,10
278456,11
279032,19
279616,29
280188,37
280768,46
281340,42
281920,37
282488,30
283072,24
283640,17
284216,10
284800,15
285368,24
285952,35
286524,36
287104,40
287676,42
288252,42
288832,38
289400,32
289984,29
290552,23
291136,21
291708,18
292288,14
292856,16
293432,13
294016,10
294588,10
295168,12
295740,18
296320,25
296888,35
297468,46
298048,44
298616,43
299200,37
299772,35
300352,28
300924,13
301504,12
302076,24
302652,37
303232,41
303804,42
304384,45
304964,43
305544,39
306116,37
306692,38
307272,34
307844,29
308424,22
308992,15
309576,12
310148,10
310728,11
311304,10
311876,13
312456,18
313028,30
313608,37
314176,41
314760,42
315332,42
315908,35
316488,23
317060,18
317640,10
318212,14
318792,29
319372,37
319952,40
320540,44
321108,45
321688,40
322256,33
322840,29
323408,29
323992,24
324564,19
325136,16
325720,12
326292,13
326872,10
327444,11
328024,12
328592,16
329168,24
329744,35
330312,38
330896,44
331464,40
332048,37
332616,30
333200,23
333768,17
334336,11
334920,14
335488,29
336072,35
336640,40
337224,43
337792,40
338376,34
338952,34
339524,34
340104,32
340672,27
341256,25
341824,21
342408,13
342976,13
343556,10
344136,11
344704,10
345288,12
345856,21
346440,31
347008,36
347592,40
348168,38
348736,34
349320,29
349888,22
350472,14
351044,11
351624,13
352196,24
352768,33
353352,38
353924,46
354504,43
355076,37
355656,35
356236,33
356816,29
357392,24
357964,21
358544,18
359112,11
359696,10
360264,10
360848,9
361364,10
361936,16
362520,19
363088,28
363672,33
364244,40
364824,38
365392,34
365976,28
366548,21
367124,17
367704,10
368276,12
368856,25
369424,38
370008,43
370576,47
371152,46
371736,42
372308,38
372888,34
373456,30
374040,27
374612,22
375192,17
375764,15
376340,11
376920,10
377492,10
378072,11
378652,13
379232,20
379800,30
380380,36
380960,41
381532,40
382112,35
382684,32
383264,25
383844,16
384424,11
385000,15
385576,24
386160,32
386732,38
387312,41
387884,43
388464,41
389036,40
389612,38
390192,33
390764,26
391344,25
391916,19
392496,13
393064,12
393648,9
394168,10
394740,10
395320,15
395892,24
396472,33
397044,44
397624,49
398196,43
398776,39
399348,26
399924,21
400504,13
401076,10
401656,15
402224,27
402808,32
403380,40
403952,43
404536,43
405104,38
405688,35
406260,31
406840,27
407412,26
407992,23
408564,17
409140,13
409720,10
410288,9
410812,9
411332,9
411860,12
412432,19
413016,32
413584,42
414160,47
414744,42
415312,38
415896,34
416468,22
417048,16
417616,10
418200,13
418768,23
419344,35
419928,45
420496,47
421080,44
421648,39
422232,36
422804,35
423376,33
423960,27
424532,24
425112,17
425684,11
426264,10
426832,10
427416,9
427936,12
428508,15
429088,25
429660,33
430240,33
430808,38
431392,35
431964,32
432544,32
433124,26
433700,16
434280,11
434852,20
435432,26
436000,35
436584,39
437152,39
437732,40
438312,37
438884,34
439464,33
440036,30
440616,27
441184,24
441768,17
442336,13
442916,11
443496,10
444068,10
444648,13
445220,20
445800,25
446372,32
446948,38
447528,39
448100,37
448680,35
449248,29
449832,23
450404,15
450984,10
451552,16
452128,23
452712,27
453284,35
453864,44
454436,45
455016,44
455588,40
456164,35
456744,31
457316,23
457896,23
458468,20
459048,14
459620,12
460200,10
460772,10
461348,10
461928,14
462500,24
463080,35
463652,42
464232,45
464800,42
465376,37
465960,27
466528,24
467112,17
467684,10
468264,16
468836,27
469416,37
469988,43
470564,46
471144,43
471716,36
472296,31
472868,30
473448,32
474020,29
474596,21
475176,19
475748,13
476328,12
476900,10
477480,10
478052,13
478632,18
479212,22
479788,34
480368,43
480940,48
481520,41
482088,35
482672,29
483240,25
483816,15
484400,10
484972,15
485552,29
486124,38
486704,43
487280,46
487864,41
488436,36
489012,35
489592,30
490164,29
490744,25
491316,22
491896,18
492472,12
493052,11
493632,11
494200,10
494784,10
495356,12
495936,20
496516,31
497096,39
497672,44
498244,43
498824,33
499396,26
499976,20
500548,12
501128,9
501648,13
502224,22
502800,31
503372,40
503952,45
504524,43
505104,39
505676,35
506256,31
506828,28
507404,24
507984,19
508556,15
509136,14
509716,11
510296,11
510876,10
511452,14
512036,21
512604,28
513184,37
513752,39
514336,37
514904,35
515488,27
516056,23
516632,21
517216,12
517784,13
518368,21
518940,29
519520,35
520092,38
520664,41
521248,40
521816,38
522400,39
522968,36
523552,30
524120,25
524704,21
525276,15
525848,12
526432,11
527000,11
527584,9
528104,10
528680,12
529248,19
529832,28
530404,40
530976,45
531560,41
532132,36
532712,31
533284,24
533864,12
534432,11
535008,19
535592,30
536164,39
536744,46
537316,48
537896,42
538464,38
539048,33
539620,29
540196,25
540776,24
541348,22
541928,19
542500,12
543080,9
543600,10
544176,10
544744,11
545320,16
545904,24
546476,34
547056,41
547628,42
548208,36
548780,31
549356,24
549936,23
550508,11
551088,11
551660,19
552240,28
552820,35
553400,43
553972,47
554548,43
555128,37
555700,33
556280,31
556852,26
557432,25
558004,22
558580,17
559160,11
559732,10
560312,10
560884,10
561464,10
562036,14
562616,20
563188,30
563764,40
564344,47
564916,47
565496,36
566068,26
566648,19
567220,10
567796,15
568376,23
568948,33
569528,40
570100,43
570680,44
571252,38
571832,28
572404,22
572980,25
573560,27
574132,24
574712,18
575284,14
575864,11
576436,10
577008,11
577592,11
578164,11
578744,18
579312,32
579896,39
580468,44
581048,43
581620,37
582196,32
582776,22
583348,17
583928,9
584448,11
585024,17
585596,30
586176,38
586760,42
587332,44
587912,43
588484,37
589064,35
589636,31
590216,25
590788,18
591364,18
591944,14
592516,11
593096,11
593668,10
594248,9
594768,10
595344,15
595916,24
596492,30
597072,39
597644,45
598224,43
598804,36
599384,30
599964,21
600540,11
601120,14
601692,25
602272,32
602844,32
603424,38
604004,45
604584,42
605156,38
605732,36
606312,30
606888,25
607464,22
608036,18
608616,13
609188,11
609764,10
610344,10
610916,11
611496,11
612072,14
612648,26
613228,37
613808,45
614388,43
614964,37
615544,36
616116,28
616696,19
617268,10
617848,13
618420,25
618996,35
619576,42
620148,47
620728,47
621300,42
621880,33
622452,28
623032,28
623604,25
624180,26
624760,24
625332,17
625912,13
626484,10
627064,9
627584,10
628160,11
628732,18
629308,29
629888,36
630460,39
631040,40
631620,37
632200,32
632780,28
633356,22
633936,10
634512,13
635088,21
635668,32
636248,41
636828,42
637404,42
637984,43
638560,37
639136,30
639712,25
640292,24
640864,24
641448,21
642016,15
642592,11
643176,11
643748,10
644328,10
644900,12
645480,20
646048,29
646628,36
647208,45
647776,46
648360,38
648928,33
649512,23
650084,18
650664,10
651236,15
651812,25
652392,33
652968,39
653544,44
654116,47
654696,46
655268,43
655844,34
656424,30
656992,27
657576,24
658148,20
658728,14
659296,12
659880,10
660448,11
661024,10
661608,12
662176,22
662760,30
663332,39
663912,43
664484,39
665056,38
665640,34
666208,28
666784,20
667352,11
667936,15
668508,28
669088,35
669656,40
670232,40
670816,39
671384,39
671968,40
672540,30
673120,23
673692,20
674264,19
674848,21
675420,15
676000,11
676568,10
677152,9
677672,11
678248,13
678820,19
679392,27
679976,38
680548,40
681128,42
681696,38
682280,33
682848,27
683432,19
684004,10
684576,15
685160,26
685732,32
686312,33
686884,40
687464,44
688036,41
688608,35
689192,32
689764,30
690344,26
690916,25
691496,17
692064,14
692648,12
693216,11
693796,11
694376,10
694948,11
695528,17
696100,26
696680,35
697248,40
697828,42
698408,39
698976,32
699560,27
700132,18
700712,10
701292,14
701872,23
702444,32
703020,39
703600,44
704176,45
704752,41
705324,35
705904,34
706476,30
707052,25
707632,24
708204,22
708784,15
709356,11
709936,10
710508,10
711088,10
711660,15
712236,23
712816,32
713388,38
713968,43
714548,45
715128,42
715708,28
716284,23
716864,14
717436,8
717964,14
718540,27
719120,39
719692,43
720272,47
720840,47
721416,45
722000,38
722568,32
723152,26
723724,23
724304,22
724876,18
725456,11
726032,10
726604,10
727184,10
727756,11
728336,13
728916,20
729496,29
730068,36
730644,42
731224,39
731796,35
732376,34
732956,24
733536,13
734108,10
734684,14
735264,24
735836,36
736420,43
736988,44
737568,41
738140,37
738720,33
739292,32
739868,30
740448,25
741020,19
741600,17
742172,12
742752,11
743332,11
743908,10
744488,10
745056,13
745640,20
746208,35
746792,43
747364,46
747944,42
748516,34
749092,27
749672,24
750244,17
750824,11
751396,18
751976,33
752556,42
753132,46
753712,48
754284,44
754864,35
755436,29
756016,25
756596,22
757176,22
757756,19
758336,17
758912,12
759484,11
760064,11
760644,11
761224,9
761744,13
762320,21
762896,37
763468,47
764048,44
764620,35
765200,28
765780,22
766360,16
766940,11
767516,11
768100,17
768668,29
769248,35
769820,41
770400,41
770972,38
771548,30
772128,27
772700,27
773280,26
773852,24
774432,23
775000,19
775584,14
776164,11
776740,10
777320,9
777840,10
778424,14
778992,21
779576,32
780148,40
780728,48
781308,44
781884,36
782464,29
783036,22
783616,14
784196,10
784776,16
785348,28
785924,39
786504,46
787076,47
787656,43
788228,34
788808,32
789384,30
789968,26
790552,25
791124,18
791704,16
792280,12
792856,12
793436,10
794020,10
794596,13
795172,19
795752,27
796328,34
796904,45
797484,45
798064,41
798644,34
799220,30
799800,21
800376,13
800952,10
801524,21
802104,34
802676,42
803256,43
803828,46
804404,43
804984,35
805556,32
806136,29
806716,27
807296,23
807868,21
808444,17
809024,14
809596,12
810176,11
810748,10
811328,15
811908,20
812488,30
813072,36
813644,41
814224,36
814796,39
815376,32
815956,23
816540,20
817116,12
817692,14
818272,20
818844,27
819424,35
820000,43
820576,43
821144,38
821720,34
822304,34
822876,31
823456,27
824024,24
824608,19
825176,15
825760,13
826328,11
826904,10
827488,10
828056,13
828640,19
829212,26
829792,34
830364,38
830940,39
831520,35
832092,31
832672,25
833240,18
833824,9
834340,10
834920,17
835488,32
836064,37
836648,37
837216,40
837800,42
838368,39
838952,39
839532,32
840112,27
840680,22
841256,20
841840,18
842408,17
842992,13
843564,11
844144,9
844664,12
845240,22
845808,33
846384,43
846968,46
847536,45
848120,35
848688,31
849272,24
849844,19
850420,10
851000,12
851572,21
852152,31
852724,36
853304,41
853876,42
854456,41
855028,35
855604,32
856184,35
856756,29
857336,24
857916,20
858496,16
859068,14
859644,10
860224,10
860792,11
861376,12
861948,18
862528,25
863100,35
863680,46
864264,47
864832,45
865416,34
865988,24
866568,20
867136,13
867720,10
868300,18
868876,32
869456,39
870028,46
870608,45
871184,41
871768,36
872340,34
872916,32
873496,30
874068,24
874648,20
875220,14
875800,12
876372,10
876952,9
877472,11
878044,15
878624,22
879196,29
879776,37
880352,43
880928,41
881496,36
882080,31
882648,27
883224,23
883808,15
884380,14
884960,29
885528,40
886112,45
886684,50
887260,50
887840,44
888412,37
888992,37
889564,33
890144,31
890724,27
891304,19
891876,15
892452,14
893032,11
893604,10
894184,13
894756,15
895336,22
895916,32
896492,39
897072,50
897644,48
898224,43
898796,35
899376,25
899956,16
900536,11
901116,17
901692,24
902272,32
902844,37
903424,42
903996,47
904576,42
905156,35
905732,32
906312,33
906884,28
907464,27
908036,21
908616,15
909188,12
909768,11
910344,10
910916,10
911496,12
912068,22
912648,34
913220,42
913800,41
914372,42
914948,38
915528,29
916100,24
916680,16
917252,10
917832,19
918404,30
918984,34
919560,36
920136,40
920712,40
921284,38
921864,34
922440,33
923024,33
923596,27
924172,22
924752,19
925324,14
925904,13
926476,13
927056,11
927628,10
928208,11
928792,18
929364,31
929944,38
930516,44
931096,40
931676,36
932256,31
932836,24
933412,13
933992,10
934564,19
935144,29
935716,35
936296,39
936876,40
937452,36
938032,33
938604,37
939184,39
939760,33
940336,27
940916,24
941496,19
942076,12
942656,10
943232,12
943804,11
944384,12
944964,15
945544,21
946116,33
946692,37
947272,43
947844,37
948424,34
948996,27
949576,23
950148,12
950728,13
951312,23
951884,27
952464,33
953036,40
953616,43
954196,42
954776,35
955356,31
955932,30
956516,30
957088,27
957664,26
958244,22
958824,15
959404,11
959980,10
960564,10
961136,11
961712,16
962284,24
962864,32
963436,39
964016,45
964584,48
965164,43
965744,33
966316,24
966896,11
967476,15
968056,25
968636,32
969212,42
969792,46
970364,44
970944,41
971516,36
972100,30
972676,26
973260,26
973840,22
974412,20
974992,19
975564,17
976144,12
976716,10
977296,10
977876,11
978452,20
979032,34
979604,40
980184,46
980756,47
981336,40
981916,31
982492,22
983072,18
983644,11
984224,12
984796,29
985376,35
985948,41
986528,40
987100,37
987676,36
988256,36
988828,34
989408,30
989980,24
990560,26
991140,26
991716,23
992296,16
992868,11
993448,10
994020,11
994600,13
995172,19
995752,29
996332,37
996908,45
997488,50
998060,46
998640,37
999220,28
999800,17
1000372,10
1000992,15
1001620,24
1002236,34
1002868,41
1003492,46
1004116,45
1004744,40
1005364,33
1005992,32
1006620,27
1007240,24
1007868,18
1008492,11
1009120,10
1009752,10
1010368,11
1010996,10
1011620,13
1012244,19
1012876,30
1013496,37
1014124,44
1014748,37
1015372,27
1016000,21
1016616,14
1017248,11
1017876,18
1018496,27
1019124,36
1019748,40
1020380,43
1021008,39
1021632,37
1022260,29
1022884,29
1023508,23
1024140,22
1024756,20
1025384,16
1026004,11
1026628,10
1027256,10
1027868,11
1028496,16
1029124,28
1029740,41
1030368,48
1030992,46
1031620,37
1032248,28
1032868,23
1033500,11
1034120,11
1034748,18
1035380,31
1036000,41
1036628,44
1037248,40
1037872,36
1038500,38
1039120,37
1039748,31
1040372,27
1040992,26
1041620,21
1042240,17
1042868,14
1043500,10
1044120,11
1044748,19
1045368,34
1045996,46
1046628,48
1047244,48
1047876,40
1048496,31
1049120,24
1049748,17
1050364,11
1050992,18
1051616,27
1052240,36
1052868,40
1053484,44
1054116,46
1054744,39
1055360,39
1055988,33
1056612,30
1057240,29
1057868,22
1058488,15
1059116,11
1059740,10
1060364,10
1060992,14
1061608,20
1062236,27
1062860,39
1063484,44
1064112,43
1064728,36
1065360,29
1065980,22
1066608,13
1067236,11
1067856,20
1068488,32
1069116,38
1069736,41
1070364,43
1070988,39
1071616,32
1072244,26
1072864,23
1073492,20
1074116,18
1074736,18
1075368,18
1075984,18
1076612,11
1077236,10
1077856,11
1078484,19
1079108,29
1079736,38
1080364,42
1080980,43
1081612,38
1082232,31
1082860,21
1083492,12
1084112,13
1084740,22
1085364,32
1085988,40
1086616,46
1087240,47
1087868,43
1088492,37
1089116,33
1089744,26
1090360,21
1090988,19
1091616,15
1092240,12
1092868,11
1093492,10
1094120,11
1094748,14
1095368,23
1095996,35
1096620,44
1097244,44
1097872,40
1098488,30
1099120,23
1099740,16
1100364,12
1100996,22
1101616,29
1102244,35
1102872,38
1103492,38
1104120,33
1104744,30
1105372,31
1106000,28
1106620,33
1107252,28
1107872,23
1108496,11
1109124,10
1109744,11
1110372,10
1111000,11
1111624,16
1112252,26
1112872,37
1113500,46
1114132,45
1114752,37
1115380,29
1116004,21
1116636,12
1117264,11
1117888,21
1118516,30
1119144,37
1119768,42
1120396,44
1121016,43
1121644,37
1122268,32
1122892,27
1123520,25
1124136,18
1124768,15
1125396,11
1126016,10
1126644,10
1127268,10
1127896,13
1128524,18
1129144,27
1129772,37
1130392,44
1131016,40
1131648,36
1132264,31
1132892,21
1133516,12
1134140,13
1134768,25
1135384,40
1136016,45
1136636,47
1137264,44
1137892,38
1138516,33
1139148,30
1139776,24
1140400,23
1141028,19
1141652,15
1142280,13
1142908,10
1143528,9
1144104,11
1144736,15
1145360,22
1145988,35
1146608,47
1147236,50
1147860,41
1148484,31
1149112,22
1149732,16
1150360,11
1150988,18
1151608,32
1152240,41
1152860,46
1153488,47
1154116,38
1154736,34
1155364,33
1155988,28
1156612,22
1157244,20
1157864,21
1158492,13
1159112,11
1159736,10
1160368,10
1160984,12
1161612,19
1162236,29
1162864,35
1163492,41
1164116,39
1164748,35
1165376,27
1165996,22
1166624,13
1167248,11
1167876,20
1168508,34
1169128,42
1169756,42
1170380,40
1171004,34
1171632,28
1172256,29
1172884,28
1173512,24
1174136,21
1174764,17
1175388,11
1176020,10
1176648,10
1177264,10
1177896,12
1178520,24
1179140,37
1179772,48
1180392,47
1181020,37
1181644,27
1182268,20
1182900,16
1183520,11
1184148,14
1184780,23
1185400,31
1186028,38
1186652,43
1187280,40
1187912,40
1188528,39
1189156,31
1189780,24
1190404,25
1191032,20
1191656,15
1192284,11
1192908,10
1193532,10
1194164,10
1194784,16
1195412,24
1196044,34
1196664,42
1197292,40
1197916,35
1198548,28
1199180,22
1199800,14
1200428,9
1201000,15
1201636,26
1202268,38
1202888,43
1203516,46
1204140,42
1204764,36
1205392,30
1206016,27
1206644,24
1207268,23
1207892,19
1208524,18
1209144,14
1209772,11
1210400,10
1211024,13
1211652,22
1212276,33
1212908,41
1213536,42
1214156,39
1214784,34
1215408,30
1216032,23
1216660,11
1217280,12
1217908,21
1218532,34
1219156,39
1219788,38
1220408,46
1221036,44
1221668,39
1222288,37
1222920,32
1223544,27
1224172,25
1224800,14
1225424,10
1226052,11
1226680,13
1227304,14
1227932,14
1228552,23
1229184,31
1229804,37
1230428,38
1231056,38
1231672,36
1232300,25
1232928,17
1233552,10
1234180,14
1234804,24
1235432,32
1236060,40
1236680,48
1237308,49
1237932,39
1238556,32
1239184,30
1239800,26
1240432,23
1241052,19
1241676,15
1242304,10
1242928,10
1243556,10
1244184,13
1244808,15
1245436,24
1246060,33
1246688,39
1247320,36
1247936,30
1248568,28
1249192,24
1249816,17
1250444,10
1251064,18
1251692,34
1252316,43
1252940,45
1253572,42
1254192,36
1254824,27
1255452,20
1256072,19
1256700,20
1257324,21
1257952,21
1258584,20
1259200,13
1259832,11
1260456,10
1261080,11
1261708,19
1262328,27
1262956,37
1263580,43
1264208,43
1264836,34
1265456,29
1266084,20
1266716,10
1267336,13
1267964,24
1268588,32
1269220,37
1269848,46
1270472,50
1271100,39
1271724,31
1272348,28
1272976,26
1273600,26
1274228,21
1274852,18
1275476,13
1276108,10
1276728,10
1277360,11
1277988,13
1278608,21
1279240,31
1279864,41
1280496,45
1281124,39
1281740,32
1282368,25
1282992,16
1283612,10
1284244,17
1284860,29
1285492,36
1286112,41
1286736,47
1287364,43
1287984,32
1288612,28
1289240,26
1289856,25
1290484,21
1291108,19
1291736,12
1292368,10
1292984,11
1293612,10
1294232,12
1294856,18
1295488,27
1296104,35
1296732,40
1297356,40
1297976,34
1298608,28
1299224,24
1299852,14
1300476,10
1301096,15
1301728,25
1302352,37
1302980,43
1303612,48
1304232,46
1304860,39
1305484,35
1306116,31
1306744,26
1307360,22
1307992,15
1308616,11
1309240,11
1309868,10
1310488,12
1311116,11
1311740,18
1312368,29
1312996,41
1313616,47
1314244,39
1314872,33
1315488,26
1316116,23
1316740,15
1317368,12
1317996,23
1318616,36
1319244,44
1319864,49
1320488,49
1321116,39
1321736,34
1322364,34
1322984,28
1323608,23
1324236,20
1324856,14
1325484,11
1326112,10
1326728,11
1327356,11
1327980,17
1328608,27
1329240,36
1329856,43
1330484,44
1331108,37
1331732,30
1332360,24
1332976,18
1333604,10
1334224,17
1334848,30
1335476,38
1336096,38
1336724,41
1337352,38
1337968,36
1338596,34
1339220,31
1339848,25
1340476,22
1341096,17
1341724,13
1342348,11
1342976,10
1343604,11
1344224,13
1344852,15
1345472,23
1346096,32
1346724,41
1347340,44
1347972,37
1348596,32
1349216,26
1349844,13
1350468,12
1351096,22
1351728,32
1352344,39
1352972,46
1353592,51
1354224,46
1354852,38
1355472,32
1356100,23
1356724,16
1357348,16
1357976,16
1358592,12
1359220,10
1359844,11
1360468,12
1361096,11
1361712,16
1362340,25
1362968,35
1363592,42
1364220,39
1364840,33
1365472,29
1366100,20
1366720,11
1367348,16
1367972,28
1368596,34
1369224,36
1369840,38
1370468,41
1371092,42
1371716,36
1372344,29
1372968,26
1373596,24
1374224,21
1374840,14
1375472,13
1376096,11
1376724,10
1377352,13
1377968,17
1378596,21
1379220,31
1379844,41
1380472,44
1381096,43
1381724,35
1382348,23
1382972,12
1383604,12
1384224,19
1384852,26
1385480,34
1386096,40
1386728,41
1387348,35
1387980,32
1388608,30
1389232,29
1389860,25
1390484,21
1391108,17
1391740,12
1392360,11
1392988,11
1393612,11
1394232,13
1394864,15
1395480,26
1396112,39
1396732,44
1397360,41
1397988,35
1398612,27
1399240,21
1399868,11
1400488,12
1401116,24
1401740,35
1402368,38
1403000,40
1403616,48
1404244,47
1404868,42
1405492,37
1406120,29
1406736,24
1407368,21
1407992,15
1408616,11
1409244,9
1409816,11
1410444,11
1411068,11
1411696,20
1412324,30
1412948,41
1413576,47
1414208,42
1414824,34
1415452,27
1416076,23
1416704,11
1417332,12
1417952,25
1418580,39
1419204,45
1419828,49
1420456,46
1421080,38
1421708,33
1422332,30
1422960,28
1423588,21
1424212,18
1424844,13
1425472,11
1426088,11
1426716,10
1427340,12
1427972,19
1428600,28
1429224,33
1429852,36
1430476,39
1431100,34
1431732,28
1432352,21
1432980,13
1433612,10
1434228,20
1434860,31
1435480,39
1436112,40
1436740,38
1437360,36
1437988,32
1438612,33
1439240,33
1439868,27
1440488,22
1441116,17
1441740,13
1442360,12
1442988,11
1443608,10
1444236,11
1444860,21
1445480,32
1446108,39
1446732,46
1447360,45
1447988,36
1448608,33
1449236,23
1449860,11
1450488,12
1451116,18
1451736,33
1452364,40
1452988,45
1453612,43
1454240,38
1454856,34
1455488,31
1456108,26
1456732,22
1457360,22
1457984,21
1458612,14
1459240,12
1459860,11
1460492,10
1461112,13
1461744,21
1462372,30
1462992,36
1463620,45
1464244,44
1464868,37
1465500,26
1466120,19
1466748,9
1467320,13
1467944,24
1468572,32
1469192,35
1469820,37
1470444,41
1471068,37
1471700,34
1472324,33
1472952,29
1473584,23
1474200,19
1474832,15
1475456,12
1476084,10
1476712,10
1477328,12
1477956,15
1478580,23
1479204,33
1479832,40
1480448,42
1481080,38
1481704,33
1482324,26
1482956,16
1483576,10
1484204,21
1484836,31
1485452,37
1486084,41
1486704,41
1487332,40
1487964,36
1488584,32
1489212,26
1489836,21
1490460,20
1491088,18
1491712,13
1492340,12
1492964,13
1493588,10
1494220,11
1494840,20
1495468,29
1496100,42
1496720,48
1497348,46
1497972,42
1498600,33
1499232,22
1499848,10
1500476,14
1501100,24
1501724,33
1502356,42
1502976,49
1503604,46
1504228,39
1504852,35
1505484,30
1506104,29
1506732,22
1507364,16
1507984,12
1508612,11
1509236,12
1509868,12
1510496,10
1511120,15
1511748,28
1512372,37
1512996,41
1513628,43
1514248,40
1514876,31
1515504,25
1516128,17
1516756,11
1517380,19
1518012,31
1518644,42
1519264,46
1519896,48
1520520,44
1521148,29
1521780,22
1522400,21
1523028,23
1523652,23
1524276,18
1524908,12
1525528,14
1526156,15
1526780,10
1527408,11
1528036,15
1528660,27
1529292,38
1529920,46
1530544,47
1531176,43
1531800,32
1532424,24
1533056,13
1533672,11
1534304,20
1534928,35
1535552,41
1536184,43
1536800,47
1537428,42
1538056,35
1538672,33
1539300,30
1539924,25
1540552,20
1541180,14
1541800,13
1542428,11
1543052,9
1543628,12
1544260,16
1544880,21
1545508,34
1546132,37
1546760,40
1547388,34
1548008,29
1548636,23
1549260,19
1549884,10
1550512,12
1551136,23
1551768,34
1552396,38
1553016,40
1553644,38
1554268,35
1554900,34
1555528,34
1556152,32
1556784,31
1557404,24
1558028,16
1558660,12
1559280,11
1559908,10
1560532,12
1561156,18
1561788,26
1562408,38
1563036,44
1563664,42
1564288,37
1564916,32
1565540,25
1566172,16
1566800,10
1567416,16
1568044,28
1568668,38
1569292,42
1569920,43
1570536,38
1571164,34
1571792,35
1572416,29
1573044,24
1573664,22
1574292,19
1574924,17
1575544,12
1576172,10
1576796,10
1577428,12
1578060,16
1578680,27
1579308,39
1579932,48
1580556,45
1581188,40
1581808,27
1582436,22
1583060,12
1583684,13
1584316,20
1584936,32
1585564,39
1586196,44
1586816,44
1587448,41
1588068,37
1588700,31
1589328,28
1589952,28
1590580,21
1591204,16
1591828,11
1592460,11
1593080,12
1593708,11
1594332,13
1594956,21
1595588,32
1596208,46
1596836,52
1597468,42
1598088,34
1598716,26
1599340,23
1599972,11
1600604,16
1601220,29
1601852,35
1602472,44
1603096,46
1603724,39
1604344,30
1604972,30
1605596,29
1606216,29
1606848,23
1607464,22
1608092,15
1608720,12
1609336,9
1609916,9
1610492,10
1611124,15
1611748,23
1612372,37
1613004,44
1613624,41
1614252,36
1614880,33
1615496,26
1616128,20
1616752,11
1617380,19
1618008,29
1618632,40
1619260,47
1619880,47
1620504,43
1621132,32
1621752,32
1622380,29
1623004,27
1623628,22
1624260,18
1624880,13
1625508,13
1626140,10
1626760,10
1627388,13
1628012,22
1628644,35
1629272,41
1629892,43
1630520,41
1631144,33
1631768,31
1632400,25
1633016,13
1633644,13
1634268,25
1634892,32
1635524,34
1636144,43
1636772,46
1637404,40
1638024,35
1638656,35
1639276,30
1639904,26
1640532,20
1641148,17
1641776,11
1642400,10
1643020,10
1643648,10
1644268,15
1644896,26
1645520,36
1646140,48
1646768,50
1647384,42
1648012,33
1648636,25
1649256,17
1649884,10
1650508,15
1651136,28
1651764,42
1652380,43
1653012,43
1653632,42
1654264,36
1654892,34
1655512,32
1656140,30
1656764,26
1657384,18
1658016,10
1658632,11
1659260,11
1659884,11
1660504,12
1661132,19
1661752,32
1662380,38
1663008,42
1663632,40
1664260,33
1664884,28
1665508,24
1666140,14
1666756,11
1667388,21
1668008,34
1668628,41
1669256,43
1669876,49
1670508,42
1671128,32
1671752,26
1672380,24
1672996,23
1673628,20
1674256,18
1674872,13
1675500,11
1676124,10
1676752,10
1677380,13
1678000,17
1678628,26
1679252,37
1679880,45
1680508,46
1681124,39
1681752,28
1682376,21
1683000,11
1683628,16
1684244,27
1684876,35
1685496,37
1686120,40
1686748,38
1687368,33
1688000,33
1688628,28
1689248,25
1689876,22
1690500,18
1691128,15
1691756,10
1692376,12
1693004,11
1693628,11
1694248,10
1694876,16
1695496,28
1696124,40
1696744,43
1697368,41
1697996,36
1698616,25
1699244,17
1699872,10
1700488,14
1701116,23
1701740,38
1702368,47
1702996,50
1703616,45
1704244,32
1704868,31
1705488,27
1706120,27
1706736,25
1707364,21
1707988,15
1708612,11
1709240,10
1709864,11
1710492,14
1711120,22
1711744,29
1712372,38
1712996,45
1713624,39
1714256,31
1714872,28
1715500,21
1716124,12
1716748,10
1717376,15
1718000,25
1718628,35
1719252,39
1719876,44
1720508,44
1721124,41
1721756,35
1722384,30
1723000,25
1723628,21
1724252,18
1724880,13
1725508,10
1726128,10
1726756,10
1727380,12
1728004,24
1728632,35
1729256,48
1729884,50
1730508,40
1731132,29
1731760,20
1732376,18
1733008,11
1733632,12
1734256,24
1734884,35
1735508,42
1736140,47
1736768,45
1737384,38
1738012,34
1738636,31
1739268,27
1739896,23
1740516,21
1741144,14
1741768,11
1742388,11
1743020,10
1743640,11
1744268,12
1744892,21
1745520,33
1746148,43
1746772,46
1747400,40
1748028,32
1748648,25
1749276,16
1749900,10
1750528,19
1751156,31
1751776,42
1752404,42
1753028,42
1753652,39
1754280,34
1754896,30
1755528,26
1756152,27
1756776,21
1757404,17
1758028,11
1758660,10
1759288,10
1759912,11
1760544,11
1761164,14
1761796,29
1762424,38
1763040,45
1763668,42
1764292,34
1764916,27
1765544,21
1766160,14
1766792,10
1767412,17
1768036,32
1768664,43
1769288,45
1769916,44
1770544,38
1771160,33
1771792,32
1772416,27
1773044,26
1773672,23
1774296,17
1774924,12
1775548,10
1776172,10
1776800,10
1777424,12
1778052,21
1778676,31
1779300,41
1779928,43
1780552,41
1781180,36
1781812,26
1782432,19
1783060,10
1783684,14
1784312,23
1784940,35
1785560,42
1786192,42
1786816,38
1787440,33
1788068,32
1788688,27
1789316,27
1789944,21
1790568,18
1791196,13
1791824,11
1792456,10
1793084,10
1793704,11
1794332,14
1794956,23
1795584,33
1796212,42
1796832,44
1797460,37
1798084,31
1798708,24
1799336,15
1799956,11
1800584,20
1801208,33
1801832,45
1802460,49
1803080,52
1803712,44
1804340,37
1804960,29
1805588,27
1806208,25
1806840,21
1807468,16
1808088,10
1808716,10
1809336,11
1809960,13
1810588,14
1811208,19
1811836,32
1812460,39
1813084,50
1813712,50
1814328,36
1814960,32
1815588,20
1816208,12
1816836,26
1817460,29
1818092,36
1818720,42
1819336,43
1819964,43
1820588,38
1821212,34
1821844,33
1822464,30
1823092,28
1823716,24
1824340,17
1824968,12
1825592,10
1826220,10
1826848,10
1827472,13
1828100,19
1828724,31
1829356,42
1829984,46
1830600,42
1831232,38
1831856,28
1832480,21
1833108,10
1833728,18
1834356,28
1834980,38
1835604,43
1836232,46
1836856,43
1837484,34
1838116,27
1838736,27
1839364,31
1839988,28
1840620,23
1841252,14
1841872,12
1842500,10
1843124,10
1843752,10
1844380,14
1845000,27
1845628,36
1846248,42
1846872,46
1847500,40
1848120,33
1848748,22
1849376,13
1850000,10
1850628,21
1851252,32
1851880,38
1852508,41
1853128,39
1853756,35
1854380,33
1855004,30
1855636,22
1856256,21
1856884,20
1857508,17
1858132,16
1858760,13
1859376,10
1860004,10
1860632,10
1861256,17
1861884,21
1862508,29
1863136,39
1863768,46
1864384,42
1865012,35
1865636,22
1866260,13
1866888,12
1867504,21
1868136,31
1868760,37
1869384,44
1870012,44
1870632,38
1871260,35
1871892,32
1872512,31
1873140,27
1873764,21
1874396,13
1875024,10
1875648,12
1876276,13
1876900,11
1877524,11
1878156,16
1878776,28
1879404,37
1880028,41
1880652,38
1881284,32
1881904,24
1882532,17
1883164,10
1883784,21
1884412,33
1885036,34
1885668,36
1886296,39
1886920,40
1887548,37
1888172,32
1888796,25
1889424,26
1890048,24
1890676,19
1891300,15
1891924,11
1892552,10
1893176,11
1893804,13
1894436,18
1895056,32
1895684,42
1896308,48
1896936,48
1897564,38
1898184,32
1898812,24
1899436,12
1900060,11
1900692,16
1901312,32
1901944,43
1902568,48
1903192,46
1903820,39
1904440,36
1905068,33
1905700,28
1906320,24
1906948,17
1907576,15
1908204,13
1908832,11
1909456,9
1910032,15
1910664,17
1911292,22
1911924,30
1912544,38
1913176,43
1913800,37
1914424,33
1915056,26
1915672,26
1916304,13
1916932,12
1917552,27
1918184,38
1918808,42
1919440,43
1920068,40
1920684,35
1921316,33
1921936,30
1922564,28
1923192,26
1923816,21
1924444,13
1925068,11
1925692,10
1926320,10
1926944,11
1927572,15
1928204,24
1928824,33
1929452,40
1930076,42
1930704,34
1931332,32
1931952,26
1932580,17
1933204,10
1933828,20
1934460,28
1935080,35
1935708,39
1936332,43
1936956,42
1937588,40
1938208,35
1938836,28
1939468,22
1940088,22
1940716,21
1941340,16
1941972,12
1942600,10
1943224,11
1943852,11
1944476,17
1945100,31
1945732,39
1946352,47
1946980,47
1947604,41
1948228,34
1948856,23
1949472,13
1950100,15
1950732,26
1951352,39
1951980,45
1952608,45
1953236,45
1953868,37
1954488,33
1955116,27
1955740,25
1956368,24
1956996,22
1957616,17
1958244,13
1958868,10
1959492,10
1960124,10
1960744,14
1961372,24
1962004,39
1962624,47
1963252,45
1963876,37
1964508,33
1965140,28
1965760,18
1966388,10
1967012,16
1967636,29
1968268,40
1968888,45
1969516,47
1970140,45
1970760,34
1971392,28
1972008,27
1972636,27
1973264,28
1973888,22
1974516,15
1975140,12
1975768,10
1976400,10
1977016,13
1977644,19
1978268,28
1978892,39
1979520,50
1980136,54
1980768,50
1981392,33
1982016,21
1982644,11
1983264,13
1983892,22
1984524,33
1985144,40
1985772,45
1986396,49
1987024,37
1987656,34
1988272,34
1988904,33
1989524,25
1990148,22
1990780,16
1991400,12
1992028,10
1992652,10
1993276,11
1993904,11
1994528,21
1995156,32
1995788,40
1996408,43
1997036,40
1997660,34
1998292,27
1998920,19
1999536,10
2000168,13
2000788,25
2001412,37
2002044,44
2002664,47
2003292,40
2003916,36
2004540,35
2005168,31
2005784,28
2006412,25
2007036,21
2007664,17
2008292,17
2008916,15
2009544,10
2010176,13
2010792,19
2011424,28
2012048,40
2012676,46
2013308,42
2013928,38
2014556,35
2015180,27
2015808,19
2016436,12
2017056,14
2017684,31
2018312,45
2018936,43
2019564,44
2020188,39
2020820,33
2021448,33
2022064,31
2022696,24
2023320,18
2023944,19
2024572,14
2025192,12
2025820,10
2026444,9
2027016,11
2027652,17
2028272,25
2028900,36
2029524,42
2030148,43
2030780,35
2031400,27
2032028,21
2032660,12
2033280,11
2033908,17
2034532,27
2035164,36
2035796,41
2036416,43
2037044,36
2037672,30
2038296,29
2038924,28
2039544,25
2040176,25
2040800,24
2041420,18
2042052,11
2042672,11
2043304,9
2043876,11
2044504,17
2045132,29
2045752,43
2046384,47
2047012,44
2047632,37
2048264,30
2048888,22
2049512,10
2050144,14
2050760,23
2051388,34
2052008,46
2052628,50
2053256,47
2053876,41
2054508,36
2055128,31
2055752,25
2056380,19
2056996,19
2057628,16
2058256,12
2058872,11
2059500,10
2060124,12
2060752,16
2061380,22
2062000,35
2062628,43
2063248,45
2063876,37
2064508,28
2065128,25
2065756,19
2066380,10
2067000,15
2067632,29
2068248,42
2068876,47
2069500,50
2070120,48
2070752,40
2071372,33
2072004,29
2072632,25
2073248,20
2073876,17
2074500,13
2075128,11
2075756,10
2076376,11
2077004,12
2077628,18
2078252,33
2078880,46
2079496,51
2080124,47
2080748,38
2081368,24
2081996,19
2082616,13
2083244,11
2083872,20
2084488,29
2085116,37
2085740,37
2086368,38
2086996,36
2087616,37
2088244,33
2088868,33
2089488,29
2090120,25
2090736,17
2091364,11
2091988,10
2092612,10
2093240,10
2093856,13
2094484,21
2095112,32
2095736,40
2096364,39
2096988,37
2097616,33
2098244,26
2098864,21
2099492,12
2100116,12
2100740,23
2101368,34
2101992,37
2102620,41
2103244,38
2103864,36
2104496,35
2105112,37
2105740,34
2106364,33
2106992,30
2107620,17
2108244,10
2108872,10
2109500,11
2110120,15
2110748,15
2111372,21
2112000,30
2112628,40
2113248,45
2113876,39
2114500,31
2115124,23
2115752,15
2116376,11
2117004,15
2117628,23
2118256,38
2118884,44
2119508,47
2120140,42
2120768,38
2121384,38
2122012,33
2122636,30
2123268,23
2123896,17
2124512,11
2125144,11
2125768,10
2126388,10
2127020,12
2127640,18
2128268,34
2128892,44
2129520,49
2130148,44
2130772,37
2131400,29
2132028,19
2132648,13
2133276,11
2133900,18
2134528,32
2135156,43
2135776,47
2136404,41
2137028,39
2137652,36
2138280,31
2138896,26
2139524,23
2140148,19
2140772,16
2141400,11
2142024,10
2142656,11
2143284,14
2143904,16
2144532,21
2145156,29
2145788,35
2146416,38
2147032,37
2147664,34
2148288,30
2148912,23
2149540,10
2150160,18
2150792,26
2151412,35
2152036,40
2152664,48
2153288,45
2153916,38
2154548,32
2155168,24
2155796,23
2156420,20
2157052,17
2157680,14
2158296,12
2158928,11
2159552,11
2160176,12
2160804,14
2161420,24
2162052,34
2162676,45
2163300,46
2163928,40
2164552,31
2165180,24
2165808,15
2166432,10
2167060,18
2167684,24
2168312,35
2168944,47
2169560,51
2170192,45
2170816,38
2171440,33
2172068,28
2172688,26
2173316,27
2173940,21
2174564,17
2175196,12
2175820,9
2176400,10
2177020,12
2177648,17
2178276,26
2178896,35
2179528,41
2180156,39
2180776,31
2181404,27
2182028,22
2182656,11
2183288,12
2183904,22
2184532,29
2185156,35
2185780,41
2186408,38
2187032,34
2187660,34
2188284,30
2188912,29
2189540,26
2190164,20
2190796,16
2191424,13
2192044,10
2192672,12
2193296,13
2193924,17
2194552,27
2195172,36
2195804,41
2196428,40
2197052,33
2197680,28
2198304,24
2198936,19
2199564,11
2200184,15
2200812,28
2201436,37
2202068,39
2202700,42
2203320,41
2203948,37
2204572,32
2205196,30
2205828,30
2206448,25
2207076,18
2207700,15
2208324,13
2208956,10
2209576,11
2210204,13
2210836,16
2211456,26
2212084,37
2212708,50
2213340,45
2213968,35
2214588,26
2215216,19
2215840,12
2216460,11
2217092,22
2217712,33
2218340,36
2218964,42
2219588,46
2220216,34
2220840,27
2221468,27
2222100,26
2222720,30
2223348,28
2223972,19
2224604,13
2225236,10
2225856,11
2226484,11
2227108,18
2227736,27
2228364,36
2228984,45
2229612,46
2230236,41
2230864,33
2231492,24
2232112,18
2232744,10
2233372,16
2233992,25
2234620,35
2235248,39
2235876,42
2236508,44
2237128,41
2237756,40
2238384,37
2239008,32
2239640,27
2240256,22
2240888,14
2241508,11
2242132,10
2242764,10
2243384,17
2244012,20
2244640,22
2245264,35
2245892,44
2246516,46
2247148,37
2247776,27
2248396,22
2249024,16
2249648,10
2250272,17
2250900,29
2251520,41
2252148,46
2252776,47
2253400,46
2254028,39
2254648,34
2255276,29
2255904,24
2256528,22
2257156,19
2257780,14
2258408,10
2259036,10
2259656,11
2260284,12
2260908,17
2261532,25
2262160,35
2262784,45
2263412,46
2264036,39
2264660,32
2265292,23
2265912,12
2266540,15
2267172,27
2267792,34
2268424,40
2269044,43
2269676,39
2270304,40
2270928,40
2271556,37
2272184,31
2272804,25
2273436,20
2274056,17
2274684,12
2275308,10
2275932,11
2276564,11
2277184,14
2277816,23
2278444,32
2279064,46
2279692,51
2280316,41
2280944,29
2281576,25
2282196,18
2282824,11
2283448,18
2284072,31
2284700,32
2285320,41
2285948,43
2286576,39
2287200,39
2287828,37
2288452,34
2289084,28
2289712,20
2290332,19
2290960,13
2291588,10
2292216,10
2292844,10
2293464,12
2294096,15
2294716,24
2295340,33
2295972,40
2296592,47
2297220,39
2297844,33
2298468,25
2299096,14
2299720,12
2300352,20
2300980,31
2301600,39
2302228,44
2302852,46
2303484,42
2304116,36
2304732,28
2305364,21
2305984,20
2306608,19
2307236,16
2307856,15
2308484,10
2309108,11
2309732,10
2310360,12
2310984,21
2311612,33
2312244,42
2312864,43
2313492,40
2314116,35
2314748,29
2315376,23
2316000,12
2316628,15
2317252,27
2317876,35
2318508,42
2319128,51
2319756,47
2320380,38
2321008,37
2321636,32
2322260,24
2322888,20
2323520,17
2324136,12
2324764,11
2325388,10
2326020,10
2326648,12
2327272,15
2327900,23
2328524,36
2329148,44
2329780,45
2330400,40
2331028,27
2331656,22
2332280,15
2332908,12
2333532,22
2334164,31
2334796,38
2335416,40
2336044,42
2336668,43
2337292,37
2337920,33
2338536,28
2339164,25
2339788,22
2340416,19
2341044,14
2341664,12
2342292,10
2342924,10
2343544,12
2344172,15
2344796,25
2345428,35
2346060,42
2346680,39
2347312,34
2347936,26
2348560,22
2349188,11
2349808,12
2350436,21
2351064,33
2351688,41
2352316,40
2352936,40
2353568,32
2354196,30
2354816,31
2355448,30
2356068,28
2356700,24
2357328,16
2357952,13
2358580,11
2359204,9
2359776,10
2360416,13
2361032,24
2361660,31
2362284,37
2362908,47
2363540,44
2364160,35
2364788,31
2365416,21
2366040,11
2366668,13
2367288,26
2367916,37
2368552,43
2369168,43
2369796,40
2370420,35
2371052,33
2371680,32
2372304,27
2372936,26
2373560,21
2374184,16
2374816,12
2375432,11
2376064,10
2376684,13
2377308,21
2377940,30
2378564,37
2379192,45
2379824,46
2380444,41
2381072,29
2381696,21
2382328,12
2382956,12
2383576,19
2384204,32
2384828,41
2385452,47
2386084,46
2386704,43
2387332,35
2387956,32
2388580,30
2389212,27
2389836,24
2390468,18
2391096,13
2391716,10
2392348,11
2392972,15
2393600,19
2394228,23
2394848,31
2395480,43
2396104,46
2396728,44
2397360,36
2397976,26
2398608,19
2399236,10
2399856,11
2400488,21
2401112,37
2401740,40
2402372,36
2402992,36
2403620,40
2404244,39
2404868,34
2405500,30
2406120,25
2406752,21
2407372,19
2407996,17
2408628,12
2409248,11
2409876,13
2410508,16
2411128,22
2411756,32
2412384,43
2413012,39
2413644,34
2414264,29
2414892,24
2415516,15
2416144,10
2416772,12
2417392,21
2418020,34
2418644,41
2419268,43
2419896,37
2420520,34
2421148,28
2421780,29
2422400,29
2423028,25
2423652,21
2424284,14
2424916,10
2425536,11
2426168,11
2426792,12
2427416,19
2428044,30
2428664,41
2429292,46
2429920,45
2430544,38
2431172,28
2431792,21
2432424,12
2433056,11
2433672,19
2434300,33
2434924,44
2435556,46
2436184,45
2436808,37
2437436,32
2438060,33
2438688,28
2439316,22
2439936,19
2440564,12
2441188,11
2441812,11
2442444,10
2443064,13
2443692,18
2444324,28
2444944,38
2445572,35
2446200,31
2446828,28
2447460,26
2448080,23
2448708,17
2449332,10
2449956,16
2450588,28
2451208,39
2451836,42
2452464,43
2453088,42
2453720,37
2454344,33
2454976,29
2455604,23
2456224,19
2456856,19
2457480,19
2458112,12
2458740,10
2459360,11
2459988,12
2460612,19
2461236,27
2461864,37
2462480,44
2463108,44
2463732,39
2464356,33
2464988,22
2465608,13
2466236,12
2466868,18
2467488,27
2468116,37
2468740,42
2469368,46
2470000,44
2470616,39
2471244,30
2471868,23
2472492,26
2473120,27
2473744,18
2474372,11
2474996,12
2475620,10
2476252,12
2476876,14
2477504,20
2478132,28
2478752,35
2479380,48
2480004,53
2480632,40
2481264,28
2481880,20
2482512,10
2483136,16
2483760,29
2484388,38
2485008,45
2485636,45
2486260,42
2486884,38
2487512,32
2488140,26
2488768,21
2489396,18
2490016,18
2490644,16
2491268,14
2491900,13
2492528,12
2493152,11
2493780,14
2494408,24
2495028,34
2495660,42
2496280,49
2496908,44
2497532,36
2498160,24
2498788,14
2499412,11
2500044,16
2500672,25
2501288,35
2501920,39
2502544,45
2503172,49
2503804,40
2504424,32
2505052,16
2505676,17
2506300,25
2506932,26
2507552,20
2508180,12
2508812,10
2509432,10
2510060,11
2510684,18
2511316,29
2511948,42
2512568,43
2513196,39
2513824,31
2514448,26
2515076,22
2515696,15
2516324,10
2516948,21
2517572,35
2518204,42
2518824,45
2519456,45
2520084,36
2520704,33
2521332,31
2521960,28
2522588,23
2523220,20
2523840,14
2524468,12
2525096,10
2525720,11
2526348,11
2526968,14
2527600,21
2528224,30
2528848,43
2529476,48
2530096,40
2530724,33
2531356,24
2531976,17
2532608,11
2533232,18
2533864,26
2534492,37
2535112,43
2535744,48
2536368,47
2536992,42
2537620,33
2538240,28
2538868,25
2539496,19
2540120,20
2540748,16
2541368,11
2542000,10
2542628,11
2543248,15
2543880,18
2544504,28
2545132,39
2545764,42
2546384,40
2547016,34
2547640,31
2548264,27
2548892,15
2549512,11
2550144,20
2550768,35
2551392,46
2552024,46
2552648,41
2553276,30
2553908,26
2554528,28
2555160,25
2555784,23
2556416,19
2557048,18
2557664,19
2558296,17
2558924,17
2559548,11
2560180,11
2560796,22
2561424,33
2562052,39
2562668,45
2563296,41
2563920,36
2564548,30
2565176,23
2565792,12
2566420,13
2567040,24
2567672,35
2568300,44
2568920,49
2569548,44
2570172,35
2570796,33
2571424,31
2572040,31
2572668,24
2573292,23
2573916,15
2574544,12
2575160,9
2575740,10
2576368,9
2576936,12
2577572,20
2578192,31
2578820,40
2579444,41
2580068,40
2580696,33
2581320,26
2581948,20
2582576,11
2583192,13
2583824,25
2584448,33
2585076,38
2585704,46
2586324,43
2586956,38
2587576,33
2588200,30
2588832,28
2589448,24
2590076,19
2590700,14
2591324,12
2591956,10
2592580,10
2593208,11
2593836,19
2594456,31
2595084,37
2595708,43
2596340,43
2596968,41
2597584,29
2598216,24
2598840,13
2599464,16
2600092,23
2600712,31
2601340,45
2601964,48
2602588,46
2603216,41
2603840,37
2604468,29
2605100,28
2605720,23
2606348,24
2606972,18
2607604,13
2608232,10
2608856,11
2609484,12
2610108,13
2610732,21
2611364,30
2611984,40
2612612,48
2613236,47
2613860,34
2614488,25
2615112,21
2615740,11
2616372,14
2616992,25
2617620,39
2618244,44
2618872,49
2619504,45
2620124,45
2620752,38
2621380,29
2622004,27
2622632,22
2623248,15
2623880,14
2624504,16
2625124,13
2625752,10
2626372,12
2627004,21
2627632,26
2628248,36
2628876,45
2629500,50
2630128,42
2630756,36
2631376,27
2632004,18
2632628,10
2633248,14
2633880,26
2634496,35
2635124,41
2635748,45
2636372,46
2637000,40
2637620,34
2638252,33
2638880,28
2639496,24
2640124,19
2640748,13
2641376,11
2642004,10
2642620,10
2643252,13
2643872,19
2644492,27
2645120,34
2645744,39
2646372,37
2646996,34
2647620,30
2648248,23
2648872,14
2649500,11
2650128,22
2650752,35
2651380,37
2652004,40
2652632,47
2653260,43
2653880,37
2654508,29
2655132,25
2655756,23
2656384,19
2657008,15
2657636,10
2658260,10
2658880,11
2659512,11
2660128,12
2660760,19
2661388,32
2662008,39
2662636,41
2663260,37
2663888,32
2664516,28
2665132,26
2665764,13
2666384,13
2667012,25
2667640,37
2668264,47
2668892,46
2669512,46
2670136,41
2670764,36
2671384,30
2672012,29
2672636,24
2673260,23
2673888,13
2674512,11
2675140,9
2675720,11
2676344,15
2676972,15
2677596,20
2678224,35
2678856,46
2679472,48
2680100,40
2680724,30
2681348,22
2681980,12
2682600,12
2683228,21
2683852,30
2684476,37
2685104,41
2685720,45
2686352,45
2686980,35
2687600,29
2688228,27
2688852,27
2689480,25
2690108,18
2690728,12
2691356,10
2691976,10
2692608,11
2693236,14
2693856,22
2694484,29
2695104,33
2695728,40
2696356,40
2696976,34
2697604,31
2698228,22
2698852,12
2699480,11
2700104,23
2700732,38
2701364,46
2701984,51
2702612,47
2703236,38
2703868,36
2704496,33
2705112,29
2705740,24
2706364,18
2706988,14
2707616,12
2708240,11
2708868,10
2709492,12
2710116,15
2710744,25
2711368,32
2711996,40
2712628,43
2713248,42
2713876,37
2714500,30
2715128,20
2715760,10
2716376,21
2717004,33
2717628,43
2718252,41
2718880,38
2719504,33
2720132,35
2720756,41
2721380,40
2722008,32
2722632,25
2723260,21
2723888,14
2724504,13
2725132,10
2725756,10
2726384,11
2727012,13
2727632,23
2728260,35
2728884,46
2729508,43
2730136,37
2730756,31
2731384,22
2732008,14
2732632,10
2733260,13
2733880,20
2734508,29
2735140,36
2735760,41
2736388,37
2737012,31
2737644,28
2738272,27
2738888,26
2739520,22
2740144,17
2740768,14
2741396,11
2742016,11
2742644,10
2743268,10
2743892,14
2744524,30
2745144,43
2745772,44
2746400,41
2747016,33
2747648,27
2748272,17
2748900,10
2749532,14
2750152,25
2750780,31
2751404,38
2752032,44
2752660,41
2753280,36
2753908,30
2754532,30
2755156,30
2755788,24
2756408,18
2757036,14
2757668,14
2758288,12
2758916,10
2759540,11
2760172,13
2760800,21
2761424,37
2762052,45
2762676,45
2763304,42
2763932,39
2764552,29
2765184,22
2765804,11
2766428,13
2767056,30
2767680,49
2768308,52
2768940,45
2769560,40
2770188,39
2770812,39
2771444,35
2772072,28
2772688,22
2773320,19
2773944,12
2774568,11
2775196,11
2775816,13
2776444,13
2777068,19
2777692,26
2778324,38
2778948,48
2779576,45
2780208,33
2780824,23
2781456,20
2782080,12
2782708,13
2783340,22
2783960,32
2784592,40
2785216,44
2785840,43
2786468,40
2787088,36
2787716,33
2788340,29
2788964,25
2789592,20
2790220,15
2790848,10
2791476,10
2792096,11
2792724,9
2793296,12
2793924,20
2794556,35
2795176,43
2795808,40
2796432,40
2797060,31
2797692,20
2798312,17
2798944,10
2799568,16
2800192,25
2800820,32
2801440,37
2802068,39
2802696,37
2803320,33
2803948,29
2804572,30
2805204,30
2805832,28
2806448,26
2807076,18
2807700,11
2808324,10
2808956,10
2809576,13
2810208,16
2810832,21
2811456,35
2812084,43
2812704,45
2813336,31
2813964,25
2814584,24
2815216,22
2815840,12
2816472,18
2817100,31
2817720,39
2818348,47
2818972,47
2819592,39
2820224,33
2820840,32
2821472,29
2822092,25
2822716,22
2823348,16
2823968,12
2824596,11
2825228,10
2825848,11
2826476,11
2827100,20
2827728,31
2828360,40
2828976,45
2829604,43
2830228,38
2830852,30
2831484,22
2832104,11
2832732,13
2833356,24
2833980,35
2834608,43
2835232,46
2835860,46
2836492,40
2837112,32
2837740,24
2838364,21
2838996,19
2839628,18
2840248,17
2840876,15
2841500,13
2842128,11
2842756,10
2843376,13
2844004,25
2844628,35
2845252,38
2845884,38
2846504,35
2847132,29
2847764,26
2848384,24
2849012,13
2849636,15
2850264,28
2850896,36
2851512,43
2852144,41
2852768,38
2853392,31
2854024,29
2854640,25
2855268,22
2855892,20
2856520,16
2857148,13
2857768,14
2858396,11
2859028,10
2859648,11
2860276,14
2860904,24
2861532,33
2862164,41
2862784,41
2863416,33
2864040,26
2864664,21
2865292,16
2865912,12
2866544,13
2867168,27
2867792,38
2868424,49
2869040,52
2869668,47
2870296,39
2870920,32
2871548,28
2872172,28
2872800,22
2873432,18
2874048,15
2874676,10
2875300,10
2875924,11
2876556,14
2877176,22
2877804,32
2878428,38
2879052,41
2879684,37
2880304,36
2880932,28
2881560,21
2882176,11
2882808,15
2883428,20
2884060,28
2884688,37
2885304,47
2885932,48
2886556,41
2887180,37
2887808,33
2888424,28
2889052,25
2889676,21
2890300,15
2890928,11
2891544,10
2892176,13
2892800,14
2893420,15
2894052,18
2894676,29
2895304,39
2895932,41
2896552,37
2897180,33
2897804,29
2898436,16
2899064,10
2899680,15
2900312,27
2900936,33
2901560,40
2902188,42
2902808,40
2903436,36
2904060,33
2904688,31
2905316,28
2905940,25
2906572,19
2907200,15
2907816,10
2908448,12
2909072,11
2909700,13
2910332,18
2910952,29
2911580,39
2912208,43
2912828,40
2913460,34
2914080,27
2914708,21
2915340,12
2915960,11
2916588,19
2917212,29
2917844,39
2918476,46
2919096,45
2919724,38
2920348,30
2920972,29
2921600,27
2922216,24
2922844,21
2923468,20
2924096,18
2924724,12
2925344,11
2925972,11
2926604,12
2927224,19
2927852,32
2928480,41
2929108,46
2929740,43
2930360,39
2930992,32
2931616,23
2932236,12
2932868,11
2933488,23
2934116,38
2934744,47
2935368,51
2935996,46
2936616,44
2937248,43
2937876,34
2938496,29
2939128,25
2939752,24
2940380,18
2941012,15
2941632,12
2942260,10
2942888,13
2943512,17
2944144,26
2944760,32
2945388,42
2946012,45
2946636,39
2947268,32
2947888,27
2948516,16
2949148,9
2949716,19
2950348,28
2950968,32
2951596,38
2952228,42
2952848,42
2953476,37
2954100,32
2954732,27
2955360,24
2955980,20
2956608,18
2957232,12
2957856,12
2958484,11
2959104,11
2959736,12
2960360,21
2960980,31
2961612,34
2962232,37
2962860,35
2963492,31
2964112,25
2964740,21
2965364,11
2965996,10
2966624,17
2967248,33
2967876,41
2968500,41
2969124,42
2969756,41
2970376,41
2971004,37
2971628,29
2972252,23
2972880,21
2973496,19
2974124,15
2974756,12
2975376,11
2976004,11
2976628,15
2977256,21
2977884,33
2978504,43
2979132,49
2979756,45
2980380,34
2981012,26
2981632,20
2982260,10
2982884,17
2983508,27
2984140,32
2984760,41
2985388,43
2986020,38
2986640,35
2987268,35
2987892,33
2988524,22
2989156,20
2989776,20
2990404,13
2991028,11
2991652,11
2992284,10
2992904,11
2993532,15
2994156,29
2994784,39
2995412,45
2996036,42
2996668,36
2997296,29
2997912,21
2998544,19
2999168,11
2999796,16
3000428,31
3001048,40
3001676,44
3002300,45
3002924,38
3003556,34
3004176,33
3004804,30
3005428,24
3006056,20
3006684,15
3007312,11
3007940,11
3008572,10
3009192,11
3009824,13
3010448,19
3011076,31
3011708,37
3012328,41
3012956,37
3013584,31
3014208,24
3014840,17
3015456,11
3016088,17
3016716,29
3017336,41
3017968,44
3018592,48
3019224,48
3019852,39
3020472,37
3021104,33
3021728,27
3022352,22
3022984,17
3023600,11
3024232,11
3024856,11
3025480,10
3026112,12
3026728,19
3027360,27
3027988,33
3028608,42
3029240,43
3029864,37
3030496,27
3031124,19
3031744,12
3032376,14
3033000,24
3033624,30
3034252,34
3034872,33
3035504,32
3036128,32
3036752,30
3037384,34
3038000,28
3038632,22
3039264,17
3039884,17
3040512,13
3041136,10
3041768,10
3042396,10
3043016,12
3043648,17
3044272,26
3044896,34
3045524,42
3046144,47
3046776,38
3047400,24
3048024,20
3048652,12
3049272,11
3049904,21
3050532,36
3051152,46
3051784,45
3052408,49
3053036,43
3053668,35
3054288,32
3054920,29
3055544,24
3056168,19
3056796,12
3057416,11
3058048,10
3058672,10
3059296,13
3059924,13
3060552,19
3061180,31
3061812,40
3062432,42
3063060,41
3063688,33
3064316,27
3064948,16
3065568,11
3066200,17
3066824,32
3067448,43
3068080,42
3068696,47
3069328,45
3069960,39
3070584,33
3071216,27
3071844,24
3072476,20
3073104,19
3073724,13
3074352,11
3074976,11
3075596,10
3076228,10
3076848,15
3077476,27
3078100,34
3078724,42
3079352,42
3079972,39
3080600,28
3081232,21
3081848,13
3082476,11
3083100,13
3083732,23
3084360,34
3084980,42
3085608,49
3086232,41
3086856,35
3087484,32
3088104,28
3088732,26
3089356,19
3089980,13
3090608,10
3091232,11
3091860,13
3092492,11
3093112,11
3093740,19
3094364,30
3094996,41
3095628,46
3096248,43
3096876,35
3097504,28
3098128,22
3098756,10
3099376,16
3100004,24
3100628,30
3101256,37
3101884,48
3102504,53
3103136,47
3103764,37
3104384,32
3105012,27
3105636,23
3106268,21
3106900,12
3107520,12
3108152,11
3108776,9
3109348,11
3109984,16
3110600,27
3111232,38
3111856,41
3112480,40
3113108,33
3113728,26
3114356,21
3114980,15
3115604,10
3116236,16
3116856,28
3117484,33
3118116,36
3118736,39
3119368,37
3119992,31
3120624,31
3121252,25
3121872,25
3122504,23
3123128,24
3123752,14
3124380,11
3125000,11
3125628,10
3126252,11
3126876,17
3127508,25
3128132,31
3128764,38
3129392,40
3130016,37
3130644,31
3131272,23
3131900,13
3132532,14
3133152,25
3133784,32
3134408,35
3135032,39
3135664,40
3136280,40
3136912,31
3137540,25
3138160,24
3138788,21
3139412,15
3140044,11
3140672,12
3141296,12
3141924,10
3142552,10
3143176,11
3143804,20
3144424,33
3145052,39
3145680,47
3146300,41
3146932,35
3147552,29
3148184,20
3148812,10
3149432,20
3150064,31
3150688,39
3151320,45
3151948,46
3152568,44
3153200,38
3153824,36
3154448,29
3155076,24
3155696,20
3156324,19
3156952,11
3157576,11
3158208,10
3158824,11
3159456,14
3160088,16
3160704,22
3161336,30
3161960,38
3162588,40
3163220,34
3163840,29
3164472,20
3165096,11
3165720,15
3166352,23
3166968,33
3167600,39
3168224,41
3168848,43
3169476,40
3170096,34
3170728,29
3171356,27
3171976,25
3172608,21
3173232,15
3173864,11
3174496,10
3175112,11
3175744,11
3176368,14
3176992,20
3177620,30
3178240,39
3178868,44
3179496,39
3180120,33
3180752,29
3181368,23
3182000,11
3182632,11
3183248,24
3183880,37
3184508,42
3185136,49
3185768,51
3186388,43
3187020,33
3187644,35
3188268,32
3188900,25
3189520,18
3190152,13
3190776,11
3191400,11
3192032,10
3192656,12
3193288,18
3193920,29
3194536,41
3195168,47
3195796,47
3196424,41
3197056,30
3197672,26
3198304,19
3198928,10
3199556,19
3200188,29
3200804,38
3201432,41
3202064,38
3202680,35
3203308,32
3203932,35
3204560,29
3205188,23
3205808,21
3206436,18
3207056,14
3207684,13
3208312,10
3208936,11
3209564,12
3210188,18
3210812,26
3211444,33
3212064,44
3212692,43
3213324,36
3213944,30
3214572,23
3215196,13
3215828,10
3216460,20
3217080,35
3217708,43
3218332,49
3218956,48
3219588,41
3220208,36
3220836,31
3221460,32
3222084,27
3222712,23
3223336,17
3223964,10
3224596,10
3225216,13
3225844,14
3226468,17
3227100,23
3227728,32
3228344,36
3228976,41
3229600,39
3230224,30
3230852,22
3231472,21
3232100,11
3232724,15
3233348,30
3233980,38
3234600,46
3235228,48
3235860,42
3236480,34
3237108,30
3237732,30
3238364,28
3238996,24
3239616,22
3240244,13
3240868,11
3241492,11
3242124,10
3242744,11
3243372,17
3243996,27
3244624,36
3245252,44
3245872,45
3246504,41
3247132,30
3247752,23
3248384,13
3249008,13
3249636,24
3250264,31
3250888,38
3251516,45
3252144,47
3252768,42
3253396,34
3254016,31
3254648,24
3255272,19
3255896,20
3256524,15
3257144,14
3257772,11
3258404,10
3259024,11
3259656,14
3260280,25
3260908,35
3261540,40
3262160,45
3262788,39
3263416,33
3264040,26
3264668,20
3265288,11
3265916,14
3266540,26
3267168,37
3267796,41
3268424,44
3269052,43
3269684,36
3270304,32
3270936,29
3271560,29
3272192,25
3272820,18
3273440,14
3274072,12
3274696,11
3275320,10
3275952,11
3276572,15
3277200,27
3277828,35
3278448,43
3279072,42
3279696,34
3280324,28
3280952,23
3281568,14
3282196,11
3282816,19
3283448,30
3284076,39
3284692,41
3285320,43
3285944,38
3286568,32
3287196,31
3287816,29
3288444,23
3289064,17
3289688,14
3290316,12
3290936,13
3291564,13
3292192,10
3292808,13
3293436,22
3294060,27
3294688,40
3295316,47
3295936,41
3296564,31
3297188,24
3297812,17
3298440,10
3299056,17
3299684,22
3300308,31
3300932,40
3301560,44
3302176,44
3302808,39
3303436,32
3304056,32
3304684,30
3305308,22
3305936,16
3306564,11
3307184,13
3307812,12
3308436,11
3309060,11
3309692,15
3310312,25
3310940,36
3311564,44
3312188,45
3312816,36
3313440,31
3314068,23
3314696,18
3315320,11
3315948,13
3316572,27
3317204,35
3317832,37
3318448,35
3319080,37
3319700,37
3320324,35
3320956,32
3321576,28
3322204,20
3322828,17
3323452,12
3324084,10
3324704,10
3325332,10
3325964,11
3326584,15
3327212,23
3327836,36
3328468,42
3329096,36
3329720,29
3330348,22
3330968,16
3331592,12
3332220,11
3332840,20
3333468,27
3334092,31
3334712,34
3335344,37
3335960,35
3336588,29
3337212,26
3337840,27
3338468,27
3339092,23
3339720,18
3340348,12
3340968,11
3341596,10
3342220,10
3342848,12
3343476,20
3344096,29
3344724,37
3345348,42
3345968,39
3346600,33
3347216,26
3347844,23
3348468,12
3349092,11
3349720,20
3350344,31
3350972,43
3351604,46
3352224,46
3352852,41
3353476,39
3354108,31
3354736,28
3355360,25
3355988,20
3356612,16
3357236,14
3357868,10
3358488,11
3359116,10
3359740,12
3360368,20
3360996,33
3361620,43
3362248,48
3362876,40
3363496,32
3364124,26
3364748,18
3365376,11
3366004,14
3366624,24
3367252,33
3367876,33
3368500,43
3369128,43
3369744,43
3370372,31
3370996,22
3371620,22
3372248,20
3372872,16
3373500,11
3374128,11
3374752,12
3375380,10
3376004,10
3376632,12
3377264,23
3377880,31
3378512,41
3379136,41
3379760,37
3380388,28
3381008,23
3381636,11
3382260,13
3382884,23
3383512,34
3384136,41
3384764,47
3385392,43
3386016,37
3386644,29
3387268,25
3387896,24
3388524,22
3389144,18
3389772,12
3390396,10
3391020,10
3391652,10
3392272,14
3392900,17
3393524,23
3394148,31
3394776,35
3395400,33
3396028,37
3396656,32
3397280,22
3397908,15
3398532,10
3399164,13
3399792,27
3400412,37
3401040,43
3401660,43
3402284,40
3402912,35
3403536,35
3404164,28
3404788,26
3405412,24
3406040,19
3406664,13
3407292,11
3407924,11
3408544,11
3409172,11
3409796,14
3410428,23
3411056,31
3411672,40
3412304,41
3412928,39
3413552,30
3414180,22
3414800,15
3415428,11
3416052,14
3416676,25
3417308,35
3417932,42
3418560,43
3419188,39
3419808,34
3420440,32
3421060,31
3421692,29
3422320,24
3422944,19
3423572,13
3424200,11
3424820,10
3425452,10
3426072,13
3426700,25
3427324,38
3427952,46
3428580,48
3429204,46
3429836,37
3430468,29
3431088,25
3431716,15
3432340,10
3432964,23
3433596,36
3434216,42
3434844,49
3435472,49
3436096,40
3436724,33
3437344,31
3437976,25
3438604,24
3439224,20
3439856,15
3440480,12
3441108,11
3441740,10
3442360,11
3442988,12
3443612,17
3444236,32
3444864,41
3445488,43
3446116,42
3446740,36
3447364,26
3447992,15
3448612,12
3449240,21
3449868,29
3450488,39
3451116,45
3451740,48
3452372,45
3453000,38
3453624,31
3454252,28
3454876,31
3455504,27
3456132,21
3456752,15
3457380,12
3458004,11
3458624,9
3459204,12
3459828,18
3460456,33
3461080,43
3461704,51
3462332,47
3462952,44
3463580,31
3464212,20
3464832,14
3465460,10
3466084,20
3466716,31
3467344,40
3467964,45
3468592,46
3469216,40
3469840,36
3470468,31
3471088,29
3471716,24
3472344,20
3472964,18
3473596,16
3474216,12
3474844,10
3475476,12
3476096,15
3476724,21
3477348,29
3477980,38
3478612,40
3479232,37
3479864,28
3480488,26
3481112,20
3481744,10
3482360,11
3482988,17
3483612,27
3484232,41
3484864,48
3485480,45
3486108,34
3486740,26
3487360,28
3487988,28
3488612,23
3489244,18
3489872,12
3490488,10
3491120,11
3491744,11
3492368,11
3492996,19
3493616,25
3494244,33
3494868,39
3495492,40
3496124,32
3496744,29
3497372,20
3498004,14
3498624,11
3499252,16
3499876,28
3500508,36
3501140,38
3501760,47
3502388,45
3503016,37
3503640,34
3504272,27
3504888,24
3505516,20
3506144,17
3506768,14
3507396,10
3508016,11
3508644,12
3509276,14
3509896,13
3510524,23
3511152,34
3511780,43
3512412,46
3513032,40
3513664,29
3514288,21
3514912,11
3515540,14
3516160,25
3516788,32
3517416,39
3518040,49
3518672,43
3519288,36
3519920,32
3520552,30
3521176,27
3521804,21
3522428,17
3523060,11
3523688,10
3524304,10
3524936,10
3525560,11
3526184,13
3526812,22
3527432,31
3528060,40
3528684,43
3529308,40
3529936,34
3530556,23
3531184,19
3531816,10
3532432,15
3533064,27
3533684,35
3534316,42
3534944,49
3535564,45
3536192,40
3536816,35
3537436,27
3538068,26
3538688,27
3539316,24
3539940,16
3540564,12
3541196,10
3541816,11
3542444,12
3543076,18
3543696,31
3544324,39
3544948,47
3545580,49
3546212,42
3546832,30
3547460,21
3548084,12
3548708,11
3549340,20
3549960,34
3550592,40
3551216,44
3551840,45
3552472,38
3553096,33
3553724,32
3554356,24
3554976,23
3555608,19
3556232,16
3556860,12
3557492,10
3558112,10
3558744,13
3559368,10
3559992,15
3560624,24
3561240,38
3561872,45
3562500,38
3563120,32
3563752,27
3564376,21
3565004,11
3565636,18
3566256,27
3566884,36
3567508,43
3568136,45
3568764,39
3569384,35
3570012,30
3570640,28
3571264,25
3571892,20
3572512,21
3573140,15
3573772,10
3574392,12
3575024,11
3575648,11
3576280,15
3576908,24
3577528,32
3578160,44
3578784,48
3579408,41
3580040,29
3580656,28
3581288,19
3581912,11
3582536,29
3583168,44
3583792,50
3584428,56
3585056,57
3585672,58
3586300,51
3586924,44
3587552,31
3588184,21
3588800,15
3589428,15
3590052,10
3590676,10
3591308,10
3591928,10
3592556,10
3593184,17
3593808,31
3594436,41
3595056,47
3595684,45
3596316,41
3596936,33
3597564,27
3598188,14
3598820,11
3599452,24
3600072,35
3600700,48
3601324,53
3601948,55
3602576,54
3603200,47
3603828,43
3604452,39
3605076,31
3605708,28
3606328,25
3606956,16
3607588,12
3608208,10
3608836,10
3609460,18
3610088,31
3610720,44
3611336,55
3611964,64
3612588,56
3613212,46
3613844,36
3614464,27
3615092,14
3615716,15
3616340,27
3616968,34
3617592,48
3618220,56
3618852,55
3619472,48
3620100,36
3620724,38
3621356,37
3621984,42
3622604,34
3623232,22
3623856,11
3624480,16
3625108,21
3625728,15
3626356,17
3626980,33
3627604,31
3628232,30
3628856,40
3629484,44
3630116,37
3630736,23
3631364,11
3631988,32
3632620,42
3633252,38
3633872,24
3634504,25
3635128,48
3635752,55
3636380,49
3637000,37
3637628,31
3638252,27
3638876,20
3639508,13
3640132,12
3640764,27
3641392,35
3642012,25
3642640,16
3643264,29
3643892,48
3644524,53
3645144,54
3645776,49
3646396,38
3647024,27
3647652,18
3648272,11
3648900,14
3649524,26
3650148,46
3650776,57
3651400,55
3652032,52
3652660,42
3653280,33
3653908,33
3654532,35
3655164,35
3655796,30
3656416,18
3657044,19
3657668,17
3658292,14
3658924,16
3659544,21
3660172,29
3660800,43
3661424,51
3662052,42
3662676,35
3663308,29
3663940,20
3664560,12
3665188,21
3665816,40
3666440,48
3667068,59
3667688,64
3668316,60
3668940,48
3669564,27
3670196,14
3670816,14
3671448,14
3672076,15
3672696,19
3673328,12
3673952,10
3674580,10
3675212,10
3675832,12
3676464,12
3677088,21
3677712,24
3678344,26
3678964,27
3679592,23
3680220,17
3680844,14
3681472,10
3682092,12
3682720,39
3683348,50
3683968,46
3684596,40
3685224,28
3685852,21
3686484,25
3687100,31
3687732,25
3688352,16
3688976,13
3689604,11
3690220,11
3690852,13
3691476,12
3692100,15
3692728,18
3693352,19
3693980,26
3694612,33
3695232,32
3695860,21
3696484,24
3697116,31
3697744,14
3698368,23
3698996,40
3699620,47
3700244,64
3700876,86
3701496,93
3702124,97
3702748,96
3703372,80
3704004,58
3704624,40
3705252,15
3705884,52
3706504,76
3707136,72
3707760,52
3708388,54
3709020,51
3709640,53
3710268,61
3710896,68
3711520,71
3712152,57
3712768,29
3713396,24
3714020,55
3714644,64
3715272,73
3715896,69
3716524,63
3717156,36
3717776,12
3718404,31
3719028,40
3719660,56
3720292,34
3720912,16
3721540,13
3722168,15
3722792,15
3723420,11
3724040,20
3724668,20
3725296,19
3725920,15
3726548,12
3727172,20
3727804,24
3728436,28
3729056,19
3729684,14
3730308,14
3730940,16
3731572,19
3732192,37
3732820,47
3733444,55
3734068,63
3734700,58
3735320,45
3735952,60
3736580,54
3737200,18
3737832,22
3738452,46
3739084,70
3739716,48
3740336,26
3740964,35
3741588,27
3742216,16
3742844,22
3743464,22
3744096,16
3744716,21
3745340,19
3745972,14
3746592,22
3747220,32
3747852,38
3748472,44
3749104,47
3749728,49
3750356,45
3750988,26
3751608,17
3752240,26
3752864,26
3753488,32
3754116,48
3754736,38
3755368,15
3755992,16
3756616,27
3757248,24
3757868,36
3758500,48
3759128,49
3759752,21
3760384,10
3761008,11
3761636,61
3762268,144
3762940,139
3763620,131
3764300,82
3764920,44
3765548,17
3766176,11
3766800,17
3767428,15
3768048,35
3768680,46
3769300,47
3769924,50
3770556,47
3771176,41
3771808,39
3772436,30
3773056,21
3773688,17
3774312,14
3774940,11
3775572,11
3776192,14
3776824,25
3777448,27
3778072,34
3778700,32
3779320,28
3779948,22
3780572,17
3781200,13
3781828,10
3782448,22
3783076,54
3783708,72
3784328,90
3784956,99
3785584,85
3786216,50
3786844,14
3787464,34
3788096,64
3788720,48
3789344,22
3789976,13
3790592,11
3791224,15
3791848,14
3792472,12
3793100,14
3793720,21
3794348,28
3794980,36
3795600,34
3796228,19
3796856,14
3797484,19
3798116,24
3798736,33
3799368,44
3799992,59
3800616,65
3801248,59
3801864,30
3802496,27
3803120,29
3803744,16
3804376,21
3805000,39
3805628,43
3806260,14
3806880,10
3807508,13
3808136,11
3808764,11
3809396,19
3810016,23
3810644,16
3811268,44
3811896,109
3812576,138
3813244,79
3813872,47
3814500,25
3815120,13
3815752,16
3816376,28
3817000,45
3817628,54
3818248,52
3818876,27
3819504,13
3820128,19
3820760,35
3821384,47
3822016,40
3822648,32
3823264,34
3823896,65
3824524,93
3825152,86
3825784,34
3826408,44
3827040,118
3827720,136
3828396,160
3829076,104
3829748,37
3830368,17
3831000,13
3831624,34
3832256,73
3832888,95
3833508,108
3834192,106
3834860,76
3835480,48
3836112,11
3836732,53
3837364,23
3837996,21
3838616,14
3839252,17
3839876,26
3840508,47
3841140,28
3841760,11
3842388,10
3843012,15
3843636,21
3844264,28
3844888,43
3845516,33
3846140,20
3846768,17
3847396,19
3848020,11
3848652,18
3849280,15
3849900,20
3850528,27
3851152,27
3851780,25
3852412,36
3853032,37
3853660,33
3854284,32
3854908,26
3855540,24
3856160,24
3856788,15
3857420,14
3858040,17
3858668,25
3859292,12
3859924,10
3860552,14
3861168,16
3861800,54
3862424,60
3863048,58
3863676,22
3864296,63
3864928,121
3865608,124
3866276,88
3866900,19
3867524,45
3868156,47
3868788,17
3869408,23
3870040,32
3870664,21
3871288,41
3871916,48
3872536,36
3873164,20
3873788,10
3874416,11
3875044,12
3875668,11
3876300,16
3876932,24
3877552,25
3878184,25
3878808,19
3879432,15
3880060,19
3880680,25
3881308,33
3881936,24
3882560,19
3883188,69
3883808,53
3884440,27
3885072,22
3885688,35
3886320,15
3886944,15
3887576,25
3888204,39
3888824,46
3889452,36
3890080,54
3890704,57
3891336,30
3891952,13
3892580,31
3893204,51
3893828,70
3894460,70
3895080,78
3895708,81
3896340,64
3896960,57
3897588,47
3898212,24
3898844,12
3899476,22
3900096,39
3900728,52
3901352,51
3901976,41
3902608,40
3903224,47
3903856,46
3904480,45
3905104,34
3905732,25
3906352,27
3906984,27
3907612,24
3908232,41
3908860,33
3909488,11
3910116,11
3910748,28
3911368,64
3912000,73
3912624,78
3913248,50
3913876,30
3914496,15
3915124,9
3915700,14
3916328,21
3916960,31
3917576,37
3918208,48
3918832,40
3919456,25
3920088,19
3920708,18
3921340,35
3921972,54
3922592,61
3923224,46
3923844,26
3924476,21
3925108,40
3925728,60
3926360,37
3926984,13
3927608,11
3928240,28
3928856,61
3929488,60
3930116,63
3930736,42
3931368,15
3931992,12
3932624,19
3933252,35
3933872,45
3934500,48
3935124,47
3935752,36
3936380,34
3937000,35
3937628,31
3938252,28
3938876,21
3939504,19
3940128,15
3940756,11
3941388,16
3942008,19
3942640,12
3943260,13
3943892,41
3944520,65
3945140,52
3945768,24
3946392,15
3947016,14
3947644,11
3948264,13
3948892,18
3949516,9
3950088,18
3950724,26
3951344,31
3951976,31
3952600,32
3953224,37
3953852,38
3954472,43
3955100,40
3955732,25
3956352,11
3956980,19
3957604,21
3958236,15
3958868,12
3959488,12
3960120,13
3960744,12
3961368,24
3961996,34
3962616,45
3963248,43
3963872,57
3964496,25
3965124,19
3965744,33
3966376,37
3967008,33
3967624,30
3968256,32
3968880,31
3969508,31
3970140,26
3970760,22
3971388,22
3972012,20
3972640,19
3973268,19
3973888,27
3974516,26
3975140,33
3975764,46
3976396,20
3977016,20
3977644,72
3978276,74
3978896,58
3979524,35
3980148,33
3980780,32
3981412,43
3982032,27
3982664,19
3983288,30
3983912,33
3984544,27
3985160,35
3985792,60
3986416,79
3987040,83
3987672,80
3988296,52
3988928,23
3989556,12
3990176,18
3990808,56
3991432,39
3992064,12
3992692,14
3993312,31
3993944,66
3994568,62
3995192,44
3995824,31
3996440,25
3997072,16
3997704,11
3998320,17
3998952,21
3999576,41
4000208,52
4000836,44
4001456,28
4002084,12
4002708,28
4003336,51
4003964,56
4004584,50
4005212,48
4005836,27
4006460,17
4007088,9
4007652,11
4008284,20
4008908,45
4009532,37
4010164,48
4010784,54
4011416,43
4012044,42
4012664,42
4013296,27
4013920,21
4014548,12
4015180,10
4015800,14
4016428,20
4017052,30
4017676,47
4018308,50
4018928,38
4019556,48
4020180,50
4020804,44
4021432,46
4022056,40
4022684,13
4023316,18
4023936,13
4024568,12
4025188,27
4025820,42
4026448,58
4027072,53
4027700,49
4028324,47
4028948,44
4029580,38
4030200,30
4030832,21
4031456,10
4032080,22
4032708,38
4033328,44
4033956,49
4034588,47
4035208,42
4035836,35
4036460,31
4037092,31
4037720,31
4038340,28
4038968,24
4039596,21
4040220,20
4040848,16
4041468,11
4042096,10
4042720,11
4043344,13
4043976,23
4044592,42
4045224,48
4045852,31
4046472,23
4047100,27
4047724,25
4048356,21
4048984,11
4049608,30
4050236,59
4050860,76
4051488,62
4052116,12
4052736,23
4053364,15
4053992,14
4054616,15
4055244,17
4055864,21
4056492,17
4057124,19
4057744,18
4058372,16
4058996,12
4059628,14
4060260,28
4060880,31
4061508,33
4062132,35
4062760,32
4063388,32
4064008,31
4064636,17
4065260,11
4065888,31
4066516,43
4067140,52
4067772,53
4068404,40
4069024,26
4069656,37
4070280,48
4070912,63
4071540,45
4072160,31
4072788,11
4073416,21
4074040,23
4074672,27
4075288,23
4075920,22
4076552,30
4077168,45
4077800,59
4078424,51
4079056,43
4079684,35
4080304,26
4080936,14
4081560,15
4082184,37
4082816,42
4083432,45
4084060,45
4084688,49
4085312,50
4085940,35
4086560,15
4087188,13
4087820,26
4088440,41
4089068,39
4089696,15
4090324,12
4090956,15
4091576,20
4092208,16
4092832,14
4093456,25
4094088,32
4094704,39
4095336,45
4095964,38
4096592,24
4097220,15
4097836,16
4098464,47
4099092,71
4099712,84
4100340,72
4100960,43
4101588,27
4102220,22
4102840,11
4103468,25
4104088,18
4104712,17
4105340,14
4105960,12
4106588,13
4107208,17
4107832,11
4108460,14
4109080,21
4109708,29
4110332,47
4110952,47
4111584,37
4112208,24
4112836,17
4113464,18
4114080,15
4114708,11
4115332,18
4115960,31
4116592,46
4117208,48
4117836,41
4118460,33
4119084,31
4119712,34
4120328,40
4120956,43
4121580,35
4122204,22
4122832,10
4123456,16
4124084,26
4124712,18
4125336,13
4125964,15
4126588,25
4127220,25
4127848,30
4128464,31
4129092,22
4129716,19
4130340,15
4130968,11
4131584,22
4132216,19
4132840,15
4133460,29
4134092,48
4134712,48
4135340,41
4135972,43
4136592,39
4137220,17
4137844,14
4138472,19
4139104,14
4139720,17
4140348,21
4140972,15
4141596,10
4142228,10
4142848,18
4143476,31
4144100,34
4144724,30
4145352,35
4145972,37
4146600,25
4147228,23
4147844,11
4148476,25
4149100,27
4149728,13
4150356,16
4150976,18
4151604,35
4152228,34
4152852,38
4153484,34
4154104,37
4154732,26
4155356,16
4155980,11
4156612,10
4157232,10
4157864,10
4158492,10
4159112,11
4159740,13
4160368,25
4160996,41
4161624,48
4162240,43
4162868,27
4163492,17
4164112,14
4164744,10
4165360,18
4165988,31
4166612,31
4167236,28
4167864,38
4168480,44
4169112,40
4169740,32
4170360,29
4170988,25
4171612,24
4172240,21
4172872,14
4173488,16
4174116,18
4174740,19
4175364,19
4175996,12
4176616,26
4177244,52
4177868,60
4178492,58
4179120,54
4179744,38
4180372,22
4181004,10
4181624,15
4182252,17
4182876,27
4183504,37
4184136,37
4184752,41
4185380,35
4186004,28
4186628,27
4187260,25
4187880,20
4188508,18
4189132,14
4189756,10
4190384,10
4191008,10
4191636,10
4192268,10
4192888,12
4193516,10
4194140,12
4194768,15
4195400,21
4196016,14
4196648,15
4197272,15
4197896,13
4198524,16
4199140,10
4199772,10
4200396,13
4201016,14
4201648,11
4202264,12
4202892,17
4203516,26
4204144,28
4204772,25
4205396,16
4206028,10
4206656,10
4207280,11
4207908,10
4208532,10
4209156,13
4209788,16
4210408,26
4211036,33
4211660,35
4212284,28
4212916,25
4213536,23
4214164,16
4214796,11
4215416,11
4216044,18
4216668,33
4217300,35
4217932,35
4218552,44
4219184,56
4219808,51
4220432,43
4221060,40
4221680,37
4222308,34
4222932,25
4223556,11
4224188,11
4224804,27
4225436,60
4226064,43
4226680,13
4227308,64
4227932,131
4228612,107
4229288,68
4229912,38
4230540,15
4231164,10
4231792,11
4232420,19
4233044,28
4233676,25
4234304,17
4234920,21
4235552,30
4236176,29
4236804,31
4237436,27
4238056,24
4238688,22
4239312,17
4239936,16
4240564,15
4241184,13
4241812,11
4242444,10
4243064,18
4243692,27
4244316,38
4244948,40
4245576,36
4246200,31
4246828,26
4247452,15
4248076,11
4248708,28
4249328,40
4249956,41
4250580,38
4251204,46
4251832,50
4252456,63
4253084,56
4253716,30
4254336,23
4254968,16
4255592,15
4256220,12
4256852,11
4257472,21
4258100,14
4258724,11
4259348,19
4259980,46
4260600,65
4261228,62
4261852,50
4262476,34
4263104,23
4263720,17
4264348,11
4264976,17
4265600,29
4266228,43
4266852,53
4267480,66
4268112,63
4268728,49
4269356,35
4269980,26
4270604,15
4271236,12
4271856,14
4272484,11
4273108,11
4273732,11
4274364,10
4274984,11
4275612,17
4276244,18
4276864,26
4277492,24
4278116,25
4278748,26
4279376,22
4279996,13
4280628,16
4281248,31
4281876,38
4282504,18
4283120,13
4283752,15
4284376,20
4285000,32
4285628,53
4286248,43
4286876,29
4287508,20
4288128,16
4288756,14
4289380,10
4290008,11
4290640,23
4291256,17
4291884,10
4292508,11
4293132,21
4293764,20
4294384,27
4295016,35
4295640,42
4296264,35
4296892,39
4297512,24
4298144,10
4298772,13
4299392,20
4300024,28
4300648,48
4301280,47
4301908,38
4302528,39
4303156,34
4303780,28
4304404,21
4305032,17
4305656,16
4306284,11
4306908,16
4307532,19
4308160,19
4308784,12
4309412,14
4310044,31
4310664,53
4311292,58
4311916,42
4312548,21
4313180,14
4313800,15
4314428,11
4315052,11
4315676,9
4316256,19
4316880,30
4317508,38
4318132,41
4318756,38
4319388,34
4320008,28
4320636,25
4321260,28
4321884,25
4322512,20
4323140,18
4323768,19
4324396,16
4325016,14
4325644,11
4326268,19
4326900,42
4327528,44
4328152,38
4328780,20
4329404,19
4330028,15
4330660,12
4331280,10
4331908,19
4332532,22
4333160,21
4333788,42
4334412,31
4335044,14
4335672,10
4336292,13
4336920,20
4337544,26
4338176,27
4338804,23
4339424,15
4340052,17
4340676,13
4341304,11
4341932,17
4342552,25
4343180,29
4343804,31
4344432,23
4345060,13
4345684,32
4346316,38
4346944,14
4347568,32
4348196,43
4348820,39
4349448,17
4350076,10
4350696,15
4351328,30
4351952,33
4352576,35
4353208,37
4353824,34
4354452,28
4355084,20
4355704,18
4356332,15
4356956,12
4357588,10
4358216,10
4358840,14
4359468,16
4360092,25
4360716,35
4361348,34
4361968,25
4362596,26
4363220,21
4363844,16
4364472,12
4365096,9
4365672,28
4366304,43
4366928,43
4367556,40
4368176,33
4368804,27
4369432,27
4370056,30
4370684,32
4371308,26
4371940,23
4372568,16
4373192,11
4373820,11
4374448,10
4375072,13
4375700,19
4376320,29
4376948,38
4377576,44
4378200,31
4378828,22
4379448,17
4380076,17
4380708,14
4381328,12
4381960,15
4382584,37
4383216,58
4383844,50
4384464,43
4385092,32
4385716,12
4386340,15
4386972,14
4387592,19
4388224,16
4388848,15
4389472,14
4390100,12
4390724,12
4391356,10
4391988,11
4392608,18
4393240,29
4393864,38
4394492,35
4395124,32
4395744,27
4396376,15
4397000,16
4397624,21
4398256,23
4398872,17
4399504,10
4400136,11
4400752,24
4401380,33
4402008,40
4402636,42
4403268,36
4403888,32
4404516,31
4405140,33
4405764,27
4406396,18
4407016,13
4407644,13
4408272,13
4408896,28
4409524,48
4410144,62
4410772,54
4411404,46
4412024,42
4412652,28
4413280,21
4413908,17
4414540,10
4415160,21
4415792,32
4416416,45
4417040,46
4417668,48
4418288,46
4418916,40
4419540,32
4420164,28
4420796,16
4421416,15
4422048,13
4422676,18
4423296,22
4423928,18
4424548,14
4425180,10
4425808,24
4426432,31
4427060,13
4427684,36
4428308,71
4428940,114
4429612,122
4430288,90
4430916,58
4431536,25
4432164,10
4432788,21
4433416,31
4434044,48
4434664,70
4435292,79
4435916,76
4436540,83
4437172,78
4437792,63
4438424,59
4439052,54
4439672,52
4440304,49
4440928,56
4441560,47
4442188,32
4442808,21
4443436,10
4444064,22
4444688,47
4445316,64
4445936,75
4446568,60
4447192,41
4447816,31
4448448,19
4449064,19
4449692,32
4450324,32
4450944,32
4451576,28
4452200,24
4452828,27
4453460,22
4454080,20
4454712,26
4455336,33
4455960,38
4456592,46
4457208,39
4457836,13
4458464,13
4459088,17
4459716,34
4460336,58
4460968,66
4461596,62
4462216,64
4462848,50
4463472,20
4464104,11
4464732,13
4465352,13
4465980,12
4466608,20
4467232,29
4467860,43
4468480,41
4469108,39
4469736,46
4470360,49
4470992,36
4471612,18
4472240,12
4472872,11
4473488,10
4474120,10
4474744,10
4475376,11
4476008,19
4476624,41
4477256,48
4477880,41
4478504,35
4479136,28
4479756,20
4480388,15
4481012,11
4481636,21
4482264,35
4482888,45
4483516,48
4484148,49
4484768,43
4485396,19
4486020,11
4486652,13
4487280,13
4487900,14
4488528,17
4489152,24
4489776,21
4490404,20
4491024,13
4491652,15
4492280,36
4492904,44
4493532,37
4494156,36
4494788,37
4495416,34
4496040,23
4496668,15
4497292,11
4497924,10
4498552,14
4499172,20
4499804,31
4500428,42
4501052,47
4501684,46
4502304,35
4502936,31
4503568,31
4504184,27
4504816,19
4505440,20
4506072,32
4506700,38
4507320,38
4507948,28
4508572,10
4509196,43
4509824,64
4510448,73
4511076,67
4511700,60
4512328,40
4512956,21
4513576,19
4514204,10
4514836,10
4515456,18
4516084,28
4516708,44
4517340,47
4517968,39
4518592,35
4519220,34
4519844,28
4520468,24
4521100,24
4521720,32
4522348,45
4522972,55
4523596,51
4524228,38
4524848,12
4525476,21
4526108,30
4526728,44
4527356,63
4527980,53
4528612,33
4529244,23
4529864,18
4530492,21
4531120,11
4531744,28
4532372,29
4532992,36
4533620,37
4534248,29
4534872,26
4535500,20
4536120,14
4536752,15
4537380,17
4538000,13
4538628,14
4539252,13
4539884,14
4540516,13
4541136,12
4541768,11
4542392,11
4543016,17
4543648,35
4544268,41
4544896,37
4545520,28
4546144,23
4546776,19
4547400,13
4548028,14
4548656,27
4549280,35
4549908,41
4550532,46
4551164,39
4551796,37
4552416,37
4553044,23
4553672,17
4554296,14
4554924,17
4555544,18
4556176,11
4556804,22
4557424,15
4558052,13
4558676,10
4559308,13
4559940,16
4560560,20
4561188,21
4561816,30
4562440,45
4563068,15
4563688,31
4564316,40
4564944,23
4565568,11
4566200,13
4566816,17
4567448,21
4568076,10
4568696,11
4569324,31
4569952,45
4570580,46
4571212,27
4571832,13
4572464,12
4573088,15
4573712,19
4574344,15
4574960,12
4575592,16
4576216,18
4576840,23
4577472,31
4578092,37
4578720,38
4579352,37
4579972,27
4580600,16
4581228,11
4581856,18
4582488,31
4583108,43
4583736,45
4584364,42
4584988,40
4585616,43
4586240,41
4586868,43
4587496,44
4588120,38
4588752,33
4589372,25
4590000,10
4590628,32
4591248,20
4591880,25
4592504,25
4593132,34
4593764,42
4594384,46
4595016,49
4595640,44
4596264,29
4596892,20
4597512,13
4598144,11
4598768,20
4599392,30
4600024,39
4600648,41
4601276,40
4601908,36
4602528,37
4603160,32
4603784,27
4604416,25
4605044,22
4605664,23
4606296,21
4606920,19
4607544,25
4608176,22
4608792,28
4609420,26
4610044,12
4610672,48
4611300,79
4611924,89
4612552,78
4613180,51
4613800,21
4614428,10
4615052,17
4615680,24
4616308,34
4616928,42
4617556,45
4618180,40
4618808,39
4619436,36
4620056,34
4620684,27
4621308,22
4621936,17
4622564,13
4623188,15
4623820,11
4624452,10
4625072,10
4625700,15
4626324,22
4626952,25
4627580,27
4628200,32
4628828,29
4629452,31
4630076,19
4630708,12
4631328,23
4631956,24
4632588,26
4633208,15
4633836,12
4634460,26
4635092,29
4635724,31
4636344,23
4636972,24
4637596,27
4638224,30
4638852,24
4639472,17
4640104,11
4640724,10
4641348,11
4641976,11
4642600,17
4643228,28
4643860,49
4644480,52
4645108,39
4645732,26
4646364,15
4646996,12
4647616,11
4648244,17
4648868,24
4649492,34
4650124,44
4650744,54
4651376,55
4652000,51
4652624,46
4653252,33
4653872,17
4654504,15
4655132,23
4655752,27
4656384,20
4657008,16
4657636,13
4658268,11
4658888,14
4659516,19
4660144,27
4660768,31
4661396,30
4662016,31
4662644,25
4663268,19
4663892,11
4664524,19
4665144,32
4665776,34
4666404,34
4667024,43
4667656,48
4668280,41
4668908,28
4669540,18
4670160,28
4670788,31
4671412,23
4672040,27
4672668,34
4673288,43
4673916,14
4674540,19
4675164,30
4675796,46
4676420,41
4677048,23
4677680,39
4678300,46
4678928,24
4679552,17
4680184,26
4680812,27
4681432,25
4682060,15
4682688,13
4683312,27
4683940,29
4684560,33
4685192,33
4685816,35
4686440,33
4687068,30
4687692,25
4688324,19
4688952,15
4689572,13
4690200,10
4690824,11
4691456,11
4692084,10
4692704,22
4693336,35
4693960,45
4694584,41
4695212,32
4695832,30
4696464,21
4697092,15
4697712,11
4698340,30
4698968,34
4699596,39
4700228,46
4700848,49
4701476,47
4702104,37
4702728,34
4703360,16
4703976,15
4704608,15
4705232,23
4705856,30
4706488,35
4707104,40
4707736,36
4708368,21
4708988,11
4709616,20
4710244,63
4710876,92
4711504,74
4712128,58
4712756,43
4713384,29
4714008,13
4714636,10
4715256,21
4715888,30
4716512,35
4717136,35
4717768,33
4718384,30
4719016,44
4719648,52
4720264,55
4720896,49
4721520,36
4722148,16
4722780,11
4723400,27
4724028,45
4724652,16
4725276,10
4725908,16
4726528,27
4727156,37
4727784,44
4728408,34
4729036,24
4729656,24
4730284,16
4730916,10
4731536,18
4732168,32
4732792,33
4733424,25
4734056,32
4734672,38
4735304,29
4735932,31
4736556,31
4737188,28
4737808,30
4738436,22
4739064,18
4739688,17
4740316,11
4740944,10
4741572,10
4742204,11
4742824,11
4743452,11
4744080,23
4744708,40
4745340,54
4745960,45
4746592,35
4747216,27
4747840,22
4748472,11
4749088,28
4749720,38
4750352,42
4750972,42
4751604,33
4752228,25
4752856,26
4753488,28
4754104,24
4754736,22
4755360,17
4755984,13
4756616,10
4757232,10
4757864,12
4758488,15
4759112,14
4759744,11
4760364,10
4760992,15
4761624,15
4762240,18
4762868,34
4763492,45
4764124,38
4764756,32
4765376,11
4766008,30
4766632,47
4767256,47
4767888,40
4768504,41
4769136,40
4769760,34
4770384,24
4771016,16
4771632,14
4772264,10
4772896,10
4773512,10
4774144,10
4774772,10
4775400,13
4776032,28
4776648,35
4777280,34
4777904,31
4778528,27
4779160,23
4779776,21
4780408,15
4781032,13
4781656,24
4782288,37
4782904,46
4783536,44
4784168,31
4784784,28
4785416,18
4786040,20
4786672,29
4787304,23
4787920,16
4788552,13
4789176,9
4789748,9
4790332,10
4790960,12
4791592,10
4792216,14
4792840,23
4793472,36
4794092,46
4794724,40
4795348,29
4795972,19
4796604,15
4797224,11
4797856,38
4798488,56
4799108,67
4799740,75
4800364,65
4800992,28
4801624,10
4802240,13
4802868,20
4803492,30
4804116,16
4804748,15
4805368,13
4805996,13
4806624,15
4807244,12
4807876,12
4808496,19
4809124,28
4809756,29
4810376,31
4811008,30
4811632,29
4812264,25
4812892,26
4813512,21
4814140,10
4814764,19
4815388,47
4816016,55
4816640,59
4817268,56
4817892,44
4818516,17
4819148,14
4819768,19
4820396,16
4821028,15
4821648,33
4822280,39
4822904,36
4823532,30
4824164,10
4824784,23
4825416,37
4826040,39
4826664,45
4827292,39
4827912,35
4828544,23
4829168,21
4829792,22
4830424,17
4831048,14
4831676,23
4832308,42
4832928,48
4833560,55
4834184,39
4834812,27
4835444,20
4836064,19
4836692,15
4837320,13
4837944,17
4838572,14
4839192,15
4839820,11
4840448,10
4841072,13
4841700,15
4842324,22
4842956,29
4843588,36
4844208,38
4844836,31
4845460,21
4846088,17
4846716,16
4847336,11
4847968,15
4848592,19
4849216,33
4849848,32
4850464,35
4851096,36
4851728,31
4852344,30
4852976,29
4853600,28
4854228,23
4854860,20
4855480,17
4856112,17
4856736,23
4857360,20
4857992,15
4858608,10
4859240,11
4859864,15
4860488,19
4861120,21
4861736,31
4862368,56
4863000,68
4863620,51
4864252,23
4864876,13
4865504,32
4866132,33
4866752,35
4867380,44
4868004,43
4868628,38
4869260,28
4869880,21
4870508,19
4871136,16
4871760,18
4872388,19
4873008,20
4873636,18
4874268,11
4874888,14
4875516,26
4876144,35
4876772,41
4877404,42
4878024,37
4878656,30
4879280,24
4879904,18
4880536,12
4881152,10
4881780,19
4882408,31
4883032,36
4883660,38
4884280,39
4884912,33
4885540,34
4886160,32
4886792,32
4887416,34
4888044,34
4888676,33
4889296,28
4889928,11
4890552,19
4891176,33
4891808,33
4892424,28
4893056,31
4893680,41
4894304,42
4894936,24
4895560,14
4896192,15
4896820,13
4897440,11
4898068,10
4898696,13
4899324,24
4899956,34
4900576,39
4901208,37
4901832,30
4902456,24
4903084,15
4903704,15
4904336,14
4904964,14
4905584,11
4906216,13
4906840,12
4907472,19
4908104,16
4908724,15
4909356,12
4909980,13
4910608,36
4911240,45
4911856,47
4912492,56
4913116,47
4913744,31
4914376,11
4914996,17
4915628,29
4916256,41
4916876,49
4917504,52
4918128,45
4918756,37
4919388,36
4920008,36
4920636,33
4921260,25
4921884,16
4922512,10
4923136,9
4923712,11
4924344,11
4924968,12
4925596,22
4926216,28
4926844,39
4927468,46
4928092,35
4928724,24
4929344,14
4929976,16
4930604,27
4931224,47
4931852,44
4932476,21
4933104,11
4933736,25
4934356,11
4934988,22
4935612,27
4936236,33
4936864,27
4937488,22
4938116,22
4938740,18
4939364,14
4939996,13
4940620,12
4941252,11
4941880,10
4942504,15
4943132,24
4943760,32
4944388,35
4945020,34
4945640,33
4946268,31
4946892,22
4947516,13
4948148,16
4948768,29
4949396,42
4950028,38
4950648,37
4951280,30
4951904,28
4952532,29
4953164,30
4953784,27
4954412,26
4955036,22
4955664,14
4956296,13
4956912,21
4957540,14
4958168,14
4958792,16
4959420,24
4960040,33
4960668,34
4961300,30
4961920,31
4962548,27
4963172,21
4963804,11
4964436,10
4965056,20
4965688,31
4966312,47
4966936,55
4967564,51
4968184,42
4968812,26
4969436,20
4970060,21
4970692,20
4971312,21
4971944,28
4972572,26
4973192,21
4973824,19
4974448,11
4975076,13
4975708,21
4976328,39
4976956,53
4977580,55
4978208,49
4978836,40
4979456,32
4980084,29
4980708,14
4981332,14
4981964,33
4982584,43
4983212,49
4983844,38
4984464,35
4985096,33
4985720,26
4986348,23
4986980,30
4987600,40
4988228,39
4988856,20
4989480,12
4990108,17
4990728,17
4991360,22
4991984,21
4992608,26
4993240,34
4993864,33
4994492,32
4995124,30
4995744,25
4996376,21
4997000,13
4997632,14
4998260,24
4998880,36
4999508,43
5000132,43
5000760,36
5001388,25
5002008,22
5002636,19
5003264,19
5003888,22
5004516,25
5005144,20
5005772,11
5006404,10
5007024,11
5007656,12
5008280,20
5008904,21
5009532,10
5010152,24
5010784,37
5011408,47
5012032,49
5012664,33
5013280,18
5013908,11
5014540,16
5015160,27
5015792,23
5016416,21
5017048,27
5017676,23
5018296,27
5018924,29
5019548,28
5020172,26
5020804,26
5021424,42
5022056,51
5022680,40
5023304,14
5023936,21
5024552,41
5025184,36
5025816,34
5026432,35
5027064,42
5027688,46
5028320,40
5028948,27
5029568,20
5030200,11
5030824,19
5031448,31
5032080,33
5032696,43
5033328,43
5033952,32
5034576,27
5035208,23
5035824,21
5036456,20
5037088,21
5037708,23
5038340,26
5038964,25
5039596,15
5040228,14
5040848,17
5041476,16
5042104,17
5042728,21
5043360,27
5043976,29
5044608,22
5045232,16
5045856,13
5046484,17
5047112,14
5047740,16
5048372,13
5048992,44
5049624,62
5050248,60
5050876,47
5051508,26
5052128,11
5052760,14
5053384,18
5054012,13
5054644,15
5055264,11
5055896,11
5056528,10
5057144,14
5057776,15
5058400,11
5059032,12
5059660,12
5060280,12
5060912,14
5061536,15
5062160,14
5062792,37
5063412,59
5064040,34
5064664,15
5065292,10
5065920,22
5066544,37
5067176,47
5067808,66
5068428,71
5069060,57
5069684,37
5070312,15
5070944,14
5071568,14
5072200,10
5072824,13
5073448,19
5074080,14
5074696,14
5075328,21
5075952,40
5076576,47
5077208,42
5077832,38
5078464,29
5079096,24
5079712,15
5080344,10
5080968,11
5081596,27
5082228,43
5082848,63
5083480,78
5084104,70
5084728,37
5085360,24
5085976,18
5086608,25
5087240,18
5087856,14
5088488,14
5089116,19
5089748,11
5090376,15
5090996,12
5091628,12
5092252,20
5092880,37
5093508,46
5094128,42
5094760,41
5095384,41
5096012,30
5096640,24
5097264,14
5097896,13
5098528,32
5099148,46
5099780,48
5100404,41
5101036,31
5101668,34
5102288,31
5102920,33
5103544,31
5104172,24
5104804,16
5105424,10
5106056,11
5106680,11
5107304,14
5107936,17
5108560,18
5109192,27
5109824,30
5110444,29
5111076,26
5111700,28
5112328,28
5112960,24
5113580,14
5114212,10
5114836,12
5115464,33
5116096,47
5116716,52
5117348,53
5117984,42
5118604,38
5119236,29
5119864,29
5120496,36
5121124,50
5121744,62
5122372,60
5122996,47
5123616,25
5124244,10
5124864,35
5125492,56
5126116,83
5126736,89
5127368,61
5127984,48
5128612,41
5129244,38
5129864,38
5130492,29
5131116,11
5131744,30
5132376,42
5132992,41
5133624,43
5134244,35
5134868,35
5135500,44
5136120,47
5136748,45
5137372,34
5137996,17
5138624,14
5139248,11
5139876,10
5140508,10
5141128,30
5141756,46
5142380,52
5143012,41
5143640,11
5144264,64
5144892,102
5145568,91
5146192,64
5146820,37
5147440,19
5148068,10
5148700,22
5149320,39
5149948,48
5150572,52
5151204,49
5151836,25
5152456,14
5153084,13
5153708,17
5154332,17
5154964,17
5155584,18
5156212,11
5156836,11
5157460,12
5158092,10
5158712,17
5159344,17
5159972,17
5160592,21
5161224,27
5161844,32
5162476,37
5163104,25
5163728,13
5164356,10
5164980,19
5165604,46
5166236,58
5166856,62
5167484,50
5168108,29
5168732,11
5169364,15
5169988,17
5170616,21
5171248,26
5171864,33
5172492,30
5173116,27
5173744,13
5174376,19
5174996,44
5175624,47
5176248,51
5176872,50
5177504,47
5178124,37
5178752,26
5179376,21
5180000,14
5180628,13
5181256,25
5181884,32
5182516,49
5183136,57
5183768,57
5184392,51
5185020,41
5185652,18
5186272,13
5186900,14
5187524,25
5188148,28
5188780,28
5189400,22
5190028,17
5190656,17
5191280,15
5191908,15
5192536,36
5193164,41
5193796,58
5194416,66
5195044,44
5195672,43
5196296,33
5196928,10
5197544,13
5198176,21
5198800,24
5199424,22
5200052,34
5200672,36
5201300,45
5201932,40
5202552,41
5203180,32
5203804,21
5204436,17
5205068,11
5205688,11
5206316,10
5206944,10
5207568,12
5208196,16
5208816,16
5209444,13
5210072,16
5210696,17
5211324,26
5211944,30
5212576,26
5213204,27
5213824,30
5214456,11
5215080,17
5215708,43
5216340,76
5216960,97
5217588,93
5218216,65
5218840,20
5219468,32
5220088,50
5220716,32
5221344,18
5221968,11
5222600,10
5223216,11
5223844,10
5224476,10
5225096,13
5225724,26
5226348,32
5226980,46
5227608,46
5228232,32
5228860,21
5229484,17
5230108,11
5230740,12
5231360,23
5231988,32
5232616,39
5233240,46
5233868,50
5234488,47
5235116,40
5235748,31
5236368,26
5237000,23
5237624,27
5238256,26
5238884,15
5239504,11
5240136,12
5240760,12
5241384,14
5242016,22
5242632,35
5243264,44
5243888,48
5244508,37
5245140,27
5245764,23
5246392,23
5247020,11
5247640,9
5248220,15
5248844,29
5249472,30
5250100,35
5250720,45
5251348,50
5251972,56
5252600,52
5253228,44
5253848,21
5254476,13
5255100,16
5255720,14
5256352,15
5256968,13
5257596,13
5258220,10
5258844,16
5259472,30
5260096,44
5260724,43
5261356,32
5261976,24
5262604,16
5263228,18
5263860,31
5264488,52
5265112,68
5265740,63
5266364,37
5266988,19
5267616,10
5268240,11
5268868,13
5269492,13
5270116,22
5270744,29
5271368,23
5272000,14
5272628,10
5273248,11
5273876,11
5274500,16
5275132,26
5275760,32
5276380,37
5277008,40
5277632,37
5278256,36
5278884,27
5279504,25
5280132,13
5280756,9
5281328,17
5281956,32
5282576,39
5283204,48
5283828,47
5284452,37
5285080,31
5285704,27
5286332,29
5286960,28
5287584,25
5288212,24
5288836,15
5289464,11
5290092,10
5290712,12
5291340,10
5291964,16
5292588,25
5293220,30
5293840,37
5294468,39
5295092,32
5295716,22
5296348,16
5296968,12
5297600,12
5298228,10
5298848,14
5299476,45
5300100,55
5300732,59
5301360,53
5301980,40
5302608,32
5303232,31
5303856,32
5304484,15
5305104,11
5305732,25
5306356,17
5306980,11
5307608,23
5308232,45
5308864,64
5309492,58
5310112,45
5310740,36
5311368,35
5311996,25
5312628,16
5313248,15
5313876,13
5314500,22
5315128,41
5315756,49
5316376,45
5317004,32
5317632,24
5318256,17
5318888,17
5319512,26
5320140,27
5320772,28
5321392,25
5322024,19
5322648,15
5323272,11
5323900,11
5324520,19
5325152,25
5325772,32
5326396,30
5327024,34
5327648,38
5328276,36
5328904,32
5329528,25
5330156,11
5330780,17
5331408,26
5332036,28
5332656,34
5333284,41
5333908,44
5334536,38
5335164,30
5335784,27
5336412,26
5337036,25
5337660,31
5338288,32
5338912,29
5339540,15
5340172,10
5340792,17
5341420,31
5342044,32
5342676,29
5343308,36
5343928,35
5344560,35
5345184,35
5345808,33
5346436,23
5347056,13
5347684,9
5348256,18
5348888,37
5349516,49
5350136,51
5350768,42
5351388,39
5352012,57
5352644,64
5353264,59
5353892,44
5354524,20
5355144,24
5355776,31
5356400,28
5357028,22
5357660,12
5358280,17
5358908,25
5359532,37
5360160,44
5360788,46
5361408,45
5362036,39
5362660,23
5363284,11
5363916,30
5364536,40
5365164,48
5365796,24
5366416,20
5367044,22
5367668,27
5368296,31
5368928,28
5369544,25
5370176,25
5370800,21
5371424,15
5372052,12
5372672,11
5373304,10
5373928,11
5374552,12
5375184,19
5375800,25
5376432,30
5377064,35
5377680,33
5378308,25
5378932,19
5379560,15
5380188,11
5380808,11
5381436,14
5382060,28
5382684,30
5383312,37
5383936,41
5384564,52
5385188,53
5385812,55
5386444,42
5387064,19
5387692,14
5388324,10
5388944,11
5389572,10
5390196,11
5390828,10
5391456,12
5392076,16
5392704,32
5393328,51
5393952,52
5394580,43
5395200,35
5395828,21
5396452,12
5397080,12
5397708,19
5398328,28
5398960,38
5399588,48
5400208,65
5400836,71
5401460,69
5402092,68
5402720,46
5403344,16
5403972,27
5404600,44
5405224,51
5405852,21
5406472,12
5407104,12
5407728,16
5408352,27
5408980,29
5409600,25
5410232,29
5410860,31
5411480,31
5412108,22
5412732,15
5413364,11
5413992,10
5414616,17
5415244,28
5415868,40
5416492,38
5417124,48
5417744,56
5418372,56
5418996,51
5419620,50
5420252,38
5420876,23
5421504,12
5422136,30
5422756,38
5423384,22
5424008,17
5424636,11
5425268,14
5425888,18
5426520,26
5427144,40
5427768,43
5428396,32
5429016,22
5429644,15
5430268,14
5430896,26
5431524,35
5432148,39
5432780,32
5433412,25
5434032,25
5434660,20
5435284,35
5435912,42
5436540,36
5437160,31
5437792,28
5438416,24
5439040,13
5439668,10
5440288,19
5440916,24
5441544,26
5442168,34
5442796,37
5443420,27
5444052,21
5444680,13
5445296,15
5445924,15
5446548,19
5447172,17
5447804,12
5448424,12
5449052,13
5449676,22
5450296,41
5450928,42
5451544,33
5452172,27
5452796,22
5453424,17
5454052,17
5454676,16
5455308,17
5455936,11
5456560,12
5457188,10
5457812,15
5458440,23
5459068,25
5459688,35
5460316,43
5460940,39
5461564,36
5462196,24
5462816,19
5463444,10
5464076,12
5464696,22
5465324,36
5465952,39
5466580,37
5467212,35
5467832,34
5468464,33
5469088,30
5469712,27
5470340,29
5470960,29
5471588,29
5472216,31
5472840,27
5473468,21
5474088,11
5474716,19
5475348,44
5475968,58
5476600,51
5477224,39
5477852,28
5478484,30
5479104,31
5479732,24
5480356,11
5480980,17
5481612,24
5482232,36
5482860,45
5483488,41
5484112,39
5484740,36
5485360,37
5485988,43
5486620,46
5487240,50
5487872,41
5488496,29
5489124,11
5489756,10
5490376,17
5491004,26
5491632,22
5492256,32
5492884,43
5493504,52
5494136,44
5494760,41
5495384,35
5496012,29
5496632,23
5497264,15
5497892,17
5498512,34
5499144,41
5499768,50
5500400,55
5501028,46
5501648,38
5502280,28
5502904,17
5503528,21
5504160,14
5504776,12
5505404,10
5506028,11
5506652,12
5507284,13
5507908,12
5508536,13
5509168,27
5509784,40
5510416,45
5511040,40
5511668,42
5512300,38
5512920,25
5513552,11
5514176,17
5514800,27
5515432,33
5516048,36
5516680,37
5517304,39
5517928,39
5518560,38
5519184,32
5519816,30
5520448,25
5521064,21
5521692,11
5522320,11
5522948,13
5523580,18
5524200,22
5524828,21
5525452,11
5526080,20
5526708,37
5527328,48
5527960,56
5528592,42
5529212,19
5529840,12
5530464,10
5531096,11
5531724,16
5532344,22
5532972,35
5533596,46
5534220,42
5534852,35
5535472,31
5536104,24
5536724,16
5537348,19
5537980,20
5538600,19
5539228,19
5539860,22
5540480,21
5541108,13
5541732,23
5542364,49
5542996,50
5543616,49
5544248,47
5544872,42
5545496,33
5546124,20
5546744,10
5547376,13
5548000,21
5548624,27
5549256,35
5549872,51
5550504,54
5551136,48
5551752,46
5552384,30
5553008,15
5553636,27
5554268,14
5554888,13
5555520,17
5556144,15
5556768,15
5557400,13
5558016,10
5558648,15
5559272,26
5559896,41
5560528,46
5561144,44
5561776,37
5562404,27
5563024,15
5563656,11
5564280,20
5564912,27
5565540,35
5566160,40
5566792,40
5567416,37
5568040,28
5568672,22
5569288,23
5569916,19
5570544,16
5571168,15
5571796,16
5572424,17
5573052,17
5573684,24
5574304,35
5574936,19
5575560,23
5576188,56
5576820,60
5577440,57
5578072,54
5578696,32
5579320,19
5579952,15
5580568,21
5581200,29
5581828,22
5582448,22
5583076,25
5583700,33
5584332,39
5584964,38
5585584,30
5586216,24
5586840,21
5587464,21
5588092,17
5588712,12
5589344,10
5589968,11
5590592,13
5591224,13
5591840,15
5592472,28
5593100,38
5593720,43
5594352,39
5594976,29
5595608,20
5596236,16
5596856,10
5597484,15
5598112,25
5598736,33
5599368,38
5599984,38
5600616,34
5601240,28
5601864,27
5602496,25
5603112,22
5603744,26
5604372,20
5604992,17
5605620,17
5606244,12
5606876,10
5607508,13
5608128,12
5608756,11
5609380,18
5610004,23
5610636,25
5611256,34
5611888,37
5612512,33
5613136,19
5613764,10
5614384,19
5615016,25
5615644,30
5616264,30
5616892,34
5617516,39
5618148,45
5618780,47
5619400,41
5620028,22
5620652,14
5621276,12
5621908,10
5622528,13
5623156,11
5623784,13
5624408,21
5625036,22
5625656,12
5626284,11
5626916,22
5627536,29
5628168,24
5628792,21
5629424,20
5630056,20
5630672,27
5631304,11
5631932,25
5632556,41
5633188,42
5633808,31
5634436,22
5635060,21
5635684,23
5636312,23
5636936,20
5637568,18
5638196,13
5638816,13
5639444,12
5640068,11
5640696,11
5641328,16
5641944,23
5642576,29
5643200,31
5643824,33
5644452,29
5645072,25
5645700,17
5646324,12
5646948,18
5647580,22
5648204,33
5648836,43
5649464,38
5650080,25
5650712,21
5651336,18
5651964,22
5652596,34
5653216,35
5653844,29
5654468,22
5655092,13
5655720,10
5656344,13
5656972,17
5657596,11
5658224,13
5658856,15
5659480,22
5660108,37
5660740,42
5661360,43
5661988,40
5662616,33
5663240,20
5663868,10
5664488,21
5665116,35
5665740,43
5666364,45
5666996,34
5667616,33
5668248,33
5668876,32
5669496,32
5670128,29
5670752,26
5671380,21
5672012,18
5672632,15
5673264,12
5673888,11
5674512,20
5675140,26
5675760,27
5676392,28
5677016,21
5677640,19
5678268,17
5678888,15
5679516,16
5680148,19
5680768,14
5681396,11
5682024,47
5682652,78
5683284,78
5683904,42
5684532,14
5685156,30
5685780,16
5686412,12
5687032,15
5687664,25
5688288,28
5688912,31
5689544,17
5690160,11
5690792,23
5691420,32
5692040,40
5692672,42
5693296,40
5693928,40
5694556,38
5695176,32
5695808,25
5696432,12
5697056,12
5697684,16
5698304,27
5698932,37
5699556,29
5700184,27
5700812,32
5701432,32
5702064,35
5702692,41
5703312,35
5703944,35
5704568,35
5705200,38
5705828,34
5706448,23
5707076,11
5707704,17
5708328,34
5708960,45
5709576,55
5710208,61
5710832,47
5711456,37
5712088,31
5712712,21
5713340,17
5713972,10
5714592,21
5715224,33
5715848,43
5716476,47
5717108,42
5717728,36
5718360,28
5718988,25
5719612,24
5720244,22
5720864,16
5721496,10
5722128,10
5722744,10
5723376,10
5724000,11
5724632,11
5725260,13
5725880,18
5726512,34
5727136,43
5727764,37
5728396,32
5729016,24
5729648,12
5730272,13
5730896,21
5731528,30
5732148,39
5732780,46
5733412,40
5734032,35
5734668,36
5735288,40
5735920,41
5736548,34
5737168,29
5737796,17
5738420,11
5739044,20
5739676,22
5740296,22
5740924,28
5741548,30
5742176,31
5742804,27
5743428,31
5744060,41
5744688,31
5745304,21
5745936,21
5746560,13
5747188,12
5747820,22
5748440,29
5749068,36
5749696,47
5750320,56
5750948,49
5751568,44
5752200,37
5752824,26
5753448,24
5754080,17
5754704,11
5755336,11
5755964,13
5756584,13
5757216,13
5757840,17
5758468,23
5759100,24
5759720,29
5760352,35
5760976,34
5761600,28
5762228,25
5762848,15
5763476,14
5764108,19
5764728,25
5765356,31
5765980,36
5766612,40
5767240,40
5767856,35
5768484,37
5769108,36
5769736,32
5770364,29
5770984,27
5771612,22
5772236,16
5772860,11
5773492,10
5774112,13
5774740,25
5775372,38
5775992,47
5776620,45
5777244,29
5777876,23
5778504,18
5779128,15
5779756,11
5780384,11
5781008,11
5781636,10
5782256,25
5782884,37
5783508,51
5784136,54
5784764,51
5785384,35
5786016,32
5786644,24
5787264,25
5787892,11
5788516,13
5789148,14
5789776,20
5790396,15
5791024,12
5791652,16
5792276,28
5792904,44
5793528,52
5794156,39
5794784,29
5795408,21
5796036,16
5796656,11
5797284,20
5797916,24
5798536,24
5799164,30
5799788,36
5800420,41
5801048,36
5801672,36
5802300,36
5802924,32
5803548,26
5804180,18
5804800,15
5805428,28
5806052,37
5806680,40
5807308,27
5807928,13
5808560,46
5809188,50
5809808,43
5810436,36
5811064,27
5811696,23
5812324,30
5812944,32
5813576,27
5814200,17
5814824,11
5815456,23
5816072,32
5816704,31
5817328,40
5817952,46
5818580,38
5819208,35
5819836,40
5820468,38
5821088,34
5821720,18
5822344,11
5822972,11
5823604,10
5824224,12
5824852,16
5825476,11
5826100,13
5826732,24
5827352,55
5827980,83
5828608,69
5829232,53
5829860,23
5830488,10
5831116,19
5831748,31
5832368,32
5833000,35
5833624,38
5834248,42
5834876,40
5835496,34
5836128,27
5836756,21
5837380,21
5838012,22
5838632,25
5839260,22
5839892,16
5840512,11
5841140,18
5841764,31
5842396,51
5843028,48
5843648,39
5844276,34
5844900,28
5845524,21
5846156,11
5846776,17
5847408,27
5848032,33
5848656,31
5849284,30
5849904,30
5850536,31
5851164,26
5851784,27
5852416,27
5853040,23
5853668,21
5854300,18
5854920,15
5855552,18
5856176,15
5856800,11
5857428,11
5858048,18
5858676,41
5859300,51
5859928,45
5860556,40
5861176,33
5861808,30
5862436,22
5863056,11
5863684,13
5864308,19
5864940,29
5865572,40
5866192,50
5866824,52
5867448,42
5868072,35
5868704,29
5869320,22
5869952,22
5870576,23
5871200,28
5871832,27
5872456,24
5873088,29
5873716,42
5874336,22
5874968,24
5875592,54
5876224,64
5876856,55
5877472,54
5878104,55
5878728,48
5879352,33
5879984,14
5880604,14
5881232,30
5881864,38
5882488,40
5883120,47
5883744,33
5884376,26
5885008,32
5885628,30
5886256,23
5886884,17
5887508,19
5888140,20
5888760,19
5889388,14
5890012,14
5890636,10
5891268,16
5891888,25
5892516,43
5893148,55
5893768,41
5894396,31
5895024,20
5895656,19
5896288,13
5896904,10
5897536,17
5898160,18
5898784,29
5899412,48
5900032,53
5900660,35
5901288,28
5901908,31
5902540,35
5903160,47
5903792,47
5904420,39
5905040,27
5905668,11
5906292,24
5906924,30
5907556,41
5908176,49
5908804,35
5909428,31
5910052,32
5910684,41
5911304,36
5911936,29
5912560,15
5913184,14
5913816,29
5914440,41
5915068,43
5915700,46
5916320,46
5916952,62
5917576,62
5918208,53
5918836,49
5919456,27
5920088,23
5920708,22
5921332,35
5921964,36
5922584,21
5923212,15
5923836,12
5924464,19
5925092,26
5925720,29
5926348,33
5926980,26
5927600,22
5928232,17
5928856,15
5929480,11
5930108,10
5930728,17
5931360,28
5931984,33
5932608,33
5933240,35
5933856,35
5934488,33
5935116,31
5935736,30
5936368,33
5936992,34
5937624,29
5938252,25
5938872,19
5939504,12
5940128,11
5940752,10
5941380,16
5942000,34
5942628,42
5943252,48
5943876,53
5944508,37
5945128,30
5945756,20
5946388,10
5947008,18
5947636,24
5948264,22
5948892,23
5949524,26
5950144,13
5950776,15
5951400,16
5952024,23
5952652,18
5953272,20
5953904,29
5954528,37
5955152,16
5955784,11
5956400,15
5957028,24
5957660,26
5958280,15
5958912,17
5959536,40
5960168,47
5960796,42
5961416,43
5962048,37
5962672,22
5963296,11
5963924,18
5964544,23
5965176,20
5965800,20
5966424,35
5967052,38
5967672,45
5968304,51
5968932,44
5969552,32
5970184,22
5970808,15
5971436,11
5972068,10
5972688,12
5973320,16
5973944,19
5974568,15
5975200,13
5975816,24
5976448,39
5977072,41
5977696,43
5978324,34
5978952,27
5979580,14
5980212,11
5980832,19
5981460,27
5982084,32
5982716,35
5983348,41
5983968,45
5984600,45
5985224,41
5985852,41
5986480,39
5987100,27
5987732,21
5988360,12
5988984,10
5989616,11
5990240,13
5990872,13
5991500,13
5992120,32
5992748,37
5993376,45
5994000,44
5994632,25
5995248,18
5995880,15
5996504,13
5997128,19
5997760,11
5998376,13
5999008,21
5999640,21
6000260,33
6000888,45
6001512,45
6002140,33
6002772,22
6003392,15
6004020,18
6004644,17
6005268,12
6005900,10
6006520,10
6007148,10
6007776,16
6008400,27
6009028,37
6009648,39
6010276,34
6010908,30
6011528,28
6012160,25
6012784,21
6013416,10
6014048,15
6014664,25
6015296,41
6015924,42
6016548,48
6017180,48
6017800,54
6018432,52
6019056,44
6019680,31
6020312,21
6020936,14
6021568,10
6022196,10
6022816,11
6023444,11
6024068,13
6024700,24
6025332,37
6025952,43
6026584,51
6027208,57
6027832,47
6028464,33
6029084,20
6029712,11
6030344,19
6030964,27
6031592,34
6032220,43
6032848,46
6033480,44
6034100,36
6034728,31
6035356,28
6035980,21
6036612,12
6037232,13
6037864,11
6038488,11
6039112,14
6039744,12
6040364,11
6040992,12
6041624,20
6042248,29
6042876,29
6043500,21
6044132,17
6044764,21
6045384,21
6046016,16
6046640,13
6047264,11
6047896,26
6048516,31
6049144,48
6049768,52
6050396,46
6051024,45
6051652,35
6052284,20
6052912,33
6053536,43
6054168,30
6054792,19
6055424,10
6056052,18
6056672,25
6057304,30
6057928,38
6058552,42
6059184,45
6059804,48
6060436,49
6061068,28
6061688,14
6062320,20
6062944,19
6063576,15
6064204,11
6064824,15
6065452,23
6066080,25
6066704,29
6067336,29
6067952,25
6068584,23
6069208,24
6069832,22
6070460,19
6071080,14
6071712,12
6072344,11
6072960,10
6073592,10
6074216,12
6074848,17
6075480,20
6076096,24
6076728,25
6077356,23
6077980,20
6078612,14
6079232,12
6079864,13
6080492,17
6081116,16
6081748,16
6082372,27
6083004,43
6083632,43
6084252,43
6084880,43
6085504,35
6086136,15
6086768,14
6087384,14
6088016,11
6088636,13
6089264,11
6089892,10
6090512,15
6091144,12
6091768,23
6092392,38
6093024,43
6093648,48
6094276,48
6094908,40
6095528,27
6096160,11
6096784,21
6097412,33
6098044,32
6098664,33
6099296,37
6099920,40
6100544,39
6101176,32
6101792,28
6102424,35
6103056,33
6103672,39
6104304,36
6104928,34
6105560,36
6106192,23
6106808,17
6107440,38
6108064,46
6108688,61
6109320,60
6109936,58
6110568,50
6111196,40
6111820,27
6112452,19
6113072,11
6113704,13
6114332,28
6114952,37
6115584,42
6116212,44
6116844,37
6117472,29
6118096,30
6118728,27
6119352,24
6119980,28
6120612,28
6121232,20
6121864,11
6122488,12
6123112,18
6123744,21
6124368,26
6125000,23
6125628,19
6126248,23
6126880,23
6127504,29
6128136,25
6128768,22
6129384,11
6130016,23
6130640,46
6131264,67
6131896,62
6132516,58
6133148,35
6133780,16
6134400,33
6135032,35
6135656,35
6136288,17
6136920,18
6137540,29
6138172,33
6138800,26
6139424,21
6140056,19
6140676,13
6141308,19
6141936,34
6142560,42
6143192,43
6143820,34
6144456,25
6145084,20
6145704,18
6146332,10
6146956,17
6147588,31
6148216,40
6148832,41
6149464,45
6150088,34
6150712,23
6151340,23
6151960,33
6152592,34
6153216,36
6153840,38
6154468,25
6155092,30
6155724,47
6156356,36
6156976,18
6157604,11
6158228,41
6158856,58
6159484,74
6160104,81
6160732,59
6161356,49
6161980,32
6162612,11
6163232,13
6163860,21
6164492,26
6165112,25
6165740,33
6166368,40
6166996,40
6167628,32
6168248,34
6168876,34
6169504,25
6170128,19
6170756,17
6171376,11
6172004,11
6172628,10
6173256,10
6173884,10
6174504,17
6175136,25
6175764,34
6176384,43
6177012,37
6177640,29
6178268,20
6178900,17
6179520,11
6180152,21
6180776,45
6181400,64
6182032,65
6182648,46
6183280,18
6183904,12
6184528,11
6185160,14
6185776,15
6186404,15
6187036,16
6187656,14
6188284,14
6188912,13
6189540,10
6190172,10
6190792,15
6191424,21
6192048,30
6192672,34
6193304,34
6193920,31
6194552,28
6195176,23
6195800,16
6196432,10
6197052,17
6197680,36
6198312,47
6198932,54
6199564,61
6200188,50
6200820,33
6201448,50
6202068,71
6202700,63
6203324,26
6203948,23
6204580,52
6205200,51
6205832,33
6206456,12
6207080,10
6207712,17
6208336,27
6208964,33
6209596,36
6210216,34
6210848,27
6211472,21
6212100,16
6212732,10
6213352,11
6213984,17
6214608,26
6215232,28
6215864,29
6216480,30
6217112,29
6217744,25
6218360,23
6218992,22
6219616,24
6220248,31
6220880,26
6221496,25
6222128,22
6222752,20
6223376,11
6224008,10
6224624,15
6225256,27
6225880,38
6226504,32
6227136,30
6227756,21
6228384,14
6229016,13
6229636,10
6230264,10
6230892,10
6231520,10
6232152,16
6232772,29
6233404,36
6234028,39
6234652,28
6235284,18
6235904,16
6236536,17
6237160,13
6237784,17
6238416,28
6239032,35
6239664,29
6240296,25
6240912,13
6241544,11
6242168,14
6242796,29
6243428,57
6244048,76
6244676,63
6245304,57
6245928,34
6246560,10
6247176,26
6247804,35
6248428,39
6249052,36
6249684,37
6250304,44
6250936,55
6251568,67
6252184,71
6252812,69
6253436,54
6254068,19
6254700,24
6255320,34
6255952,53
6256576,50
6257200,36
6257828,22
6258448,20
6259080,22
6259704,41
6260328,42
6260960,39
6261584,31
6262216,19
6262844,10
