tempo_arduino_micro_s,valor_ADC
29276,25
29804,23
30324,2
30852,17
31372,23
31900,27
32420,26
32948,25
33468,25
33996,25
34516,17
35044,13
35564,14
36092,21
36612,22
37140,2
37660,18
38188,16
38708,11
39236,1
39756,11
40284,11
40804,16
41332,12
41852,1
42380,12
42900,11
43420,12
43940,15
44460,14
44980,14
45500,14
46020,14
46540,14
47060,11
47580,1
48100,1
48620,11
49140,1
49660,1
50188,11
50708,11
51236,14
51756,15
52284,15
52804,14
53332,14
53852,15
54380,14
54900,15
55428,15
55948,16
56476,17
56996,12
57524,11
58044,1
58572,1
59092,11
59620,1
60140,11
60668,12
61188,14
61716,14
62236,15
62764,14
63284,14
63812,1
64336,1
64860,1
65380,1
65908,1
66428,11
66956,14
67476,16
67996,14
68516,14
69036,13
69556,13
70076,13
70600,14
71116,14
71640,16
72160,13
72676,14
73196,14
73716,13
74236,16
74764,15
75284,12
75812,11
76336,11
76860,11
77380,13
77908,14
78428,18
78956,2
79480,19
80004,17
80524,11
81052,1
81572,1
82100,15
82620,21
83148,25
83668,25
84196,24
84716,18
85244,15
85764,18
86292,18
86812,17
87340,16
87860,15
88388,15
88908,11
89436,12
89960,12
90484,14
91004,14
91532,13
92052,11
92572,11
93092,11
93612,11
94132,14
94652,12
95176,13
95696,14
96212,14
96732,14
97252,12
97772,12
98292,12
98812,1
99340,9
99804,1
100336,1
100896,12
101480,14
102048,18
102632,17
103200,15
103776,16
104344,17
104912,17
105488,17
106056,17
106640,11
107208,12
107784,12
108352,11
108936,11
109504,1
110072,15
110656,21
111224,2
111808,18
112380,15
112960,15
113528,12
114104,1
114672,11
115248,12
115832,16
116400,12
116984,13
117552,11
118136,9
118652,11
119232,16
119800,18
120380,21
120960,26
121528,26
122112,19
122680,15
123264,9
123780,1
124360,11
124936,13
125504,15
126088,13
126656,11
127240,12
127812,14
128392,15
128968,15
129536,16
130112,17
130680,11
131264,11
131832,9
132356,1
132928,11
133512,1
134080,11
134656,2
135240,16
135808,16
136392,14
136960,16
137544,16
138116,15
138696,12
139272,11
139840,11
140424,11
140992,1
141576,12
142144,18
142728,16
143296,14
143876,12
144456,17
145024,18
145608,16
146176,16
146760,14
147328,12
147912,11
148488,9
149004,12
149584,14
150156,18
150736,16
151308,15
151888,15
152460,14
153040,12
153616,16
154184,16
154760,15
155328,11
155912,12
156484,1
157064,11
157632,12
158212,12
158792,11
159360,12
159944,11
160516,12
161096,14
161664,15
162248,16
162824,16
163392,15
163976,11
164544,12
165120,13
165688,13
166264,1
166832,1
167408,12
167984,17
168552,22
169136,22
169704,25
170280,21
170848,15
171424,14
171992,11
172572,14
173152,16
173720,11
174304,13
174872,11
175456,15
176024,11
176600,11
177176,12
177744,24
178328,32
178896,24
179480,15
180048,16
180624,13
181192,11
181768,11
182352,19
182924,18
183504,12
184076,1
184656,1
185224,11
185800,15
186376,17
186944,22
187528,22
188096,21
188680,15
189248,15
189832,18
190400,18
190976,19
191560,14
192132,11
192712,17
193280,21
193864,21
194432,16
195016,16
195592,22
196160,17
196744,14
197316,21
197896,23
198468,2
199048,16
199616,14
200196,18
200776,18
201348,15
201928,11
202496,15
203080,12
203652,18
204232,16
204808,16
205376,15
205952,14
206520,13
207104,11
207672,11
208256,1
208824,12
209392,11
209968,12
210536,14
211112,14
211684,15
212264,14
212832,15
213416,13
213984,11
214564,15
215144,15
215712,16
216296,13
216864,16
217448,14
218016,11
218592,16
219176,22
219748,15
220328,15
220896,17
221480,15
222048,11
222632,12
223204,17
223776,16
224360,15
224928,14
225512,12
226080,14
226664,11
227232,14
227808,12
228392,14
228964,16
229544,24
230116,14
230696,11
231264,15
231848,19
232416,19
232992,16
233576,13
234148,13
234728,13
235300,15
235880,18
236448,16
237024,15
237608,14
238176,14
238760,11
239332,11
239912,1
240484,11
241064,1
241632,11
242208,13
242792,11
243364,11
243944,13
244516,13
245096,15
245668,15
246244,14
246824,15
247392,18
247976,18
248548,18
249128,16
249696,13
250280,12
250848,12
251428,14
252008,13
252576,17
253160,16
253732,15
254312,14
254884,15
255460,14
256040,16
256608,12
257192,11
257760,13
258336,19
258904,28
259488,3
260056,35
260632,27
261216,25
261784,29
262360,17
262932,25
263512,39
264084,44
264656,33
265232,23
265800,16
266384,13
266952,14
267536,14
268104,14
268688,11
269256,15
269832,14
270416,15
270984,15
271568,16
272136,17
272720,17
273288,11
273872,15
274448,16
275016,16
275600,12
276168,15
276752,2
277324,15
277904,13
278476,14
279048,15
279632,15
280204,14
280784,12
281356,9
281884,11
282456,14
283040,12
283608,13
284184,16
284768,13
285340,15
285920,17
286492,12
287072,13
287640,15
288216,15
288800,11
289368,1
289944,11
290512,12
291096,13
291668,12
292248,11
292816,13
293392,12
293976,14
294548,13
295128,15
295700,14
296280,16
296852,14
297428,1
298008,11
298576,11
299160,11
299732,11
300312,17
300884,16
301464,13
302036,15
302612,21
303192,2
303764,19
304344,17
304916,15
305496,11
306068,12
306644,15
307224,18
307792,17
308368,14
308936,11
309520,1
310092,12
310672,17
311244,19
311820,15
312400,16
312972,15
313552,15
314124,19
314704,21
315276,22
315856,17
316432,16
317004,14
317584,12
318156,1
318736,12
319316,16
319896,16
320476,15
321048,15
321632,13
322200,11
322784,12
323352,11
323936,9
324456,1
325032,1
325604,12
326176,12
326760,14
327332,15
327912,15
328480,16
329064,15
329632,15
330200,17
330776,2
331344,14
331928,11
332496,13
333080,14
333648,12
334224,15
334792,16
335368,17
335952,16
336524,16
337104,16
337672,18
338256,17
338824,16
339408,15
339984,12
340552,1
341136,13
341704,18
342288,17
342856,11
343440,11
344008,16
344584,14
345168,15
345740,14
346320,14
346888,1
347472,16
348044,16
348624,11
349200,1
349768,13
350352,16
350924,14
351504,12
352076,17
352656,18
353224,19
353804,18
354384,16
354956,13
355536,9
356056,11
356632,1
357204,11
357784,13
358356,11
358932,13
359512,19
360084,18
360664,16
361232,13
361816,15
362384,17
362960,18
363544,15
364112,17
364696,13
365268,12
365848,11
366420,1
367000,9
367520,1
368092,1
368672,11
369240,17
369824,15
370392,15
370976,15
371548,14
372128,1
372696,1
373276,12
373856,11
374424,11
375008,1
375580,12
376160,16
376740,24
377316,22
377896,15
378468,15
379048,18
379620,19
380200,16
380768,14
381352,1
381932,11
382508,13
383088,15
383660,18
384244,2
384816,15
385400,14
385968,14
386544,14
387128,19
387700,15
388280,18
388852,18
389432,17
390004,19
390584,17
391152,12
391732,11
392312,1
392884,12
393464,11
394036,14
394616,17
395188,18
395764,14
396344,18
396916,16
397496,11
398068,11
398648,16
399228,18
399808,19
400380,22
400952,19
401536,14
402108,14
402688,17
403256,16
403840,16
404408,21
404988,2
405568,21
406140,15
406720,11
407292,1
407872,9
408392,12
408968,12
409540,11
410116,15
410696,18
411264,15
411848,18
412416,19
413000,14
413568,11
414152,1
414728,22
415296,23
415872,2
416444,15
417024,14
417592,13
418176,11
418744,15
419320,14
419904,18
420472,18
421056,2
421624,17
422208,13
422776,1
423360,11
423928,11
424508,1
425088,12
425656,11
426240,11
426808,15
427392,18
427964,16
428540,14
429120,15
429688,15
430272,11
430844,18
431424,2
431996,15
432576,15
433160,12
433732,15
434312,16
434884,15
435464,17
436032,15
436616,16
437188,14
437764,14
438344,11
438916,11
439496,12
440068,11
440648,9
441164,1
441744,11
442312,11
442892,11
443472,11
444044,16
444624,15
445196,16
445776,14
446344,15
446928,13
447504,14
448076,11
448656,1
449224,11
449808,1
450376,14
450960,13
451528,15
452104,16
452688,13
453260,14
453840,14
454408,15
454992,13
455564,16
456144,19
456720,18
457292,14
457872,15
458444,14
459024,12
459596,11
460176,11
460748,15
461324,14
461904,15
462476,14
463056,15
463628,12
464208,14
464776,16
465360,15
465936,16
466504,17
467088,11
467660,1
468240,12
468812,14
469392,12
469964,14
470540,18
471120,14
471692,18
472272,2
472844,19
473424,13
473996,13
474576,11
475152,12
475724,17
476304,21
476876,24
477456,2
478028,15
478608,16
479188,14
479764,18
480344,16
480916,12
481496,11
482064,15
482648,15
483216,25
483792,21
484376,15
484948,19
485528,21
486100,16
486680,2
487248,2
487832,17
488404,14
488976,11
489560,12
490132,21
490712,15
491292,14
491872,18
492448,11
493024,12
493608,11
494176,15
494760,15
495328,14
495912,14
496484,13
497064,9
497584,9
498104,11
498676,15
499252,17
499832,22
500404,23
500984,21
501556,16
502136,16
502716,12
503292,15
503872,19
504444,15
505024,11
505596,1
506176,1
506756,1
507336,17
507920,15
508492,1
509072,11
509644,12
510224,13
510796,14
511376,15
511956,14
512532,15
513112,14
513680,13
514264,17
514832,19
515416,17
515984,14
516560,2
517144,24
517712,21
518296,14
518868,15
519448,12
520016,14
520600,2
521168,2
521744,11
522328,14
522896,14
523480,14
524052,13
524632,16
525204,13
525776,11
526360,11
526932,15
527512,18
528084,18
528664,16
529232,14
529816,13
530388,17
530964,2
531544,14
532116,11
532696,13
533264,18
533848,2
534416,18
534992,15
535576,15
536148,15
536728,17
537300,15
537880,15
538448,15
539032,12
539604,1
540176,12
540760,11
541332,1
541912,12
542484,11
543064,11
543636,14
544212,12
544792,15
545364,15
545944,15
546512,13
547096,11
547668,1
548248,9
548768,11
549340,16
549920,1
550492,15
551072,14
551644,12
552224,19
552804,21
553384,23
553956,31
554532,23
555112,15
555684,13
556264,11
556836,13
557416,11
557988,12
558564,18
559144,15
559716,12
560296,14
560868,13
561448,14
562020,15
562600,14
563172,11
563748,1
564328,11
564896,11
565480,23
566052,17
566632,15
567204,11
567776,11
568360,13
568928,2
569512,24
570084,18
570664,15
571236,15
571816,12
572388,1
572964,11
573544,1
574116,15
574696,15
575268,14
575848,13
576420,12
576992,15
577576,14
578148,16
578728,15
579296,15
579880,15
580448,18
581032,17
581604,12
582176,13
582760,1
583332,1
583912,11
584492,1
585072,13
585644,14
586216,19
586800,19
587372,18
587952,19
588524,19
589104,17
589684,13
590264,1
590836,1
591412,1
591992,19
592564,24
593144,25
593716,18
594296,14
594876,14
595452,16
596032,2
596604,21
597184,19
597756,12
598340,11
598916,16
599496,19
600080,18
600652,15
601232,14
601804,14
602384,14
602956,16
603536,19
604116,15
604692,13
605272,11
605844,11
606424,9
606944,1
607520,1
608100,1
608680,11
609252,12
609828,19
610408,25
610980,25
611560,18
612140,16
612720,21
613300,22
613876,27
614460,21
615028,19
615608,11
616180,1
616760,1
617332,11
617912,13
618484,14
619060,14
619640,14
620212,14
620792,16
621364,15
621944,17
622516,18
623092,12
623672,11
624244,18
624824,18
625392,15
625976,11
626548,11
627128,21
627708,21
628284,16
628864,15
629436,15
630016,1
630596,1
631176,9
631696,11
632272,1
632856,11
633432,1
634012,13
634584,18
635160,22
635740,17
636320,19
636900,21
637476,22
638056,15
638632,13
639208,11
639788,12
640372,11
640944,1
641520,12
642104,15
642672,19
643256,21
643824,22
644408,17
644976,17
645560,15
646132,15
646708,13
647288,11
647856,14
648440,17
649008,22
649592,17
650164,14
650740,14
651320,13
651892,15
652472,14
653044,15
653624,15
654196,15
654776,13
655348,14
655924,11
656504,1
657072,1
657656,1
658224,11
658808,11
659376,12
659952,17
660536,17
661104,14
661688,14
662256,15
662840,15
663408,14
663992,12
664564,1
665136,11
665720,1
666288,12
666864,17
667432,22
668016,23
668584,26
669160,19
669744,14
670316,15
670896,15
671468,15
672048,11
672616,11
673192,14
673764,13
674336,11
674920,11
675492,14
676072,11
676640,11
677224,15
677792,15
678372,15
678952,15
679524,14
680104,12
680672,14
681256,14
681824,24
682408,25
682976,22
683556,16
684136,13
684708,13
685288,13
685856,12
686440,14
687008,15
687588,14
688168,11
688736,11
689320,11
689892,14
690472,18
691044,2
691624,15
692192,14
692772,29
693352,29
693924,16
694504,13
695076,18
695656,17
696228,15
696804,11
697384,1
697956,11
698536,17
699108,18
699688,16
700260,13
700840,12
701412,16
701988,2
702568,19
703140,18
703720,16
704300,17
704880,14
705448,11
706028,11
706608,11
707176,11
707760,11
708332,11
708912,11
709484,12
710064,13
710636,15
711212,18
711792,16
712364,15
712944,13
713516,1
714096,14
714676,15
715252,19
715832,21
716408,1
716984,11
717556,21
718136,24
718708,24
719288,2
719860,17
720436,15
721016,15
721588,12
722168,1
722744,12
723328,11
723896,1
724476,11
725056,15
725628,22
726208,22
726780,25
727360,12
727932,16
728512,22
729096,21
729668,15
730248,18
730820,19
731400,19
731972,17
732552,15
733132,13
733708,1
734288,1
734860,1
735440,15
736012,15
736592,15
737164,14
737744,15
738328,12
738900,1
739480,14
740052,12
740632,11
741204,14
741784,15
742356,11
742932,11
743512,15
744084,15
744664,15
745236,15
745816,16
746388,15
746964,17
747544,19
748116,2
748696,19
749268,16
749848,13
750420,11
751000,11
751572,12
752148,13
752728,14
753300,14
753880,15
754452,14
755032,11
755612,12
756188,11
756768,1
757340,15
757920,16
758492,13
759072,11
759644,13
760224,14
760804,14
761380,15
761960,17
762532,2
763112,22
763692,14
764272,12
764852,26
765428,33
766012,37
766584,33
767160,24
767736,22
768316,15
768888,15
769472,24
770040,29
770616,23
771200,14
771768,21
772352,21
772924,12
773504,9
774024,11
774600,11
775176,11
775748,12
776328,17
776900,25
777480,28
778052,22
778632,17
779212,14
779788,11
780368,1
780940,13
781520,2
782092,24
782672,21
783244,31
783824,33
784408,23
784980,19
785560,2
786132,21
786712,16
787284,14
787864,14
788436,14
789012,13
789592,11
790164,11
790744,11
791324,11
791904,11
792484,1
793060,11
793640,14
794212,14
794792,19
795364,21
795944,18
796524,11
797104,11
797684,11
798260,14
798840,14
799412,14
799992,15
800572,1
801152,9
801672,13
802248,14
802824,16
803396,15
803976,14
804548,13
805128,11
805700,11
806280,19
806852,26
807428,17
808008,12
808576,11
809160,18
809732,18
810312,17
810884,13
811464,16
812040,16
812612,14
813192,1
813764,12
814344,2
814916,25
815496,29
816076,24
816652,19
817232,14
817804,12
818384,14
818964,13
819544,14
820120,15
820688,15
821264,18
821832,13
822416,11
822984,1
823560,11
824132,11
824712,11
825280,11
825856,11
826440,14
827008,18
827592,16
828164,15
828744,13
829316,15
829896,9
830416,13
830984,19
831568,19
832140,13
832720,11
833288,12
833872,13
834440,11
835024,14
835600,15
836168,18
836752,19
837324,17
837904,19
838476,23
839056,2
839628,15
840204,12
840784,11
841352,13
841936,17
842504,16
843088,16
843660,18
844240,16
844816,17
845384,15
845960,16
846528,19
847112,21
847684,22
848264,22
848832,19
849408,17
849992,17
850560,16
851144,11
851716,14
852296,12
852868,15
853448,16
854024,17
854596,13
855176,1
855748,1
856328,11
856896,11
857480,1
858052,11
858628,13
859208,15
859776,15
860360,14
860932,15
861512,15
862084,15
862664,14
863240,13
863812,11
864392,1
864964,1
865544,19
866116,28
866696,25
867268,21
867844,21
868424,2
868996,21
869576,19
870148,18
870728,17
871304,15
871888,13
872464,16
873036,14
873616,1
874184,11
874768,12
875340,12
875920,14
876500,11
877076,13
877656,14
878228,14
878808,14
879380,15
879960,11
880532,1
881108,1
881688,1
882256,1
882840,12
883412,18
883992,22
884564,19
885144,18
885716,16
886292,17
886872,2
887444,18
888024,13
888596,11
889176,9
889696,11
890272,12
890844,11
891420,12
892000,14
892572,18
893152,21
893732,17
894312,14
894892,15
895468,15
896048,16
896620,26
897200,3
897772,22
898352,16
898924,13
899504,12
900076,12
900652,11
901232,14
901800,19
902384,17
902956,18
903536,14
904108,15
904680,13
905264,11
905836,1
906416,11
906984,12
907568,9
908088,11
908664,12
909236,12
909812,14
910392,15
910964,15
911544,14
912116,14
912696,15
913268,14
913848,17
914428,15
915004,15
915584,15
916156,14
916736,14
917316,13
917896,18
918476,17
919052,13
919632,15
920208,16
920784,14
921364,15
921944,18
922520,12
923096,14
923680,18
924252,19
924832,21
925400,11
925984,15
926556,19
927136,13
927716,14
928292,15
928872,17
929444,18
930024,15
930596,1
931176,9
931696,11
932272,11
932844,13
933420,11
934000,1
934572,11
935152,13
935724,15
936304,13
936876,15
937452,15
938032,18
938604,14
939184,14
939760,2
940336,12
940916,14
941496,15
942076,14
942656,17
943232,2
943804,16
944384,15
944964,15
945544,14
946116,16
946692,15
947272,21
947844,24
948424,22
948996,17
949576,19
950148,15
950728,16
951312,18
951884,2
952464,16
953036,14
953616,19
954196,16
954776,11
955356,1
955932,12
956516,11
957088,1
957664,1
958244,18
958824,19
959404,15
959980,15
960564,11
961136,16
961712,17
962284,15
962864,11
963436,1
964016,1
964584,12
965164,19
965744,22
966316,19
966896,15
967476,14
968056,12
968636,15
969212,15
969792,15
970364,16
970944,17
971516,11
972100,1
972676,1
973256,1
973840,11
974412,11
974992,14
975564,13
976144,11
976724,14
977304,12
977876,14
978452,14
979032,14
979604,11
980184,12
980756,11
981336,14
981916,19
982492,2
983072,24
983640,23
984224,22
984796,18
985376,14
985948,14
986528,16
987100,15
987676,15
988256,18
988828,18
989408,13
989980,12
990560,11
991140,11
991716,15
992296,23
992868,23
993448,19
994020,16
994600,16
995172,18
995752,16
996332,11
996908,14
997488,15
998060,15
998640,14
999220,16
999800,18
1000372,14
1000992,11
1001620,18
1002236,19
1002868,18
1003492,16
1004116,14
1004744,11
1005360,11
1005992,12
1006620,1
1007240,13
1007868,13
1008492,13
1009120,17
1009748,12
1010368,15
1010996,15
1011620,15
1012244,16
1012876,18
1013496,23
1014124,21
1014748,19
1015372,2
1016000,17
1016624,12
1017252,12
1017884,14
1018504,15
1019132,14
1019756,15
1020388,18
1021016,16
1021640,17
1022268,17
1022892,14
1023516,13
1024148,12
1024764,11
1025392,12
1026012,12
1026636,16
1027264,16
1027876,18
1028504,17
1029136,15
1029748,11
1030376,16
1031000,17
1031628,16
1032256,12
1032872,12
1033500,15
1034124,19
1034752,22
1035384,17
1036000,15
1036628,15
1037252,14
1037872,11
1038500,11
1039120,11
1039748,1
1040372,11
1040992,1
1041620,11
1042244,11
1042872,13
1043500,15
1044120,14
1044748,14
1045368,14
1045996,13
1046624,12
1047248,13
1047876,12
1048496,16
1049120,2
1049748,18
1050364,18
1050992,19
1051616,14
1052240,13
1052868,14
1053484,18
1054116,21
1054744,12
1055360,18
1055988,23
1056612,15
1057240,12
1057868,22
1058488,18
1059116,16
1059740,22
1060364,18
1060992,15
1061608,21
1062236,27
1062860,15
1063484,11
1064112,19
1064728,17
1065360,13
1065980,14
1066608,21
1067236,16
1067856,13
1068484,15
1069116,14
1069736,17
1070364,16
1070988,12
1071616,11
1072244,1
1072864,11
1073492,11
1074116,11
1074736,12
1075368,17
1075984,18
1076612,18
1077232,13
1077856,15
1078484,17
1079108,17
1079736,14
1080364,15
1080980,17
1081612,17
1082232,17
1082860,13
1083492,13
1084112,13
1084740,15
1085364,13
1085988,15
1086616,13
1087232,15
1087864,11
1088488,11
1089108,1
1089736,1
1090360,11
1090988,11
1091616,1
1092232,12
1092864,13
1093484,15
1094116,15
1094744,14
1095360,14
1095988,12
1096612,12
1097236,16
1097864,16
1098488,15
1099116,15
1099740,13
1100364,13
1100992,11
1101616,15
1102244,15
1102872,15
1103492,15
1104120,15
1104744,11
1105372,11
1106000,1
1106620,11
1107252,1
1107872,11
1108496,13
1109124,12
1109744,16
1110372,13
1110996,14
1111620,15
1112252,14
1112872,11
1113500,11
1114132,12
1114752,15
1115380,17
1116004,14
1116636,13
1117264,12
1117888,13
1118516,14
1119140,15
1119768,14
1120396,14
1121016,12
1121644,12
1122268,1
1122892,12
1123520,11
1124136,12
1124768,12
1125396,12
1126016,24
1126644,3
1127268,22
1127896,21
1128524,19
1129144,21
1129772,2
1130392,13
1131016,13
1131648,15
1132264,18
1132892,15
1133516,11
1134140,13
1134768,18
1135384,15
1136016,15
1136636,18
1137264,18
1137892,18
1138516,15
1139148,16
1139776,18
1140400,12
1141028,11
1141652,12
1142276,11
1142908,12
1143528,25
1144156,21
1144780,24
1145404,25
1146036,24
1146656,21
1147284,19
1147916,19
1148536,17
1149164,12
1149788,1
1150416,12
1151048,12
1151664,14
1152296,2
1152916,25
1153540,3
1154172,3
1154792,28
1155420,23
1156044,19
1156668,13
1157296,11
1157912,12
1158540,11
1159164,1
1159792,14
1160420,12
1161044,15
1161672,16
1162300,18
1162920,19
1163548,21
1164172,21
1164800,16
1165428,1
1166048,1
1166676,13
1167300,13
1167924,14
1168552,15
1169176,17
1169804,17
1170428,14
1171056,11
1171684,1
1172308,12
1172940,9
1173516,1
1174140,11
1174772,11
1175396,13
1176024,11
1176652,13
1177272,15
1177904,17
1178524,17
1179148,15
1179780,1
1180400,15
1181028,21
1181652,22
1182276,2
1182904,19
1183528,18
1184156,17
1184788,16
1185408,14
1186036,15
1186660,15
1187288,14
1187920,11
1188536,15
1189164,12
1189788,1
1190412,11
1191040,11
1191656,11
1192284,11
1192908,11
1193532,14
1194164,14
1194784,16
1195412,15
1196044,1
1196664,11
1197292,1
1197916,13
1198548,17
1199180,18
1199800,21
1200432,17
1201052,17
1201676,2
1202308,18
1202928,22
1203556,23
1204180,21
1204804,2
1205432,16
1206052,12
1206680,11
1207308,11
1207928,13
1208556,14
1209180,11
1209812,14
1210440,13
1211056,16
1211688,16
1212312,15
1212936,1
1213564,11
1214184,15
1214812,19
1215436,17
1216064,12
1216692,1
1217312,12
1217940,14
1218572,15
1219192,17
1219820,14
1220444,14
1221076,13
1221708,1
1222328,11
1222956,1
1223584,1
1224208,11
1224836,11
1225456,12
1226084,11
1226712,14
1227336,15
1227964,17
1228584,19
1229216,16
1229844,16
1230464,13
1231092,13
1231716,15
1232344,19
1232972,14
1233592,15
1234220,14
1234844,17
1235468,17
1236096,17
1236712,17
1237344,15
1237968,12
1238592,16
1239220,13
1239840,11
1240468,1
1241096,12
1241720,13
1242348,15
1242972,16
1243600,13
1244228,14
1244848,15
1245476,15
1246100,11
1246724,19
1247356,2
1247976,2
1248608,16
1249228,1
1249852,13
1250484,12
1251104,1
1251732,15
1252364,14
1252984,16
1253612,17
1254236,18
1254868,2
1255496,19
1256112,13
1256744,19
1257368,17
1257992,11
1258620,11
1259240,12
1259868,15
1260492,14
1261116,14
1261748,14
1262368,15
1262996,11
1263628,12
1264248,2
1264876,19
1265500,18
1266132,12
1266760,11
1267384,13
1268012,15
1268636,13
1269260,16
1269892,14
1270512,17
1271140,14
1271764,1
1272388,11
1273020,1
1273640,11
1274268,11
1274900,1
1275520,14
1276148,15
1276776,13
1277404,23
1278036,27
1278656,19
1279288,13
1279912,16
1280536,15
1281164,15
1281780,13
1282408,11
1283032,12
1283652,12
1284284,12
1284900,19
1285532,15
1286160,16
1286776,14
1287404,13
1288028,13
1288656,24
1289284,26
1289904,26
1290532,15
1291156,12
1291780,17
1292412,19
1293032,13
1293660,14
1294284,19
1294904,14
1295536,14
1296152,15
1296780,22
1297404,23
1298024,24
1298656,18
1299276,14
1299908,15
1300536,15
1301152,18
1301780,19
1302404,19
1303032,15
1303660,14
1304280,12
1304908,1
1305532,11
1306156,13
1306788,1
1307408,11
1308036,18
1308660,18
1309284,19
1309912,14
1310536,21
1311168,26
1311796,23
1312416,22
1313044,17
1313664,15
1314292,13
1314920,14
1315536,21
1316164,24
1316784,21
1317408,14
1318036,17
1318656,22
1319284,2
1319904,15
1320528,15
1321156,12
1321776,12
1322404,11
1323032,11
1323648,13
1324276,11
1324900,14
1325528,17
1326156,16
1326776,15
1327404,15
1328028,15
1328648,17
1329276,1
1329896,13
1330524,18
1331148,24
1331772,18
1332400,16
1333016,17
1333644,16
1334268,16
1334888,18
1335516,18
1336140,17
1336768,15
1337400,13
1338016,11
1338644,1
1339268,9
1339844,1
1340476,1
1341096,11
1341724,11
1342348,11
1342976,14
1343604,14
1344224,15
1344852,15
1345472,14
1346096,15
1346724,14
1347340,17
1347972,17
1348592,11
1349216,11
1349844,11
1350468,12
1351096,12
1351724,14
1352344,19
1352972,22
1353592,24
1354220,21
1354852,14
1355472,13
1356100,14
1356724,11
1357348,11
1357976,2
1358592,27
1359220,29
1359844,23
1360468,16
1361096,15
1361712,15
1362340,15
1362968,11
1363592,11
1364220,1
1364840,15
1365468,19
1366100,3
1366720,34
1367348,2
1367972,15
1368596,17
1369224,14
1369840,2
1370468,17
1371092,1
1371716,12
1372348,15
1372968,13
1373596,11
1374224,11
1374844,13
1375472,14
1376096,13
1376724,14
1377352,14
1377968,14
1378596,15
1379220,13
1379844,15
1380476,12
1381096,13
1381724,13
1382348,13
1382972,15
1383604,12
1384224,13
1384852,16
1385480,14
1386096,15
1386728,16
1387348,13
1387980,15
1388608,1
1389232,11
1389860,11
1390484,1
1391108,13
1391740,14
1392360,15
1392988,14
1393612,13
1394232,16
1394864,15
1395480,14
1396112,12
1396732,19
1397360,21
1397988,26
1398612,23
1399240,21
1399868,18
1400488,23
1401116,22
1401740,18
1402368,15
1402996,15
1403616,15
1404244,11
1404868,11
1405488,12
1406120,12
1406736,1
1407364,11
1407988,11
1408616,12
1409244,13
1409864,14
1410496,13
1411124,14
1411744,18
1412372,12
1412996,12
1413624,13
1414256,2
1414872,18
1415500,11
1416124,1
1416748,1
1417376,1
1417992,13
1418624,14
1419248,16
1419872,15
1420500,15
1421124,16
1421752,15
1422380,11
1423000,11
1423628,12
1424252,14
1424884,12
1425512,12
1426128,15
1426760,14
1427384,15
1428004,16
1428636,14
1429256,11
1429884,12
1430508,11
1431132,1
1431764,14
1432388,18
1433016,13
1433648,11
1434264,13
1434892,21
1435516,17
1436144,18
1436772,17
1437392,13
1438020,1
1438644,1
1439268,1
1439900,1
1440520,12
1441148,14
1441772,15
1442392,17
1443020,17
1443640,16
1444268,15
1444896,19
1445512,18
1446144,9
1446716,11
1447348,9
1447920,11
1448544,16
1449172,16
1449796,16
1450424,15
1451052,18
1451672,19
1452300,21
1452924,25
1453552,23
1454184,18
1454800,14
1455428,1
1456052,11
1456676,13
1457304,14
1457920,13
1458548,12
1459172,11
1459796,14
1460428,14
1461048,15
1461676,15
1462304,11
1462928,11
1463556,22
1464180,17
1464812,1
1465440,13
1466056,27
1466688,35
1467312,3
1467936,15
1468564,13
1469184,24
1469812,17
1470436,18
1471060,18
1471692,13
1472312,13
1472940,11
1473572,1
1474192,12
1474820,13
1475444,19
1476072,2
1476704,16
1477320,16
1477948,14
1478572,15
1479196,1
1479824,11
1480440,15
1481068,21
1481692,18
1482316,14
1482944,12
1483564,11
1484192,13
1484820,14
1485436,17
1486068,23
1486688,25
1487320,21
1487948,14
1488568,11
1489196,16
1489820,15
1490444,15
1491072,17
1491692,13
1492320,12
1492944,17
1493564,26
1494196,22
1494816,15
1495444,14
1496076,12
1496696,13
1497324,15
1497948,2
1498576,15
1499204,11
1499824,11
1500452,11
1501076,13
1501704,16
1502332,2
1502952,17
1503580,15
1504208,13
1504828,15
1505460,1
1506080,12
1506708,1
1507340,1
1507960,11
1508588,11
1509212,11
1509844,15
1510472,14
1511096,15
1511724,14
1512348,12
1512972,15
1513604,18
1514224,17
1514852,12
1515480,9
1516052,11
1516684,1
1517304,11
1517932,15
1518556,13
1519184,15
1519812,18
1520432,21
1521060,15
1521692,1
1522312,2
1522940,17
1523568,12
1524196,13
1524824,1
1525448,11
1526076,14
1526700,21
1527324,17
1527956,14
1528576,17
1529204,16
1529828,12
1530452,13
1531084,1
1531704,11
1532332,12
1532964,17
1533584,18
1534216,19
1534840,17
1535472,19
1536100,18
1536716,21
1537348,23
1537968,17
1538592,11
1539220,14
1539840,35
1540468,35
1541092,24
1541716,12
1542344,17
1542960,14
1543592,19
1544220,16
1544840,2
1545468,15
1546092,14
1546720,18
1547352,19
1547968,21
1548596,11
1549220,1
1549844,11
1550476,1
1551096,13
1551724,12
1552348,14
1552972,14
1553604,16
1554224,12
1554852,13
1555484,16
1556104,17
1556732,16
1557356,13
1557988,12
1558616,12
1559236,12
1559864,15
1560488,14
1561112,15
1561740,16
1562360,19
1562988,22
1563612,1
1564236,13
1564864,19
1565480,24
1566108,23
1566740,17
1567360,13
1567988,14
1568612,13
1569240,17
1569872,16
1570488,14
1571116,1
1571740,9
1572316,11
1572948,13
1573568,14
1574196,11
1574824,13
1575444,15
1576076,16
1576696,17
1577324,21
1577948,19
1578572,18
1579204,1
1579824,18
1580452,18
1581084,19
1581704,11
1582332,1
1582956,11
1583588,15
1584220,16
1584840,16
1585468,16
1586092,21
1586716,18
1587348,1
1587968,12
1588596,13
1589220,11
1589844,14
1590476,12
1591096,15
1591724,12
1592356,11
1592976,15
1593604,14
1594228,15
1594860,15
1595492,15
1596112,17
1596744,17
1597368,11
1597992,11
1598624,1
1599240,1
1599872,1
1600496,13
1601116,16
1601744,16
1602368,18
1602996,16
1603624,14
1604240,11
1604868,12
1605492,11
1606120,12
1606748,11
1607368,12
1607996,11
1608620,11
1609244,12
1609872,13
1610488,16
1611116,15
1611740,15
1612364,1
1612996,9
1613564,9
1614144,1
1614768,1
1615388,12
1616020,13
1616640,14
1617268,1
1617892,14
1618516,19
1619144,17
1619760,18
1620392,17
1621020,16
1621640,11
1622268,13
1622892,11
1623524,1
1624152,11
1624768,14
1625400,19
1626024,15
1626648,13
1627276,14
1627896,15
1628524,16
1629148,12
1629772,15
1630404,14
1631024,18
1631652,18
1632284,11
1632904,1
1633532,12
1634156,11
1634788,13
1635416,14
1636036,16
1636664,18
1637288,15
1637912,1
1638544,1
1639160,12
1639788,12
1640408,1
1641028,22
1641656,32
1642276,31
1642904,17
1643532,14
1644148,17
1644776,15
1645400,13
1646028,9
1646604,12
1647228,11
1647856,13
1648476,13
1649108,12
1649736,1
1650352,11
1650980,13
1651604,13
1652228,18
1652856,17
1653472,14
1654100,11
1654724,13
1655344,17
1655972,11
1656592,18
1657220,24
1657844,16
1658464,11
1659096,11
1659716,14
1660348,15
1660976,15
1661592,17
1662220,13
1662844,12
1663472,11
1664100,1
1664716,11
1665344,13
1665964,13
1666588,13
1667216,16
1667828,18
1668460,15
1669080,15
1669704,15
1670332,14
1670952,11
1671580,1
1672208,1
1672824,15
1673452,16
1674076,13
1674704,11
1675336,13
1675952,17
1676580,15
1677204,18
1677828,17
1678456,14
1679080,11
1679708,11
1680332,14
1680952,15
1681580,16
1682200,14
1682828,12
1683448,11
1684072,11
1684700,14
1685324,16
1685952,19
1686580,17
1687196,12
1687828,13
1688452,17
1689080,15
1689708,1
1690324,11
1690952,13
1691576,13
1692196,11
1692828,14
1693444,13
1694072,16
1694696,2
1695320,18
1695948,1
1696568,11
1697196,11
1697824,14
1698440,2
1699072,18
1699692,12
1700324,11
1700952,16
1701568,16
1702196,15
1702820,13
1703444,24
1704072,37
1704688,17
1705316,11
1705940,2
1706564,21
1707192,13
1707808,11
1708440,11
1709068,11
1709688,13
1710316,15
1710940,16
1711568,15
1712200,1
1712816,11
1713444,11
1714068,1
1714692,11
1715324,12
1715944,17
1716572,15
1717196,13
1717820,2
1718448,21
1719064,2
1719696,19
1720320,16
1720940,1
1721572,12
1722196,11
1722824,11
1723452,1
1724072,11
1724700,11
1725324,18
1725952,22
1726584,16
1727200,18
1727828,18
1728452,15
1729076,13
1729704,1
1730320,1
1730952,16
1731572,19
1732196,18
1732828,18
1733448,19
1734076,19
1734708,16
1735328,19
1735956,17
1736580,14
1737212,11
1737840,2
1738456,28
1739088,2
1739712,12
1740336,12
1740964,16
1741580,18
1742212,12
1742832,14
1743456,15
1744084,15
1744708,15
1745336,13
1745964,11
1746584,1
1747212,12
1747832,12
1748464,11
1749092,1
1749712,11
1750340,1
1750964,15
1751588,13
1752220,16
1752840,17
1753468,18
1754092,11
1754716,1
1755344,1
1755968,11
1756596,12
1757228,12
1757848,18
1758476,12
1759100,24
1759732,21
1760364,17
1760984,15
1761612,16
1762232,18
1762856,2
1763484,18
1764104,15
1764732,9
1765304,1
1765928,11
1766556,1
1767176,12
1767804,13
1768428,13
1769048,14
1769676,15
1770296,15
1770924,1
1771552,12
1772176,13
1772804,11
1773424,1
1774056,11
1774684,14
1775304,14
1775932,16
1776556,13
1777180,15
1777812,14
1778432,15
1779060,9
1779632,12
1780264,15
1780892,14
1781512,15
1782140,13
1782764,11
1783388,11
1784016,12
1784640,13
1785268,13
1785900,14
1786520,18
1787148,17
1787772,11
1788404,11
1789032,1
1789656,9
1790232,11
1790864,11
1791496,13
1792124,14
1792740,16
1793372,14
1793992,16
1794616,14
1795244,12
1795864,15
1796492,18
1797116,18
1797740,2
1798368,17
1798992,19
1799620,2
1800252,22
1800872,21
1801500,14
1802124,14
1802756,14
1803384,15
1804000,1
1804628,1
1805252,11
1805872,18
1806504,15
1807120,13
1807748,15
1808372,13
1808996,11
1809624,13
1810248,15
1810876,18
1811504,23
1812124,19
1812752,13
1813376,12
1814004,13
1814632,18
1815256,23
1815884,21
1816508,15
1817132,15
1817760,18
1818384,17
1819012,18
1819636,16
1820260,13
1820888,12
1821512,12
1822140,11
1822772,1
1823392,11
1824020,15
1824644,13
1825272,13
1825900,14
1826520,14
1827148,16
1827772,15
1828396,15
1829028,14
1829648,16
1830276,11
1830900,1
1831524,13
1832156,14
1832780,11
1833408,15
1834040,23
1834656,26
1835284,27
1835908,28
1836540,19
1837172,1
1837792,12
1838420,1
1839044,11
1839668,11
1840300,12
1840920,16
1841548,13
1842172,1
1842800,13
1843428,13
1844052,15
1844680,15
1845308,1
1845928,11
1846556,11
1847180,11
1847808,12
1848436,1
1849056,12
1849684,12
1850304,16
1850928,22
1851556,24
1852176,25
1852804,25
1853428,24
1854052,19
1854680,17
1855304,1
1855936,17
1856564,19
1857184,19
1857812,18
1858436,16
1859064,15
1859692,14
1860312,15
1860940,15
1861564,15
1862188,11
1862820,1
1863440,13
1864068,11
1864692,12
1865316,17
1865944,18
1866568,15
1867196,14
1867828,18
1868448,18
1869076,18
1869700,14
1870332,12
1870960,1
1871576,11
1872208,15
1872832,12
1873452,1
1874084,16
1874704,17
1875332,13
1875956,17
1876580,19
1877212,16
1877832,15
1878464,15
1879092,14
1879712,23
1880340,23
1880964,23
1881596,24
1882228,22
1882848,19
1883476,13
1884100,16
1884728,15
1885356,14
1885976,13
1886604,23
1887228,22
1887856,11
1888484,14
1889108,16
1889740,15
1890368,16
1890984,11
1891616,19
1892240,21
1892868,21
1893500,19
1894120,16
1894748,13
1895372,11
1895996,17
1896628,24
1897248,3
1897876,3
1898508,24
1899128,1
1899756,11
1900380,11
1901012,16
1901644,16
1902264,17
1902892,15
1903520,16
1904144,13
1904772,1
1905392,12
1906020,16
1906644,12
1907268,12
1907900,1
1908520,12
1909148,15
1909780,14
1910400,13
1911028,15
1911652,15
1912284,1
1912916,12
1913536,19
1914168,18
1914792,15
1915416,13
1916048,13
1916664,13
1917296,16
1917920,13
1918544,14
1919176,15
1919796,15
1920428,12
1921056,1
1921672,11
1922300,12
1922924,18
1923552,14
1924184,15
1924800,13
1925428,13
1926052,16
1926676,16
1927304,15
1927928,15
1928556,12
1929180,13
1929804,16
1930432,18
1931048,19
1931680,17
1932308,1
1932928,11
1933556,11
1934180,14
1934808,14
1935440,18
1936056,19
1936688,2
1937308,17
1937932,15
1938564,14
1939184,13
1939812,1
1940436,12
1941064,13
1941692,18
1942312,25
1942944,22
1943572,2
1944192,17
1944820,16
1945448,11
1946076,17
1946708,18
1947328,19
1947956,16
1948580,13
1949204,11
1949832,1
1950456,12
1951084,15
1951708,14
1952332,14
1952964,15
1953584,12
1954212,1
1954844,1
1955464,11
1956092,11
1956716,11
1957348,11
1957976,1
1958600,11
1959228,15
1959852,15
1960476,15
1961108,16
1961728,16
1962356,14
1962980,13
1963604,11
1964236,12
1964856,18
1965484,1
1966116,16
1966736,21
1967364,23
1967984,25
1968616,2
1969244,14
1969864,15
1970492,13
1971116,11
1971740,11
1972368,14
1972992,18
1973620,18
1974244,15
1974868,16
1975496,19
1976112,17
1976744,16
1977372,14
1977992,15
1978620,11
1979244,16
1979872,13
1980504,12
1981120,11
1981752,11
1982376,12
1983000,13
1983628,13
1984248,15
1984876,16
1985500,14
1986124,15
1986752,14
1987368,13
1988000,14
1988628,11
1989248,12
1989876,13
1990500,11
1991128,11
1991760,12
1992376,17
1993008,26
1993632,27
1994252,17
1994884,14
1995504,15
1996136,16
1996760,15
1997384,12
1998012,1
1998632,11
1999260,12
1999892,16
2000512,22
2001140,2
2001764,22
2002392,18
2003024,14
2003640,1
2004272,13
2004892,13
2005516,15
2006148,11
2006768,11
2007396,11
2008020,12
2008644,13
2009272,17
2009892,17
2010520,14
2011148,16
2011768,14
2012396,15
2013020,16
2013652,12
2014280,1
2014896,1
2015528,9
2016100,1
2016732,1
2017364,14
2017984,16
2018612,16
2019236,17
2019860,17
2020488,14
2021104,17
2021736,18
2022360,17
2022984,13
2023612,12
2024232,12
2024860,14
2025492,2
2026112,19
2026740,16
2027364,17
2027996,16
2028628,1
2029248,1
2029876,1
2030500,1
2031124,15
2031756,16
2032376,18
2033004,15
2033628,12
2034252,14
2034884,14
2035504,15
2036132,16
2036764,14
2037384,11
2038016,11
2038640,11
2039268,11
2039900,11
2040520,11
2041148,11
2041776,19
2042396,25
2043028,19
2043648,18
2044276,15
2044904,16
2045528,1
2046156,14
2046776,17
2047408,17
2048036,14
2048652,11
2049280,13
2049900,14
2050528,14
2051156,12
2051776,15
2052404,14
2053024,17
2053648,17
2054276,11
2054896,1
2055524,11
2056144,11
2056768,11
2057396,11
2058016,11
2058644,11
2059272,16
2059888,27
2060516,34
2061140,3
2061768,14
2062396,14
2063016,21
2063644,19
2064268,13
2064896,11
2065524,14
2066144,13
2066772,12
2067396,25
2068016,29
2068648,25
2069264,17
2069892,15
2070512,12
2071136,17
2071764,13
2072388,11
2073016,12
2073648,1
2074260,11
2074892,12
2075512,13
2076140,12
2076772,14
2077392,15
2078020,15
2078644,1
2079268,12
2079900,2
2080520,13
2081148,12
2081768,13
2082392,11
2083020,12
2083640,18
2084268,25
2084896,24
2085512,2
2086144,17
2086764,13
2087392,1
2088024,1
2088640,11
2089268,11
2089892,13
2090512,12
2091144,11
2091760,13
2092388,14
2093012,13
2093636,15
2094264,16
2094880,15
2095508,11
2096136,14
2096760,13
2097388,18
2098012,18
2098640,18
2099268,12
2099884,11
2100512,14
2101136,13
2101764,14
2102392,15
2103016,16
2103644,11
2104268,1
2104892,11
2105520,1
2106144,15
2106772,15
2107404,11
2108024,11
2108652,13
2109276,21
2109908,31
2110536,42
2111152,28
2111784,13
2112408,21
2113028,32
2113660,34
2114280,31
2114908,25
2115532,14
2116156,1
2116784,11
2117400,14
2118032,15
2118660,19
2119280,16
2119908,13
2120532,11
2121160,11
2121792,17
2122408,27
2123036,27
2123660,26
2124288,2
2124920,11
2125536,15
2126164,13
2126788,17
2127412,15
2128040,15
2128656,15
2129288,25
2129908,19
2130536,15
2131164,17
2131788,19
2132416,16
2133044,12
2133664,15
2134292,16
2134916,2
2135548,18
2136176,16
2136792,11
2137424,9
2137996,1
2138628,13
2139260,12
2139880,16
2140508,22
2141132,19
2141756,13
2142384,15
2143008,14
2143636,14
2144268,14
2144888,14
2145516,1
2146140,1
2146768,12
2147396,13
2148016,15
2148644,11
2149268,1
2149896,11
2150524,13
2151144,13
2151772,15
2152396,17
2153016,15
2153648,11
2154264,14
2154892,11
2155516,18
2156144,15
2156772,11
2157396,14
2158028,12
2158656,1
2159280,13
2159908,15
2160532,19
2161156,17
2161788,14
2162408,14
2163036,11
2163660,12
2164284,17
2164912,2
2165528,17
2166160,12
2166788,14
2167408,17
2168036,14
2168660,15
2169288,15
2169920,14
2170536,14
2171164,14
2171788,14
2172420,11
2173048,1
2173672,17
2174300,17
2174924,15
2175548,15
2176180,14
2176796,16
2177428,19
2178056,17
2178672,11
2179300,9
2179872,1
2180500,19
2181128,18
2181752,24
2182380,21
2183004,15
2183636,16
2184264,14
2184880,14
2185512,15
2186136,18
2186760,17
2187388,15
2188008,13
2188636,1
2189260,11
2189884,1
2190516,1
2191136,12
2191768,13
2192396,18
2193016,15
2193644,15
2194268,16
2194896,14
2195528,14
2196144,12
2196776,12
2197400,9
2197972,11
2198604,11
2199224,11
2199852,1
2200476,13
2201100,12
2201732,16
2202352,24
2202980,21
2203604,16
2204228,11
2204856,1
2205472,1
2206104,13
2206732,12
2207352,11
2207980,11
2208608,11
2209236,19
2209868,27
2210488,28
2211116,15
2211744,15
2212368,15
2212996,1
2213616,11
2214244,15
2214868,15
2215492,15
2216124,12
2216744,14
2217372,15
2218004,14
2218624,15
2219252,18
2219876,18
2220508,15
2221136,11
2221756,1
2222384,1
2223008,11
2223632,12
2224264,11
2224880,16
2225508,22
2226132,22
2226756,19
2227388,14
2228008,15
2228636,11
2229268,14
2229888,15
2230516,1
2231140,1
2231772,17
2232404,22
2233024,25
2233652,24
2234276,17
2234900,14
2235532,18
2236152,16
2236784,11
2237408,1
2238032,11
2238664,11
2239280,1
2239912,13
2240544,16
2241160,12
2241788,12
2242412,15
2243044,14
2243672,16
2244288,16
2244920,13
2245544,11
2246168,2
2246796,12
2247416,11
2248044,19
2248668,22
2249292,22
2249920,22
2250544,2
2251172,17
2251804,15
2252424,13
2253056,15
2253676,11
2254304,15
2254936,14
2255552,12
2256180,11
2256804,11
2257428,14
2258056,14
2258672,15
2259304,16
2259924,17
2260548,16
2261176,14
2261800,11
2262428,1
2263060,12
2263680,17
2264308,13
2264932,11
2265560,13
2266192,17
2266812,16
2267440,17
2268064,19
2268688,16
2269316,15
2269936,13
2270564,11
2271192,11
2271816,11
2272448,11
2273064,11
2273692,11
2274324,12
2274944,14
2275572,17
2276196,17
2276828,18
2277456,17
2278076,17
2278708,1
2279332,13
2279956,16
2280584,22
2281204,19
2281832,11
2282456,11
2283080,1
2283708,14
2284328,2
2284956,17
2285588,14
2286208,15
2286836,11
2287460,11
2288092,11
2288720,1
2289344,11
2289972,11
2290596,12
2291224,16
2291852,18
2292472,18
2293104,17
2293728,19
2294352,16
2294980,11
2295600,26
2296228,37
2296860,37
2297480,29
2298108,14
2298732,12
2299364,11
2299992,14
2300612,15
2301240,14
2301864,2
2302488,23
2303120,21
2303740,13
2304372,1
2304992,13
2305616,15
2306244,18
2306864,21
2307492,17
2308120,18
2308744,17
2309372,16
2309996,19
2310624,17
2311256,15
2311872,17
2312500,23
2313124,23
2313748,24
2314380,22
2315000,18
2315628,13
2316252,12
2316876,16
2317504,16
2318128,16
2318756,14
2319388,14
2320008,12
2320636,1
2321260,11
2321888,1
2322520,1
2323136,11
2323764,15
2324388,15
2325012,15
2325644,16
2326264,15
2326892,14
2327516,14
2328140,13
2328772,12
2329392,12
2330024,9
2330592,11
2331224,13
2331852,2
2332472,13
2333100,11
2333732,18
2334352,17
2334984,17
2335608,16
2336236,15
2336864,1
2337488,11
2338116,14
2338740,11
2339364,11
2339992,12
2340616,17
2341244,15
2341868,12
2342492,13
2343124,14
2343748,15
2344376,16
2345008,1
2345624,11
2346252,12
2346876,12
2347508,1
2348140,14
2348760,19
2349392,12
2350016,11
2350640,15
2351268,15
2351888,17
2352520,17
2353144,14
2353768,12
2354400,11
2355024,1
2355652,11
2356284,11
2356904,11
2357532,13
2358156,15
2358788,19
2359416,16
2360040,15
2360668,14
2361292,15
2361916,13
2362548,14
2363168,18
2363800,17
2364428,15
2365048,11
2365676,11
2366300,11
2366932,17
2367564,16
2368184,17
2368812,15
2369436,14
2370060,11
2370688,12
2371312,11
2371940,13
2372564,17
2373188,16
2373820,16
2374440,16
2375068,18
2375700,2
2376320,17
2376948,14
2377572,17
2378204,12
2378832,11
2379456,2
2380084,23
2380708,19
2381336,25
2381964,31
2382584,24
2383212,18
2383836,21
2384464,18
2385092,14
2385712,15
2386340,13
2386972,1
2387592,13
2388220,1
2388844,11
2389476,11
2390104,15
2390728,19
2391360,21
2391984,22
2392608,19
2393240,15
2393856,14
2394488,15
2395112,11
2395736,11
2396368,11
2396984,13
2397616,15
2398244,13
2398864,13
2399496,11
2400120,13
2400748,14
2401380,14
2402000,17
2402628,16
2403252,12
2403876,11
2404504,1
2405124,1
2405752,1
2406376,16
2407000,16
2407628,15
2408248,15
2408876,16
2409508,14
2410128,17
2410756,16
2411380,13
2412012,1
2412640,12
2413264,14
2413892,1
2414520,15
2415144,17
2415772,18
2416392,17
2417020,18
2417644,15
2418268,14
2418900,14
2419524,15
2420152,11
2420780,11
2421400,11
2422028,11
2422652,11
2423284,12
2423912,11
2424536,11
2425164,13
2425792,13
2426412,15
2427044,15
2427664,16
2428292,13
2428916,1
2429544,11
2430172,1
2430796,11
2431428,11
2432060,1
2432680,1
2433308,1
2433932,16
2434560,19
2435192,23
2435808,31
2436440,26
2437064,13
2437688,11
2438316,15
2438936,19
2439564,17
2440188,16
2440816,17
2441444,15
2442068,17
2442700,14
2443332,14
2443952,15
2444584,15
2445208,13
2445832,13
2446460,1
2447080,13
2447712,12
2448336,12
2448960,12
2449588,12
2450208,18
2450840,14
2451468,16
2452088,18
2452716,18
2453344,12
2453972,11
2454604,9
2455172,1
2455808,15
2456432,17
2457064,11
2457692,12
2458308,12
2458940,17
2459560,24
2460184,22
2460812,15
2461432,13
2462060,2
2462684,18
2463308,12
2463936,15
2464560,18
2465188,13
2465816,12
2466440,13
2467068,15
2467692,16
2468320,15
2468952,16
2469568,16
2470196,11
2470820,13
2471444,11
2472076,1
2472696,11
2473324,13
2473948,15
2474572,15
2475200,14
2475824,13
2476452,16
2477084,14
2477704,16
2478332,1
2478956,1
2479588,15
2480216,17
2480840,12
2481468,17
2482092,18
2482716,17
2483344,19
2483968,17
2484596,14
2485220,15
2485844,16
2486472,11
2487088,1
2487720,12
2488348,1
2488968,11
2489596,16
2490220,21
2490852,16
2491480,13
2492100,14
2492728,15
2493356,14
2493980,19
2494608,21
2495232,19
2495864,11
2496488,1
2497112,1
2497740,1
2498360,11
2498988,12
2499620,12
2500240,21
2500868,13
2501492,17
2502124,21
2502752,2
2503368,13
2504000,12
2504624,11
2505248,11
2505876,12
2506496,15
2507124,12
2507748,11
2508376,12
2509008,13
2509624,16
2510252,15
2510884,14
2511504,11
2512132,13
2512756,15
2513388,12
2514016,11
2514640,11
2515268,13
2515892,11
2516516,11
2517148,16
2517768,2
2518396,18
2519024,16
2519648,17
2520280,18
2520904,15
2521532,14
2522164,1
2522784,13
2523412,16
2524040,16
2524668,18
2525300,18
2525920,17
2526552,16
2527176,17
2527800,15
2528432,1
2529048,1
2529676,14
2530304,14
2530928,15
2531560,14
2532184,17
2532812,15
2533444,16
2534064,15
2534696,2
2535320,17
2535944,17
2536576,15
2537192,16
2537824,17
2538448,11
2539072,12
2539704,14
2540320,21
2540948,3
2541580,28
2542200,21
2542828,17
2543456,15
2544084,19
2544716,11
2545336,11
2545964,13
2546592,26
2547216,25
2547844,22
2548464,21
2549096,21
2549720,19
2550344,17
2550976,14
2551592,16
2552224,16
2552856,14
2553476,13
2554108,1
2554732,13
2555364,1
2555996,1
2556616,11
2557248,12
2557876,11
2558500,16
2559132,16
2559752,18
2560388,19
2561008,17
2561628,1
2562256,11
2562876,17
2563508,17
2564136,16
2564752,12
2565380,9
2565952,1
2566580,11
2567208,16
2567832,15
2568460,15
2569080,16
2569712,12
2570340,11
2570960,12
2571588,12
2572212,14
2572832,15
2573460,11
2574080,11
2574708,11
2575332,17
2575956,23
2576584,2
2577208,15
2577836,15
2578468,16
2579088,19
2579716,15
2580340,11
2580972,11
2581600,11
2582216,12
2582844,13
2583468,15
2584092,13
2584720,15
2585336,14
2585968,15
2586592,11
2587212,1
2587844,1
2588464,11
2589092,11
2589720,14
2590344,13
2590972,11
2591596,12
2592228,13
2592856,14
2593472,14
2594104,15
2594724,11
2595348,11
2595980,1
2596600,15
2597228,12
2597852,1
2598476,1
2599104,14
2599728,11
2600356,17
2600988,26
2601608,25
2602236,21
2602860,16
2603488,13
2604116,11
2604736,11
2605364,11
2605988,1
2606612,11
2607244,1
2607864,14
2608492,17
2609116,15
2609740,16
2610372,15
2610992,15
2611624,13
2612252,16
2612872,17
2613500,13
2614124,14
2614756,15
2615384,14
2616004,15
2616632,16
2617256,13
2617880,15
2618508,14
2619128,14
2619756,11
2620384,11
2621008,12
2621636,12
2622252,13
2622884,11
2623512,12
2624128,13
2624756,13
2625376,17
2626004,15
2626632,14
2627252,16
2627880,11
2628504,11
2629124,13
2629756,1
2630376,11
2631004,11
2631628,12
2632252,15
2632880,15
2633496,14
2634128,15
2634752,18
2635376,21
2636004,15
2636628,11
2637256,13
2637888,14
2638504,13
2639132,1
2639756,13
2640384,11
2641016,11
2641632,13
2642260,12
2642884,15
2643504,14
2644132,15
2644752,11
2645380,12
2646004,1
2646624,11
2647256,16
2647876,15
2648508,15
2649136,14
2649752,14
2650380,14
2651004,14
2651632,15
2652264,14
2652880,12
2653508,14
2654132,22
2654756,21
2655384,16
2656000,12
2656628,11
2657252,14
2657876,14
2658504,2
2659128,26
2659756,25
2660388,2
2661008,17
2661636,11
2662260,13
2662892,17
2663520,22
2664136,17
2664764,9
2665336,12
2665964,17
2666592,14
2667208,14
2667836,19
2668460,2
2669084,19
2669712,15
2670328,15
2670960,13
2671580,13
2672204,15
2672836,12
2673452,11
2674084,12
2674712,16
2675328,23
2675960,24
2676580,27
2677212,25
2677840,17
2678456,11
2679084,14
2679708,21
2680332,14
2680960,21
2681576,3
2682204,17
2682828,13
2683452,17
2684084,16
2684704,15
2685332,15
2685964,14
2686584,11
2687212,11
2687836,11
2688468,11
2689096,1
2689712,11
2690340,12
2690964,11
2691588,13
2692216,13
2692840,15
2693468,14
2694092,14
2694712,11
2695344,16
2695960,1
2696588,18
2697212,19
2697840,12
2698468,9
2699040,1
2699668,1
2700300,14
2700920,19
2701548,21
2702172,17
2702800,14
2703432,13
2704048,12
2704676,12
2705300,1
2705924,14
2706552,2
2707176,17
2707804,15
2708428,17
2709052,14
2709684,14
2710304,16
2710932,15
2711564,1
2712184,11
2712812,14
2713436,15
2714068,15
2714696,15
2715320,12
2715948,1
2716572,13
2717196,13
2717824,17
2718448,17
2719076,16
2719700,1
2720324,1
2720952,13
2721568,17
2722200,13
2722828,1
2723448,14
2724076,13
2724700,11
2725328,15
2725956,14
2726576,15
2727204,15
2727824,13
2728452,12
2729084,1
2729704,11
2730332,12
2730956,11
2731580,11
2732208,13
2732824,11
2733456,17
2734076,18
2734704,16
2735332,15
2735956,15
2736588,11
2737220,1
2737840,11
2738468,1
2739092,12
2739720,12
2740348,1
2740968,14
2741596,16
2742220,15
2742844,15
2743476,15
2744096,16
2744724,15
2745356,14
2745976,17
2746604,17
2747228,14
2747856,11
2748488,1
2749104,11
2749732,14
2750356,17
2750984,19
2751612,16
2752232,16
2752860,13
2753484,11
2754108,11
2754736,1
2755360,13
2755988,16
2756620,16
2757240,12
2757868,12
2758492,15
2759124,13
2759752,14
2760372,15
2761000,14
2761624,12
2762244,13
2762876,1
2763496,12
2764128,15
2764752,22
2765376,29
2766004,3
2766624,21
2767252,12
2767880,2
2768504,17
2769132,16
2769756,12
2770388,1
2771016,1
2771636,9
2772212,1
2772840,12
2773468,11
2774100,12
2774720,15
2775348,15
2775972,15
2776600,15
2777228,14
2777848,12
2778476,13
2779100,13
2779724,16
2780356,14
2780976,13
2781604,13
2782236,12
2782856,1
2783484,15
2784112,16
2784740,15
2785372,16
2785992,15
2786620,1
2787244,14
2787868,15
2788496,11
2789112,11
2789740,12
2790368,13
2790992,11
2791620,14
2792240,13
2792868,14
2793500,14
2794120,15
2794748,1
2795372,1
2796004,12
2796632,14
2797256,17
2797884,23
2798508,25
2799132,16
2799764,1
2800384,14
2801012,13
2801636,15
2802260,19
2802888,18
2803508,1
2804136,11
2804764,14
2805384,15
2806012,11
2806636,12
2807268,15
2807896,13
2808512,14
2809144,13
2809768,16
2810392,16
2811020,13
2811640,11
2812268,14
2812892,15
2813516,1
2814148,1
2814768,12
2815396,11
2816028,11
2816644,15
2817272,13
2817896,15
2818524,18
2819156,19
2819776,12
2820404,11
2821028,1
2821652,11
2822280,11
2822904,12
2823532,11
2824156,12
2824780,11
2825408,13
2826032,16
2826660,15
2827292,14
2827912,12
2828540,15
2829164,15
2829792,18
2830424,19
2831040,15
2831668,12
2832292,12
2832916,12
2833544,14
2834168,18
2834796,16
2835420,14
2836044,11
2836676,12
2837296,13
2837924,12
2838556,1
2839176,16
2839804,12
2840428,11
2841060,11
2841688,14
2842312,14
2842940,15
2843564,15
2844188,14
2844816,1
2845440,11
2846068,1
2846692,13
2847316,11
2847948,1
2848568,13
2849196,15
2849828,15
2850448,19
2851076,26
2851700,17
2852332,14
2852960,1
2853584,17
2854216,18
2854840,11
2855464,11
2856092,13
2856712,27
2857344,4
2857968,35
2858592,19
2859220,15
2859844,17
2860476,18
2861108,22
2861728,25
2862360,2
2862984,18
2863612,15
2864244,18
2864864,22
2865492,22
2866120,2
2866744,19
2867372,14
2867988,15
2868620,14
2869244,15
2869864,11
2870496,14
2871116,27
2871748,26
2872376,24
2873000,16
2873628,17
2874252,27
2874880,27
2875508,18
2876128,15
2876756,17
2877384,17
2878008,11
2878636,1
2879256,14
2879884,19
2880512,22
2881132,23
2881764,2
2882384,18
2883016,19
2883644,18
2884264,16
2884892,14
2885512,15
2886144,16
2886772,1
2887392,11
2888020,1
2888644,1
2889264,11
2889892,11
2890512,12
2891140,13
2891764,15
2892388,13
2893016,15
2893640,15
2894268,15
2894896,16
2895520,18
2896148,13
2896772,11
2897400,13
2898028,15
2898648,15
2899276,11
2899900,13
2900524,13
2901152,16
2901768,15
2902396,18
2903024,14
2903648,11
2904276,1
2904900,11
2905532,1
2906164,1
2906784,11
2907412,15
2908036,23
2908668,15
2909300,17
2909920,17
2910548,15
2911172,14
2911796,18
2912428,18
2913048,21
2913676,16
2914300,14
2914928,12
2915556,1
2916180,11
2916812,13
2917440,12
2918064,15
2918696,17
2919316,11
2919944,13
2920572,1
2921192,11
2921820,11
2922444,1
2923068,11
2923700,12
2924320,12
2924948,17
2925580,23
2926200,15
2926828,17
2927452,23
2928084,2
2928712,14
2929336,17
2929964,16
2930588,13
2931212,11
2931844,14
2932464,19
2933092,17
2933720,12
2934344,15
2934976,14
2935592,16
2936224,13
2936852,12
2937472,12
2938104,12
2938728,11
2939356,12
2939988,11
2940608,12
2941240,12
2941864,13
2942488,15
2943116,22
2943736,29
2944368,2
2944992,11
2945616,15
2946244,24
2946864,3
2947492,22
2948124,14
2948744,11
2949376,17
2949996,15
2950628,13
2951256,15
2951876,17
2952504,15
2953128,1
2953752,1
2954380,11
2955000,13
2955628,13
2956252,12
2956876,11
2957508,1
2958128,14
2958756,13
2959388,14
2960008,16
2960636,14
2961260,13
2961888,11
2962520,1
2963136,11
2963768,15
2964392,13
2965016,1
2965644,12
2966264,11
2966892,13
2967516,15
2968144,18
2968772,2
2969392,17
2970024,1
2970652,12
2971272,1
2971900,1
2972524,11
2973152,11
2973784,11
2974400,15
2975028,15
2975652,14
2976276,17
2976908,15
2977528,14
2978156,1
2978780,12
2979404,13
2980032,12
2980656,12
2981284,13
2981912,14
2982536,17
2983164,21
2983788,19
2984420,18
2985048,18
2985668,16
2986296,15
2986920,12
2987544,11
2988172,1
2988792,11
2989424,12
2990048,13
2990672,15
2991300,18
2991920,15
2992552,14
2993180,14
2993800,15
2994428,13
2995052,11
2995684,11
2996316,12
2996936,14
2997564,15
2998192,14
2998816,13
2999444,18
3000064,17
3000692,14
3001316,15
3001940,15
3002572,11
3003192,13
3003824,19
3004452,18
3005072,13
3005704,14
3006328,21
3006956,15
3007588,11
3008208,14
3008840,14
3009464,15
3010088,15
3010716,15
3011336,11
3011964,15
3012588,21
3013216,14
3013844,12
3014468,12
3015100,1
3015728,17
3016352,21
3016980,19
3017604,2
3018236,18
3018868,18
3019488,15
3020120,13
3020744,12
3021368,1
3022000,1
3022620,11
3023248,12
3023880,14
3024496,15
3025124,17
3025752,15
3026380,14
3027012,16
3027632,15
3028264,15
3028888,13
3029512,15
3030144,17
3030760,13
3031392,1
3032020,13
3032644,16
3033272,15
3033892,17
3034524,22
3035152,18
3035772,13
3036404,1
3037028,13
3037656,13
3038288,17
3038908,17
3039540,12
3040164,11
3040788,17
3041416,23
3042040,25
3042668,15
3043292,15
3043916,15
3044548,1
3045168,11
3045796,1
3046428,12
3047048,21
3047676,18
3048300,15
3048932,18
3049564,19
3050184,18
3050816,16
3051440,15
3052064,15
3052692,11
3053312,12
3053944,13
3054568,14
3055192,13
3055824,1
3056444,14
3057072,21
3057704,25
3058320,18
3058952,16
3059576,15
3060208,15
3060836,13
3061456,14
3062088,17
3062712,2
3063336,21
3063968,14
3064588,1
3065216,1
3065844,11
3066468,15
3067100,21
3067724,26
3068356,24
3068988,2
3069608,17
3070240,15
3070864,11
3071496,12
3072128,14
3072744,18
3073372,14
3073996,12
3074620,15
3075248,14
3075864,14
3076492,16
3077116,14
3077744,13
3078372,17
3078996,19
3079628,15
3080256,13
3080880,15
3081508,12
3082132,11
3082760,13
3083388,14
3084008,14
3084636,14
3085260,15
3085884,12
3086516,14
3087136,17
3087768,15
3088396,1
3089016,13
3089644,17
3090268,17
3090900,15
3091528,15
3092148,14
3092776,16
3093400,14
3094024,14
3094656,11
3095272,13
3095904,15
3096528,19
3097152,14
3097784,14
3098400,26
3099028,21
3099660,16
3100280,17
3100908,17
3101532,17
3102164,17
3102796,1
3103416,11
3104048,1
3104668,1
3105292,12
3105924,11
3106544,11
3107176,13
3107800,16
3108424,15
3109056,15
3109672,15
3110304,15
3110936,11
3111552,11
3112184,11
3112808,1
3113440,11
3114068,13
3114688,18
3115320,22
3115944,24
3116568,23
3117196,18
3117816,17
3118448,16
3119072,13
3119696,11
3120324,11
3120944,11
3121572,16
3122204,2
3122824,27
3123456,19
3124076,13
3124708,14
3125336,14
3125956,15
3126584,16
3127208,15
3127832,14
3128464,11
3129080,1
3129708,1
3130332,1
3130956,14
3131588,18
3132208,19
3132836,19
3133468,22
3134088,22
3134716,14
3135344,3
3135976,18
3136608,14
3137224,22
3137852,18
3138476,15
3139104,11
3139732,12
3140352,15
3140984,14
3141608,14
3142232,15
3142860,14
3143480,15
3144112,11
3144740,11
3145360,16
3145992,13
3146616,12
3147244,13
3147876,1
3148496,12
3149128,12
3149752,15
3150376,17
3151008,19
3151624,19
3152256,17
3152880,11
3153504,12
3154136,12
3154760,13
3155388,11
3156020,12
3156640,13
3157268,17
3157896,2
3158524,14
3159156,16
3159776,16
3160408,15
3161032,13
3161656,12
3162284,1
3162904,11
3163532,11
3164164,14
3164784,24
3165416,28
3166040,31
3166672,21
3167304,15
3167920,14
3168552,15
3169176,12
3169804,11
3170432,1
3171056,13
3171688,11
3172312,11
3172936,14
3173568,17
3174188,2
3174820,16
3175452,14
3176072,17
3176700,18
3177328,17
3177956,15
3178588,18
3179208,17
3179840,11
3180464,1
3181088,13
3181720,12
3182336,13
3182968,16
3183592,19
3184216,21
3184848,18
3185468,16
3186096,12
3186728,11
3187344,1
3187976,1
3188600,11
3189232,11
3189860,11
3190480,13
3191112,17
3191736,16
3192360,15
3192992,14
3193612,15
3194244,15
3194868,14
3195492,11
3196124,1
3196748,11
3197380,9
3197960,1
3198588,1
3199220,13
3199844,15
3200476,15
3201104,14
3201728,15
3202356,11
3202980,13
3203600,14
3204232,14
3204848,12
3205476,11
3206100,11
3206724,11
3207352,1
3207968,14
3208600,14
3209228,14
3209848,15
3210476,15
3211100,11
3211728,14
3212360,16
3212976,19
3213608,23
3214228,13
3214856,12
3215484,1
3216104,13
3216732,12
3217356,14
3217980,16
3218608,14
3219224,1
3219856,12
3220476,11
3221104,13
3221732,14
3222356,15
3222988,13
3223620,1
3224240,14
3224868,15
3225492,14
3226120,15
3226748,14
3227368,11
3227996,1
3228620,9
3229192,1
3229820,12
3230440,15
3231068,13
3231692,27
3232320,35
3232948,34
3233568,26
3234196,19
3234828,15
3235448,15
3236076,11
3236700,1
3237332,11
3237960,1
3238584,12
3239212,12
3239836,12
3240460,13
3241092,13
3241712,12
3242340,14
3242964,14
3243588,16
3244220,14
3244840,12
3245468,1
3246100,1
3246720,12
3247348,2
3247972,21
3248604,2
3249236,19
3249856,2
3250484,19
3251112,15
3251736,16
3252364,18
3252984,14
3253612,13
3254236,25
3254864,25
3255492,16
3256112,11
3256744,12
3257372,12
3257992,16
3258620,19
3259248,2
3259876,17
3260508,14
3261128,11
3261760,15
3262384,2
3263008,24
3263640,22
3264256,19
3264888,11
3265512,11
3266136,14
3266764,11
3267384,14
3268012,15
3268644,16
3269264,15
3269892,13
3270520,13
3271148,14
3271780,14
3272400,13
3273028,18
3273656,2
3274280,22
3274908,21
3275528,18
3276160,15
3276784,15
3277408,11
3278036,11
3278660,11
3279288,14
3279916,16
3280536,2
3281164,23
3281784,17
3282412,17
3283040,2
3283664,17
3284292,14
3284912,14
3285532,15
3286164,28
3286784,17
3287412,1
3288032,12
3288656,17
3289284,12
3289904,14
3290532,13
3291160,15
3291776,13
3292404,17
3293028,15
3293656,15
3294284,15
3294904,2
3295532,16
3296156,12
3296780,1
3297408,1
3298024,12
3298652,1
3299276,11
3299896,14
3300524,19
3301144,23
3301772,19
3302396,12
3303020,12
3303648,14
3304272,14
3304900,15
3305528,11
3306152,11
3306780,13
3307404,15
3308032,15
3308664,14
3309280,16
3309908,17
3310532,14
3311156,11
3311788,1
3312408,14
3313036,18
3313660,12
3314288,15
3314916,2
3315540,23
3316172,21
3316800,16
3317416,14
3318044,15
3318668,15
3319300,1
3319928,1
3320548,1
3321176,11
3321800,11
3322424,11
3323052,12
3323672,15
3324300,13
3324924,12
3325552,15
3326180,15
3326804,15
3327436,11
3328064,17
3328684,16
3329312,16
3329932,16
3330564,21
3331192,21
3331808,19
3332436,17
3333060,15
3333684,14
3334312,15
3334932,14
3335560,13
3336184,11
3336808,11
3337436,11
3338060,1
3338688,11
3339316,11
3339936,11
3340564,11
3341188,13
3341816,15
3342444,24
3343064,22
3343692,15
3344316,11
3344940,1
3345568,17
3346184,21
3346816,2
3347440,22
3348064,18
3348692,16
3349316,16
3349944,14
3350572,13
3351192,15
3351820,14
3352444,11
3353076,16
3353704,2
3354328,14
3354956,15
3355580,24
3356204,17
3356832,11
3357456,15
3358084,16
3358708,14
3359332,16
3359964,15
3360588,15
3361216,11
3361844,11
3362460,1
3363092,11
3363716,14
3364344,16
3364972,16
3365592,12
3366220,14
3366844,13
3367468,14
3368096,16
3368712,16
3369340,12
3369964,1
3370588,12
3371216,14
3371832,11
3372460,11
3373092,12
3373712,16
3374340,17
3374964,13
3375596,15
3376224,15
3376848,18
3377476,11
3378100,1
3378724,12
3379352,13
3379976,12
3380604,12
3381224,14
3381848,15
3382476,16
3383096,18
3383724,17
3384352,16
3384976,19
3385604,12
3386224,1
3386856,1
3387484,12
3388104,11
3388732,12
3389356,16
3389980,14
3390612,12
3391232,15
3391860,13
3392488,15
3393108,15
3393740,13
3394360,17
3394988,13
3395620,11
3396240,12
3396868,1
3397492,11
3398120,1
3398752,1
3399368,13
3400000,13
3400620,14
3401244,16
3401872,17
3402496,13
3403124,13
3403748,16
3404372,16
3405000,11
3405624,11
3406252,11
3406880,13
3407496,14
3408128,15
3408748,16
3409380,14
3410008,15
3410624,11
3411256,12
3411876,15
3412500,15
3413132,11
3413752,13
3414384,13
3415008,15
3415632,13
3416260,25
3416880,23
3417508,17
3418140,16
3418760,16
3419388,18
3420012,2
3420644,13
3421272,1
3421896,13
3422524,11
3423148,12
3423776,13
3424404,14
3425024,14
3425652,16
3426276,15
3426900,16
3427528,1
3428152,14
3428780,12
3429412,14
3430032,14
3430664,14
3431284,13
3431916,12
3432544,12
3433168,14
3433796,16
3434420,16
3435044,16
3435676,12
3436296,11
3436924,12
3437548,1
3438176,1
3438804,11
3439428,12
3440060,11
3440688,16
3441312,16
3441940,14
3442564,14
3443192,16
3443824,15
3444440,16
3445068,11
3445692,11
3446316,12
3446948,12
3447568,2
3448196,18
3448820,11
3449444,25
3450076,25
3450700,14
3451328,17
3451956,18
3452576,17
3453204,13
3453828,14
3454460,11
3455092,1
3455712,13
3456344,12
3456964,11
3457588,14
3458220,13
3458840,15
3459468,14
3460092,14
3460720,12
3461348,14
3461972,11
3462604,12
3463232,18
3463848,21
3464476,19
3465100,17
3465732,17
3466360,22
3466976,18
3467608,17
3468232,16
3468856,13
3469484,12
3470104,11
3470732,1
3471356,12
3471984,13
3472616,12
3473240,11
3473868,12
3474500,14
3475120,15
3475752,15
3476376,15
3477000,15
3477628,1
3478248,13
3478876,14
3479504,15
3480128,13
3480756,1
3481376,1
3482008,11
3482636,14
3483256,13
3483884,15
3484508,14
3485136,15
3485764,1
3486384,13
3487012,1
3487636,9
3488212,11
3488844,11
3489464,12
3490092,11
3490716,11
3491340,13
3491968,14
3492592,15
3493220,15
3493844,13
3494468,14
3495096,16
3495720,18
3496348,13
3496980,1
3497600,15
3498228,16
3498852,11
3499484,13
3500112,13
3500736,13
3501368,16
3501992,15
3502616,15
3503244,11
3503864,11
3504496,11
3505120,13
3505744,13
3506372,12
3506992,13
3507624,21
3508252,24
3508872,19
3509500,14
3510124,19
3510756,23
3511388,21
3512008,24
3512636,19
3513264,16
3513888,13
3514516,1
3515136,15
3515768,22
3516392,14
3517016,21
3517648,28
3518264,26
3518896,19
3519528,18
3520144,14
3520776,14
3521400,13
3522028,11
3522660,11
3523280,14
3523908,15
3524532,16
3525152,15
3525784,19
3526400,19
3527028,12
3527652,13
3528276,11
3528908,11
3529528,18
3530156,15
3530788,14
3531408,14
3532036,19
3532664,27
3533292,3
3533924,2
3534544,17
3535172,15
3535796,9
3536372,11
3537004,16
3537624,27
3538252,18
3538876,11
3539500,11
3540132,1
3540752,12
3541380,13
3542004,14
3542632,15
3543260,15
3543884,11
3544516,12
3545144,1
3545764,9
3546340,1
3546968,16
3547596,24
3548228,23
3548848,19
3549476,18
3550100,17
3550728,22
3551356,2
3551976,13
3552608,18
3553232,18
3553856,13
3554484,12
3555104,13
3555736,12
3556364,11
3556984,11
3557616,14
3558240,14
3558872,15
3559500,13
3560120,15
3560748,12
3561372,1
3562000,1
3562628,13
3563248,22
3563876,24
3564504,16
3565128,14
3565756,15
3566376,2
3567008,25
3567636,21
3568256,17
3568884,11
3569508,11
3570140,11
3570772,16
3571392,19
3572020,15
3572648,14
3573272,15
3573900,11
3574520,14
3575148,15
3575776,15
3576400,16
3577028,2
3577648,19
3578276,17
3578908,16
3579528,16
3580160,17
3580784,16
3581416,12
3582044,1
3582664,13
3583296,13
3583924,14
3584548,16
3585180,16
3585800,16
3586428,13
3587052,1
3587676,11
3588304,1
3588928,11
3589556,11
3590188,1
3590808,15
3591436,13
3592060,15
3592692,14
3593320,13
3593944,12
3594572,13
3595196,13
3595824,11
3596452,1
3597072,16
3597700,14
3598328,11
3598952,17
3599580,24
3600204,19
3600836,15
3601464,14
3602088,12
3602716,1
3603340,11
3603972,12
3604600,1
3605224,13
3605852,15
3606476,12
3607096,14
3607728,15
3608344,14
3608972,15
3609596,15
3610224,17
3610852,2
3611476,19
3612108,13
3612736,15
3613356,17
3613984,15
3614608,17
3615236,17
3615868,19
3616488,21
3617116,18
3617740,14
3618364,15
3618992,11
3619612,11
3620240,12
3620868,1
3621488,15
3622116,27
3622740,21
3623372,11
3624000,11
3624616,13
3625248,15
3625872,15
3626500,15
3627132,1
3627752,11
3628380,12
3629004,15
3629628,17
3630260,16
3630880,23
3631508,23
3632140,2
3632760,21
3633388,19
3634012,17
3634644,15
3635276,12
3635896,13
3636524,14
3637148,11
3637772,12
3638400,12
3639024,11
3639652,1
3640280,12
3640904,15
3641532,12
3642152,15
3642780,15
3643412,14
3644032,9
3644612,13
3645240,24
3645872,31
3646500,3
3647120,21
3647748,11
3648376,11
3649004,12
3649632,13
3650252,18
3650880,2
3651504,18
3652128,15
3652756,11
3653376,12
3654004,11
3654632,11
3655256,11
3655884,14
3656504,19
3657132,19
3657764,16
3658384,15
3659012,15
3659640,16
3660268,15
3660900,14
3661520,11
3662148,17
3662772,16
3663396,11
3664028,1
3664648,13
3665276,18
3665900,24
3666528,31
3667156,22
3667780,15
3668412,14
3669044,1
3669664,1
3670296,1
3670920,11
3671552,11
3672180,11
3672800,12
3673428,13
3674056,15
3674680,12
3675312,16
3675928,16
3676560,15
3677188,13
3677808,16
3678440,14
3679064,13
3679692,11
3680324,11
3680944,15
3681572,16
3682200,21
3682824,2
3683452,24
3684072,23
3684700,17
3685328,11
3685952,11
3686584,1
3687200,13
3687828,11
3688456,13
3689072,13
3689704,11
3690324,12
3690956,14
3691584,14
3692200,16
3692832,16
3693452,14
3694084,11
3694712,11
3695328,1
3695960,13
3696584,18
3697208,21
3697836,19
3698456,21
3699084,21
3699708,14
3700336,19
3700964,16
3701588,15
3702220,11
3702848,1
3703472,14
3704100,13
3704728,11
3705352,12
3705980,11
3706600,12
3707228,11
3707852,14
3708476,14
3709108,14
3709728,15
3710356,13
3710988,12
3711608,13
3712240,11
3712860,13
3713492,21
3714120,24
3714740,23
3715368,19
3715992,16
3716616,17
3717244,15
3717864,16
3718492,12
3719116,11
3719740,1
3720372,1
3720992,13
3721620,12
3722252,1
3722872,13
3723500,15
3724128,16
3724756,13
3725388,14
3726008,16
3726636,15
3727264,13
3727888,15
3728516,15
3729136,14
3729764,13
3730388,17
3731012,18
3731644,18
3732264,19
3732892,15
3733524,17
3734144,17
3734776,16
3735400,12
3736028,11
3736660,12
3737280,11
3737912,11
3738536,17
3739156,15
3739788,1
3740408,13
3741036,18
3741664,16
3742288,15
3742916,19
3743536,14
3744168,12
3744796,15
3745416,21
3746044,17
3746672,1
3747300,1
3747932,14
3748552,23
3749180,26
3749808,25
3750432,2
3751060,14
3751680,14
3752308,11
3752936,15
3753560,17
3754192,15
3754808,14
3755440,12
3756072,11
3756688,11
3757320,13
3757944,14
3758576,16
3759204,14
3759824,15
3760456,14
3761080,14
3761704,16
3762336,19
3762952,2
3763584,19
3764208,19
3764832,16
3765460,13
3766088,16
3766716,15
3767348,14
3767968,15
3768600,11
3769224,9
3769800,11
3770436,1
3771056,11
3771684,11
3772312,11
3772936,12
3773564,12
3774184,15
3774816,14
3775440,15
3776064,15
3776692,14
3777312,12
3777940,13
3778572,14
3779192,15
3779824,13
3780448,12
3781076,13
3781708,12
3782328,18
3782960,18
3783584,22
3784208,25
3784836,23
3785456,24
3786088,24
3786712,23
3787336,17
3787968,12
3788588,11
3789216,25
3789848,33
3790464,21
3791096,15
3791720,19
3792352,18
3792980,16
3793600,13
3794228,1
3794852,11
3795480,1
3796108,1
3796728,11
3797356,11
3797984,11
3798608,1
3799240,18
3799856,16
3800488,17
3801116,16
3801736,17
3802364,13
3802988,11
3803620,11
3804252,11
3804872,11
3805500,11
3806128,11
3806752,12
3807384,15
3808000,19
3808632,22
3809256,18
3809880,15
3810508,14
3811128,23
3811760,25
3812388,22
3813008,18
3813640,15
3814264,9
3814844,1
3815476,14
3816096,18
3816724,2
3817352,24
3817980,24
3818612,22
3819232,19
3819864,14
3820488,11
3821112,1
3821744,11
3822360,11
3822992,11
3823624,14
3824244,18
3824876,21
3825500,15
3826132,15
3826764,15
3827384,24
3828016,23
3828640,19
3829264,17
3829896,14
3830512,11
3831144,1
3831772,11
3832396,15
3833028,2
3833648,19
3834280,17
3834912,14
3835532,1
3836160,11
3836788,11
3837420,1
3838052,12
3838672,12
3839304,11
3839932,15
3840560,21
3841188,14
3841808,16
3842436,15
3843060,16
3843684,12
3844312,11
3844936,13
3845568,13
3846196,2
3846816,23
3847444,24
3848068,16
3848700,21
3849328,18
3849948,16
3850576,15
3851200,15
3851824,12
3852452,12
3853072,12
3853700,11
3854324,11
3854948,11
3855580,11
3856204,11
3856832,11
3857460,16
3858080,13
3858708,15
3859332,15
3859964,14
3860592,12
3861216,16
3861844,17
3862468,13
3863092,13
3863724,2
3864344,26
3864972,25
3865596,18
3866224,13
3866856,14
3867480,15
3868108,23
3868740,14
3869360,11
3869988,12
3870616,14
3871240,2
3871868,22
3872488,17
3873116,12
3873740,15
3874368,2
3874996,2
3875616,15
3876248,15
3876876,1
3877496,11
3878128,16
3878752,19
3879380,15
3880012,15
3880632,17
3881264,12
3881888,11
3882512,17
3883144,17
3883760,19
3884392,19
3885016,15
3885640,13
3886268,13
3886888,13
3887516,12
3888148,11
3888768,12
3889396,12
3890024,12
3890652,14
3891284,15
3891904,16
3892532,17
3893156,19
3893780,9
3894356,13
3894984,15
3895612,17
3896240,24
3896864,21
3897492,19
3898112,13
3898740,13
3899368,14
3899992,15
3900620,14
3901240,15
3901872,12
3902500,17
3903120,14
3903752,1
3904376,13
3905004,11
3905636,11
3906256,12
3906884,12
3907508,15
3908136,14
3908764,14
3909384,15
3910016,12
3910640,13
3911264,11
3911896,11
3912520,14
3913148,21
3913780,24
3914400,18
3915028,16
3915656,18
3916288,15
3916916,16
3917536,17
3918168,16
3918792,11
3919416,11
3920048,11
3920664,11
3921292,1
3921916,11
3922544,14
3923176,19
3923800,19
3924432,15
3925060,16
3925680,15
3926312,14
3926936,12
3927560,16
3928192,2
3928808,22
3929440,21
3930064,12
3930688,13
3931320,11
3931936,13
3932568,2
3933200,25
3933816,24
3934444,2
3935068,14
3935700,1
3936328,1
3936952,11
3937580,1
3938204,11
3938828,11
3939460,12
3940080,14
3940708,16
3941332,15
3941956,14
3942588,14
3943208,15
3943836,13
3944464,15
3945088,15
3945716,14
3946340,14
3946972,13
3947600,11
3948216,11
3948848,18
3949472,2
3950096,17
3950724,14
3951344,15
3951976,11
3952600,11
3953224,12
3953852,12
3954472,13
3955100,11
3955732,11
3956352,12
3956980,11
3957604,13
3958236,14
3958868,14
3959488,17
3960120,11
3960744,11
3961368,17
3961996,14
3962616,12
3963248,21
3963868,24
3964496,19
3965124,22
3965744,21
3966376,17
3967004,14
3967624,14
3968256,13
3968880,11
3969508,1
3970140,1
3970760,11
3971388,12
3972012,14
3972640,17
3973268,14
3973888,14
3974516,14
3975140,15
3975764,15
3976396,15
3977016,11
3977644,1
3978276,14
3978896,2
3979524,19
3980148,18
3980780,16
3981412,15
3982032,18
3982664,15
3983288,15
3983912,15
3984544,14
3985160,13
3985788,11
3986416,11
3987040,11
3987668,11
3988296,13
3988924,13
3989556,14
3990176,13
3990808,2
3991432,2
3992064,17
3992696,18
3993312,21
3993944,11
3994568,11
3995192,19
3995824,21
3996440,21
3997072,29
3997704,27
3998320,18
3998952,15
3999576,17
4000208,2
4000836,17
4001456,15
4002084,1
4002708,12
4003336,11
4003964,1
4004584,11
4005212,12
4005836,16
4006460,15
4007088,15
4007704,14
4008336,15
4008960,14
4009584,15
4010212,14
4010836,14
4011468,13
4012100,11
4012720,11
4013352,19
4013976,2
4014600,18
4015228,18
4015848,19
4016476,17
4017100,15
4017724,15
4018356,12
4018976,11
4019604,1
4020236,12
4020856,13
4021484,16
4022108,23
4022736,2
4023368,15
4023984,15
4024616,14
4025240,16
4025864,19
4026492,26
4027112,25
4027740,2
4028368,15
4028992,1
4029620,1
4030240,11
4030868,11
4031500,12
4032120,15
4032748,13
4033372,19
4034004,2
4034632,24
4035252,19
4035880,11
4036504,25
4037128,22
4037756,1
4038376,15
4039008,13
4039632,11
4040256,13
4040884,18
4041504,36
4042136,32
4042764,2
4043384,11
4044016,24
4044640,32
4045268,27
4045900,18
4046520,15
4047148,12
4047772,12
4048396,12
4049028,16
4049648,2
4050276,15
4050900,15
4051524,13
4052156,12
4052776,16
4053408,15
4054036,12
4054656,11
4055288,13
4055908,2
4056540,18
4057172,18
4057792,17
4058420,17
4059044,15
4059668,16
4060300,19
4060920,18
4061548,16
4062172,19
4062800,18
4063428,13
4064048,13
4064676,13
4065308,16
4065928,16
4066556,18
4067184,15
4067812,15
4068444,12
4069064,11
4069696,11
4070320,11
4070944,11
4071576,1
4072196,11
4072824,11
4073448,11
4074072,16
4074704,15
4075320,16
4075952,2
4076584,14
4077200,12
4077832,17
4078456,2
4079084,16
4079716,12
4080336,11
4080968,11
4081592,11
4082216,14
4082848,17
4083464,18
4084096,17
4084720,16
4085344,12
4085976,11
4086600,12
4087228,12
4087860,1
4088480,11
4089108,14
4089736,17
4090364,22
4090996,17
4091616,15
4092248,15
4092872,17
4093496,19
4094128,12
4094744,11
4095376,11
4096008,1
4096628,11
4097256,15
4097876,15
4098504,14
4099132,16
4099752,19
4100380,17
4101000,15
4101632,12
4102260,1
4102880,11
4103508,1
4104132,1
4104752,12
4105380,1
4106000,13
4106628,23
4107252,21
4107872,15
4108500,13
4109124,15
4109752,14
4110380,11
4111000,13
4111628,17
4112252,17
4112880,17
4113508,18
4114128,16
4114756,14
4115380,16
4116004,15
4116632,16
4117248,15
4117876,15
4118500,13
4119124,13
4119752,11
4120368,11
4121000,11
4121628,1
4122244,12
4122872,13
4123496,11
4124128,13
4124756,14
4125376,15
4126004,13
4126628,1
4127252,1
4127880,1
4128504,12
4129132,1
4129756,11
4130380,1
4131008,1
4131628,1
4132256,15
4132884,16
4133504,16
4134132,15
4134756,24
4135384,19
4136016,11
4136632,18
4137260,21
4137884,25
4138508,21
4139136,12
4139760,12
4140388,14
4141012,13
4141636,15
4142264,2
4142888,19
4143516,1
4144148,1
4144768,16
4145396,15
4146020,15
4146648,19
4147280,23
4147896,19
4148524,17
4149148,12
4149772,12
4150400,14
4151016,16
4151644,11
4152268,11
4152896,11
4153524,1
4154144,11
4154772,1
4155404,1
4156024,13
4156652,23
4157276,24
4157908,23
4158540,18
4159160,18
4159788,14
4160416,1
4161036,15
4161664,28
4162288,28
4162916,17
4163536,14
4164160,14
4164788,14
4165408,13
4166036,17
4166668,14
4167288,15
4167916,21
4168540,16
4169168,19
4169796,22
4170416,13
4171044,1
4171668,11
4172292,11
4172924,1
4173544,16
4174172,14
4174796,14
4175420,14
4176048,15
4176664,13
4177296,11
4177916,12
4178544,17
4179172,19
4179796,17
4180424,13
4181056,15
4181672,17
4182300,15
4182924,13
4183556,16
4184184,14
4184800,12
4185432,1
4186056,12
4186680,17
4187308,11
4187928,11
4188556,11
4189180,1
4189808,12
4190436,13
4191060,13
4191692,14
4192320,14
4192936,14
4193568,11
4194192,11
4194820,1
4195452,1
4196072,11
4196700,11
4197324,13
4197948,13
4198580,16
4199200,15
4199828,13
4200456,14
4201072,15
4201704,11
4202324,12
4202956,14
4203584,13
4204200,12
4204832,11
4205452,12
4206084,11
4206712,13
4207328,15
4207956,15
4208584,15
4209208,14
4209836,12
4210456,12
4211084,11
4211708,1
4212336,12
4212964,13
4213588,15
4214220,16
4214848,14
4215472,16
4216100,15
4216728,15
4217348,15
4217980,22
4218600,19
4219228,11
4219852,13
4220476,13
4221108,11
4221728,11
4222356,11
4222988,1
4223608,15
4224240,13
4224860,15
4225488,17
4226116,19
4226736,15
4227364,11
4227988,17
4228612,2
4229244,18
4229864,19
4230492,12
4231116,11
4231740,11
4232368,13
4232988,14
4233616,17
4234244,18
4234864,15
4235492,1
4236116,1
4236748,11
4237380,11
4238000,12
4238628,13
4239252,15
4239880,13
4240508,14
4241128,15
4241756,15
4242380,13
4243004,12
4243632,12
4244256,16
4244884,14
4245516,8
4246084,1
4246716,1
4247336,11
4247964,13
4248596,18
4249216,24
4249848,21
4250468,19
4251100,17
4251728,11
4252348,11
4252976,12
4253600,11
4254224,13
4254852,14
4255472,19
4256104,24
4256724,19
4257348,13
4257980,19
4258600,2
4259228,16
4259860,1
4260480,13
4261108,13
4261732,16
4262360,16
4262988,14
4263608,13
4264236,11
4264860,11
4265484,13
4266112,13
4266728,14
4267360,14
4267984,13
4268608,12
4269236,1
4269856,11
4270484,12
4271116,1
4271736,12
4272364,12
4272988,11
4273620,14
4274248,12
4274868,15
4275496,19
4276120,15
4276744,11
4277372,1
4277992,17
4278620,15
4279244,12
4279868,13
4280500,16
4281120,12
4281748,12
4282376,12
4283000,14
4283628,14
4284252,15
4284884,11
4285512,15
4286132,16
4286760,15
4287384,15
4288008,11
4288636,12
4289256,13
4289884,12
4290508,15
4291132,15
4291764,14
4292384,14
4293012,12
4293644,1
4294264,13
4294896,13
4295520,15
4296148,17
4296780,14
4297400,12
4298028,12
4298656,14
4299280,16
4299908,19
4300528,2
4301160,17
4301780,11
4302404,13
4303036,2
4303656,14
4304284,15
4304916,2
4305536,16
4306164,11
4306788,16
4307420,17
4308048,2
4308664,18
4309292,14
4309916,12
4310540,2
4311172,18
4311792,17
4312420,14
4313044,15
4313668,15
4314300,14
4314920,16
4315548,18
4316180,17
4316800,17
4317428,15
4318052,12
4318684,1
4319316,1
4319936,11
4320568,12
4321192,13
4321816,13
4322444,14
4323064,17
4323692,17
4324316,13
4324940,15
4325572,14
4326192,15
4326824,1
4327452,13
4328072,25
4328700,24
4329324,17
4329956,1
4330584,1
4331204,9
4331780,15
4332408,13
4333036,15
4333668,18
4334288,18
4334916,14
4335544,12
4336168,11
4336796,1
4337416,11
4338044,11
4338668,1
4339296,12
4339924,11
4340548,15
4341180,17
4341808,15
4342432,16
4343060,14
4343684,11
4344316,1
4344944,11
4345564,19
4346196,26
4346820,2
4347444,14
4348072,11
4348692,15
4349320,15
4349948,15
4350572,14
4351200,14
4351828,11
4352460,1
4353088,1
4353704,11
4354332,11
4354956,11
4355584,11
4356216,12
4356832,14
4357464,13
4358088,15
4358708,2
4359340,14
4359960,13
4360588,15
4361212,14
4361840,16
4362468,16
4363092,1
4363724,1
4364352,9
4364920,11
4365548,13
4366172,17
4366804,14
4367432,15
4368052,11
4368680,11
4369304,11
4369924,13
4370556,11
4371176,11
4371808,12
4372432,13
4373056,14
4373684,14
4374304,14
4374936,17
4375564,14
4376184,15
4376812,15
4377440,14
4378068,17
4378700,14
4379320,1
4379948,1
4380576,1
4381200,12
4381828,17
4382448,16
4383080,19
4383704,16
4384328,15
4384956,14
4385576,13
4386204,11
4386836,1
4387456,13
4388084,12
4388708,11
4389340,14
4389972,14
4390592,13
4391220,16
4391848,16
4392472,14
4393100,1
4393720,12
4394348,15
4394972,12
4395600,1
4396228,14
4396848,17
4397476,16
4398108,14
4398728,17
4399356,2
4399984,22
4400616,16
4401248,12
4401864,11
4402496,11
4403120,1
4403744,11
4404372,1
4404992,11
4405620,11
4406244,12
4406868,14
4407500,14
4408120,14
4408748,14
4409380,14
4410000,1
4410628,1
4411252,1
4411884,9
4412464,11
4413088,17
4413720,18
4414344,24
4414972,26
4415604,19
4416224,16
4416852,17
4417476,14
4418100,11
4418732,1
4419352,12
4419980,12
4420608,11
4421232,12
4421860,13
4422488,14
4423116,15
4423748,16
4424368,14
4424996,15
4425620,16
4426244,13
4426876,1
4427496,11
4428124,13
4428752,19
4429376,2
4430004,9
4430572,1
4431204,19
4431828,22
4432456,19
4433084,16
4433704,15
4434332,15
4434964,1
4435584,11
4436212,11
4436840,11
4437468,11
4438100,1
4438720,11
4439348,15
4439976,19
4440600,16
4441228,14
4441848,14
4442476,14
4443100,13
4443728,11
4444356,14
4444976,23
4445604,24
4446236,23
4446856,25
4447484,16
4448112,11
4448740,13
4449372,12
4449992,15
4450620,15
4451248,11
4451872,13
4452500,14
4453120,17
4453748,14
4454376,12
4455000,11
4455632,14
4456252,15
4456880,15
4457508,13
4458128,16
4458756,16
4459384,17
4460012,13
4460644,1
4461264,16
4461896,17
4462520,21
4463144,25
4463776,15
4464396,1
4465024,13
4465648,12
4466276,14
4466904,16
4467528,19
4468156,15
4468788,1
4469408,15
4470040,12
4470664,11
4471292,12
4471924,11
4472544,14
4473176,22
4473800,16
4474424,15
4475056,14
4475672,19
4476304,13
4476936,15
4477552,24
4478184,26
4478812,25
4479444,21
4480072,1
4480696,13
4481324,11
4481948,18
4482568,18
4483200,14
4483816,15
4484444,13
4485068,11
4485696,17
4486324,18
4486944,13
4487572,11
4488204,12
4488824,14
4489452,16
4490076,16
4490708,14
4491340,14
4491960,17
4492592,16
4493216,2
4493840,18
4494468,14
4495088,11
4495720,13
4496344,1
4496968,11
4497596,12
4498216,15
4498844,13
4499476,14
4500096,16
4500724,16
4501352,15
4501980,15
4502612,12
4503232,11
4503864,12
4504488,11
4505112,12
4505744,11
4506360,15
4506988,16
4507612,13
4508236,14
4508864,16
4509480,17
4510112,19
4510740,1
4511360,16
4511988,19
4512612,23
4513244,21
4513872,16
4514496,15
4515124,15
4515748,14
4516376,14
4517004,14
4517624,14
4518252,1
4518876,11
4519500,1
4520132,1
4520752,13
4521380,12
4522012,1
4522632,12
4523260,14
4523888,15
4524516,17
4525148,15
4525768,15
4526396,11
4527024,1
4527648,15
4528276,15
4528896,17
4529524,19
4530148,13
4530772,13
4531404,18
4532024,21
4532652,17
4533284,18
4533904,16
4534536,11
4535160,12
4535788,14
4536420,11
4537040,12
4537668,11
4538292,13
4538916,2
4539548,24
4540168,2
4540796,15
4541424,15
4542048,15
4542680,17
4543304,9
4543884,13
4544520,19
4545136,17
4545768,15
4546392,13
4547024,12
4547652,12
4548272,15
4548900,13
4549524,13
4550152,19
4550780,21
4551400,16
4552032,13
4552652,13
4553276,12
4553908,1
4554528,11
4555160,12
4555788,19
4556408,23
4557040,18
4557664,15
4558292,17
4558924,14
4559544,12
4560176,2
4560796,1
4561424,13
4562052,14
4562672,17
4563300,2
4563924,21
4564548,18
4565180,16
4565800,14
4566432,15
4567060,14
4567680,15
4568308,13
4568936,12
4569564,11
4570196,14
4570816,15
4571448,13
4572072,13
4572696,12
4573328,15
4573944,14
4574576,16
4575200,15
4575824,15
4576456,1
4577072,1
4577704,1
4578332,9
4578900,11
4579536,12
4580152,14
4580784,14
4581416,15
4582036,19
4582664,19
4583292,16
4583920,15
4584552,11
4585168,11
4585800,12
4586424,15
4587048,12
4587680,1
4588296,16
4588924,23
4589548,23
4590172,23
4590804,2
4591428,14
4592056,14
4592688,12
4593304,11
4593932,14
4594556,15
4595188,17
4595820,16
4596440,16
4597072,2
4597696,21
4598320,21
4598952,16
4599568,15
4600200,15
4600824,15
4601448,11
4602076,11
4602700,11
4603332,12
4603964,14
4604584,12
4605216,16
4605840,25
4606468,21
4607100,13
4607720,14
4608352,15
4608976,17
4609596,13
4610228,12
4610848,11
4611476,1
4612108,1
4612728,11
4613356,1
4613980,11
4614612,16
4615240,19
4615856,17
4616488,16
4617112,15
4617736,13
4618364,13
4618984,13
4619612,12
4620236,1
4620860,11
4621488,1
4622112,13
4622740,13
4623372,18
4623992,22
4624624,21
4625248,14
4625876,15
4626508,1
4627128,11
4627760,12
4628384,21
4629008,25
4629636,22
4630256,17
4630884,17
4631508,17
4632132,18
4632764,16
4633384,15
4634016,16
4634644,11
4635264,11
4635892,11
4636520,11
4637148,12
4637780,12
4638400,13
4639028,13
4639656,13
4640280,15
4640908,14
4641528,15
4642156,14
4642780,12
4643404,1
4644032,13
4644656,19
4645284,19
4645916,14
4646536,14
4647164,1
4647788,1
4648420,14
4649048,13
4649672,15
4650300,15
4650924,14
4651548,13
4652176,18
4652800,29
4653428,21
4654052,15
4654680,13
4655308,11
4655928,2
4656560,31
4657188,27
4657808,24
4658440,19
4659064,15
4659692,21
4660324,2
4660944,22
4661572,22
4662200,17
4662824,14
4663452,12
4664072,13
4664700,13
4665328,15
4665952,15
4666580,14
4667204,14
4667836,11
4668468,1
4669088,11
4669720,11
4670344,11
4670972,1
4671604,11
4672224,18
4672852,21
4673476,21
4674100,21
4674728,17
4675352,16
4675980,12
4676604,18
4677232,27
4677860,29
4678484,23
4679116,16
4679748,16
4680368,16
4680996,13
4681620,15
4682244,13
4682876,14
4683496,18
4684128,17
4684752,16
4685376,13
4686004,11
4686624,11
4687252,12
4687884,14
4688504,17
4689132,17
4689756,19
4690388,13
4691020,14
4691640,14
4692268,15
4692892,11
4693516,13
4694148,16
4694768,21
4695400,19
4696024,15
4696648,12
4697276,1
4697896,11
4698524,16
4699156,2
4699776,19
4700408,17
4701032,11
4701664,14
4702292,12
4702912,1
4703544,11
4704168,1
4704792,12
4705424,11
4706040,11
4706672,17
4707296,2
4707920,22
4708552,16
4709168,13
4709800,12
4710432,16
4711048,22
4711680,23
4712304,14
4712932,14
4713564,12
4714184,11
4714816,14
4715440,13
4716064,16
4716696,14
4717312,14
4717944,12
4718568,11
4719192,13
4719824,12
4720444,11
4721072,12
4721704,11
4722324,13
4722952,14
4723576,13
4724204,13
4724836,14
4725456,15
4726088,1
4726712,12
4727336,15
4727968,18
4728584,14
4729216,14
4729840,14
4730464,11
4731096,11
4731720,15
4732352,15
4732980,17
4733600,22
4734232,13
4734856,13
4735488,15
4736120,19
4736736,23
4737364,2
4737988,14
4738612,12
4739244,16
4739864,22
4740492,17
4741116,14
4741744,13
4742376,17
4743000,14
4743632,13
4744260,13
4744880,13
4745508,13
4746136,16
4746760,16
4747392,12
4748008,15
4748640,2
4749264,16
4749888,15
4750520,14
4751136,11
4751768,12
4752400,14
4753016,15
4753648,11
4754272,12
4754900,13
4755532,15
4756152,17
4756784,19
4757408,18
4758032,18
4758664,17
4759280,11
4759912,15
4760536,17
4761164,17
4761792,18
4762416,2
4763044,22
4763676,2
4764296,16
4764924,17
4765552,16
4766180,17
4766812,14
4767432,15
4768064,15
4768684,17
4769312,15
4769940,1
4770560,12
4771188,14
4771816,15
4772440,16
4773072,17
4773688,13
4774320,15
4774952,15
4775568,15
4776200,11
4776824,12
4777456,11
4778084,1
4778704,14
4779336,15
4779960,18
4780584,2
4781216,2
4781836,15
4782464,15
4783092,15
4783716,16
4784348,16
4784972,17
4785604,15
4786236,1
4786856,11
4787488,15
4788112,17
4788744,14
4789376,12
4789992,15
4790624,15
4791252,15
4791876,14
4792508,12
4793128,11
4793760,12
4794388,9
4794956,9
4795540,14
4796164,19
4796796,17
4797424,11
4798048,16
4798680,13
4799304,17
4799936,2
4800568,24
4801192,26
4801820,21
4802444,16
4803076,9
4803652,11
4804280,12
4804908,14
4805532,15
4806156,15
4806788,2
4807408,22
4808036,15
4808660,14
4809284,12
4809916,14
4810536,17
4811168,21
4811796,19
4812416,15
4813048,18
4813672,15
4814300,17
4814932,19
4815552,19
4816180,21
4816804,16
4817428,14
4818060,1
4818680,12
4819308,11
4819932,17
4820556,19
4821188,11
4821808,11
4822436,12
4823068,16
4823688,13
4824316,15
4824944,16
4825572,14
4826204,1
4826824,15
4827452,18
4828080,2
4828704,16
4829336,14
4829952,15
4830584,12
4831208,11
4831832,13
4832464,13
4833080,14
4833712,15
4834340,11
4834960,1
4835588,12
4836216,13
4836844,1
4837476,11
4838096,13
4838728,12
4839348,11
4839976,15
4840604,14
4841224,15
4841852,16
4842476,15
4843104,13
4843732,13
4844356,15
4844988,13
4845620,1
4846240,12
4846868,13
4847496,11
4848124,14
4848756,14
4849376,15
4850008,18
4850632,19
4851256,12
4851884,22
4852504,23
4853132,14
4853764,11
4854384,11
4855016,11
4855640,11
4856272,14
4856900,12
4857520,15
4858152,13
4858776,13
4859400,11
4860032,12
4860648,13
4861280,18
4861904,2
4862528,17
4863160,15
4863780,17
4864412,19
4865044,14
4865664,15
4866292,14
4866916,2
4867548,17
4868176,11
4868800,12
4869428,9
4870004,11
4870640,13
4871268,13
4871888,12
4872520,11
4873144,15
4873768,14
4874396,18
4875016,18
4875648,19
4876272,11
4876896,11
4877524,1
4878148,15
4878780,19
4879412,18
4880032,11
4880660,1
4881284,13
4881916,17
4882544,21
4883168,22
4883800,22
4884424,17
4885048,14
4885676,1
4886296,1
4886928,11
4887556,14
4888176,13
4888804,13
4889432,11
4890060,13
4890692,14
4891312,13
4891944,15
4892568,11
4893192,11
4893824,14
4894440,19
4895072,21
4895696,17
4896320,11
4896948,1
4897568,13
4898200,17
4898828,17
4899448,17
4900080,18
4900704,17
4901336,15
4901964,15
4902584,13
4903216,9
4903788,13
4904424,26
4905052,37
4905672,31
4906304,17
4906928,16
4907552,22
4908184,2
4908800,17
4909432,11
4910056,1
4910684,1
4911316,16
4911940,16
4912576,13
4913208,14
4913828,19
4914460,21
4915084,18
4915716,18
4916348,19
4916968,16
4917596,11
4918220,11
4918844,11
4919472,1
4920096,12
4920724,11
4921356,12
4921976,2
4922604,16
4923228,15
4923860,13
4924488,14
4925104,14
4925736,17
4926360,17
4926984,15
4927612,12
4928232,11
4928860,13
4929484,11
4930108,15
4930736,19
4931356,19
4931984,18
4932612,16
4933232,15
4933860,16
4934484,11
4935116,1
4935744,12
4936368,15
4936996,14
4937620,12
4938244,11
4938876,1
4939496,14
4940128,13
4940752,18
4941376,21
4942004,2
4942624,11
4943252,12
4943884,14
4944504,16
4945132,13
4945756,15
4946388,13
4947020,12
4947640,14
4948268,16
4948892,2
4949516,21
4950148,2
4950768,16
4951400,13
4952024,11
4952648,1
4953276,1
4953896,1
4954528,12
4955160,11
4955776,12
4956408,15
4957032,13
4957664,15
4958292,16
4958912,17
4959544,11
4960168,1
4960788,16
4961420,24
4962040,2
4962668,14
4963292,11
4963916,11
4964548,16
4965168,18
4965796,16
4966428,16
4967048,17
4967676,11
4968300,12
4968928,13
4969560,11
4970180,1
4970808,11
4971432,11
4972056,11
4972684,11
4973304,13
4973932,15
4974560,13
4975184,15
4975812,12
4976432,11
4977064,13
4977692,12
4978312,17
4978944,18
4979568,18
4980196,15
4980828,19
4981448,26
4982076,18
4982704,16
4983328,17
4983960,15
4984576,11
4985208,15
4985832,19
4986456,11
4987088,11
4987704,13
4988336,13
4988964,12
4989584,13
4990216,14
4990840,17
4991472,17
4992104,15
4992720,16
4993348,12
4993972,1
4994596,1
4995228,1
4995848,13
4996476,18
4997104,23
4997728,17
4998356,14
4998984,15
4999612,17
5000244,16
5000864,11
5001492,11
5002116,13
5002748,1
5003380,1
5004000,11
5004628,13
5005256,14
5005880,13
5006508,17
5007128,2
5007760,15
5008388,17
5009008,13
5009636,11
5010264,14
5010892,14
5011524,1
5012144,11
5012776,11
5013400,14
5014024,18
5014656,17
5015272,22
5015904,21
5016528,16
5017156,15
5017788,1
5018408,11
5019036,11
5019668,1
5020288,11
5020916,11
5021540,12
5022172,15
5022804,19
5023424,15
5024056,14
5024680,15
5025304,15
5025932,1
5026552,11
5027184,15
5027808,19
5028432,18
5029064,21
5029680,2
5030312,16
5030944,15
5031564,14
5032192,14
5032820,15
5033448,14
5034080,1
5034700,11
5035332,11
5035956,13
5036584,11
5037216,11
5037832,15
5038464,17
5039088,17
5039716,18
5040344,15
5040972,14
5041600,15
5042228,13
5042848,1
5043480,11
5044104,11
5044732,16
5045364,14
5045984,17
5046616,22
5047240,25
5047864,24
5048496,17
5049112,22
5049744,21
5050372,16
5050992,11
5051624,11
5052248,11
5052880,11
5053508,1
5054128,11
5054760,11
5055384,12
5056008,11
5056636,13
5057256,15
5057888,16
5058512,22
5059136,17
5059768,11
5060384,1
5061016,9
5061588,9
5062164,12
5062800,16
5063416,16
5064048,19
5064672,25
5065296,23
5065928,19
5066544,14
5067176,17
5067808,14
5068428,15
5069060,11
5069684,11
5070316,17
5070944,21
5071568,13
5072200,12
5072824,17
5073448,15
5074080,15
5074696,14
5075328,18
5075952,1
5076576,16
5077208,25
5077832,24
5078464,15
5079096,13
5079712,14
5080344,12
5080968,12
5081600,15
5082228,22
5082848,2
5083480,15
5084104,11
5084728,13
5085360,1
5085976,1
5086608,1
5087240,11
5087860,13
5088492,11
5089116,13
5089748,14
5090376,14
5090996,15
5091628,15
5092252,12
5092880,13
5093508,19
5094128,19
5094760,16
5095388,15
5096012,15
5096640,15
5097264,15
5097896,18
5098528,15
5099144,14
5099780,16
5100404,17
5101036,16
5101668,16
5102288,18
5102920,18
5103544,11
5104172,12
5104804,12
5105424,13
5106056,15
5106680,13
5107304,15
5107936,15
5108560,14
5109192,15
5109824,22
5110444,23
5111076,16
5111700,15
5112328,11
5112960,1
5113580,11
5114212,11
5114840,17
5115464,18
5116096,17
5116720,17
5117356,12
5117988,11
5118612,11
5119244,11
5119872,11
5120504,1
5121132,11
5121752,13
5122380,13
5123000,13
5123624,17
5124256,14
5124872,16
5125500,19
5126124,19
5126744,17
5127376,17
5127992,11
5128620,13
5129252,18
5129872,2
5130500,15
5131124,18
5131752,2
5132384,22
5133000,21
5133632,19
5134252,13
5134876,15
5135508,12
5136128,11
5136756,1
5137380,13
5138004,26
5138632,19
5139256,13
5139884,14
5140516,14
5141136,15
5141764,15
5142388,11
5143020,13
5143648,14
5144268,16
5144896,2
5145520,17
5146144,15
5146772,12
5147392,12
5148020,16
5148644,21
5149268,21
5149900,16
5150520,15
5151148,16
5151780,16
5152400,11
5153028,12
5153652,14
5154280,11
5154912,13
5155532,13
5156160,13
5156784,15
5157408,14
5158036,14
5158656,16
5159284,17
5159908,17
5160536,15
5161164,1
5161784,23
5162412,16
5163044,22
5163664,3
5164292,37
5164916,29
5165548,2
5166176,18
5166796,17
5167424,18
5168048,11
5168672,17
5169300,16
5169920,1
5170548,11
5171172,11
5171800,16
5172428,13
5173048,15
5173676,15
5174308,14
5174928,14
5175556,11
5176184,11
5176812,11
5177444,16
5178064,18
5178692,14
5179316,13
5179944,12
5180572,14
5181192,17
5181824,16
5182448,16
5183072,15
5183700,14
5184328,11
5184956,13
5185584,14
5186208,18
5186836,16
5187460,14
5188092,11
5188720,17
5189344,21
5189972,17
5190600,15
5191224,14
5191852,15
5192472,13
5193100,11
5193732,18
5194352,21
5194984,21
5195608,23
5196236,26
5196868,14
5197488,15
5198116,15
5198740,13
5199368,17
5199996,19
5200616,21
5201248,2
5201872,15
5202496,14
5203124,18
5203744,19
5204372,11
5205004,12
5205624,14
5206252,15
5206880,13
5207508,14
5208140,14
5208760,15
5209388,11
5210016,11
5210640,11
5211268,15
5211888,15
5212520,13
5213144,1
5213768,12
5214396,14
5215016,14
5215648,17
5216280,23
5216896,28
5217524,25
5218152,21
5218780,16
5219412,12
5220032,11
5220660,12
5221288,11
5221912,17
5222544,22
5223160,17
5223788,19
5224412,14
5225036,16
5225668,15
5226288,19
5226916,17
5227548,14
5228168,12
5228796,12
5229424,14
5230052,15
5230684,12
5231304,14
5231936,15
5232560,18
5233184,17
5233816,14
5234432,15
5235064,15
5235688,11
5236312,11
5236944,11
5237560,12
5238192,12
5238824,13
5239440,17
5240072,17
5240696,19
5241324,16
5241956,14
5242576,11
5243208,11
5243828,15
5244452,18
5245080,2
5245704,17
5246332,12
5246956,2
5247580,25
5248212,24
5248832,2
5249460,15
5250088,15
5250704,11
5251332,12
5251956,14
5252584,15
5253216,11
5253832,12
5254460,11
5255084,11
5255708,13
5256336,18
5256952,19
5257580,17
5258204,14
5258828,19
5259460,23
5260080,18
5260708,11
5261340,18
5261960,2
5262588,2
5263212,15
5263844,14
5264472,17
5265088,19
5265720,19
5266344,21
5266964,18
5267596,14
5268216,13
5268844,12
5269468,11
5270092,11
5270720,11
5271344,14
5271972,15
5272604,15
5273224,13
5273852,14
5274476,16
5275108,17
5275736,11
5276356,11
5276984,11
5277608,11
5278232,11
5278860,12
5279480,15
5280108,13
5280732,17
5281356,21
5281984,22
5282600,16
5283228,15
5283856,14
5284480,13
5285108,11
5285728,16
5286360,21
5286988,17
5287608,12
5288236,14
5288860,19
5289480,23
5290112,17
5290728,14
5291356,15
5291980,15
5292604,11
5293236,13
5293856,16
5294484,19
5295116,24
5295736,17
5296364,13
5296988,15
5297620,19
5298248,18
5298864,16
5299496,19
5300120,17
5300744,15
5301372,17
5301992,21
5302620,15
5303244,11
5303868,11
5304500,14
5305120,18
5305748,16
5306380,2
5307000,18
5307628,16
5308252,14
5308884,11
5309512,1
5310132,12
5310760,12
5311388,11
5312012,11
5312640,1
5313256,11
5313888,13
5314512,23
5315136,21
5315764,18
5316384,17
5317012,13
5317644,1
5318264,11
5318896,11
5319520,12
5320148,13
5320780,13
5321400,11
5322028,13
5322656,16
5323280,13
5323908,16
5324528,18
5325160,16
5325780,12
5326404,14
5327032,2
5327648,2
5328280,18
5328908,16
5329528,18
5330156,19
5330780,16
5331408,17
5332036,14
5332656,15
5333284,15
5333908,11
5334536,14
5335164,16
5335784,15
5336412,12
5337036,11
5337660,19
5338288,24
5338904,25
5339536,25
5340164,15
5340784,16
5341412,15
5342036,13
5342668,19
5343296,23
5343920,17
5344552,13
5345176,13
5345800,15
5346428,14
5347048,14
5347676,17
5348300,25
5348924,27
5349556,14
5350176,2
5350808,14
5351436,1
5352056,12
5352684,13
5353308,11
5353940,11
5354568,11
5355188,15
5355816,16
5356440,12
5357068,13
5357696,14
5358316,16
5358944,12
5359568,12
5360192,1
5360824,1
5361440,11
5362068,13
5362700,1
5363320,11
5363948,17
5364572,23
5365204,23
5365832,2
5366456,15
5367084,11
5367708,11
5368332,13
5368960,13
5369584,11
5370216,1
5370840,1
5371464,11
5372092,11
5372712,15
5373344,19
5373972,21
5374592,15
5375224,15
5375848,11
5376480,13
5377108,14
5377728,16
5378356,15
5378980,16
5379604,15
5380232,16
5380852,19
5381480,17
5382104,16
5382728,15
5383356,18
5383976,13
5384604,11
5385236,1
5385856,11
5386484,11
5387108,11
5387740,11
5388368,13
5388988,21
5389616,26
5390240,21
5390864,16
5391492,14
5392112,14
5392740,16
5393364,23
5393988,27
5394620,22
5395240,17
5395868,17
5396500,14
5397120,13
5397748,14
5398372,14
5399004,14
5399636,14
5400256,14
5400884,1
5401508,11
5402136,12
5402764,1
5403384,13
5404012,12
5404636,12
5405264,15
5405892,2
5406512,17
5407144,16
5407772,14
5408392,15
5409020,11
5409644,12
5410272,11
5410904,1
5411520,11
5412148,17
5412772,17
5413396,15
5414028,14
5414648,17
5415276,17
5415900,17
5416524,17
5417156,16
5417776,14
5418404,12
5419036,12
5419656,12
5420284,11
5420908,11
5421540,11
5422172,12
5422792,15
5423420,17
5424048,21
5424672,26
5425300,19
5425920,11
5426548,17
5427176,23
5427800,29
5428428,27
5429048,27
5429676,21
5430308,18
5430928,15
5431556,13
5432184,15
5432812,2
5433444,2
5434064,11
5434692,15
5435320,15
5435944,11
5436572,1
5437192,12
5437824,11
5438448,16
5439072,16
5439700,13
5440328,15
5440956,15
5441584,14
5442208,13
5442836,19
5443460,17
5444088,11
5444720,23
5445336,26
5445964,25
5446588,17
5447212,19
5447844,18
5448464,19
5449092,2
5449716,18
5450336,11
5450968,11
5451592,11
5452220,1
5452852,9
5453420,14
5454052,13
5454676,12
5455308,16
5455936,18
5456560,14
5457188,15
5457812,15
5458440,15
5459068,14
5459688,14
5460316,1
5460940,9
5461512,14
5462152,18
5462768,17
5463396,18
5464020,17
5464644,16
5465276,16
5465896,15
5466524,15
5467156,11
5467776,9
5468356,11
5468984,14
5469612,14
5470244,1
5470864,12
5471492,15
5472120,15
5472748,15
5473380,14
5474000,15
5474628,15
5475252,11
5475876,1
5476508,1
5477128,12
5477756,13
5478384,15
5479008,15
5479640,14
5480264,13
5480892,16
5481524,16
5482144,15
5482772,14
5483400,15
5484028,12
5484660,1
5485280,14
5485908,13
5486536,15
5487160,13
5487788,1
5488408,11
5489036,15
5489660,13
5490288,16
5490916,15
5491540,15
5492172,11
5492800,15
5493424,2
5494052,15
5494680,15
5495304,22
5495932,24
5496552,25
5497184,22
5497808,18
5498432,17
5499064,15
5499680,15
5500308,11
5500940,11
5501560,11
5502192,11
5502816,11
5503448,1
5504076,16
5504696,28
5505324,37
5505948,21
5506572,14
5507200,18
5507824,22
5508452,17
5509080,11
5509704,1
5510332,1
5510952,1
5511584,13
5512212,12
5512832,13
5513460,15
5514088,21
5514716,18
5515348,16
5515968,15
5516600,15
5517224,13
5517848,18
5518480,14
5519096,11
5519728,11
5520352,13
5520976,16
5521604,18
5522224,18
5522856,16
5523484,14
5524104,15
5524736,15
5525360,12
5525988,14
5526620,14
5527240,17
5527872,12
5528496,12
5529120,13
5529752,12
5530368,13
5530996,14
5531620,17
5532244,19
5532876,17
5533496,17
5534124,13
5534756,12
5535376,11
5536004,11
5536628,11
5537260,1
5537888,1
5538512,12
5539144,16
5539768,16
5540392,15
5541020,14
5541640,14
5542268,9
5542844,1
5543472,11
5544104,14
5544720,19
5545348,21
5545976,21
5546600,16
5547228,13
5547852,14
5548484,14
5549116,16
5549736,18
5550368,14
5550992,11
5551624,11
5552252,1
5552872,11
5553500,11
5554128,13
5554752,13
5555384,12
5556000,14
5556628,16
5557260,17
5557880,17
5558512,13
5559136,12
5559768,17
5560396,21
5561016,25
5561648,23
5562272,19
5562896,13
5563524,12
5564144,16
5564776,15
5565400,15
5566024,16
5566656,16
5567276,13
5567908,16
5568540,14
5569160,13
5569792,11
5570416,13
5571048,11
5571676,12
5572296,15
5572924,13
5573548,14
5574172,2
5574804,19
5575424,13
5576056,12
5576676,1
5577304,1
5577932,12
5578552,14
5579184,14
5579812,16
5580432,18
5581064,16
5581688,14
5582316,14
5582948,13
5583568,13
5584200,15
5584820,12
5585444,13
5586076,12
5586696,1
5587324,11
5587948,17
5588576,14
5589204,14
5589828,13
5590460,15
5591092,14
5591712,13
5592344,11
5592968,14
5593596,21
5594228,22
5594848,24
5595480,21
5596104,17
5596728,17
5597360,16
5597976,13
5598608,22
5599240,23
5599860,17
5600492,12
5601116,13
5601748,13
5602376,14
5602996,11
5603624,12
5604248,13
5604872,14
5605500,11
5606120,14
5606752,15
5607372,13
5607996,15
5608628,1
5609248,12
5609876,13
5610508,14
5611128,14
5611760,21
5612384,21
5613012,15
5613644,1
5614264,15
5614892,14
5615516,16
5616144,17
5616772,13
5617392,11
5618020,12
5618644,12
5619268,11
5619900,16
5620520,14
5621148,12
5621780,1
5622400,15
5623028,13
5623656,15
5624284,15
5624916,16
5625536,14
5626168,11
5626792,11
5627416,1
5628048,1
5628664,1
5629296,11
5629920,1
5630544,13
5631176,18
5631796,2
5632428,2
5633056,23
5633676,2
5634304,19
5634928,15
5635556,1
5636188,16
5636808,17
5637436,16
5638060,15
5638684,12
5639312,14
5639936,15
5640564,15
5641188,15
5641812,11
5642444,1
5643064,1
5643692,12
5644324,12
5644944,13
5645572,11
5646196,1
5646828,1
5647456,14
5648080,17
5648708,24
5649332,2
5649956,15
5650588,1
5651208,11
5651836,14
5652464,19
5653088,15
5653716,11
5654340,14
5654972,15
5655600,16
5656224,15
5656852,15
5657476,15
5658108,17
5658740,11
5659360,13
5659988,17
5660616,22
5661240,21
5661868,17
5662488,14
5663116,15
5663744,2
5664368,22
5664996,16
5665620,15
5666248,16
5666880,14
5667496,13
5668128,12
5668752,11
5669384,16
5670012,16
5670632,13
5671260,13
5671888,14
5672512,16
5673144,13
5673760,14
5674388,14
5675020,12
5675640,12
5676268,14
5676896,13
5677524,13
5678156,14
5678776,16
5679408,17
5680032,21
5680656,24
5681284,18
5681904,15
5682536,16
5683160,15
5683784,12
5684412,17
5685032,19
5685660,16
5686292,11
5686912,11
5687544,16
5688168,28
5688796,35
5689428,26
5690048,16
5690676,16
5691304,16
5691928,19
5692560,23
5693176,24
5693808,17
5694432,15
5695056,15
5695684,12
5696304,14
5696932,19
5697564,22
5698184,19
5698812,14
5699436,17
5700068,17
5700700,1
5701320,13
5701952,13
5702576,14
5703200,11
5703832,16
5704448,12
5705076,11
5705704,14
5706328,13
5706956,15
5707576,15
5708208,15
5708836,12
5709456,17
5710084,2
5710712,17
5711340,11
5711972,1
5712592,16
5713224,15
5713852,2
5714476,2
5715108,18
5715728,16
5716360,17
5716984,11
5717608,11
5718240,11
5718864,11
5719496,12
5720128,11
5720744,14
5721376,16
5722000,16
5722628,13
5723260,14
5723880,17
5724512,17
5725136,16
5725760,14
5726392,11
5727012,11
5727644,16
5728272,16
5728896,15
5729528,17
5730152,18
5730784,17
5731416,13
5732032,13
5732664,15
5733292,14
5733916,12
5734548,13
5735168,11
5735796,11
5736420,17
5737044,17
5737672,14
5738296,13
5738924,13
5739556,13
5740176,17
5740804,18
5741428,18
5742060,14
5742688,15
5743312,14
5743944,12
5744568,11
5745192,12
5745820,11
5746440,11
5747068,19
5747696,19
5748320,17
5748948,15
5749572,14
5750204,1
5750836,16
5751456,26
5752088,19
5752712,1
5753340,12
5753972,11
5754592,13
5755224,12
5755848,15
5756472,14
5757104,15
5757720,17
5758352,14
5758984,9
5759552,1
5760184,9
5760748,14
5761380,18
5762004,11
5762628,1
5763256,12
5763872,19
5764500,2
5765132,18
5765752,18
5766380,16
5767004,11
5767636,15
5768264,12
5768884,9
5769460,11
5770088,11
5770716,11
5771348,12
5771968,11
5772600,14
5773224,15
5773848,14
5774476,14
5775096,1
5775728,9
5776300,11
5776928,13
5777556,13
5778176,18
5778804,2
5779428,12
5780052,1
5780684,14
5781304,17
5781932,21
5782564,18
5783184,15
5783812,12
5784440,11
5785068,12
5785700,14
5786320,14
5786948,11
5787572,12
5788196,11
5788824,14
5789448,13
5790076,14
5790700,14
5791328,14
5791956,12
5792580,11
5793212,13
5793844,16
5794464,13
5795092,18
5795720,17
5796348,12
5796980,1
5797600,13
5798228,16
5798856,15
5799480,17
5800108,17
5800728,18
5801356,14
5801980,1
5802608,1
5803236,11
5803864,17
5804492,19
5805124,14
5805744,15
5806376,15
5807000,15
5807624,15
5808256,12
5808872,14
5809500,18
5810128,21
5810752,19
5811384,16
5812000,16
5812628,15
5813260,16
5813880,17
5814508,15
5815136,15
5815764,14
5816396,14
5817016,12
5817644,11
5818268,1
5818892,11
5819524,1
5820144,11
5820776,11
5821400,12
5822024,13
5822656,12
5823272,14
5823904,17
5824536,18
5825152,14
5825784,1
5826408,1
5827036,19
5827668,26
5828288,28
5828916,23
5829544,16
5830168,11
5830800,15
5831416,14
5832048,14
5832672,15
5833296,12
5833928,13
5834544,12
5835176,1
5835808,1
5836424,1
5837056,11
5837680,11
5838308,11
5838940,14
5839560,13
5840188,14
5840812,14
5841436,15
5842068,14
5842688,15
5843316,1
5843940,1
5844564,1
5845196,12
5845816,14
5846448,1
5847076,15
5847696,16
5848324,19
5848948,21
5849580,21
5850212,18
5850832,15
5851464,12
5852088,11
5852712,12
5853344,11
5853964,11
5854592,12
5855220,11
5855844,15
5856476,15
5857100,15
5857732,15
5858360,1
5858984,11
5859616,1
5860240,11
5860868,13
5861500,13
5862120,13
5862752,13
5863376,13
5864000,15
5864628,16
5865248,18
5865876,17
5866508,15
5867128,11
5867760,17
5868384,11
5869012,15
5869644,16
5870264,16
5870896,12
5871520,12
5872144,16
5872776,18
5873392,2
5874024,16
5874648,14
5875272,11
5875904,11
5876520,21
5877152,23
5877784,14
5878400,11
5879032,11
5879656,1
5880288,13
5880920,14
5881536,17
5882168,14
5882796,16
5883420,15
5884052,16
5884672,13
5885304,13
5885928,15
5886552,16
5887184,11
5887804,11
5888436,14
5889064,19
5889688,22
5890316,2
5890940,14
5891572,11
5892204,12
5892824,16
5893452,17
5894080,15
5894704,15
5895332,16
5895952,2
5896584,17
5897208,16
5897832,17
5898464,26
5899088,22
5899716,14
5900348,1
5900968,13
5901596,11
5902220,13
5902852,13
5903480,12
5904104,11
5904732,11
5905356,14
5905980,13
5906612,15
5907232,16
5907860,16
5908492,11
5909112,15
5909744,19
5910368,19
5911000,16
5911628,12
5912248,1
5912880,11
5913504,14
5914128,19
5914756,22
5915376,2
5916008,17
5916632,16
5917256,13
5917888,1
5918504,15
5919136,18
5919768,14
5920384,11
5921016,12
5921640,13
5922268,14
5922896,14
5923520,14
5924148,13
5924772,15
5925396,21
5926028,2
5926648,12
5927276,11
5927900,12
5928528,11
5929156,14
5929776,17
5930404,16
5931036,13
5931656,14
5932288,15
5932912,16
5933540,11
5934172,14
5934792,13
5935424,11
5936048,12
5936672,12
5937304,13
5937920,12
5938552,12
5939176,15
5939804,15
5940432,14
5941056,15
5941684,14
5942316,1
5942936,1
5943564,11
5944192,17
5944820,18
5945452,16
5946072,15
5946700,17
5947328,16
5947952,14
5948580,18
5949200,15
5949828,12
5950456,15
5951080,28
5951708,28
5952336,22
5952964,11
5953596,14
5954216,18
5954848,15
5955472,15
5956100,13
5956732,14
5957352,15
5957984,15
5958608,1
5959232,12
5959864,1
5960480,11
5961108,13
5961740,14
5962360,13
5962988,13
5963616,15
5964244,13
5964876,16
5965496,15
5966124,15
5966748,13
5967372,12
5968004,11
5968624,13
5969252,11
5969880,12
5970504,11
5971136,11
5971752,13
5972384,17
5973016,21
5973632,19
5974264,15
5974888,13
5975520,16
5976148,22
5976768,21
5977400,15
5978024,15
5978648,15
5979280,11
5979896,12
5980528,17
5981152,18
5981776,2
5982404,18
5983024,16
5983656,11
5984288,1
5984904,11
5985536,1
5986160,14
5986788,13
5987420,13
5988040,15
5988668,15
5989296,13
5989920,14
5990552,15
5991168,14
5991800,17
5992424,2
5993048,17
5993676,16
5994296,13
5994928,11
5995556,1
5996176,11
5996808,14
5997428,21
5998060,22
5998692,2
5999312,18
5999944,13
6000572,1
6001196,12
6001828,13
6002448,11
6003076,14
6003704,13
6004328,11
6004956,11
6005584,14
6006212,15
6006844,15
6007464,15
6008096,12
6008720,13
6009348,12
6009980,1
6010600,11
6011232,1
6011856,9
6012428,12
6013064,1
6013680,13
6014312,15
6014936,19
6015564,2
6016196,18
6016816,13
6017444,12
6018076,1
6018696,11
6019324,11
6019952,13
6020580,17
6021212,13
6021832,13
6022464,13
6023084,14
6023712,15
6024340,16
6024960,15
6025588,13
6026216,15
6026840,14
6027472,16
6028088,17
6028720,19
6029352,11
6029972,13
6030600,18
6031228,19
6031856,17
6032488,15
6033112,14
6033744,12
6034368,1
6034992,11
6035624,11
6036240,1
6036872,11
6037496,11
6038120,13
6038752,17
6039376,15
6040008,15
6040636,15
6041256,15
6041888,11
6042512,11
6043144,11
6043772,16
6044392,23
6045024,26
6045648,19
6046272,15
6046904,14
6047520,19
6048152,23
6048780,23
6049400,19
6050028,11
6050656,11
6051284,11
6051916,11
6052536,12
6053168,11
6053792,11
6054416,13
6055044,18
6055664,25
6056296,24
6056920,22
6057544,15
6058176,15
6058796,14
6059428,12
6060060,13
6060680,15
6061312,13
6061936,1
6062568,1
6063200,11
6063820,17
6064452,18
6065076,18
6065700,17
6066332,16
6066952,12
6067584,11
6068208,11
6068832,11
6069460,1
6070088,13
6070716,16
6071348,14
6071968,14
6072600,14
6073228,17
6073860,16
6074488,15
6075108,13
6075740,11
6076364,11
6076992,15
6077620,18
6078240,22
6078872,23
6079504,19
6080124,16
6080752,13
6081376,14
6082008,15
6082636,23
6083256,19
6083884,11
6084508,19
6085132,27
6085764,24
6086384,19
6087016,11
6087640,13
6088264,15
6088892,16
6089512,17
6090144,15
6090776,14
6091392,13
6092024,17
6092648,14
6093280,13
6093908,14
6094528,15
6095160,18
6095784,17
6096408,17
6097036,16
6097656,15
6098288,15
6098912,15
6099536,17
6100168,12
6100784,13
6101416,15
6102048,12
6102668,1
6103296,13
6103924,13
6104552,12
6105184,15
6105804,13
6106436,2
6107060,22
6107684,19
6108316,1
6108936,12
6109568,16
6110192,14
6110816,17
6111448,24
6112072,28
6112704,23
6113332,16
6113952,17
6114584,23
6115208,21
6115836,16
6116468,11
6117088,1
6117720,9
6118296,1
6118920,1
6119552,1
6120176,11
6120808,11
6121432,13
6122056,17
6122688,15
6123308,15
6123940,14
6124572,12
6125192,14
6125824,17
6126448,19
6127080,12
6127708,11
6128328,1
6128960,11
6129584,13
6130208,13
6130840,14
6131464,2
6132096,22
6132724,21
6133348,13
6133980,1
6134608,11
6135236,18
6135868,11
6136488,14
6137120,27
6137748,35
6138376,27
6139008,14
6139628,15
6140260,18
6140884,19
6141512,15
6142144,14
6142764,14
6143396,16
6144032,11
6144648,11
6145276,13
6145900,13
6146528,14
6147156,16
6147776,15
6148404,17
6149028,19
6149652,17
6150284,13
6150904,11
6151532,1
6152156,11
6152784,12
6153412,11
6154032,13
6154660,16
6155292,14
6155912,13
6156544,13
6157168,15
6157796,18
6158428,1
6159048,15
6159676,16
6160304,18
6160928,19
6161556,2
6162176,21
6162804,17
6163428,19
6164052,19
6164684,16
6165304,15
6165932,14
6166564,11
6167184,11
6167812,1
6168440,1
6169068,11
6169700,1
6170320,12
6170948,11
6171572,11
6172196,14
6172828,14
6173448,14
6174076,19
6174704,26
6175328,14
6175960,14
6176584,2
6177212,2
6177844,11
6178464,1
6179096,13
6179720,2
6180352,19
6180980,15
6181600,15
6182228,15
6182856,15
6183480,13
6184112,13
6184728,16
6185360,14
6185988,1
6186608,13
6187236,13
6187864,15
6188492,14
6189124,12
6189744,15
6190376,15
6191000,15
6191624,14
6192256,12
6192872,1
6193504,9
6194076,1
6194704,14
6195336,14
6195952,15
6196584,16
6197208,18
6197832,19
6198464,18
6199080,18
6199712,13
6200340,1
6200960,11
6201588,1
6202216,11
6202848,12
6203476,1
6204096,12
6204728,12
6205352,16
6205976,14
6206608,14
6207228,15
6207860,14
6208484,1
6209108,11
6209736,14
6210360,17
6210992,19
6211620,15
6212240,13
6212868,11
6213496,16
6214128,13
6214756,14
6215376,17
6216008,23
6216632,24
6217256,17
6217888,1
6218504,11
6219136,13
6219760,14
6220388,2
6221020,23
6221644,15
6222276,13
6222904,14
6223528,15
6224160,15
6224784,13
6225416,17
6226048,17
6226664,15
6227292,13
6227916,9
6228492,1
6229124,1
6229744,14
6230376,19
6231000,24
6231624,21
6232256,15
6232872,12
6233504,11
6234136,11
6234752,11
6235384,17
6236012,16
6236640,11
6237272,13
6237892,12
6238524,15
6239148,12
6239772,14
6240404,16
6241024,16
6241652,11
6242276,14
6242900,13
6243532,1
6244152,12
6244784,1
6245412,12
6246032,15
6246664,2
6247288,17
6247916,18
6248548,17
6249168,16
6249796,15
6250420,11
6251044,11
6251676,12
6252296,14
6252924,11
6253548,14
6254176,17
6254804,17
6255428,16
6256060,14
6256692,14
6257312,15
6257944,13
6258568,14
6259196,11
6259828,13
6260448,13
6261080,11
6261704,13
6262328,15
6262960,13
6263576,15
6264208,15
6264840,15
6265456,17
6266088,16
6266712,15
6267344,13
6267972,11
6268592,11
6269224,11
6269848,13
6270472,12
6271104,14
6271724,16
6272356,12
6272980,14
6273604,17
6274232,15
6274852,11
6275480,11
6276112,9
6276680,15
6277312,18
6277928,17
6278556,14
6279188,13
6279808,17
6280440,17
6281064,19
6281692,19
6282324,16
6282944,11
6283576,11
6284200,13
6284824,12
6285452,1
6286072,12
6286704,16
6287328,16
6287952,13
6288584,16
6289204,13
6289832,15
6290464,15
6291084,17
6291716,22
6292340,21
6292972,21
6293604,18
6294224,17
6294856,19
6295480,17
6296104,13
6296736,15
6297356,13
6297988,14
6298612,14
6299236,15
6299868,13
6300492,14
6301120,11
6301752,1
6302376,11
6303008,13
6303636,13
6304264,17
6304896,19
6305512,16
6306144,15
6306768,14
6307392,15
6308024,11
6308640,13
6309268,13
6309900,12
6310520,15
6311148,17
6311776,22
6312408,2
6313036,17
6313656,2
6314288,15
6314912,16
6315536,15
6316168,14
6316784,17
6317420,15
6318044,11
6318672,11
6319300,14
6319920,16
6320552,14
6321184,13
6321808,14
6322440,14
6323064,17
6323696,19
6324328,18
6324944,17
6325576,19
6326200,15
6326824,11
6327456,12
6328076,11
6328704,15
6329332,19
6329956,17
6330588,14
6331212,19
6331844,18
6332476,14
6333096,11
6333728,11
6334356,11
6334984,13
6335616,13
6336236,12
6336868,11
6337492,12
6338116,14
6338748,14
6339368,14
6340000,14
6340628,15
6341248,12
6341880,12
6342504,14
6343136,16
6343768,17
6344388,15
6345020,16
6345644,14
