tempo_arduino_micro_s,valor_ADC
500,31
1004,22
1500,14
2000,10
2504,13
3000,12
3508,11
4000,16
4504,17
5000,18
5500,22
6000,24
6500,18
7000,14
7500,13
8000,14
8500,13
9000,10
9500,11
10000,12
10508,12
11028,13
11556,13
12076,17
12604,25
13124,28
13648,28
14172,23
14700,21
15220,23
15748,23
16268,28
16796,30
17316,27
17836,21
18356,17
18876,10
19396,13
19916,15
20436,25
20956,27
21476,19
21996,15
22516,18
23036,18
23564,11
24084,10
24612,10
25132,10
25660,10
26180,10
26708,15
27228,14
27756,18
28276,15
28804,18
29324,17
29852,18
30372,20
30900,22
31420,32
31948,34
32472,29
32996,16
33516,9
33984,10
34508,12
35036,12
35556,10
36084,12
36604,15
37132,20
37652,20
38180,18
38700,18
39228,17
39748,16
40276,14
40796,12
41324,12
41844,14
42372,14
42892,12
43420,14
43940,14
44460,14
44980,12
45500,18
46020,22
46540,26
47060,28
47580,29
48100,31
48620,39
49140,48
49660,48
50188,36
50708,21
51236,12
51756,11
52284,10
52804,10
53332,12
53852,17
54380,15
54900,21
55428,18
55948,17
56476,15
56996,14
57524,18
58044,21
58572,17
59092,14
59620,11
60140,13
60668,11
61188,10
61716,11
62236,21
62764,24
63284,27
63812,28
64336,24
64860,22
65380,22
65908,20
66428,22
66956,24
67476,23
67996,23
68516,18
69036,11
69556,10
70076,12
70600,17
71116,16
71640,19
72160,30
72676,40
73196,38
73720,27
74236,17
74764,10
75284,13
75812,13
76336,11
76860,11
77380,11
77908,12
78428,11
78956,17
79480,18
80004,21
80524,27
81052,26
81572,30
82100,35
82620,36
83148,28
83668,19
84196,11
84716,10
85244,12
85764,15
86292,16
86812,14
87340,17
87860,18
88388,17
88908,17
89436,18
89960,14
90484,12
91004,10
91532,11
92052,17
92572,18
93092,15
93612,12
94132,11
94652,11
95176,11
95696,18
96212,20
96732,27
97252,35
97776,41
98292,44
98812,46
99340,38
99860,30
100388,27
100952,26
101536,19
102108,11
102688,10
103256,13
103832,20
104400,26
104976,27
105552,27
106120,23
106704,21
107272,17
107856,11
108424,10
109008,10
109584,13
110152,19
110736,19
111304,14
111888,15
112460,27
113040,29
113608,25
114176,23
114752,25
115320,29
115904,30
116472,24
117056,17
117624,14
118208,11
118776,11
119352,11
119936,11
120508,16
121088,16
121656,16
122240,16
122808,19
123384,18
123968,18
124536,12
125120,11
125688,22
126272,36
126840,49
127424,36
127996,12
128572,21
129152,40
129720,48
130296,45
130864,34
131448,21
132016,23
132584,25
133160,30
133728,23
134312,10
134884,10
135464,12
136032,14
136616,11
137184,18
137760,17
138344,17
138912,17
139496,17
140068,16
140648,15
141220,15
141792,16
142376,18
142948,19
143528,21
144096,19
144680,13
145248,16
145824,22
146392,29
146972,31
147552,30
148120,25
148704,27
149272,29
149856,26
150424,16
151000,11
151584,10
152156,10
152736,11
153308,10
153888,17
154456,18
155040,17
155608,17
156184,19
156768,15
157340,14
157920,16
158492,14
159072,13
159644,14
160220,18
160800,15
161368,11
161944,18
162512,27
163096,25
163668,22
164248,20
164816,20
165384,23
165960,19
166528,16
167112,12
167680,12
168256,10
168824,15
169400,13
169968,11
170536,17
171112,17
171684,18
172264,17
172832,19
173416,16
173988,15
174564,14
175144,11
175712,11
176296,10
176864,14
177448,13
178016,12
178600,17
179168,18
179748,17
180328,18
180896,21
181480,28
182048,34
182632,34
183204,30
183776,21
184360,14
184928,11
185504,11
186076,11
186656,11
187224,17
187808,19
188376,22
188952,21
189536,22
190104,16
190688,11
191260,10
191840,9
192360,12
192936,12
193504,14
194084,12
194664,11
195232,17
195816,26
196384,26
196968,26
197536,27
198116,28
198696,31
199268,34
199848,33
200416,30
201000,20
201568,11
202152,12
202724,15
203296,14
203880,16
204452,16
205032,17
205600,17
206176,18
206744,13
207312,13
207888,15
208456,16
209040,17
209608,16
210184,22
210752,16
211336,11
211904,18
212480,22
213064,24
213632,31
214216,29
214788,32
215368,41
215936,39
216520,32
217096,26
217668,18
218248,10
218816,18
219400,20
219968,18
220552,18
221120,17
221696,17
222280,15
222852,18
223432,11
224004,10
224584,9
225100,10
225680,13
226248,17
226816,22
227400,18
227968,13
228552,15
229124,27
229704,29
230276,28
230856,31
231432,31
232004,32
232584,26
233152,26
233736,23
234304,18
234888,12
235456,11
236036,13
236616,15
237188,20
237768,19
238336,18
238920,17
239492,18
240072,13
240648,12
241216,11
241792,11
242364,11
242944,13
243516,30
244096,27
244664,17
245240,18
245824,21
246392,26
246976,34
247544,33
248128,29
248696,28
249280,25
249848,17
250424,15
251008,19
251580,29
252160,25
252728,19
253312,17
253884,17
254460,16
255040,24
255612,30
256192,21
256764,11
257344,12
257912,13
258488,11
259056,13
259632,15
260216,22
260784,20
261368,12
261936,18
262520,31
263088,32
263664,27
264248,26
264816,28
265400,30
265972,29
266552,29
267120,25
267704,15
268272,10
268848,11
269432,17
270000,15
270584,17
271152,19
271736,21
272308,21
272880,20
273464,11
274032,10
274616,11
275188,13
275768,14
276348,13
276928,11
277496,11
278076,12
278656,18
279228,19
279808,21
280380,25
280960,27
281528,30
282108,35
282688,30
283260,25
283840,23
284408,20
284992,15
285560,10
286144,11
286716,11
287292,14
287872,18
288444,19
289024,22
289592,26
290176,22
290748,14
291320,14
291904,14
292472,12
293056,12
293628,22
294208,29
294780,20
295360,17
295928,18
296508,21
297088,28
297656,32
298240,33
298808,34
299392,33
299964,32
300540,30
301120,25
301692,19
302272,11
302844,10
303424,10
303996,15
304580,18
305160,24
305732,26
306312,23
306884,12
307464,11
308032,11
308616,11
309184,13
309760,18
310344,23
310916,16
311496,11
312068,18
312648,18
313216,27
313800,29
314376,29
314948,32
315528,30
316100,32
316680,30
317260,25
317840,22
318420,19
318996,15
319576,10
320148,12
320728,15
321296,21
321880,24
322448,22
323024,19
323608,11
324176,14
324760,14
325332,16
325912,19
326484,22
327064,21
327636,22
328212,18
328792,16
329360,27
329944,29
330512,28
331096,27
331664,34
332240,37
332824,35
333392,29
333968,26
334536,20
335120,13
335688,14
336272,13
336840,16
337416,20
338000,20
338568,18
339144,20
339716,19
340296,17
340864,17
341448,14
342024,12
342592,14
343176,18
343748,18
344328,15
344896,11
345480,20
346052,24
346624,24
347208,22
347776,26
348360,32
348928,39
349512,41
350084,40
350664,31
351240,24
351812,13
352392,15
352964,17
353544,17
354116,17
354696,18
355268,22
355840,25
356424,28
356996,27
357576,26
358148,21
358728,11
359304,11
359888,11
360464,11
361032,11
361616,11
362184,21
362768,24
363340,25
363920,23
364488,26
365064,37
365648,38
366220,33
366800,25
367368,14
367952,9
368472,10
369048,12
369616,14
370192,17
370776,21
371348,22
371928,21
372500,21
373080,17
373652,11
374228,10
374808,11
375376,10
375960,11
376532,18
377112,17
377684,13
378264,12
378836,20
379412,24
379992,26
380564,22
381144,21
381716,22
382296,24
382868,27
383444,20
384024,13
384596,14
385176,18
385748,17
386328,11
386900,15
387480,17
388052,17
388624,17
389208,28
389776,52
390360,41
390932,19
391512,10
392084,22
392656,19
393240,13
393812,13
394392,11
394964,11
395544,18
396116,25
396696,26
397276,22
397852,24
398432,22
399004,27
399584,29
400164,19
400744,11
401312,10
401892,11
402472,15
403044,17
403624,22
404196,18
404776,16
405348,17
405928,18
406500,19
407076,16
407656,15
408228,18
408808,15
409380,11
409960,11
410536,10
411104,12
411688,16
412256,19
412832,19
413400,22
413976,24
414544,26
415128,24
415696,30
416272,34
416856,30
417424,25
418008,19
418576,15
419160,10
419732,14
420308,17
420888,18
421456,17
422032,19
422604,18
423184,13
423756,16
424336,15
424904,15
425484,11
426064,11
426632,14
427216,13
427784,14
428368,11
428940,21
429520,23
430096,25
430664,27
431248,28
431820,34
432400,33
432968,32
433552,27
434124,22
434700,13
435280,10
435848,11
436432,10
437004,15
437584,15
438156,17
438736,17
439312,19
439884,23
440464,24
441032,19
441616,11
442184,11
442768,20
443340,30
443916,29
444496,19
445068,13
445648,32
446216,34
446800,44
447368,45
447952,44
448528,48
449100,47
449680,40
450248,22
450832,9
451348,10
451928,11
452496,11
453072,13
453656,17
454224,18
454808,22
455376,33
455960,30
456532,23
457112,21
457684,15
458256,11
458840,12
459412,14
459992,15
460572,15
461152,15
461728,11
462304,28
462888,32
463456,34
464040,31
464608,24
465192,24
465764,25
466344,21
466916,12
467492,10
468072,13
468644,11
469224,10
469796,11
470376,16
470948,15
471524,18
472104,18
472676,18
473256,17
473828,15
474408,11
474976,10
475560,11
476132,12
476708,15
477288,17
477860,13
478440,12
479012,19
479592,19
480172,19
480744,19
481328,21
481896,32
482480,38
483052,35
483632,27
484204,19
484784,17
485356,13
485932,10
486512,10
487080,17
487664,15
488236,17
488816,17
489388,22
489964,18
490544,15
491116,16
491696,18
492268,19
492848,17
493416,19
494000,16
494572,11
495144,15
495728,27
496300,26
496880,27
497448,27
498032,37
498604,45
499180,39
499760,31
500332,28
500912,20
501484,14
502064,9
502584,14
503160,21
503732,37
504308,39
504888,27
505460,21
506040,21
506612,15
507192,10
507764,11
508344,11
508916,11
509492,11
510072,14
510644,14
511224,14
511804,13
512388,24
512960,25
513528,19
514104,17
514672,24
515256,30
515824,35
516408,30
516976,26
517560,19
518128,15
518704,10
519288,10
519856,11
520440,16
521008,17
521592,16
522164,17
522740,19
523320,14
523892,15
524472,15
525044,13
525624,20
526192,23
526776,21
527344,16
527924,11
528504,15
529072,21
529656,26
530224,25
530808,21
531380,27
531956,40
532536,41
533104,30
533688,18
534256,11
534840,9
535360,10
535936,10
536508,10
537080,19
537664,17
538232,19
538816,19
539384,19
539968,13
540540,11
541120,10
541692,11
542268,17
542848,26
543416,31
544000,16
544568,12
545144,13
545716,23
546292,30
546872,35
547444,33
548024,22
548592,18
549176,27
549748,30
550328,31
550908,21
551484,11
552064,14
552636,15
553216,11
553796,16
554376,17
554948,16
555524,17
556104,16
556676,11
557256,13
557828,17
558408,16
558984,15
559568,14
560152,15
560724,16
561304,13
561876,16
562456,18
563036,18
563616,24
564192,26
564768,31
565352,36
565924,37
566504,29
567072,18
567656,20
568228,18
568804,12
569384,10
569956,11
570536,15
571108,16
571688,18
572268,19
572848,20
573428,16
574004,15
574584,18
575156,18
575736,18
576316,14
576896,12
577464,11
578040,13
578624,17
579192,17
579776,18
580348,22
580928,28
581500,33
582080,33
582652,35
583228,30
583808,23
584380,17
584960,13
585528,10
586112,11
586684,11
587260,18
587840,18
588412,19
588992,19
589560,20
590144,14
590716,14
591296,10
591880,10
592452,13
593032,16
593604,18
594184,14
594756,11
595336,21
595908,28
596484,28
597064,27
597636,26
598216,29
598788,29
599368,27
599948,19
600528,11
601112,14
601684,15
602264,10
602836,12
603416,14
603996,17
604580,17
605156,16
605732,17
606312,16
606888,14
607464,18
608036,15
608616,13
609188,16
609764,20
610344,19
610916,16
611496,11
612068,16
612648,22
613228,28
613808,28
614388,34
614964,34
615544,34
616116,35
616696,35
617268,26
617848,11
618416,10
618992,11
619576,15
620148,15
620728,15
621300,16
621880,17
622452,20
623032,19
623604,17
624180,18
624760,16
625332,13
625912,13
626484,13
627064,16
627636,16
628212,11
628792,19
629364,25
629944,31
630516,35
631096,30
631676,27
632260,26
632840,26
633412,27
633996,19
634568,14
635144,10
635724,15
636304,16
636884,17
637460,16
638040,18
638612,19
639192,18
639772,14
640356,15
640928,18
641504,17
642088,16
642656,15
643240,16
643808,13
644392,12
644964,13
645544,24
646116,24
646692,24
647272,25
647844,24
648424,29
648992,34
649576,29
650148,16
650724,11
651304,18
651876,13
652456,10
653028,11
653608,19
654176,24
654760,23
655332,17
655908,18
656488,14
657056,15
657632,16
658200,19
658784,15
659352,12
659928,15
660512,16
661080,11
661664,11
662232,21
662816,30
663388,35
663968,34
664540,33
665116,34
665696,18
666268,12
666848,9
667364,10
667944,15
668516,20
669096,11
669664,17
670240,22
670824,20
671392,19
671976,18
672548,18
673128,16
673696,16
674272,18
674856,19
675428,20
676008,16
676576,13
677152,14
677720,14
678304,11
678876,24
679448,30
680032,34
680600,35
681184,33
681756,39
682336,32
682908,31
683484,24
684064,16
684636,12
685216,10
685788,11
686368,11
686940,17
687520,16
688092,19
688664,25
689248,25
689820,22
690400,19
690972,19
691552,19
692132,17
692708,17
693288,19
693860,18
694440,17
695012,11
695592,24
696172,27
696752,26
697324,24
697900,23
698480,22
699052,19
699632,14
700204,10
700784,10
701356,11
701932,14
702512,17
703084,19
703664,19
704236,15
704816,21
705384,20
705968,17
706540,11
707116,10
707696,9
708216,11
708792,10
709364,11
709944,17
710516,16
711096,16
711668,17
712244,15
712824,18
713396,25
713976,29
714556,32
715136,34
715716,30
716292,22
716872,18
717444,17
718024,18
718596,13
719176,9
719696,12
720272,16
720844,16
721416,17
722000,18
722568,19
723152,13
723724,11
724304,11
724876,11
725456,12
726032,15
726604,23
727184,26
727756,15
728336,11
728916,20
729496,21
730068,26
730644,26
731224,24
731796,22
732376,24
732956,23
733536,21
734108,14
734684,15
735264,14
735840,9
736364,10
736940,17
737520,16
738100,16
738680,17
739252,18
739828,12
740408,10
740980,12
741560,21
742132,24
742712,18
743292,15
743872,12
744444,11
745016,13
745600,24
746168,24
746752,20
747324,18
747904,21
748476,26
749052,30
749632,30
750204,25
750784,20
751356,20
751940,15
752516,11
753096,11
753680,16
754252,18
754832,20
755404,19
755984,17
756556,17
757136,19
757716,22
758292,28
758872,28
759444,17
760024,13
760604,11
761184,11
761756,13
762332,26
762912,28
763484,28
764064,26
764636,30
765216,35
765796,31
766376,32
766956,24
767532,15
768116,14
768684,10
769264,13
769836,11
770416,15
770988,15
771564,18
772144,19
772716,21
773296,12
773868,13
774448,12
775016,11
775600,14
776180,12
776756,18
777336,19
777908,15
778488,16
779068,25
779648,27
780220,23
780796,22
781376,23
781948,32
782528,34
783100,31
783680,20
784260,10
784840,12
785416,18
785988,17
786568,13
787140,15
787720,16
788300,18
788880,18
789460,17
790036,10
790616,11
791188,17
791768,18
792348,14
792928,11
793508,11
794084,11
794664,17
795236,27
795816,26
796388,22
796968,22
797548,23
798128,22
798708,17
799284,17
799864,25
800440,19
801016,16
801588,18
802168,9
802688,10
803264,11
803836,18
804412,20
804992,22
805564,21
806144,21
806724,19
807304,11
807876,10
808452,12
809032,10
809604,11
810184,14
810756,12
811336,12
811916,17
812496,22
813080,24
813652,27
814232,24
814804,29
815384,29
815956,35
816540,41
817116,30
817692,17
818272,12
818844,10
819424,14
820000,19
820576,20
821144,20
821712,18
822296,18
822864,22
823448,16
824016,11
824600,10
825168,11
825752,13
826320,19
826896,26
827480,20
828048,11
828632,18
829204,21
829784,20
830352,26
830932,32
831512,33
832084,34
832664,39
833232,35
833808,25
834376,16
834960,10
835528,15
836104,17
836688,15
837256,18
837840,17
838408,17
838992,17
839564,18
840144,12
840720,15
841288,14
841872,13
842440,13
843024,11
843596,13
844176,12
844744,11
845324,15
845904,18
846472,22
847056,25
847628,24
848208,28
848776,36
849360,35
849936,24
850504,20
851088,14
851660,10
852240,11
852808,14
853392,12
853964,16
854540,17
855120,19
855692,20
856272,18
856844,11
857424,10
857996,10
858576,11
859152,11
859724,17
860304,18
860872,18
861456,13
862024,16
862608,17
863180,17
863756,20
864336,24
864908,30
865488,35
866056,35
866640,29
867208,19
867792,13
868368,11
868940,11
869520,13
870092,12
870672,17
871248,16
871832,16
872404,17
872976,17
873560,15
874132,14
874712,15
875284,18
875864,16
876436,13
877012,12
877592,11
878164,15
878744,30
879316,31
879896,31
880476,34
881056,33
881624,32
882200,28
882784,22
883356,19
883936,19
884508,13
885088,10
885660,11
886236,11
886816,14
887388,18
887968,27
888540,33
889120,29
889692,20
890272,17
890844,16
891420,18
892000,25
892572,21
893152,13
893732,11
894312,11
894892,11
895468,18
896052,24
896620,28
897200,27
897772,26
898352,37
898924,45
899504,37
900076,24
900652,12
901232,10
901804,10
902384,11
902956,13
903536,16
904108,18
904684,19
905264,18
905836,17
906416,15
906984,18
907568,17
908140,14
908720,12
909292,12
909868,19
910448,25
911020,21
911600,11
912180,22
912760,33
913332,35
913908,36
914488,39
915060,45
915640,44
916212,32
916792,21
917372,12
917952,11
918536,10
919108,15
919688,20
920260,20
920840,18
921420,18
922000,16
922576,18
923152,12
923736,10
924308,10
924888,11
925456,11
926040,11
926612,15
927188,15
927768,16
928340,17
928920,17
929492,24
930072,27
930644,25
931224,25
931796,27
932372,22
932952,20
933524,21
934104,19
934684,18
935264,13
935836,10
936412,12
936992,19
937564,19
938144,21
938716,18
939296,18
939876,12
940456,11
941036,10
941612,10
942192,17
942764,20
943344,25
943916,17
944500,12
945076,12
945652,20
946232,26
946804,30
947384,30
947956,29
948536,35
949108,32
949688,27
950268,20
950844,17
951424,17
951996,11
952580,11
953156,11
953736,18
954316,17
954892,18
955472,17
956044,17
956624,14
957204,15
957784,21
958364,26
958940,30
959524,26
960096,19
960672,11
961244,17
961824,30
962396,39
962976,40
963556,27
964132,31
964712,38
965284,39
965864,35
966436,35
967016,40
967588,28
968164,14
968744,12
969316,15
969896,23
970468,40
971048,48
971628,38
972208,22
972788,17
973364,11
973944,10
974516,11
975096,11
975668,10
976248,14
976828,27
977404,32
977984,22
978556,17
979136,17
979712,24
980288,30
980868,35
981448,34
982032,36
982604,32
983184,34
983756,24
984336,17
984904,18
985488,13
986060,10
986636,11
987216,16
987784,17
988368,17
988940,19
989520,23
990092,20
990672,17
991248,13
991820,10
992400,13
992972,20
993552,23
994124,15
994704,14
995276,25
995852,27
996432,32
997004,34
997584,34
998164,32
998744,32
999324,34
999900,30
1000480,23
1001096,19
1001724,13
1002348,10
1002976,15
1003604,18
1004220,22
1004852,26
1005472,38
1006096,43
1006724,36
1007344,30
1007972,16
1008596,11
1009220,15
1009848,16
1010472,15
1011100,11
1011732,12
1012352,25
1012980,21
1013604,19
1014236,21
1014864,21
1015480,29
1016112,38
1016736,47
1017360,37
1017988,22
1018608,15
1019236,14
1019860,15
1020484,16
1021112,16
1021736,17
1022364,17
1022996,14
1023616,15
1024248,20
1024868,16
1025496,19
1026124,20
1026740,19
1027368,15
1027988,11
1028612,22
1029240,27
1029856,27
1030484,25
1031104,28
1031728,35
1032356,32
1032976,24
1033604,14
1034224,12
1034848,12
1035476,11
1036096,16
1036728,19
1037356,22
1037976,18
1038604,17
1039228,17
1039856,12
1040484,18
1041100,20
1041728,16
1042352,12
1042976,12
1043604,12
1044220,12
1044852,11
1045472,21
1046092,29
1046724,32
1047344,33
1047972,31
1048600,31
1049216,32
1049844,29
1050468,25
1051096,21
1051724,10
1052344,14
1052972,14
1053592,17
1054216,18
1054848,23
1055464,27
1056092,31
1056712,26
1057336,24
1057964,20
1058584,19
1059212,16
1059832,13
1060456,17
1061084,14
1061708,12
1062336,27
1062968,34
1063584,39
1064212,33
1064836,28
1065464,29
1066092,25
1066712,21
1067340,18
1067964,15
1068584,12
1069212,10
1069832,11
1070460,19
1071084,17
1071704,16
1072336,17
1072952,22
1073580,19
1074212,20
1074832,18
1075460,15
1076084,14
1076712,22
1077340,17
1077960,16
1078588,17
1079212,19
1079832,25
1080464,27
1081080,28
1081708,31
1082332,31
1082952,33
1083584,27
1084200,15
1084828,12
1085456,11
1086072,10
1086704,11
1087324,15
1087956,25
1088588,24
1089204,19
1089836,12
1090456,12
1091080,14
1091708,14
1092328,12
1092956,10
1093580,11
1094204,11
1094832,11
1095448,16
1096080,17
1096700,16
1097328,27
1097956,33
1098580,34
1099208,32
1099836,30
1100456,24
1101084,25
1101708,24
1102336,12
1102968,13
1103584,20
1104212,22
1104836,21
1105460,23
1106088,24
1106708,24
1107340,19
1107964,15
1108588,11
1109216,11
1109840,11
1110468,11
1111096,11
1111720,12
1112348,19
1112972,21
1113600,22
1114232,23
1114848,26
1115476,32
1116104,30
1116728,25
1117356,24
1117976,20
1118604,12
1119228,10
1119856,14
1120488,18
1121108,18
1121740,18
1122368,17
1122984,15
1123616,11
1124240,13
1124868,11
1125496,10
1126120,17
1126748,20
1127372,19
1127996,12
1128624,19
1129240,20
1129868,19
1130492,20
1131120,28
1131748,34
1132372,29
1133000,20
1133632,12
1134248,15
1134876,14
1135500,10
1136132,11
1136760,16
1137376,16
1138008,17
1138628,17
1139252,18
1139880,12
1140504,12
1141132,14
1141756,16
1142384,20
1143012,25
1143636,36
1144268,24
1144900,12
1145520,19
1146148,27
1146776,30
1147400,29
1148028,34
1148648,43
1149276,35
1149900,23
1150524,16
1151152,17
1151772,17
1152404,10
1153032,10
1153648,17
1154276,16
1154900,17
1155528,21
1156156,28
1156776,28
1157404,24
1158028,18
1158656,23
1159288,29
1159904,29
1160532,13
1161156,21
1161780,20
1162408,23
1163024,21
1163656,21
1164280,21
1164900,35
1165528,39
1166152,32
1166784,19
1167412,12
1168032,11
1168660,12
1169280,10
1169908,12
1170540,16
1171160,17
1171788,17
1172412,17
1173036,13
1173668,10
1174288,12
1174916,11
1175540,10
1176164,10
1176796,11
1177420,13
1178052,13
1178680,16
1179296,17
1179924,20
1180548,17
1181180,23
1181808,33
1182424,35
1183056,24
1183680,14
1184304,12
1184932,12
1185552,9
1186128,12
1186760,13
1187384,15
1188012,16
1188632,18
1189260,19
1189884,18
1190512,16
1191140,13
1191764,17
1192396,15
1193024,14
1193640,17
1194272,14
1194892,12
1195524,17
1196152,23
1196776,22
1197408,17
1198032,14
1198656,12
1199284,12
1199904,23
1200536,18
1201164,14
1201784,15
1202412,20
1203036,19
1203668,20
1204296,17
1204912,16
1205544,19
1206168,24
1206792,25
1207420,23
1208040,16
1208668,24
1209292,35
1209916,29
1210544,10
1211168,15
1211796,19
1212428,31
1213048,31
1213676,35
1214300,32
1214932,37
1215564,34
1216184,35
1216812,25
1217436,15
1218060,10
1218688,11
1219304,10
1219936,11
1220560,16
1221184,16
1221812,16
1222432,21
1223060,23
1223692,19
1224312,16
1224940,12
1225568,11
1226196,15
1226828,16
1227448,12
1228076,12
1228704,22
1229328,26
1229956,22
1230576,21
1231204,24
1231828,23
1232452,23
1233080,32
1233696,25
1234324,12
1234952,10
1235576,12
1236204,13
1236828,15
1237456,17
1238084,18
1238704,21
1239332,20
1239956,13
1240584,11
1241212,10
1241832,13
1242460,14
1243084,11
1243708,13
1244336,11
1244952,12
1245584,16
1246212,17
1246832,21
1247460,25
1248084,25
1248712,29
1249344,35
1249960,26
1250588,10
1251212,11
1251840,12
1252468,10
1253088,15
1253716,20
1254340,18
1254968,18
1255596,16
1256216,17
1256844,12
1257468,10
1258096,14
1258724,21
1259348,17
1259980,17
1260608,16
1261232,18
1261860,17
1262484,24
1263108,31
1263740,24
1264360,20
1264988,27
1265612,31
1266236,38
1266868,36
1267488,25
1268116,17
1268748,10
1269368,15
1269996,19
1270620,21
1271252,21
1271880,22
1272504,20
1273132,13
1273756,14
1274380,17
1275012,15
1275632,16
1276260,20
1276888,32
1277508,27
1278140,16
1278760,16
1279388,29
1280020,38
1280636,48
1281264,48
1281884,45
1282516,33
1283144,25
1283760,18
1284388,14
1285012,11
1285636,15
1286264,19
1286888,19
1287516,17
1288140,16
1288760,16
1289388,16
1290008,11
1290636,10
1291256,13
1291880,12
1292508,10
1293132,11
1293760,11
1294388,11
1295008,13
1295636,17
1296260,18
1296888,22
1297516,18
1298136,13
1298764,21
1299388,26
1300012,31
1300640,22
1301256,12
1301884,10
1302508,13
1303132,10
1303760,16
1304380,19
1305008,21
1305636,18
1306252,16
1306884,10
1307504,10
1308136,11
1308764,10
1309384,13
1310012,19
1310636,16
1311264,11
1311892,18
1312512,21
1313140,19
1313760,21
1314384,25
1315012,34
1315632,42
1316260,33
1316888,26
1317504,24
1318132,17
1318756,10
1319384,14
1320012,12
1320628,22
1321260,26
1321880,22
1322500,20
1323132,18
1323752,22
1324380,23
1325004,14
1325624,10
1326256,10
1326872,15
1327500,12
1328124,14
1328752,31
1329380,31
1330004,31
1330632,30
1331260,34
1331876,37
1332504,33
1333128,30
1333756,17
1334384,12
1335000,11
1335632,12
1336252,11
1336876,17
1337504,17
1338128,28
1338756,33
1339380,25
1340000,17
1340632,11
1341252,13
1341884,14
1342512,12
1343128,12
1343760,13
1344384,15
1345012,17
1345640,24
1346256,29
1346884,32
1347508,31
1348128,26
1348756,18
1349376,15
1350004,12
1350628,20
1351252,18
1351880,11
1352496,11
1353124,12
1353752,17
1354368,17
1355000,19
1355620,21
1356252,22
1356880,13
1357496,11
1358124,11
1358748,13
1359368,18
1359996,22
1360616,19
1361244,12
1361868,19
1362492,23
1363120,24
1363736,21
1364364,30
1364988,36
1365616,33
1366244,29
1366868,20
1367496,14
1368124,14
1368744,10
1369372,15
1369996,18
1370624,30
1371252,36
1371872,28
1372500,19
1373124,18
1373748,10
1374376,10
1374992,9
1375572,11
1376200,25
1376820,33
1377452,26
1378072,13
1378700,23
1379324,33
1379952,32
1380580,35
1381204,34
1381832,39
1382460,39
1383076,30
1383708,20
1384328,19
1384956,20
1385588,10
1386208,14
1386836,19
1387460,21
1388084,22
1388712,21
1389332,21
1389960,17
1390584,18
1391208,14
1391836,13
1392460,12
1393092,12
1393720,11
1394336,11
1394968,12
1395592,18
1396220,19
1396848,23
1397464,27
1398096,27
1398716,21
1399340,29
1399972,26
1400592,11
1401220,11
1401844,11
1402468,12
1403096,11
1403720,17
1404348,16
1404976,16
1405600,18
1406228,16
1406852,11
1407480,14
1408112,20
1408728,28
1409356,31
1409980,27
1410600,18
1411228,12
1411848,18
1412476,25
1413100,27
1413724,32
1414352,30
1414972,29
1415600,22
1416228,18
1416848,29
1417476,27
1418100,23
1418728,10
1419356,12
1419976,15
1420604,18
1421228,17
1421852,17
1422484,18
1423104,12
1423732,11
1424356,11
1424980,11
1425608,10
1426232,11
1426860,17
1427492,16
1428112,15
1428740,16
1429364,19
1429996,29
1430624,34
1431248,33
1431876,35
1432500,24
1433124,16
1433756,10
1434376,10
1435004,12
1435628,10
1436248,9
1436824,16
1437448,17
1438076,17
1438700,20
1439324,22
1439956,19
1440580,19
1441208,17
1441836,12
1442456,20
1443084,26
1443708,21
1444336,15
1444964,12
1445584,19
1446212,24
1446836,24
1447456,26
1448088,31
1448704,34
1449332,33
1449956,26
1450580,17
1451208,18
1451824,13
1452452,10
1453084,10
1453704,18
1454332,17
1454956,17
1455584,19
1456216,20
1456832,19
1457460,23
1458084,13
1458708,11
1459336,19
1459952,34
1460584,30
1461204,22
1461828,17
1462456,21
1463080,25
1463708,30
1464336,36
1464960,48
1465588,42
1466212,33
1466840,18
1467472,10
1468088,11
1468720,11
1469344,10
1469968,17
1470596,22
1471216,22
1471844,21
1472472,20
1473092,12
1473724,10
1474344,11
1474972,11
1475604,12
1476224,11
1476852,13
1477472,17
1478104,19
1478732,16
1479352,17
1479980,20
1480604,26
1481228,23
1481856,26
1482472,23
1483104,22
1483728,17
1484352,13
1484980,18
1485596,17
1486228,11
1486856,16
1487472,16
1488104,18
1488724,19
1489356,16
1489984,13
1490600,10
1491228,11
1491852,11
1492480,17
1493108,20
1493728,20
1494356,16
1494980,12
1495604,24
1496236,28
1496856,27
1497484,26
1498108,22
1498736,26
1499364,30
1499988,23
1500616,16
1501248,10
1501864,10
1502492,10
1503116,10
1503748,17
1504380,18
1505000,23
1505628,23
1506252,23
1506876,12
1507508,10
1508128,11
1508756,12
1509388,16
1510008,19
1510636,15
1511260,12
1511892,19
1512520,21
1513144,19
1513772,19
1514396,31
1515024,45
1515652,46
1516272,39
1516900,29
1517524,22
1518148,12
1518780,12
1519400,13
1520028,13
1520660,18
1521280,25
1521908,23
1522532,21
1523164,17
1523796,22
1524416,20
1525044,15
1525668,14
1526292,11
1526924,11
1527544,12
1528172,14
1528796,17
1529420,17
1530052,19
1530672,23
1531304,22
1531932,23
1532552,30
1533184,33
1533808,25
1534436,21
1535068,18
1535688,13
1536320,11
1536940,22
1537564,21
1538192,19
1538808,17
1539440,17
1540060,11
1540684,11
1541312,12
1541928,12
1542560,16
1543188,18
1543808,18
1544436,18
1545060,19
1545688,17
1546320,22
1546936,30
1547564,28
1548188,33
1548812,35
1549440,39
1550056,29
1550688,25
1551312,22
1551936,12
1552564,11
1553184,14
1553812,19
1554444,22
1555064,22
1555692,19
1556320,16
1556948,13
1557576,15
1558200,16
1558828,14
1559452,16
1560076,20
1560704,18
1561328,11
1561956,22
1562580,31
1563204,36
1563832,33
1564448,33
1565080,38
1565708,32
1566328,31
1566956,26
1567580,21
1568212,16
1568840,10
1569456,12
1570088,17
1570708,22
1571336,27
1571964,20
1572584,17
1573212,13
1573836,12
1574460,13
1575092,11
1575712,13
1576340,29
1576972,28
1577592,19
1578220,12
1578844,23
1579476,24
1580108,19
1580728,22
1581360,27
1581984,31
1582608,31
1583236,26
1583856,17
1584488,12
1585112,10
1585736,11
1586364,10
1586984,18
1587616,17
1588244,16
1588864,18
1589492,18
1590116,15
1590748,13
1591376,11
1592000,16
1592628,20
1593252,23
1593880,21
1594508,14
1595128,20
1595760,32
1596384,33
1597008,32
1597640,24
1598256,26
1598884,37
1599516,37
1600136,34
1600764,23
1601384,11
1602012,23
1602644,18
1603260,14
1603892,16
1604512,18
1605136,17
1605764,22
1606384,17
1607012,11
1607636,16
1608260,15
1608888,11
1609504,14
1610132,13
1610764,16
1611384,13
1612012,20
1612636,30
1613268,28
1613896,22
1614512,26
1615140,32
1615764,33
1616388,31
1617020,24
1617640,17
1618268,13
1618892,10
1619512,10
1620144,16
1620760,18
1621388,19
1622012,21
1622640,23
1623268,15
1623892,13
1624524,10
1625152,11
1625768,15
1626400,14
1627020,12
1627652,14
1628280,13
1628904,28
1629532,21
1630156,17
1630780,17
1631412,26
1632032,33
1632660,32
1633292,26
1633912,13
1634540,10
1635164,10
1635796,10
1636428,10
1637048,19
1637676,17
1638304,17
1638928,17
1639556,16
1640172,10
1640800,11
1641420,15
1642044,15
1642672,13
1643288,14
1643916,13
1644536,11
1645156,17
1645784,16
1646408,19
1647036,27
1647664,31
1648280,40
1648908,38
1649528,33
1650156,21
1650788,10
1651408,10
1652036,10
1652656,11
1653276,12
1653908,14
1654528,17
1655156,17
1655776,18
1656400,15
1657028,12
1657648,13
1658276,11
1658904,11
1659520,15
1660148,19
1660772,14
1661400,13
1662028,15
1662648,19
1663276,27
1663900,30
1664524,31
1665152,35
1665768,37
1666396,35
1667016,24
1667640,11
1668268,11
1668884,13
1669516,13
1670136,27
1670760,23
1671388,18
1672012,19
1672640,18
1673268,10
1673888,11
1674516,12
1675140,11
1675768,11
1676396,10
1677016,13
1677644,15
1678268,21
1678888,18
1679520,19
1680136,33
1680764,35
1681384,32
1682004,33
1682632,33
1683256,40
1683880,30
1684512,19
1685124,17
1685756,11
1686376,10
1687008,17
1687636,18
1688256,21
1688884,24
1689508,23
1690132,13
1690760,12
1691376,13
1692004,15
1692624,21
1693248,21
1693876,20
1694496,12
1695124,20
1695752,28
1696368,27
1696996,33
1697620,35
1698248,40
1698876,38
1699496,32
1700124,23
1700748,11
1701376,12
1702004,10
1702624,10
1703252,11
1703876,15
1704496,17
1705124,19
1705744,21
1706372,16
1706996,13
1707620,11
1708248,11
1708872,13
1709500,18
1710128,27
1710744,29
1711376,16
1711996,24
1712628,28
1713260,28
1713880,29
1714508,30
1715132,35
1715756,37
1716388,28
1717008,23
1717636,15
1718260,10
1718884,13
1719512,14
1720140,16
1720768,16
1721396,17
1722016,22
1722644,25
1723268,23
1723896,21
1724524,16
1725144,14
1725772,11
1726396,11
1727020,13
1727648,10
1728272,12
1728900,19
1729524,22
1730144,23
1730776,25
1731396,28
1732028,29
1732656,36
1733272,20
1733900,9
1734472,10
1735100,10
1735732,16
1736352,21
1736980,19
1737604,17
1738232,17
1738860,18
1739480,20
1740108,14
1740732,13
1741360,16
1741988,22
1742608,27
1743236,21
1743860,14
1744484,11
1745112,18
1745732,22
1746364,25
1746992,30
1747612,28
1748240,17
1748864,19
1749492,22
1750120,24
1750744,17
1751372,15
1751996,11
1752620,11
1753252,12
1753872,17
1754500,20
1755124,17
1755748,18
1756376,16
1757000,19
1757632,26
1758260,20
1758880,21
1759508,14
1760132,15
1760764,13
1761392,11
1762008,17
1762636,25
1763260,31
1763880,32
1764508,30
1765128,35
1765756,47
1766380,42
1767004,26
1767632,11
1768248,17
1768876,25
1769508,14
1770128,15
1770756,16
1771380,17
1772008,16
1772640,18
1773256,13
1773884,17
1774508,13
1775132,14
1775760,18
1776384,23
1777012,18
1777636,12
1778260,16
1778888,19
1779512,29
1780140,43
1780772,36
1781392,23
1782020,21
1782644,20
1783276,14
1783904,11
1784524,21
1785152,14
1785776,11
1786400,11
1787028,18
1787648,25
1788276,25
1788900,23
1789524,22
1790156,14
1790776,13
1791408,10
1792036,11
1792652,10
1793280,14
1793904,13
1794532,11
1795164,17
1795784,21
1796412,21
1797036,21
1797660,20
1798288,20
1798912,27
1799540,29
1800164,25
1800788,18
1801416,17
1802036,13
1802664,13
1803292,12
1803912,17
1804540,21
1805164,19
1805792,18
1806420,11
1807040,11
1807668,10
1808292,10
1808912,12
1809540,14
1810160,23
1810788,21
1811412,17
1812036,15
1812664,18
1813280,22
1813908,29
1814540,31
1815160,41
1815788,44
1816412,41
1817040,31
1817672,27
1818288,13
1818916,14
1819540,20
1820164,21
1820796,23
1821416,32
1822044,21
1822668,19
1823292,17
1823924,20
1824544,24
1825172,21
1825804,22
1826424,16
1827052,11
1827676,17
1828304,27
1828936,33
1829552,31
1830184,30
1830808,22
1831432,19
1832060,21
1832680,16
1833308,18
1833932,12
1834556,13
1835188,10
1835808,15
1836436,13
1837068,16
1837688,15
1838316,17
1838944,17
1839572,15
1840204,16
1840824,23
1841452,13
1842076,11
1842700,10
1843332,11
1843948,12
1844580,11
1845200,18
1845824,23
1846452,22
1847072,25
1847700,26
1848328,27
1848944,24
1849572,20
1850196,14
1850828,10
1851456,10
1852072,14
1852704,20
1853328,13
1853956,17
1854588,22
1855208,24
1855836,32
1856460,32
1857084,16
1857712,10
1858336,12
1858964,16
1859592,15
1860216,12
1860844,11
1861468,12
1862096,24
1862728,28
1863344,31
1863972,29
1864596,32
1865220,33
1865852,28
1866472,23
1867100,18
1867724,17
1868348,11
1868980,13
1869600,14
1870228,24
1870856,27
1871480,33
1872108,29
1872732,23
1873364,19
1873992,17
1874608,15
1875240,18
1875864,13
1876484,11
1877116,12
1877736,13
1878368,14
1878992,17
1879616,17
1880244,18
1880864,26
1881492,28
1882124,32
1882744,35
1883372,40
1883996,27
1884628,10
1885256,14
1885880,19
1886508,11
1887132,16
1887756,17
1888388,18
1889008,18
1889636,13
1890260,10
1890884,10
1891512,11
1892132,12
1892760,13
1893388,13
1894008,14
1894636,21
1895260,21
1895892,27
1896520,35
1897136,31
1897768,30
1898388,38
1899016,36
1899644,36
1900264,34
1900892,17
1901516,15
1902140,23
1902772,22
1903392,20
1904020,17
1904652,20
1905272,20
1905900,17
1906524,11
1907156,14
1907788,16
1908408,16
1909036,15
1909660,20
1910288,24
1910916,12
1911536,12
1912168,21
1912792,32
1913416,37
1914048,33
1914664,27
1915296,31
1915924,31
1916544,30
1917176,23
1917800,19
1918428,15
1919060,14
1919680,25
1920312,21
1920936,20
1921556,23
1922188,26
1922808,35
1923436,27
1924060,12
1924684,11
1925312,11
1925928,11
1926556,14
1927184,16
1927808,11
1928436,18
1929060,28
1929688,39
1930316,34
1930936,31
1931564,38
1932188,36
1932812,29
1933440,18
1934056,11
1934688,12
1935312,13
1935936,11
1936564,12
1937184,15
1937812,16
1938444,18
1939064,19
1939692,14
1940316,15
1940948,11
1941576,10
1942200,11
1942828,16
1943452,21
1944076,18
1944708,10
1945328,25
1945960,33
1946580,41
1947204,36
1947832,24
1948452,21
1949080,27
1949708,22
1950328,20
1950956,13
1951580,9
1952160,16
1952788,21
1953408,23
1954036,23
1954660,20
1955292,21
1955920,21
1956536,16
1957168,11
1957792,11
1958416,10
1959044,18
1959664,15
1960292,15
1960916,14
1961540,12
1962172,25
1962792,28
1963424,20
1964052,21
1964672,33
1965304,39
1965928,37
1966556,28
1967188,20
1967808,16
1968436,10
1969060,17
1969684,14
1970312,17
1970928,16
1971556,16
1972180,17
1972804,19
1973432,13
1974048,16
1974680,15
1975308,14
1975928,19
1976556,27
1977180,24
1977812,14
1978440,17
1979056,26
1979684,33
1980308,37
1980936,40
1981564,38
1982184,32
1982812,29
1983436,23
1984060,12
1984688,11
1985312,22
1985940,19
1986568,10
1987192,16
1987820,17
1988444,16
1989072,18
1989704,15
1990320,13
1990952,11
1991576,12
1992200,11
1992828,10
1993448,20
1994076,25
1994700,12
1995324,18
1995956,21
1996576,23
1997208,24
1997836,26
1998456,29
1999084,30
1999708,30
2000340,22
2000968,14
2001584,15
2002212,10
2002836,21
2003460,26
2004092,22
2004712,17
2005340,16
2005964,17
2006588,12
2007220,10
2007840,10
2008468,11
2009096,15
2009712,16
2010344,13
2010964,11
2011596,14
2012224,28
2012848,25
2013476,17
2014100,17
2014724,18
2015356,18
2015976,12
2016608,9
2017180,10
2017808,12
2018436,13
2019056,15
2019684,16
2020308,18
2020932,17
2021564,18
2022184,19
2022812,18
2023444,14
2024064,16
2024692,11
2025316,10
2025944,12
2026576,24
2027192,22
2027824,23
2028448,18
2029072,21
2029700,21
2030320,27
2030948,40
2031576,45
2032200,36
2032828,28
2033448,22
2034076,19
2034708,14
2035328,10
2035956,13
2036580,14
2037212,22
2037840,24
2038464,24
2039092,19
2039716,13
2040344,11
2040972,10
2041592,13
2042224,11
2042848,13
2043472,15
2044104,11
2044720,14
2045352,15
2045980,23
2046600,25
2047232,25
2047856,27
2048488,31
2049116,34
2049732,29
2050360,16
2050984,14
2051604,13
2052232,10
2052852,13
2053484,17
2054104,18
2054724,19
2055356,21
2055976,25
2056604,15
2057232,14
2057848,15
2058476,10
2059100,10
2059728,13
2060356,12
2060976,12
2061604,12
2062224,19
2062852,23
2063480,24
2064104,24
2064732,22
2065352,26
2065976,27
2066604,27
2067224,15
2067852,13
2068472,10
2069096,10
2069724,11
2070348,17
2070976,17
2071604,18
2072224,21
2072852,28
2073476,31
2074104,22
2074736,11
2075352,11
2075980,10
2076604,12
2077228,13
2077856,11
2078476,19
2079104,23
2079728,30
2080352,27
2080980,26
2081600,29
2082228,34
2082856,33
2083472,25
2084100,13
2084724,13
2085352,10
2085980,10
2086600,11
2087228,16
2087848,19
2088472,25
2089100,26
2089720,21
2090348,12
2090968,11
2091588,10
2092220,12
2092840,13
2093468,16
2094096,14
2094712,13
2095340,17
2095964,25
2096596,31
2097224,30
2097840,31
2098472,39
2099096,31
2099720,22
2100348,14
2100968,11
2101596,10
2102220,16
2102840,16
2103472,17
2104088,17
2104716,17
2105340,17
2105968,17
2106596,11
2107220,10
2107848,10
2108476,22
2109096,38
2109724,36
2110348,19
2110980,11
2111608,13
2112228,29
2112856,29
2113476,29
2114100,31
2114732,28
2115352,26
2115980,27
2116604,22
2117232,15
2117860,10
2118484,10
2119112,11
2119744,12
2120360,22
2120988,21
2121612,19
2122240,21
2122868,24
2123488,21
2124116,15
2124740,11
2125364,11
2125996,10
2126616,13
2127244,15
2127868,17
2128496,18
2129124,29
2129748,35
2130380,39
2131008,38
2131624,39
2132256,37
2132876,31
2133508,13
2134136,12
2134752,13
2135384,16
2136008,22
2136628,17
2137260,16
2137880,17
2138508,17
2139132,18
2139760,18
2140388,17
2141012,14
2141640,12
2142272,12
2142888,12
2143520,11
2144144,11
2144772,13
2145400,26
2146020,32
2146648,37
2147272,35
2147896,33
2148524,36
2149144,41
2149772,30
2150396,10
2151024,10
2151656,10
2152276,15
2152908,19
2153536,19
2154152,19
2154784,20
2155408,26
2156036,24
2156668,14
2157288,14
2157916,13
2158540,12
2159164,13
2159796,16
2160416,18
2161044,12
2161672,12
2162296,18
2162924,28
2163548,33
2164176,32
2164808,27
2165424,25
2166052,28
2166676,25
2167300,19
2167932,12
2168552,12
2169180,13
2169804,11
2170428,18
2171060,18
2171680,18
2172308,17
2172940,14
2173560,12
2174188,16
2174812,15
2175444,15
2176072,15
2176692,17
2177320,15
2177944,13
2178568,17
2179196,19
2179816,27
2180444,24
2181068,29
2181692,39
2182320,36
2182944,24
2183572,13
2184204,11
2184824,11
2185452,15
2186076,19
2186704,15
2187336,17
2187952,18
2188584,17
2189208,17
2189832,19
2190460,10
2191080,17
2191708,15
2192332,13
2192956,15
2193588,14
2194208,12
2194836,14
2195468,24
2196088,24
2196716,25
2197340,29
2197972,28
2198600,25
2199224,25
2199852,25
2200476,21
2201100,14
2201732,10
2202352,14
2202980,17
2203604,24
2204228,23
2204856,31
2205472,28
2206104,18
2206732,14
2207352,13
2207984,11
2208608,11
2209236,10
2209868,14
2210488,20
2211116,16
2211744,16
2212368,26
2212996,20
2213616,26
2214244,29
2214868,29
2215492,34
2216120,33
2216744,29
2217372,19
2218004,13
2218624,11
2219252,14
2219876,14
2220508,17
2221136,20
2221760,21
2222388,18
2223012,13
2223640,11
2224268,10
2224888,11
2225516,16
2226140,22
2226768,24
2227396,22
2228016,19
2228644,18
2229272,34
2229896,41
2230524,35
2231148,32
2231780,33
2232412,30
2233032,35
2233660,27
2234284,19
2234908,15
2235540,10
2236160,11
2236788,16
2237416,17
2238040,17
2238672,16
2239288,18
2239920,17
2240552,16
2241168,21
2241796,23
2242420,36
2243052,41
2243680,26
2244296,14
2244928,13
2245548,27
2246172,33
2246804,32
2247424,32
2248052,25
2248676,29
2249300,27
2249928,19
2250552,15
2251184,14
2251812,10
2252432,16
2253064,11
2253684,17
2254312,16
2254944,16
2255560,17
2256188,17
2256812,16
2257436,21
2258064,13
2258680,15
2259308,21
2259932,17
2260556,19
2261184,13
2261800,17
2262432,29
2263060,32
2263680,31
2264308,31
2264932,35
2265564,29
2266192,21
2266808,13
2267440,11
2268064,10
2268688,15
2269316,14
2269936,12
2270564,15
2271188,20
2271816,21
2272448,18
2273064,13
2273692,13
2274324,12
2274944,14
2275572,13
2276196,11
2276828,12
2277456,13
2278076,11
2278704,23
2279328,31
2279952,35
2280584,37
2281200,33
2281832,35
2282456,32
2283080,17
2283708,14
2284328,15
2284956,11
2285588,10
2286208,13
2286836,18
2287460,17
2288092,19
2288720,18
2289344,21
2289972,24
2290596,21
2291220,17
2291852,21
2292472,28
2293104,25
2293728,23
2294352,18
2294980,15
2295600,30
2296228,32
2296860,30
2297480,27
2298108,19
2298732,23
2299364,23
2299992,21
2300616,15
2301244,11
2301872,12
2302496,16
2303124,14
2303744,18
2304376,18
2304996,21
2305620,22
2306248,18
2306864,13
2307496,16
2308124,15
2308744,14
2309372,14
2309996,15
2310624,13
2311256,11
2311872,19
2312500,23
2313124,32
2313748,34
2314380,34
2315000,35
2315628,31
2316252,25
2316876,16
2317504,12
2318128,11
2318756,14
2319388,11
2320008,13
2320636,17
2321260,25
2321888,25
2322520,22
2323136,15
2323764,13
2324388,11
2325012,11
2325644,10
2326264,11
2326892,11
2327516,14
2328140,13
2328772,16
2329392,23
2330024,24
2330652,24
2331272,27
2331900,32
2332528,33
2333156,22
2333788,10
2334408,10
2335036,11
2335660,13
2336284,13
2336916,16
2337536,18
2338164,17
2338788,16
2339412,18
2340044,16
2340664,22
2341292,27
2341924,20
2342544,19
2343172,18
2343796,13
2344428,11
2345060,22
2345680,26
2346308,26
2346932,26
2347556,30
2348188,30
2348808,38
2349436,35
2350060,29
2350688,15
2351316,10
2351940,13
2352572,15
2353204,16
2353824,21
2354456,18
2355080,18
2355712,17
2356340,12
2356960,11
2357588,11
2358212,11
2358836,23
2359468,20
2360088,22
2360716,16
2361340,12
2361968,23
2362596,34
2363220,38
2363852,35
2364480,34
2365104,31
2365736,27
2366360,17
2366984,11
2367612,13
2368232,16
2368860,16
2369484,17
2370108,20
2370740,20
2371360,21
2371988,22
2372620,16
2373240,12
2373868,13
2374496,13
2375124,11
2375756,12
2376376,15
2377004,12
2377628,11
2378252,15
2378880,28
2379504,33
2380136,29
2380760,26
2381384,27
2382012,26
2382632,29
2383260,20
2383892,14
2384512,13
2385140,9
2385712,10
2386348,11
2386980,20
2387600,21
2388228,20
2388852,22
2389484,27
2390116,27
2390736,18
2391368,11
2391992,11
2392616,11
2393248,20
2393864,23
2394496,16
2395120,20
2395744,27
2396376,28
2397000,31
2397628,37
2398260,42
2398880,37
2399512,33
2400136,23
2400764,19
2401396,22
2402016,16
2402644,10
2403268,20
2403892,23
2404520,23
2405144,26
2405772,21
2406396,11
2407024,11
2407656,11
2408280,11
2408908,13
2409536,16
2410160,17
2410788,12
2411416,13
2412040,21
2412668,26
2413288,28
2413916,29
2414544,27
2415168,24
2415796,32
2416416,32
2417044,14
2417676,10
2418296,11
2418924,11
2419548,12
2420180,19
2420808,19
2421424,23
2422056,29
2422680,26
2423304,17
2423932,10
2424552,13
2425180,15
2425808,15
2426432,18
2427060,12
2427680,12
2428308,12
2428940,16
2429560,25
2430192,35
2430816,33
2431444,39
2432076,42
2432696,37
2433324,25
2433948,14
2434572,10
2435200,25
2435824,35
2436452,16
2437080,17
2437704,19
2438332,18
2438952,24
2439580,15
2440212,17
2440832,13
2441460,9
2442032,10
2442668,11
2443300,14
2443920,15
2444548,16
2445176,18
2445804,29
2446436,30
2447056,34
2447688,27
2448312,34
2448936,37
2449564,26
2450184,16
2450816,11
2451440,11
2452064,11
2452692,11
2453320,12
2453948,16
2454580,18
2455200,20
2455828,23
2456456,20
2457084,18
2457716,18
2458336,15
2458964,15
2459584,18
2460208,18
2460836,13
2461456,13
2462084,25
2462708,28
2463332,27
2463960,29
2464584,24
2465212,22
2465840,23
2466464,31
2467092,27
2467716,12
2468344,10
2468976,10
2469592,11
2470220,17
2470848,17
2471468,17
2472100,16
2472720,17
2473348,12
2473972,11
2474596,23
2475228,49
2475852,47
2476480,23
2477108,11
2477728,14
2478356,18
2478980,30
2479612,31
2480244,32
2480864,33
2481492,31
2482116,27
2482740,29
2483368,22
2483992,11
2484620,10
2485244,10
2485872,13
2486500,19
2487124,20
2487752,17
2488384,18
2489000,19
2489632,19
2490252,14
2490884,11
2491512,10
2492132,11
2492760,19
2493388,27
2494012,26
2494640,22
2495260,20
2495888,19
2496520,30
2497140,48
2497768,57
2498392,47
2499020,29
2499652,18
2500272,13
2500900,12
2501524,12
2502152,11
2502780,11
2503400,15
2504028,16
2504652,16
2505276,17
2505908,16
2506528,22
2507156,25
2507788,14
2508408,15
2509036,23
2509660,28
2510292,23
2510920,12
2511544,13
2512172,22
2512796,28
2513420,36
2514052,40
2514672,45
2515300,41
2515924,34
2516552,19
2517180,11
2517800,10
2518432,11
2519060,13
2519680,15
2520308,19
2520936,18
2521564,17
2522196,18
2522816,21
2523444,18
2524068,17
2524696,13
2525324,10
2525944,11
2526576,11
2527200,13
2527824,13
2528456,16
2529072,21
2529704,25
2530332,26
2530952,26
2531584,19
2532208,17
2532836,24
2533468,22
2534088,21
2534720,23
2535344,12
2535968,11
2536596,12
2537216,15
2537848,19
2538472,18
2539096,17
2539728,11
2540344,10
2540976,11
2541604,16
2542224,26
2542856,22
2543480,25
2544108,19
2544740,10
2545360,17
2545988,20
2546616,27
2547240,35
2547868,35
2548488,35
2549116,31
2549744,29
2550368,20
2551000,15
2551624,10
2552256,20
2552888,27
2553504,31
2554136,27
2554760,17
2555392,19
2556024,17
2556640,11
2557272,13
2557896,13
2558520,12
2559152,14
2559772,17
2560404,17
2561032,12
2561648,16
2562276,19
2562896,28
2563524,31
2564156,30
2564776,31
2565404,31
2566028,30
2566656,34
2567284,28
2567904,12
2568532,10
2569156,15
2569776,17
2570408,20
2571024,17
2571652,18
2572276,17
2572900,19
2573528,17
2574152,15
2574780,12
2575408,15
2576024,27
2576656,23
2577276,11
2577908,13
2578536,23
2579156,26
2579784,23
2580408,26
2581032,31
2581660,36
2582280,34
2582908,29
2583532,24
2584156,11
2584784,10
2585408,11
2586036,11
2586664,12
2587288,15
2587916,19
2588540,21
2589168,20
2589796,16
2590416,21
2591044,22
2591668,15
2592292,15
2592920,11
2593536,11
2594168,12
2594792,15
2595416,31
2596044,40
2596664,44
2597292,33
2597924,16
2598544,10
2599172,19
2599796,35
2600428,33
2601056,22
2601672,13
2602304,15
2602924,21
2603548,22
2604176,20
2604800,22
2605428,20
2606052,19
2606676,17
2607308,13
2607928,12
2608556,11
2609188,10
2609808,14
2610436,11
2611060,11
2611692,15
2612320,18
2612944,22
2613572,24
2614196,31
2614820,39
2615452,36
2616072,24
2616700,12
2617324,11
2617948,11
2618580,12
2619204,13
2619832,11
2620464,18
2621080,17
2621712,17
2622336,17
2622964,14
2623592,14
2624212,18
2624836,18
2625460,22
2626084,22
2626712,24
2627328,21
2627956,12
2628580,20
2629200,27
2629828,36
2630448,34
2631076,27
2631704,26
2632320,30
2632948,33
2633572,24
2634200,12
2634828,9
2635396,11
2636028,10
2636652,12
2637284,15
2637912,16
2638528,17
2639156,17
2639780,12
2640404,12
2641032,11
2641648,11
2642276,10
2642900,12
2643520,23
2644148,34
2644768,23
2645396,15
2646024,20
2646648,31
2647276,39
2647900,36
2648528,36
2649156,29
2649776,25
2650404,23
2651028,23
2651652,16
2652284,10
2652904,11
2653532,24
2654156,28
2654780,31
2655408,22
2656024,17
2656652,13
2657276,18
2657904,15
2658532,12
2659156,14
2659788,21
2660416,13
2661032,12
2661664,16
2662288,27
2662916,27
2663544,26
2664168,27
2664792,30
2665416,27
2666040,32
2666668,29
2667288,18
2667916,11
2668540,11
2669160,10
2669792,11
2670412,17
2671044,16
2671672,17
2672288,17
2672920,17
2673540,15
2674172,13
2674800,21
2675416,17
2676044,11
2676668,11
2677292,11
2677920,11
2678536,19
2679164,22
2679788,22
2680412,24
2681040,22
2681664,31
2682292,28
2682920,25
2683536,16
2684168,12
2684788,10
2685420,11
2686048,10
2686672,14
2687300,16
2687924,17
2688552,17
2689180,16
2689800,13
2690428,19
2691048,17
2691672,15
2692300,19
2692920,19
2693548,13
2694176,10
2694800,18
2695428,31
2696052,34
2696680,33
2697308,39
2697928,36
2698556,31
2699180,26
2699804,21
2700432,17
2701056,13
2701684,9
2702256,11
2702880,12
2703508,19
2704128,34
2704756,32
2705380,21
2706004,16
2706632,13
2707248,17
2707876,13
2708504,10
2709128,16
2709756,18
2710380,12
2711012,11
2711640,13
2712260,26
2712888,32
2713512,30
2714136,28
2714764,31
2715384,37
2716012,32
2716636,23
2717260,15
2717888,14
2718512,12
2719140,11
2719772,10
2720392,19
2721020,27
2721644,25
2722272,23
2722900,16
2723520,13
2724148,13
2724772,11
2725392,10
2726024,10
2726640,11
2727268,13
2727892,14
2728516,17
2729144,21
2729760,24
2730388,29
2731020,32
2731640,37
2732268,29
2732892,18
2733520,11
2734148,10
2734768,11
2735396,10
2736020,9
2736592,13
2737228,16
2737848,17
2738476,18
2739100,20
2739728,19
2740356,16
2740976,12
2741604,11
2742228,15
2742852,13
2743484,11
2744104,11
2744732,14
2745364,24
2745984,26
2746612,35
2747236,33
2747864,28
2748496,22
2749112,18
2749744,25
2750368,24
2750992,13
2751620,11
2752240,14
2752868,11
2753492,18
2754116,24
2754744,32
2755368,28
2755996,20
2756628,12
2757248,14
2757876,10
2758500,11
2759132,11
2759760,12
2760380,11
2761008,11
2761632,13
2762256,17
2762884,26
2763504,35
2764136,39
2764760,28
2765384,22
2766012,26
2766632,21
2767260,15
2767892,21
2768512,15
2769140,10
2769764,11
2770396,17
2771024,19
2771644,24
2772272,27
2772896,26
2773520,15
2774148,11
2774768,11
2775396,11
2776020,11
2776644,12
2777276,17
2777896,15
2778524,17
2779156,17
2779776,22
2780404,31
2781028,33
2781660,33
2782292,34
2782912,26
2783540,12
2784168,10
2784792,10
2785420,10
2786040,9
2786616,11
2787240,16
2787860,20
2788492,18
2789112,21
2789740,23
2790364,16
2790992,13
2791620,14
2792240,15
2792868,11
2793500,10
2794120,11
2794748,11
2795372,19
2796004,23
2796632,24
2797256,28
2797884,27
2798508,22
2799132,28
2799764,32
2800384,22
2801012,16
2801636,12
2802260,11
2802888,11
2803508,16
2804136,17
2804764,19
2805384,19
2806012,17
2806636,10
2807268,16
2807896,29
2808512,24
2809144,28
2809768,31
2810392,22
2811020,11
2811640,20
2812268,31
2812892,35
2813516,40
2814148,38
2814768,42
2815396,39
2816028,30
2816644,17
2817272,10
2817896,10
2818524,10
2819156,10
2819776,11
2820404,16
2821028,16
2821652,17
2822280,16
2822904,16
2823532,11
2824156,10
2824780,10
2825412,14
2826032,27
2826660,43
2827292,40
2827912,19
2828540,17
2829164,26
2829792,33
2830424,38
2831040,40
2831668,35
2832292,24
2832916,18
2833544,20
2834168,19
2834796,14
2835420,13
2836044,17
2836676,15
2837296,18
2837924,17
2838556,17
2839176,17
2839804,17
2840428,16
2841060,14
2841688,14
2842312,15
2842940,13
2843564,17
2844188,15
2844816,11
2845440,28
2846068,37
2846692,31
2847316,26
2847948,26
2848568,32
2849196,34
2849828,29
2850448,21
2851076,12
2851700,11
2852332,17
2852964,15
2853584,17
2854212,17
2854840,25
2855464,20
2856092,18
2856712,17
2857340,20
2857964,15
2858588,11
2859220,12
2859844,12
2860476,11
2861104,11
2861728,18
2862360,25
2862984,28
2863612,24
2864244,25
2864864,31
2865492,30
2866120,32
2866744,25
2867376,14
2867992,11
2868620,12
2869244,12
2869872,11
2870500,16
2871124,17
2871752,19
2872384,25
2873000,22
2873628,14
2874252,11
2874880,10
2875508,10
2876128,12
2876756,13
2877384,13
2878008,11
2878636,18
2879256,24
2879884,27
2880516,26
2881136,26
2881764,32
2882384,33
2883016,24
2883644,16
2884264,14
2884892,13
2885512,10
2886144,12
2886772,16
2887392,16
2888020,16
2888644,17
2889264,18
2889892,12
2890512,11
2891140,11
2891764,16
2892388,27
2893016,23
2893640,15
2894268,11
2894896,14
2895520,27
2896148,28
2896772,27
2897400,24
2898028,26
2898648,30
2899276,20
2899900,12
2900520,11
2901152,11
2901768,11
2902396,11
2903024,13
2903648,18
2904276,16
2904900,19
2905532,19
2906164,20
2906784,14
2907412,15
2908036,19
2908668,20
2909300,18
2909920,22
2910548,14
2911172,15
2911796,27
2912428,34
2913048,34
2913676,32
2914300,26
2914928,30
2915556,35
2916184,27
2916812,10
2917440,11
2918064,11
2918696,10
2919316,13
2919944,12
2920572,16
2921192,21
2921820,22
2922444,23
2923068,19
2923700,18
2924320,19
2924948,17
2925580,20
2926200,14
2926828,13
2927452,12
2928084,12
2928712,19
2929336,23
2929964,21
2930588,23
2931212,30
2931844,32
2932464,29
2933092,23
2933716,16
2934344,11
2934972,10
2935592,13
2936224,16
2936852,16
2937472,17
2938104,17
2938728,18
2939356,16
2939988,10
2940608,10
2941240,11
2941864,10
2942488,11
2943116,15
2943736,24
2944368,15
2944992,15
2945616,17
2946244,24
2946864,31
2947492,35
2948124,35
2948744,33
2949376,30
2949996,20
2950628,12
2951256,10
2951872,11
2952504,17
2953128,17
2953752,18
2954380,16
2955000,17
2955628,16
2956252,15
2956876,11
2957508,10
2958128,15
2958756,17
2959388,16
2960008,14
2960636,11
2961260,13
2961888,25
2962516,29
2963136,29
2963764,29
2964388,28
2965012,31
2965644,26
2966264,24
2966892,14
2967516,12
2968140,12
2968772,15
2969392,19
2970024,19
2970652,22
2971272,21
2971900,17
2972524,19
2973152,17
2973784,12
2974400,11
2975028,15
2975652,10
2976276,15
2976908,14
2977528,12
2978156,14
2978780,17
2979404,17
2980036,34
2980656,49
2981284,47
2981912,42
2982536,39
2983164,31
2983788,18
2984420,10
2985048,12
2985664,16
2986296,16
2986920,18
2987544,19
2988172,22
2988792,23
2989424,23
2990048,17
2990672,14
2991300,13
2991920,18
2992552,21
2993180,18
2993800,20
2994428,13
2995052,16
2995684,19
2996316,27
2996936,39
2997564,41
2998192,44
2998816,39
2999444,32
3000064,24
3000692,13
3001316,10
3001940,11
3002572,12
3003192,13
3003824,16
3004452,21
3005072,21
3005704,20
3006328,14
3006956,14
3007588,15
3008208,14
3008836,15
3009460,13
3010084,15
3010716,12
3011336,12
3011964,22
3012588,25
3013216,23
3013844,23
3014468,26
3015100,34
3015728,38
3016352,33
3016980,15
3017608,11
3018236,16
3018868,14
3019488,11
3020120,15
3020744,17
3021368,16
3022000,18
3022616,22
3023248,25
3023880,18
3024496,11
3025124,10
3025752,13
3026380,16
3027012,14
3027632,11
3028264,12
3028888,19
3029512,21
3030144,26
3030760,28
3031392,27
3032016,35
3032640,37
3033272,24
3033892,12
3034520,15
3035152,14
3035772,10
3036404,11
3037028,15
3037656,17
3038288,20
3038908,21
3039540,18
3040164,12
3040788,12
3041416,13
3042040,14
3042668,17
3043292,21
3043916,14
3044548,10
3045168,23
3045796,29
3046428,30
3047048,27
3047676,27
3048300,27
3048932,24
3049564,18
3050184,22
3050816,23
3051440,21
3052064,11
3052692,10
3053312,17
3053944,20
3054568,21
3055192,19
3055824,18
3056444,17
3057072,17
3057704,16
3058320,13
3058952,12
3059576,13
3060208,16
3060836,14
3061456,12
3062088,18
3062712,23
3063336,29
3063968,31
3064588,29
3065216,24
3065844,26
3066468,33
3067100,25
3067724,15
3068356,10
3068988,10
3069608,11
3070240,17
3070864,18
3071496,20
3072128,21
3072744,23
3073372,14
3073996,10
3074620,12
3075248,12
3075864,16
3076496,17
3077116,18
3077744,15
3078372,15
3078996,25
3079628,31
3080256,32
3080880,27
3081508,21
3082132,22
3082760,23
3083388,14
3084008,19
3084636,19
3085260,12
3085884,10
3086516,10
3087136,17
3087768,19
3088396,20
3089016,17
3089644,12
3090268,11
3090900,10
3091528,12
3092148,15
3092776,15
3093400,22
3094024,23
3094656,20
3095272,17
3095904,29
3096528,34
3097152,33
3097784,30
3098400,34
3099028,25
3099660,16
3100280,18
3100908,15
3101532,17
3102164,12
3102796,9
3103364,14
3103996,16
3104624,17
3105252,18
3105884,19
3106504,18
3107136,15
3107760,17
3108384,17
3109016,17
3109632,20
3110264,20
3110888,13
3111512,13
3112144,25
3112764,27
3113392,26
3114024,31
3114640,28
3115272,24
3115896,19
3116524,13
3117156,11
3117776,10
3118404,11
3119028,11
3119656,10
3120284,17
3120904,18
3121532,21
3122156,24
3122784,20
3123412,11
3124036,13
3124664,13
3125296,12
3125912,17
3126544,28
3127168,24
3127796,17
3128428,16
3129048,29
3129676,35
3130300,33
3130924,31
3131556,29
3132176,31
3132808,29
3133428,27
3134056,17
3134684,11
3135312,16
3135940,11
3136572,13
3137192,17
3137820,16
3138448,19
3139076,22
3139708,20
3140328,13
3140956,15
3141584,15
3142208,11
3142840,10
3143456,13
3144088,12
3144716,12
3145336,23
3145968,29
3146592,27
3147220,19
3147852,17
3148472,17
3149104,25
3149728,32
3150352,23
3150984,11
3151600,10
3152232,11
3152856,11
3153480,17
3154112,16
3154728,18
3155360,19
3155988,19
3156608,14
3157236,10
3157864,12
3158492,11
3159124,11
3159744,13
3160376,11
3161000,12
3161624,14
3162252,16
3162872,16
3163504,17
3164128,24
3164752,28
3165384,27
3166000,26
3166632,26
3167264,19
3167880,10
3168512,11
3169136,16
3169768,12
3170396,15
3171016,16
3171648,20
3172276,24
3172900,22
3173532,18
3174152,20
3174784,18
3175408,12
3176036,11
3176664,13
3177288,11
3177916,15
3178548,22
3179168,31
3179800,31
3180424,28
3181056,25
3181684,30
3182304,27
3182936,20
3183560,17
3184184,17
3184816,11
3185432,11
3186064,12
3186692,15
3187312,19
3187944,21
3188568,20
3189196,17
3189828,10
3190448,11
3191080,11
3191704,11
3192328,11
3192960,13
3193576,15
3194208,14
3194836,13
3195460,19
3196092,29
3196712,29
3197344,25
3197976,27
3198596,28
3199224,28
3199852,22
3200484,16
3201112,14
3201728,10
3202360,12
3202980,11
3203604,17
3204232,23
3204856,25
3205484,20
3206108,20
3206728,17
3207360,13
3207976,11
3208604,10
3209236,10
3209856,12
3210484,13
3211108,18
3211740,17
3212368,18
3212984,21
3213616,20
3214236,23
3214860,33
3215492,36
3216112,41
3216740,28
3217364,15
3217988,13
3218616,12
3219232,10
3219864,11
3220492,14
3221112,22
3221740,29
3222364,26
3222996,21
3223628,18
3224248,19
3224876,13
3225500,13
3226128,15
3226756,14
3227376,11
3228004,13
3228628,23
3229252,32
3229884,31
3230504,27
3231132,28
3231764,39
3232384,37
3233012,28
3233636,33
3234268,33
3234896,20
3235512,11
3236144,24
3236768,27
3237392,24
3238020,20
3238640,27
3239268,35
3239892,21
3240516,11
3241144,10
3241768,10
3242396,10
3243028,10
3243648,12
3244276,13
3244900,11
3245532,27
3246160,32
3246784,35
3247412,33
3248036,31
3248660,28
3249292,14
3249912,12
3250544,11
3251168,14
3251792,10
3252420,11
3253040,13
3253668,19
3254300,18
3254920,19
3255548,17
3256176,17
3256804,15
3257436,20
3258056,20
3258684,18
3259312,16
3259936,16
3260564,11
3261184,11
3261816,19
3262440,27
3263064,36
3263696,28
3264312,22
3264944,31
3265572,34
3266192,35
3266824,26
3267448,19
3268076,15
3268708,10
3269328,14
3269956,16
3270584,18
3271208,19
3271836,20
3272456,22
3273084,21
3273712,21
3274336,15
3274968,11
3275592,11
3276224,13
3276856,16
3277468,11
3278100,16
3278720,29
3279348,36
3279976,33
3280596,30
3281224,22
3281844,20
3282468,21
3283096,14
3283712,11
3284340,10
3284964,12
3285584,11
3286212,10
3286832,17
3287460,19
3288088,21
3288704,20
3289332,21
3289956,20
3290584,19
3291212,11
3291828,11
3292460,14
3293084,15
3293704,12
3294332,11
3294952,15
3295580,26
3296204,32
3296828,36
3297456,35
3298072,36
3298700,29
3299324,25
3299944,20
3300576,14
3301196,11
3301828,11
3302456,18
3303072,15
3303700,17
3304324,17
3304952,18
3305580,21
3306200,23
3306828,26
3307452,27
3308076,25
3308704,27
3309324,21
3309952,12
3310576,15
3311200,21
3311828,30
3312452,32
3313084,30
3313712,32
3314328,31
3314956,34
3315580,31
3316212,20
3316840,16
3317456,16
3318088,15
3318712,13
3319332,25
3319964,14
3320584,15
3321212,17
3321836,17
3322460,19
3323088,16
3323712,17
3324340,20
3324972,17
3325592,19
3326220,19
3326844,15
3327476,11
3328108,12
3328724,21
3329352,26
3329972,25
3330596,22
3331224,23
3331840,27
3332468,23
3333092,17
3333716,13
3334344,11
3334964,10
3335592,12
3336220,12
3336840,17
3337468,16
3338092,17
3338720,16
3339348,16
3339968,12
3340596,12
3341220,11
3341844,10
3342472,14
3343088,21
3343720,21
3344344,17
3344964,13
3345592,24
3346216,25
3346844,28
3347476,30
3348096,28
3348724,15
3349348,11
3349976,15
3350608,16
3351224,16
3351852,11
3352476,10
3353100,12
3353732,18
3354352,19
3354980,20
3355604,22
3356228,18
3356856,15
3357480,13
3358108,13
3358740,18
3359360,30
3359988,34
3360612,19
3361240,12
3361868,21
3362488,31
3363116,41
3363740,45
3364364,44
3364992,51
3365608,45
3366236,35
3366860,21
3367484,13
3368112,11
3368728,9
3369308,11
3369936,11
3370556,17
3371188,24
3371808,24
3372436,23
3373068,16
3373688,15
3374316,11
3374940,13
3375568,19
3376200,18
3376816,17
3377448,12
3378068,14
3378692,22
3379324,24
3379940,25
3380572,24
3381192,22
3381816,23
3382444,20
3383060,20
3383692,18
3384316,15
3384940,14
3385568,12
3386192,11
3386820,17
3387452,20
3388072,21
3388700,21
3389324,23
3389956,24
3390584,19
3391208,15
3391836,15
3392460,12
3393084,11
3393712,10
3394336,11
3394964,12
3395596,28
3396216,33
3396844,39
3397468,40
3398096,40
3398728,34
3399344,29
3399972,21
3400596,12
3401220,11
3401852,10
3402472,11
3403100,12
3403724,20
3404348,19
3404976,19
3405592,20
3406224,20
3406848,19
3407472,21
3408100,21
3408724,17
3409352,14
3409980,12
3410600,11
3411228,15
3411852,24
3412480,36
3413108,35
3413728,31
3414360,29
3414984,32
3415608,30
3416236,17
3416856,14
3417484,12
3418108,15
3418736,11
3419364,12
3419988,14
3420620,15
3421252,16
3421872,17
3422500,19
3423124,15
3423752,17
3424380,16
3425000,15
3425628,14
3426252,16
3426876,21
3427508,16
3428128,12
3428756,25
3429388,29
3430008,34
3430640,27
3431260,26
3431892,28
3432520,34
3433144,33
3433772,27
3434396,18
3435020,10
3435652,16
3436272,13
3436900,16
3437524,17
3438148,25
3438780,24
3439400,17
3440032,11
3440660,10
3441280,11
3441908,15
3442532,21
3443160,25
3443788,14
3444408,15
3445036,27
3445660,36
3446284,31
3446912,27
3447536,28
3448164,27
3448788,28
3449412,21
3450044,12
3450664,9
3451240,11
3451872,11
3452496,13
3453124,14
3453744,22
3454372,20
3455004,21
3455624,19
3456256,19
3456876,20
3457508,22
3458136,19
3458752,10
3459384,11
3460008,11
3460628,12
3461260,10
3461880,22
3462508,33
3463132,27
3463756,19
3464384,17
3465000,28
3465632,36
3466260,37
3466880,32
3467508,25
3468132,15
3468764,10
3469392,10
3470016,17
3470644,19
3471272,25
3471896,25
3472524,19
3473144,12
3473772,10
3474396,10
3475020,11
3475652,19
3476272,32
3476904,25
3477532,15
3478152,12
3478784,26
3479408,35
3480036,32
3480668,36
3481288,42
3481920,42
3482540,29
3483164,20
3483792,15
3484416,13
3485044,11
3485668,10
3486292,10
3486920,16
3487536,16
3488168,20
3488796,22
3489416,21
3490044,17
3490668,18
3491296,19
3491928,11
3492544,16
3493172,17
3493796,13
3494420,11
3495048,22
3495672,32
3496300,29
3496924,31
3497552,30
3498180,37
3498800,39
3499428,30
3500060,17
3500680,10
3501312,11
3501936,11
3502564,11
3503196,12
3503816,18
3504448,22
3505072,22
3505696,21
3506324,18
3506944,21
3507576,19
3508200,15
3508820,15
3509452,14
3510072,16
3510704,13
3511332,10
3511952,21
3512584,27
3513208,34
3513840,32
3514468,31
3515088,36
3515720,33
3516344,29
3516968,22
3517596,16
3518216,15
3518848,13
3519472,11
3520096,16
3520724,19
3521348,21
3521980,27
3522608,27
3523232,25
3523860,21
3524484,20
3525112,18
3525740,17
3526360,17
3526988,16
3527612,12
3528236,12
3528868,22
3529488,29
3530116,30
3530740,28
3531364,34
3531996,44
3532620,41
3533252,29
3533880,16
3534504,14
3535132,12
3535756,10
3536388,15
3537016,22
3537640,20
3538268,24
3538892,25
3539516,28
3540148,22
3540768,17
3541396,16
3542028,14
3542648,15
3543276,11
3543900,11
3544532,11
3545164,18
3545784,22
3546412,26
3547036,25
3547660,25
3548292,26
3548912,28
3549540,28
3550168,20
3550792,16
3551420,13
3552040,11
3552668,11
3553300,12
3553920,16
3554548,16
3555172,17
3555804,17
3556436,14
3557056,16
3557688,12
3558312,11
3558936,10
3559564,10
3560184,11
3560812,11
3561436,12
3562064,17
3562692,20
3563312,27
3563944,29
3564572,22
3565192,28
3565820,28
3566448,25
3567076,22
3567708,16
3568328,12
3568956,11
3569580,9
3570156,17
3570792,19
3571408,17
3572040,19
3572664,19
3573288,14
3573920,18
3574536,27
3575168,21
3575792,19
3576416,17
3577044,13
3577672,12
3578300,17
3578932,26
3579552,28
3580184,32
3580808,32
3581440,33
3582068,32
3582688,28
3583320,22
3583944,17
3584572,15
3585200,11
3585816,9
3586396,12
3587024,17
3587648,17
3588276,16
3588896,20
3589524,36
3590156,40
3590776,22
3591404,11
3592028,11
3592660,12
3593288,18
3593912,12
3594544,12
3595168,18
3595792,18
3596420,19
3597040,29
3597668,38
3598292,40
3598920,35
3599548,21
3600168,11
3600796,13
3601428,16
3602048,14
3602676,10
3603300,12
3603932,15
3604560,16
3605180,18
3605812,23
3606436,21
3607056,19
3607684,18
3608304,16
3608932,15
3609556,17
3610180,17
3610808,12
3611432,11
3612060,19
3612692,28
3613312,33
3613940,27
3614564,27
3615196,30
3615824,34
3616448,29
3617076,19
3617700,20
3618324,21
3618952,14
3619576,11
3620204,17
3620828,17
3621452,18
3622080,18
3622704,23
3623332,31
3623964,32
3624584,25
3625212,16
3625836,18
3626468,19
3627096,13
3627712,11
3628344,15
3628968,22
3629592,24
3630220,27
3630840,23
3631468,23
3632092,19
3632716,19
3633348,20
3633968,11
3634596,10
3635228,10
3635848,11
3636476,11
3637100,17
3637732,21
3638360,20
3638984,19
3639612,13
3640240,12
3640860,11
3641492,10
3642112,11
3642740,13
3643368,14
3643992,11
3644620,11
3645240,22
3645868,27
3646500,32
3647120,29
3647748,27
3648376,29
3649004,14
3649632,10
3650248,11
3650880,13
3651504,9
3652076,10
3652708,10
3653328,14
3653956,19
3654580,20
3655204,17
3655836,17
3656456,15
3657084,17
3657708,21
3658332,14
3658964,11
3659588,13
3660216,11
3660848,11
3661464,14
3662096,22
3662720,25
3663348,26
3663980,32
3664600,36
3665232,36
3665856,26
3666480,16
3667108,15
3667728,11
3668356,13
3668984,11
3669604,12
3670236,17
3670860,16
3671492,17
3672124,18
3672744,19
3673376,12
3674000,13
3674628,12
3675260,10
3675880,11
3676512,16
3677136,15
3677760,14
3678388,15
3679008,25
3679640,32
3680272,35
3680888,33
3681520,27
3682144,20
3682772,21
3683404,16
3684024,15
3684652,11
3685276,11
3685904,15
3686532,15
3687152,21
3687780,21
3688404,20
3689024,17
3689656,13
3690272,13
3690900,11
3691532,10
3692152,12
3692780,11
3693404,13
3694036,11
3694664,11
3695288,17
3695916,21
3696540,27
3697168,29
3697796,26
3698416,26
3699044,28
3699668,31
3700292,25
3700920,13
3701544,11
3702172,15
3702804,16
3703424,19
3704052,16
3704676,20
3705308,26
3705940,25
3706560,15
3707188,12
3707816,11
3708440,14
3709068,10
3709688,19
3710316,17
3710944,11
3711568,13
3712200,24
3712816,33
3713444,39
3714072,34
3714696,29
3715324,24
3715948,12
3716580,10
3717208,10
3717832,10
3718460,10
3719084,10
3719708,11
3720336,16
3720960,18
3721588,17
3722212,17
3722840,17
3723468,12
3724088,19
3724716,21
3725348,24
3725968,25
3726596,16
3727224,11
3727852,12
3728484,19
3729104,23
3729732,25
3730356,24
3730980,23
3731612,24
3732232,25
3732864,29
3733484,22
3734112,15
3734740,13
3735364,10
3735996,11
3736628,12
3737248,19
3737880,27
3738504,32
3739132,31
3739764,18
3740384,11
3741012,12
3741640,11
3742264,11
3742892,14
3743512,20
3744144,12
3744768,11
3745392,22
3746020,32
3746648,45
3747276,44
3747908,38
3748528,34
3749156,29
3749780,21
3750408,17
3751036,10
3751656,11
3752288,16
3752912,23
3753536,23
3754168,19
3754784,18
3755416,18
3756048,16
3756664,10
3757296,12
3757920,13
3758552,15
3759184,17
3759800,18
3760432,19
3761056,15
3761680,14
3762308,18
3762928,21
3763560,22
3764184,21
3764808,27
3765436,30
3766056,39
3766688,40
3767320,21
3767936,13
3768568,10
3769192,11
3769820,11
3770452,16
3771072,16
3771700,19
3772328,23
3772952,17
3773580,14
3774200,13
3774832,12
3775456,12
3776080,13
3776708,12
3777328,12
3777956,11
3778588,14
3779208,17
3779836,24
3780460,30
3781092,33
3781724,34
3782344,32
3782976,25
3783600,20
3784224,13
3784852,11
3785472,10
3786104,15
3786728,19
3787352,19
3787984,19
3788604,20
3789236,18
3789864,13
3790484,12
3791112,13
3791736,13
3792368,14
3792996,12
3793616,15
3794244,15
3794868,11
3795496,19
3796124,26
3796744,30
3797376,26
3798000,22
3798624,24
3799256,23
3799880,24
3800508,21
3801140,14
3801760,12
3802388,10
3803016,15
3803644,23
3804276,16
3804896,17
3805524,17
3806152,22
3806776,17
3807408,14
3808024,13
3808656,14
3809284,17
3809904,16
3810532,12
3811160,12
3811792,19
3812420,30
3813040,37
3813672,33
3814296,27
3814920,23
3815552,32
3816172,34
3816800,28
3817424,24
3818052,16
3818680,10
3819304,12
3819936,14
3820568,19
3821184,19
3821816,20
3822440,18
3823068,13
3823700,12
3824320,15
3824952,16
3825576,18
3826200,13
3826832,11
3827452,11
3828080,11
3828704,17
3829328,16
3829960,19
3830580,26
3831208,25
3831840,28
3832456,31
3833088,34
3833716,21
3834344,11
3834976,9
3835548,10
3836184,11
3836808,17
3837440,17
3838068,18
3838688,19
3839320,21
3839948,17
3840576,19
3841204,19
3841824,18
3842452,17
3843080,20
3843704,19
3844332,13
3844956,13
3845588,21
3846216,26
3846840,33
3847468,34
3848092,35
3848716,35
3849348,26
3849968,19
3850596,11
3851220,12
3851844,10
3852472,10
3853096,11
3853724,16
3854356,16
3854976,17
3855604,20
3856228,21
3856860,14
3857488,20
3858108,19
3858736,15
3859360,16
3859984,17
3860612,12
3861232,12
3861860,18
3862484,27
3863108,37
3863740,34
3864360,33
3864988,37
3865620,38
3866240,29
3866868,14
3867492,10
3868124,10
3868752,9
3869324,12
3869960,12
3870584,16
3871212,15
3871844,18
3872464,18
3873092,13
3873716,15
3874340,20
3874972,17
3875592,17
3876224,16
3876848,18
3877472,15
3878100,12
3878728,17
3879356,17
3879988,18
3880608,20
3881236,25
3881864,32
3882492,35
3883124,30
3883744,24
3884376,14
3885000,13
3885624,11
3886252,10
3886872,17
3887504,19
3888132,23
3888752,25
3889384,22
3890008,19
3890640,12
3891268,10
3891888,11
3892516,11
3893140,14
3893764,13
3894396,10
3895016,16
3895648,28
3896272,26
3896896,29
3897524,33
3898144,39
3898772,37
3899404,22
3900024,13
3900656,12
3901280,11
3901908,11
3902540,10
3903160,12
3903792,16
3904416,16
3905040,16
3905668,22
3906288,21
3906916,18
3907540,21
3908168,15
3908796,10
3909416,10
3910048,13
3910676,18
3911296,17
3911928,19
3912552,20
3913184,23
3913812,25
3914432,34
3915064,46
3915688,40
3916312,24
3916944,14
3917560,13
3918192,10
3918816,13
3919440,11
3920072,17
3920688,16
3921316,16
3921948,22
3922568,24
3923196,19
3923824,12
3924452,11
3925084,11
3925704,12
3926336,17
3926960,17
3927584,12
3928216,12
3928832,16
3929464,16
3930088,21
3930712,31
3931344,32
3931964,29
3932596,26
3933224,18
3933840,15
3934472,13
3935096,11
3935724,13
3936356,10
3936976,17
3937604,18
3938228,22
3938852,21
3939484,18
3940104,11
3940732,11
3941356,10
3941984,11
3942612,15
3943236,17
3943868,12
3944496,12
3945116,23
3945744,31
3946368,30
3946996,29
3947628,27
3948248,25
3948876,29
3949500,29
3950124,25
3950756,16
3951376,12
3952004,12
3952628,15
3953256,13
3953884,16
3954508,17
3955140,16
3955772,16
3956392,17
3957024,15
3957648,12
3958276,10
3958908,14
3959528,17
3960160,17
3960784,17
3961408,11
3962036,20
3962656,30
3963288,24
3963916,20
3964536,30
3965168,41
3965792,35
3966424,25
3967052,14
3967672,12
3968304,15
3968928,11
3969552,11
3970180,16
3970800,19
3971428,27
3972052,27
3972676,23
3973308,13
3973928,11
3974556,11
3975188,10
3975808,13
3976436,12
3977060,11
3977692,12
3978320,13
3978944,19
3979572,20
3980200,23
3980824,28
3981452,30
3982072,32
3982704,31
3983328,28
3983952,20
3984584,16
3985200,12
3985828,10
3986460,10
3987080,17
3987712,19
3988336,20
3988968,21
3989596,20
3990216,21
3990848,16
3991472,11
3992096,11
3992728,16
3993344,14
3993976,10
3994600,12
3995224,22
3995852,30
3996472,29
3997104,33
3997732,32
3998352,29
3998984,21
3999608,11
4000240,10
4000868,10
4001488,11
4002116,12
4002740,16
4003364,21
4003992,23
4004608,21
4005240,21
4005864,20
4006488,13
4007116,12
4007736,11
4008364,12
4008996,10
4009616,11
4010244,16
4010868,12
4011496,15
4012128,27
4012748,23
4013376,24
4014004,28
4014628,24
4015256,21
4015876,24
4016504,24
4017128,19
4017752,14
4018380,9
4018948,11
4019580,11
4020204,16
4020828,16
4021456,15
4022080,18
4022708,21
4023340,16
4023960,12
4024592,14
4025216,19
4025844,32
4026472,36
4027096,19
4027724,15
4028348,21
4028972,31
4029604,32
4030224,29
4030856,22
4031480,20
4032104,29
4032732,31
4033356,27
4033988,17
4034616,15
4035236,10
4035864,11
4036488,13
4037116,19
4037748,18
4038368,18
4039000,19
4039624,19
4040248,19
4040876,18
4041496,16
4042124,15
4042752,12
4043376,15
4044008,14
4044632,11
4045260,23
4045892,30
4046512,31
4047140,27
4047768,25
4048392,31
4049020,33
4049640,29
4050268,22
4050892,18
4051516,12
4052148,11
4052768,11
4053396,15
4054028,18
4054648,23
4055280,19
4055904,17
4056532,17
4057164,24
4057784,27
4058412,24
4059036,18
4059660,17
4060292,11
4060912,12
4061540,12
4062164,19
4062792,27
4063420,38
4064040,41
4064668,35
4065300,29
4065920,30
4066548,23
4067176,14
4067804,12
4068436,10
4069056,13
4069688,13
4070312,21
4070936,22
4071568,23
4072188,23
4072816,19
4073440,14
4074064,14
4074696,12
4075316,9
4075896,10
4076520,19
4077144,21
4077776,15
4078392,15
4079024,25
4079656,29
4080272,27
4080904,25
4081528,34
4082160,37
4082788,30
4083408,27
4084036,20
4084660,13
4085288,9
4085864,12
4086488,13
4087120,19
4087744,21
4088368,22
4088996,19
4089616,19
4090244,17
4090872,17
4091496,14
4092128,12
4092752,11
4093384,12
4094016,13
4094636,13
4095268,17
4095892,28
4096520,32
4097148,32
4097764,32
4098392,39
4099016,40
4099636,33
4100268,20
4100884,12
4101512,10
4102136,13
4102760,25
4103388,30
4104008,22
4104636,22
4105268,20
4105888,17
4106516,11
4107140,11
4107768,13
4108396,14
4109016,17
4109644,14
4110264,11
4110888,11
4111520,12
4112136,20
4112764,23
4113388,24
4114008,27
4114640,24
4115256,23
4115884,25
4116512,23
4117128,18
4117760,15
4118380,12
4119012,10
4119640,10
4120264,17
4120892,16
4121516,17
4122140,16
4122768,16
4123392,11
4124020,13
4124644,25
4125268,31
4125896,17
4126512,12
4127144,12
4127772,12
4128392,19
4129020,23
4129644,23
4130272,27
4130900,23
4131520,23
4132148,35
4132772,37
4133396,33
4134024,21
4134648,13
4135276,15
4135900,21
4136524,19
4137156,20
4137776,19
4138404,20
4139032,20
4139652,14
4140280,10
4140904,11
4141532,10
4142160,14
4142784,20
4143412,19
4144036,11
4144660,17
4145288,25
4145904,27
4146536,22
4147160,21
4147784,24
4148412,18
4149032,23
4149660,27
4150288,30
4150912,25
4151540,17
4152164,12
4152796,10
4153424,16
4154048,16
4154676,18
4155300,21
4155924,21
4156556,20
4157176,19
4157804,15
4158428,13
4159052,13
4159684,14
4160304,14
4160932,11
4161560,12
4162176,22
4162808,25
4163428,24
4164060,29
4164688,33
4165304,26
4165932,25
4166556,28
4167180,22
4167808,14
4168432,11
4169060,10
4169684,11
4170304,17
4170936,19
4171552,21
4172180,19
4172812,21
4173428,17
4174060,19
4174684,12
4175312,10
4175944,11
4176560,17
4177192,16
4177816,11
4178440,17
4179068,20
4179688,21
4180316,25
4180940,28
4181564,31
4182192,39
4182812,40
4183440,31
4184068,18
4184688,19
4185316,12
4185940,12
4186568,14
4187200,19
4187816,20
4188444,21
4189068,26
4189700,18
4190328,15
4190948,11
4191576,11
4192200,13
4192824,19
4193452,16
4194072,13
4194700,12
4195324,20
4195952,20
4196580,18
4197204,28
4197836,28
4198464,30
4199088,37
4199716,31
4200336,19
4200964,16
4201592,14
4202216,9
4202792,15
4203424,21
4204048,25
4204676,20
4205296,19
4205924,17
4206548,10
4207172,11
4207800,10
4208424,12
4209052,19
4209680,24
4210304,26
4210932,16
4211556,15
4212188,32
4212816,34
4213432,35
4214064,37
4214688,42
4215312,43
4215940,26
4216560,11
4217188,20
4217812,11
4218436,13
4219068,12
4219688,12
4220316,17
4220948,21
4221568,26
4222196,25
4222820,29
4223452,26
4224084,18
4224700,11
4225332,10
4225952,16
4226576,29
4227204,15
4227824,16
4228452,30
4229076,41
4229700,38
4230328,40
4230952,34
4231580,28
4232212,24
4232832,25
4233460,21
4234084,12
4234716,10
4235344,11
4235968,17
4236596,14
4237224,15
4237848,16
4238476,18
4239096,20
4239728,15
4240348,17
4240972,22
4241600,22
4242224,19
4242852,14
4243484,12
4244104,11
4244732,12
4245356,19
4245988,28
4246616,24
4247240,28
4247868,31
4248492,32
4249116,32
4249748,24
4250368,17
4250996,11
4251620,11
4252244,13
4252872,10
4253496,16
4254124,17
4254756,19
4255376,24
4256004,22
4256628,16
4257260,12
4257888,13
4258508,15
4259136,20
4259760,24
4260384,17
4261012,10
4261632,15
4262260,29
4262884,28
4263508,28
4264136,29
4264756,29
4265384,31
4266012,28
4266632,21
4267260,13
4267884,13
4268512,10
4269144,11
4269760,11
4270392,18
4271016,17
4271640,19
4272268,16
4272888,16
4273516,12
4274140,15
4274764,15
4275396,12
4276016,13
4276644,21
4277272,20
4277896,12
4278524,25
4279148,34
4279780,35
4280412,35
4281032,28
4281660,31
4282284,27
4282908,20
4283536,15
4284156,11
4284784,11
4285408,17
4286032,15
4286660,11
4287280,16
4287908,17
4288540,20
4289160,23
4289788,19
4290412,15
4291044,11
4291672,10
4292292,14
4292920,21
4293544,21
4294168,11
4294796,11
4295416,23
4296048,27
4296668,21
4297292,25
4297924,24
4298544,23
4299176,30
4299804,27
4300424,17
4301056,14
4301676,15
4302308,9
4302884,11
4303508,16
4304140,15
4304764,17
4305392,19
4306020,23
4306640,17
4307268,11
4307892,11
4308516,11
4309144,12
4309768,17
4310396,15
4311024,13
4311648,14
4312276,29
4312900,33
4313532,33
4314164,30
4314784,33
4315416,30
4316040,30
4316668,19
4317300,10
4317920,10
4318548,12
4319176,15
4319800,17
4320432,17
4321048,21
4321676,21
4322300,19
4322928,24
4323556,22
4324180,21
4324812,17
4325440,16
4326056,20
4326688,26
4327312,19
4327940,12
4328572,30
4329192,41
4329820,43
4330444,43
4331068,43
4331700,42
4332320,39
4332948,29
4333580,14
4334200,17
4334828,22
4335452,12
4336084,10
4336712,14
4337336,15
4337964,17
4338588,16
4339212,18
4339844,16
4340464,17
4341096,17
4341720,20
4342344,21
4342972,20
4343592,24
4344224,17
4344852,14
4345472,17
4346104,21
4346728,27
4347356,32
4347988,40
4348608,44
4349240,35
4349864,21
4350488,11
4351116,10
4351736,12
4352368,15
4352992,13
4353616,17
4354244,16
4354864,17
4355492,17
4356124,18
4356744,13
4357372,19
4357996,25
4358628,19
4359256,16
4359880,13
4360508,12
4361132,12
4361756,17
4362388,18
4363008,28
4363636,35
4364260,36
4364884,41
4365512,40
4366132,31
4366760,29
4367388,13
4368008,10
4368636,13
4369260,15
4369892,12
4370520,16
4371144,17
4371776,18
4372400,17
4373024,18
4373652,20
4374272,22
4374904,25
4375528,27
4376152,18
4376780,15
4377400,12
4378032,11
4378660,22
4379280,33
4379908,31
4380536,35
4381164,33
4381796,28
4382416,29
4383044,27
4383668,19
4384296,12
4384924,10
4385544,14
4386172,16
4386796,21
4387424,23
4388052,21
4388676,17
4389308,16
4389936,10
4390560,11
4391188,11
4391816,11
4392444,10
4393076,18
4393696,23
4394324,26
4394948,15
4395576,25
4396204,39
4396824,34
4397452,29
4398080,34
4398704,37
4399336,33
4399960,24
4400592,15
4401220,11
4401840,11
4402468,14
4403096,14
4403720,19
4404348,16
4404968,18
4405596,20
4406220,19
4406844,14
4407476,12
4408096,14
4408724,12
4409356,12
4409976,14
4410604,13
4411228,14
4411860,18
4412492,26
4413112,26
4413744,27
4414368,24
4414992,26
4415624,31
4416240,34
4416872,26
4417496,19
4418120,15
4418748,11
4419368,11
4419996,12
4420628,16
4421248,18
4421876,19
4422504,23
4423132,29
4423764,18
4424384,11
4425012,16
4425636,11
4426260,15
4426888,18
4427504,14
4428136,13
4428760,24
4429384,22
4430012,18
4430632,35
4431260,47
4431892,58
4432512,49
4433140,35
4433764,13
4434396,10
4435028,10
4435648,13
4436276,11
4436900,17
4437524,17
4438156,16
4438776,20
4439408,22
4440032,18
4440656,15
4441284,18
4441904,19
4442532,20
4443164,29
4443784,28
4444416,14
4445040,19
4445668,36
4446300,32
4446920,29
4447548,29
4448176,35
4448800,33
4449428,22
4450048,17
4450676,12
4451300,9
4451876,10
4452508,10
4453128,10
4453760,18
4454384,26
4455008,24
4455640,23
4456264,21
4456892,20
4457524,12
4458144,10
4458776,12
4459400,13
4460028,12
4460660,14
4461280,13
4461908,18
4462536,21
4463160,21
4463792,23
4464412,29
4465040,34
4465672,28
4466288,27
4466920,28
4467544,20
4468172,14
4468804,10
4469424,11
4470056,14
4470680,17
4471304,17
4471936,19
4472556,19
4473184,14
4473812,12
4474436,11
4475068,16
4475688,17
4476320,11
4476948,12
4477568,16
4478200,15
4478824,16
4479456,25
4480088,30
4480704,35
4481332,33
4481956,37
4482580,33
4483208,24
4483824,10
4484456,14
4485080,11
4485704,12
4486332,11
4486952,20
4487580,17
4488212,16
4488832,20
4489460,25
4490084,18
4490716,20
4491344,20
4491968,16
4492600,12
4493224,15
4493848,12
4494476,12
4495096,16
4495728,25
4496352,27
4496976,27
4497604,30
4498224,42
4498852,39
4499484,31
4500104,24
4500736,15
4501360,13
4501992,10
4502620,15
4503240,16
4503872,19
4504496,17
4505120,19
4505752,20
4506368,13
4506996,11
4507620,10
4508244,13
4508872,23
4509488,15
4510120,14
4510748,11
4511368,14
4511996,22
4512624,24
4513252,31
4513884,32
4514504,32
4515132,30
4515760,27
4516384,20
4517012,15
4517632,11
4518260,12
4518888,14
4519508,17
4520140,20
4520760,16
4521388,17
4522020,17
4522640,16
4523268,12
4523892,12
4524524,11
4525156,10
4525776,11
4526404,16
4527028,19
4527652,13
4528284,11
4528904,18
4529532,27
4530156,25
4530784,27
4531412,25
4532036,29
4532668,33
4533296,32
4533920,28
4534548,19
4535172,11
4535804,11
4536436,10
4537056,19
4537684,22
4538308,26
4538936,26
4539564,20
4540184,15
4540812,11
4541436,10
4542064,10
4542696,11
4543320,17
4543952,19
4544584,25
4545200,25
4545828,19
4546456,35
4547080,40
4547708,35
4548328,40
4548956,39
4549580,27
4550208,14
4550836,10
4551456,14
4552088,14
4552716,10
4553336,13
4553968,16
4554592,21
4555224,20
4555852,17
4556472,16
4557104,13
4557728,13
4558352,12
4558984,11
4559600,14
4560228,12
4560852,11
4561476,12
4562108,22
4562728,29
4563356,35
4563988,34
4564608,36
4565236,37
4565864,32
4566492,24
4567124,12
4567744,11
4568376,10
4569000,17
4569624,17
4570252,18
4570872,17
4571504,16
4572128,16
4572752,21
4573384,25
4574000,20
4574632,12
4575264,10
4575884,17
4576516,25
4577140,12
4577768,15
4578400,24
4579020,33
4579648,34
4580276,31
4580900,31
4581532,30
4582152,31
4582784,19
4583412,14
4584036,11
4584664,12
4585292,11
4585920,11
4586552,12
4587172,17
4587804,22
4588428,22
4589056,23
4589688,18
4590304,13
4590936,14
4591560,17
4592184,16
4592812,16
4593432,19
4594064,14
4594688,10
4595312,21
4595940,31
4596568,32
4597196,32
4597828,26
4598448,22
4599076,31
4599700,29
4600328,19
4600956,15
4601576,11
4602208,12
4602832,17
4603456,21
4604088,20
4604704,18
4605336,17
4605968,16
4606584,11
4607216,11
4607840,10
4608472,13
4609100,14
4609720,13
4610348,11
4610972,11
4611596,12
4612224,23
4612840,26
4613472,21
4614096,17
4614720,20
4615348,26
4615968,26
4616596,19
4617228,12
4617848,12
4618476,10
4619100,10
4619732,11
4620360,16
4620984,17
4621612,18
4622236,18
4622860,19
4623492,14
4624112,13
4624740,11
4625364,11
4625988,12
4626620,18
4627240,17
4627868,11
4628500,16
4629120,23
4629748,27
4630372,29
4631004,33
4631636,36
4632256,26
4632884,15
4633512,17
4634136,16
4634764,11
4635384,11
4636012,10
4636636,12
4637264,16
4637892,16
4638512,16
4639144,17
4639772,22
4640392,22
4641020,14
4641644,10
4642272,14
4642904,16
4643520,19
4644148,15
4644772,11
4645396,25
4646028,32
4646648,38
4647276,30
4647900,29
4648524,33
4649156,28
4649776,22
4650404,16
4651036,13
4651656,10
4652284,13
4652912,13
4653540,18
4654172,16
4654792,18
4655420,24
4656048,19
4656668,19
4657300,20
4657920,14
4658548,10
4659176,11
4659800,16
4660428,15
4661048,14
4661676,13
4662308,22
4662928,31
4663556,30
4664184,37
4664812,27
4665444,12
4666064,14
4666692,19
4667320,16
4667944,15
4668572,10
4669192,12
4669824,13
4670448,18
4671072,22
4671700,30
4672324,27
4672956,14
4673584,12
4674204,12
4674832,11
4675456,11
4676084,13
4676716,12
4677336,13
4677964,12
4678592,19
4679216,17
4679844,18
4680464,22
4681092,32
4681716,44
4682340,42
4682972,23
4683596,13
4684228,11
4684856,10
4685480,12
4686108,10
4686732,15
4687364,16
4687992,18
4688612,20
4689244,19
4689868,15
4690492,13
4691120,12
4691744,12
4692376,13
4693004,14
4693624,17
4694256,14
4694880,12
4695508,22
4696140,34
4696760,37
4697392,30
4698016,25
4698640,23
4699268,25
4699888,25
4700520,17
4701144,12
4701768,11
4702400,10
4703016,10
4703648,18
4704280,17
4704896,17
4705528,17
4706152,18
4706784,11
4707412,12
4708032,18
4708664,19
4709288,19
4709912,13
4710544,11
4711160,14
4711792,21
4712416,22
4713040,24
4713668,23
4714288,21
4714916,25
4715548,28
4716168,27
4716796,15
4717424,10
4718056,11
4718684,17
4719304,14
4719936,11
4720560,15
4721184,20
4721812,20
4722432,20
4723060,12
4723688,15
4724312,12
4724940,14
4725560,17
4726192,17
4726820,17
4727440,15
4728072,11
4728696,27
4729328,31
4729956,32
4730576,35
4731208,30
4731832,31
4732456,30
4733088,27
4733704,22
4734336,16
4734960,10
4735588,12
4736220,11
4736844,16
4737472,20
4738100,23
4738720,24
4739348,21
4739976,16
4740604,15
4741236,13
4741856,14
4742484,11
4743108,11
4743736,19
4744364,24
4744984,14
4745612,24
4746236,33
4746864,45
4747496,47
4748120,40
4748752,34
4749384,26
4750000,18
4750632,13
4751260,12
4751884,11
4752516,18
4753136,21
4753764,24
4754392,24
4755016,21
4755648,17
4756264,15
4756896,13
4757524,11
4758144,11
4758776,16
4759400,14
4760032,16
4760660,14
4761280,12
4761912,20
4762536,29
4763160,28
4763788,23
4764408,25
4765036,28
4765664,30
4766288,27
4766916,21
4767536,20
4768168,19
4768796,10
4769416,15
4770048,18
4770672,19
4771300,17
4771932,16
4772552,17
4773184,13
4773808,12
4774432,12
4775060,12
4775680,15
4776308,19
4776936,18
4777560,14
4778192,12
4778808,25
4779440,33
4780072,29
4780692,26
4781320,31
4781948,36
4782580,31
4783208,31
4783832,23
4784464,11
4785088,12
4785712,19
4786344,16
4786964,21
4787596,22
4788220,19
4788848,18
4789480,17
4790104,11
4790736,11
4791368,10
4791984,10
4792620,11
4793244,12
4793868,16
4794500,24
4795120,33
4795752,19
4796376,21
4797000,36
4797632,44
4798252,54
4798884,47
4799512,36
4800140,23
4800768,17
4801392,11
4802020,16
4802652,22
4803272,20
4803900,23
4804524,19
4805148,17
4805776,16
4806400,12
4807028,11
4807652,13
4808280,11
4808908,11
4809528,12
4810160,17
4810788,12
4811408,12
4812040,23
4812664,33
4813296,35
4813924,30
4814544,21
4815172,13
4815800,21
4816424,25
4817052,20
4817672,11
4818300,16
4818924,23
4819552,15
4820180,16
4820804,16
4821432,17
4822064,17
4822684,17
4823312,13
4823936,10
4824568,11
4825196,10
4825816,18
4826444,24
4827068,27
4827692,22
4828324,14
4828944,21
4829572,27
4830200,28
4830824,30
4831456,33
4832080,42
4832708,41
4833340,34
4833960,19
4834588,12
4835212,10
4835844,10
4836472,12
4837092,18
4837724,17
4838348,18
4838972,21
4839604,22
4840224,21
4840852,15
4841484,14
4842104,21
4842732,21
4843360,21
4843988,16
4844620,10
4845240,21
4845868,26
4846496,27
4847120,30
4847748,33
4848368,33
4849000,31
4849620,29
4850244,21
4850876,10
4851496,10
4852128,13
4852760,12
4853376,13
4854008,18
4854632,24
4855264,26
4855892,19
4856512,11
4857144,10
4857768,11
4858392,11
4859024,11
4859644,12
4860272,19
4860896,16
4861520,14
4862152,17
4862772,21
4863400,25
4864032,21
4864656,32
4865284,45
4865908,37
4866536,28
4867168,19
4867788,12
4868416,10
4869040,13
4869664,11
4870296,16
4870916,17
4871544,18
4872172,17
4872796,18
4873428,10
4874052,11
4874684,12
4875312,15
4875932,20
4876564,30
4877188,30
4877820,16
4878448,17
4879068,21
4879696,28
4880324,34
4880944,33
4881576,36
4882196,40
4882824,34
4883448,27
4884072,16
4884700,10
4885328,14
4885956,13
4886588,10
4887208,17
4887836,21
4888464,23
4889092,19
4889724,14
4890344,16
4890972,17
4891600,16
4892224,17
4892852,12
4893472,16
4894104,16
4894732,14
4895352,17
4895984,19
4896608,23
4897236,30
4897868,34
4898488,37
4899120,33
4899744,33
4900368,28
4901000,15
4901616,9
4902196,15
4902824,14
4903448,17
4904080,17
4904700,16
4905332,17
4905956,17
4906580,11
4907212,12
4907832,17
4908464,24
4909096,21
4909716,17
4910348,12
4910972,11
4911604,11
4912236,18
4912856,18
4913488,24
4914112,31
4914740,39
4915372,30
4915992,28
4916620,29
4917244,29
4917872,24
4918500,15
4919124,11
4919752,16
4920384,16
4921000,15
4921628,21
4922252,23
4922880,23
4923508,18
4924128,21
4924756,21
4925384,16
4926008,11
4926636,12
4927256,12
4927884,11
4928516,18
4929136,23
4929764,26
4930388,29
4931016,31
4931648,37
4932268,44
4932896,37
4933520,29
4934148,18
4934780,10
4935400,24
4936028,37
4936652,19
4937276,16
4937908,16
4938528,19
4939156,18
4939788,16
4940408,20
4941036,19
4941660,16
4942292,16
4942920,11
4943544,11
4944172,14
4944796,20
4945424,26
4946052,26
4946672,27
4947300,28
4947924,22
4948548,19
4949180,18
4949800,18
4950428,13
4951060,11
4951680,12
4952308,10
4952936,10
4953564,18
4954196,16
4954816,17
4955448,17
4956072,17
4956696,13
4957328,14
4957944,15
4958576,15
4959200,16
4959824,20
4960456,18
4961072,13
4961700,13
4962332,22
4962952,30
4963584,34
4964208,37
4964836,43
4965468,40
4966088,30
4966716,17
4967340,12
4967964,11
4968596,10
4969216,19
4969844,16
4970468,18
4971092,22
4971724,19
4972344,18
4972972,15
4973604,22
4974224,21
4974856,11
4975480,11
4976108,11
4976740,13
4977360,18
4977988,18
4978612,18
4979236,17
4979868,20
4980488,25
4981116,29
4981744,46
4982368,48
4982996,39
4983624,30
4984256,19
4984884,10
4985504,14
4986136,13
4986760,16
4987392,19
4988020,19
4988640,19
4989272,19
4989896,21
4990520,28
4991152,29
4991772,19
4992404,11
4993032,11
4993652,11
4994280,14
4994904,17
4995532,21
4996164,25
4996784,21
4997416,18
4998040,21
4998664,26
4999292,28
4999912,35
5000544,31
5001168,23
5001792,11
5002420,17
5003040,21
5003668,22
5004300,18
5004920,17
5005548,19
5006172,24
5006804,17
5007436,12
5008056,12
5008684,10
5009308,10
5009932,11
5010564,11
5011184,12
5011816,16
5012440,23
5013064,31
5013696,34
5014312,31
5014944,26
5015576,21
5016196,20
5016828,16
5017452,15
5018084,12
5018712,10
5019336,12
5019964,11
5020592,16
5021216,19
5021848,19
5022464,19
5023096,14
5023720,11
5024344,11
5024972,10
5025592,12
5026224,12
5026852,16
5027472,17
5028104,15
5028728,18
5029360,25
5029988,26
5030608,28
5031236,35
5031864,35
5032488,27
5033120,20
5033736,19
5034368,11
5034992,11
5035616,20
5036248,24
5036872,21
5037504,22
5038136,19
5038752,16
5039384,17
5040008,14
5040636,11
5041268,10
5041888,11
5042520,11
5043144,12
5043768,11
5044400,11
5045016,17
5045648,26
5046280,24
5046896,28
5047528,33
5048152,35
5048784,37
5049412,39
5050032,33
5050664,17
5051288,12
5051912,35
5052544,34
5053164,19
5053796,21
5054420,23
5055044,17
5055676,16
5056300,14
5056928,12
5057560,10
5058176,10
5058808,11
5059432,14
5060064,21
5060692,21
5061312,13
5061944,19
5062568,27
5063192,31
5063824,30
5064444,30
5065072,28
5065700,29
5066324,21
5066952,17
5067576,12
5068208,10
5068840,18
5069460,13
5070088,15
5070712,21
5071344,25
5071976,18
5072596,17
5073228,10
5073852,10
5074480,10
5075108,11
5075728,17
5076360,24
5076988,26
5077612,23
5078244,13
5078868,26
5079500,42
5080132,43
5080752,36
5081384,34
5082008,35
5082632,32
5083264,24
5083880,13
5084512,10
5085136,11
5085760,10
5086392,11
5087008,16
5087640,16
5088272,16
5088896,19
5089528,19
5090152,13
5090780,11
5091412,10
5092032,11
5092664,13
5093288,15
5093912,12
5094544,12
5095164,21
5095792,24
5096420,25
5097044,22
5097676,24
5098296,19
5098928,22
5099560,22
5100176,16
5100808,12
5101432,14
5102064,10
5102696,10
5103316,11
5103948,15
5104572,18
5105200,24
5105832,26
5106452,19
5107084,14
5107708,11
5108336,10
5108968,10
5109596,11
5110228,13
5110860,10
5111480,15
5112112,23
5112740,24
5113368,29
5114000,21
5114620,22
5115252,25
5115876,26
5116504,24
5117136,11
5117756,12
5118388,11
5119024,13
5119644,19
5120276,19
5120900,19
5121528,19
5122156,20
5122776,25
5123404,24
5124024,18
5124648,11
5125276,10
5125896,11
5126524,13
5127148,14
5127772,11
5128400,18
5129016,24
5129644,26
5130272,24
5130896,29
5131524,28
5132148,31
5132776,34
5133408,31
5134024,27
5134652,21
5135276,13
5135900,12
5136532,20
5137152,25
5137780,21
5138404,18
5139028,16
5139660,15
5140280,16
5140908,15
5141540,14
5142160,17
5142788,13
5143412,15
5144044,13
5144672,11
5145292,19
5145920,30
5146544,35
5147168,34
5147796,26
5148416,32
5149044,32
5149668,27
5150292,16
5150924,11
5151544,14
5152172,11
5152804,10
5153424,19
5154052,25
5154676,24
5155308,21
5155936,20
5156556,15
5157184,15
5157812,14
5158436,13
5159064,15
5159684,15
5160312,14
5160936,13
5161560,12
5162188,18
5162808,24
5163436,29
5164068,34
5164688,36
5165316,31
5165940,27
5166572,16
5167204,10
5167824,15
5168456,17
5169080,10
5169704,11
5170332,18
5170952,17
5171584,19
5172204,17
5172828,17
5173460,12
5174084,11
5174712,11
5175340,16
5175960,25
5176592,34
5177216,20
5177844,13
5178476,28
5179096,36
5179728,31
5180352,29
5180976,28
5181604,26
5182224,31
5182852,31
5183480,24
5184104,17
5184732,12
5185356,10
5185984,10
5186616,10
5187232,15
5187864,20
5188488,29
5189116,33
5189748,30
5190368,27
5191000,21
5191624,17
5192248,19
5192876,22
5193496,22
5194128,17
5194756,12
5195376,26
5196008,35
5196632,35
5197264,33
5197892,23
5198512,29
5199144,29
5199768,24
5200392,19
5201020,15
5201640,15
5202268,10
5202892,13
5203516,20
5204144,18
5204768,18
5205396,19
5206028,16
5206648,11
5207276,10
5207900,15
5208532,17
5209164,20
5209784,22
5210412,19
5211036,13
5211660,13
5212292,30
5212912,34
5213540,36
5214168,33
5214792,29
5215420,35
5216040,37
5216668,31
5217300,22
5217920,19
5218548,11
5219176,27
5219804,24
5220436,26
5221056,34
5221688,31
5222312,23
5222936,19
5223568,10
5224184,10
5224816,11
5225440,11
5226064,10
5226692,11
5227312,12
5227944,11
5228572,16
5229192,20
5229824,26
5230448,27
5231076,24
5231708,26
5232328,29
5232956,25
5233584,15
5234208,11
5234840,10
5235456,10
5236088,11
5236712,15
5237336,17
5237968,16
5238584,19
5239216,17
5239844,12
5240464,15
5241092,13
5241720,12
5242348,12
5242980,16
5243600,16
5244228,13
5244852,11
5245472,20
5246104,23
5246720,23
5247348,27
5247972,34
5248596,38
5249228,35
5249848,24
5250476,17
5251104,11
5251720,12
5252352,19
5252976,17
5253604,17
5254232,15
5254848,16
5255480,17
5256104,18
5256724,19
5257352,16
5257976,12
5258604,11
5259228,13
5259852,17
5260480,14
5261096,11
5261728,17
5262356,22
5262976,21
5263604,21
5264228,21
5264856,18
5265488,19
5266104,27
5266732,28
5267356,20
5267980,12
5268608,10
5269232,11
5269860,12
5270484,15
5271108,17
5271736,20
5272360,24
5272988,23
5273620,14
5274240,11
5274868,11
5275492,11
5276120,12
5276748,14
5277368,13
5277996,11
5278620,20
5279244,25
5279876,26
5280496,26
5281124,28
5281748,33
5282372,34
5283000,35
5283616,28
5284248,16
5284876,10
5285496,11
5286124,11
5286748,14
5287376,20
5288004,20
5288620,19
5289252,19
5289876,20
5290500,21
5291132,14
5291752,13
5292380,15
5293004,14
5293628,13
5294260,11
5294880,12
5295508,20
5296140,22
5296760,21
5297388,23
5298012,31
5298640,36
5299272,31
5299888,26
5300516,14
5301140,10
5301764,10
5302396,12
5303016,15
5303648,17
5304272,17
5304896,17
5305524,18
5306144,30
5306772,29
5307404,14
5308024,11
5308652,11
5309276,11
5309908,13
5310540,10
5311160,15
5311792,19
5312416,17
5313040,17
5313668,16
5314288,23
5314916,27
5315540,27
5316164,32
5316796,33
5317416,20
5318044,12
5318676,11
5319296,18
5319928,12
5320552,15
5321180,17
5321812,18
5322432,25
5323060,19
5323688,13
5324312,11
5324940,10
5325556,11
5326188,10
5326808,13
5327432,17
5328060,14
5328676,18
5329308,24
5329936,31
5330552,33
5331180,34
5331804,37
5332436,31
5333064,25
5333684,19
5334312,15
5334936,13
5335560,10
5336188,16
5336808,22
5337436,17
5338060,18
5338684,21
5339316,26
5339936,21
5340564,21
5341196,14
5341816,15
5342444,16
5343068,15
5343700,15
5344332,10
5344952,15
5345580,27
5346204,28
5346828,28
5347460,31
5348080,32
5348708,35
5349332,33
5349956,29
5350588,24
5351208,19
5351836,11
5352468,12
5353088,15
5353716,19
5354340,21
5354972,21
5355600,20
5356224,19
5356852,13
5357476,13
5358100,19
5358732,21
5359352,22
5359984,19
5360608,14
5361232,12
5361860,18
5362480,24
5363108,27
5363740,32
5364360,37
5364988,33
5365612,31
5366244,29
5366872,25
5367496,15
5368124,11
5368748,12
5369372,13
5370004,10
5370624,15
5371252,17
5371876,17
5372500,17
5373132,13
5373752,13
5374384,12
5375012,10
5375632,12
5376264,13
5376888,15
5377516,11
5378144,11
5378768,22
5379396,29
5380020,33
5380644,30
5381272,29
5381888,32
5382516,29
5383140,27
5383764,21
5384392,13
5385016,11
5385644,13
5386276,20
5386896,24
5387524,23
5388148,23
5388776,21
5389408,19
5390024,11
5390656,10
5391280,11
5391904,14
5392536,15
5393152,16
5393780,11
5394404,13
5395032,18
5395660,23
5396280,18
5396908,17
5397540,23
5398160,39
5398788,40
5399416,35
5400044,24
5400676,12
5401296,11
5401924,10
5402548,11
5403172,11
5403804,15
5404424,17
5405052,16
5405680,17
5406304,17
5406932,14
5407556,17
5408188,19
5408816,16
5409432,21
5410060,21
5410684,17
5411316,12
5411944,20
5412564,34
5413192,40
5413816,39
5414440,35
5415068,28
5415688,25
5416316,14
5416940,10
5417568,13
5418196,14
5418820,15
5419452,12
5420084,14
5420704,17
5421336,19
5421960,19
5422588,17
5423220,14
5423840,17
5424472,15
5425096,11
5425720,12
5426348,11
5426968,11
5427600,11
5428220,12
5428848,27
5429476,31
5430100,26
5430728,18
5431360,18
5431976,31
5432608,40
5433232,38
5433864,27
5434492,18
5435112,11
5435744,18
5436368,19
5436992,21
5437620,22
5438240,29
5438868,30
5439500,25
5440120,17
5440748,12
5441372,11
5442000,10
5442628,10
5443248,12
5443876,13
5444500,11
5445124,15
5445756,26
5446376,31
5447008,31
5447632,32
5448256,27
5448884,26
5449504,28
5450132,19
5450764,10
5451384,11
5452012,13
5452636,12
5453268,11
5453896,14
5454520,18
5455148,17
5455772,17
5456396,16
5457028,22
5457648,24
5458276,19
5458900,17
5459524,12
5460152,17
5460776,13
5461404,17
5462036,30
5462656,30
5463284,27
5463908,29
5464540,34
5465172,38
5465792,37
5466420,28
5467044,18
5467668,15
5468300,10
5468920,15
5469548,22
5470172,21
5470796,20
5471428,22
5472048,22
5472676,19
5473308,14
5473928,28
5474556,20
5475180,13
5475812,12
5476444,15
5477064,18
5477696,14
5478320,13
5478944,26
5479572,34
5480192,35
5480820,33
5481444,30
5482068,29
5482700,26
5483320,22
5483948,15
5484580,12
5485200,11
5485828,17
5486452,23
5487084,21
5487716,16
5488336,16
5488964,16
5489588,16
5490212,11
5490844,12
5491464,18
5492092,17
5492716,16
5493340,17
5493972,14
5494596,11
5495228,19
5495856,24
5496476,30
5497104,34
5497732,31
5498360,29
5498992,24
5499608,21
5500236,15
5500864,11
5501488,11
5502116,11
5502736,17
5503368,14
5503992,17
5504616,17
5505248,21
5505872,22
5506500,16
5507132,12
5507752,11
5508384,11
5509008,11
5509636,15
5510268,19
5510888,12
5511516,13
5512144,25
5512768,29
5513396,29
5514016,31
5514648,28
5515276,30
5515896,31
5516528,33
5517152,25
5517784,13
5518412,14
5519032,21
5519664,21
5520288,22
5520912,26
5521540,28
5522160,36
5522788,33
5523416,23
5524040,15
5524668,14
5525288,11
5525916,11
5526548,11
5527168,15
5527800,20
5528424,33
5529056,40
5529684,36
5530304,35
5530932,33
5531556,38
5532180,42
5532808,39
5533432,31
5534060,20
5534688,10
5535312,12
5535940,14
5536560,15
5537188,21
5537820,22
5538440,25
5539068,22
5539696,22
5540324,21
5540956,17
5541576,15
5542208,16
5542832,17
5543456,18
5544088,12
5544704,12
5545336,19
5545960,21
5546584,25
5547212,28
5547832,33
5548464,37
5549092,39
5549712,33
5550344,25
5550968,19
5551600,13
5552228,10
5552848,11
5553476,15
5554104,31
5554728,31
5555360,18
5555976,17
5556608,10
5557232,13
5557856,11
5558488,11
5559112,11
5559744,13
5560372,14
5560992,12
5561620,12
5562244,21
5562876,27
5563508,26
5564128,32
5564760,32
5565384,29
5566008,22
5566640,18
5567260,13
5567892,10
5568524,10
5569144,12
5569776,16
5570400,21
5571028,17
5571660,18
5572280,17
5572908,18
5573532,12
5574156,13
5574788,11
5575408,12
5576036,12
5576660,16
5577288,15
5577916,11
5578536,19
5579168,25
5579796,28
5580416,26
5581048,25
5581668,31
5582300,31
5582932,22
5583552,14
5584184,10
5584808,12
5585428,12
5586060,10
5586680,12
5587308,16
5587936,18
5588560,17
5589188,17
5589808,12
5590440,11
5591068,11
5591688,11
5592316,11
5592944,13
5593572,16
5594204,11
5594824,16
5595456,23
5596080,27
5596704,26
5597336,24
5597952,21
5598584,18
5599212,18
5599836,20
5600468,14
5601092,10
5601724,10
5602352,13
5602972,10
5603600,21
5604224,17
5604852,17
5605484,19
5606104,21
5606736,21
5607356,16
5607984,12
5608612,12
5609232,21
5609860,24
5610484,19
5611108,20
5611740,13
5612364,17
5612996,19
5613624,19
5614244,21
5614872,30
5615496,27
5616128,32
5616756,28
5617376,23
5618004,17
5618628,10
5619252,15
5619884,14
5620504,15
5621132,16
5621760,16
5622384,18
5623016,19
5623640,18
5624272,22
5624900,19
5625520,22
5626152,24
5626776,23
5627400,15
5628032,15
5628648,21
5629280,39
5629904,49
5630528,51
5631160,49
5631780,54
5632412,47
5633040,44
5633656,38
5634288,24
5634908,15
5635540,10
5636168,13
5636788,20
5637416,27
5638040,17
5638664,20
5639292,24
5639912,17
5640540,16
5641164,21
5641788,14
5642420,10
5643040,17
5643668,19
5644300,16
5644920,18
5645548,15
5646172,16
5646804,17
5647432,17
5648048,15
5648680,30
5649304,23
5649924,14
5650556,10
5651176,18
5651808,27
5652432,19
5653056,11
5653684,17
5654304,18
5654932,17
5655564,16
5656184,19
5656812,19
5657436,26
5658068,21
5658700,14
5659320,11
5659948,12
5660572,11
5661196,13
5661828,18
5662448,23
5663076,22
5663700,24
5664328,24
5664956,18
5665576,19
5666204,16
5666836,10
5667456,11
5668084,10
5668708,11
5669340,13
5669972,11
5670592,17
5671220,20
5671844,17
5672472,17
5673100,12
5673720,11
5674348,11
5674972,11
5675600,10
5676228,10
5676848,13
5677476,11
5678108,14
5678728,27
5679356,29
5679984,32
5680616,34
5681244,32
5681864,35
5682496,31
5683120,21
5683744,11
5684372,11
5684992,11
5685620,15
5686244,13
5686868,16
5687500,18
5688120,23
5688748,27
5689380,27
5690000,23
5690628,21
5691256,18
5691884,15
5692516,15
5693136,20
5693768,17
5694392,18
5695016,13
5695648,34
5696264,37
5696896,35
5697520,35
5698144,35
5698772,40
5699396,40
5700028,34
5700656,23
5701280,16
5701908,11
5702536,15
5703164,17
5703796,20
5704416,24
5705044,26
5705668,24
5706296,25
5706924,14
5707544,15
5708176,16
5708804,12
5709424,11
5710052,21
5710680,23
5711312,14
5711944,18
5712564,21
5713192,26
5713820,27
5714444,31
5715076,36
5715696,31
5716328,27
5716952,21
5717576,17
5718208,10
5718828,11
5719456,14
5720088,12
5720708,18
5721340,19
5721964,21
5722596,19
5723224,13
5723848,11
5724480,10
5725104,10
5725728,11
5726360,11
5726980,12
5727612,11
5728236,12
5728860,17
5729492,17
5730116,18
5730748,19
5731380,13
5732000,35
5732632,43
5733256,37
5733888,23
5734520,14
5735144,11
5735772,13
5736396,18
5737020,24
5737648,26
5738272,27
5738900,24
5739532,22
5740152,22
5740780,29
5741408,22
5742036,11
5742668,10
5743288,15
5743916,19
5744544,15
5745168,18
5745796,20
5746416,31
5747044,36
5747672,39
5748296,40
5748924,27
5749544,21
5750176,17
5750804,12
5751424,10
5752056,10
5752680,11
5753308,10
5753940,14
5754560,17
5755192,20
5755816,20
5756440,20
5757072,25
5757688,23
5758320,18
5758944,15
5759568,12
5760200,13
5760816,11
5761444,12
5762072,25
5762692,35
5763320,44
5763944,41
5764572,39
5765204,43
5765824,39
5766452,28
5767076,25
5767696,21
5768328,13
5768944,12
5769572,10
5770196,16
5770824,19
5771452,19
5772072,22
5772700,27
5773332,24
5773952,21
5774580,21
5775208,18
5775836,16
5776468,18
5777088,28
5777716,40
5778340,29
5778964,18
5779596,28
5780216,34
5780844,45
5781468,49
5782092,47
5782724,36
5783344,30
5783976,17
5784604,10
5785224,11
5785856,14
5786476,15
5787108,18
5787736,20
5788356,19
5788984,18
5789608,19
5790232,13
5790860,10
5791480,11
5792108,10
5792732,11
5793356,16
5793988,12
5794608,11
5795236,17
5795868,18
5796488,21
5797116,28
5797740,32
5798372,35
5799004,38
5799624,35
5800256,26
5800876,16
5801504,12
5802132,10
5802752,12
5803384,11
5804008,18
5804632,23
5805260,31
5805880,29
5806512,21
5807140,20
5807760,15
5808392,14
5809016,15
5809644,11
5810276,10
5810896,11
5811528,13
5812152,27
5812776,35
5813404,33
5814024,31
5814656,21
5815280,19
5815904,12
5816536,10
5817160,11
5817788,13
5818420,20
5819040,18
5819668,13
5820296,17
5820924,17
5821556,18
5822176,24
5822808,20
5823432,22
5824056,22
5824684,14
5825304,13
5825932,11
5826556,12
5827184,12
5827816,11
5828440,15
5829068,25
5829700,26
5830320,29
5830952,30
5831576,25
5832200,18
5832828,17
5833448,16
5834080,14
5834704,12
5835328,11
5835960,11
5836576,11
5837208,16
5837840,16
5838456,17
5839088,19
5839712,22
5840344,20
5840972,14
5841592,23
5842224,19
5842848,11
5843472,14
5844100,11
5844720,21
5845348,33
5845976,39
5846600,32
5847228,26
5847848,24
5848476,25
5849108,18
5849728,11
5850356,11
5850984,12
5851612,13
5852244,17
5852864,19
5853492,18
5854120,17
5854744,17
5855372,16
5855992,17
5856624,14
5857248,14
5857872,12
5858500,12
5859120,16
5859752,17
5860380,19
5861000,20
5861632,15
5862256,15
5862888,19
5863516,20
5864136,23
5864764,28
5865392,31
5866016,28
5866644,16
5867264,14
5867896,14
5868520,13
5869144,13
5869772,12
5870392,16
5871024,17
5871656,20
5872276,23
5872904,22
5873528,18
5874160,13
5874792,10
5875412,11
5876044,10
5876668,12
5877292,11
5877924,10
5878544,16
5879176,25
5879800,27
5880424,23
5881056,21
5881680,28
5882308,29
5882940,26
5883560,21
5884192,23
5884816,17
5885448,10
5886076,12
5886696,12
5887328,15
5887956,16
5888584,19
5889212,18
5889832,16
5890460,15
5891092,13
5891712,11
5892344,11
5892968,11
5893596,11
5894228,13
5894848,23
5895476,25
5896104,24
5896728,23
5897356,17
5897976,17
5898608,19
5899232,20
5899856,21
5900484,10
5901104,10
5901732,17
5902364,20
5902984,18
5903616,17
5904240,17
5904868,20
5905496,18
5906120,16
5906748,17
5907376,32
5908000,43
5908628,26
5909248,11
5909876,11
5910504,13
5911128,21
5911756,27
5912376,31
5913008,30
5913636,22
5914256,24
5914884,24
5915508,20
5916140,16
5916772,14
5917392,15
5918024,15
5918648,12
5919272,11
5919904,12
5920524,15
5921152,22
5921776,25
5922400,32
5923028,27
5923652,18
5924284,15
5924916,15
5925536,15
5926168,15
5926792,18
5927420,17
5928052,12
5928672,17
5929304,22
5929928,20
5930548,24
5931180,24
5931800,24
5932432,21
5933060,22
5933680,25
5934312,24
5934936,17
5935568,11
5936196,10
5936816,15
5937444,17
5938072,17
5938696,17
5939328,18
5939944,15
5940572,15
5941196,15
5941820,16
5942452,18
5943072,19
5943700,21
5944332,18
5944952,12
5945580,22
5946208,23
5946836,27
5947468,20
5948088,21
5948716,20
5949344,23
5949968,47
5950596,52
5951216,49
5951848,40
5952472,24
5953096,20
5953724,19
5954344,16
5954976,17
5955604,16
5956224,19
5956852,19
5957480,22
5958108,25
5958740,18
5959360,13
5959992,15
5960616,13
5961240,15
5961868,16
5962488,19
5963116,25
5963744,29
5964368,30
5965000,28
5965616,25
5966244,20
5966876,14
5967496,13
5968128,11
5968752,11
5969380,10
5970012,10
5970632,19
5971264,25
5971888,19
5972512,22
5973140,14
5973760,12
5974392,19
5975016,23
5975640,20
5976272,18
5976892,16
5977524,12
5978156,11
5978776,18
5979408,23
5980032,22
5980664,25
5981292,27
5981912,45
5982544,44
5983168,26
5983792,12
5984424,10
5985040,10
5985672,15
5986296,14
5986920,16
5987552,16
5988176,17
5988804,17
5989436,16
5990056,11
5990688,10
5991312,10
5991944,11
5992572,10
5993192,18
5993824,26
5994448,23
5995072,13
5995704,25
5996320,33
5996952,39
5997584,36
5998200,36
5998832,38
5999456,28
6000088,13
6000716,10
6001336,10
6001964,13
6002588,19
6003216,18
6003844,18
6004464,17
6005096,17
6005720,17
6006344,15
6006976,12
6007592,13
6008224,13
6008856,20
6009476,21
6010108,22
6010732,18
6011364,11
6011992,24
6012616,33
6013248,33
6013872,26
6014496,20
6015128,13
6015748,13
6016380,14
6017004,13
6017628,14
6018256,12
6018876,10
6019504,10
6020136,13
6020756,16
6021388,16
6022012,17
6022640,19
6023272,18
6023888,23
6024520,31
6025144,20
6025768,11
6026396,10
6027016,11
6027648,12
6028272,18
6028896,27
6029524,28
6030152,27
6030780,23
6031412,23
6032032,25
6032660,28
6033288,23
6033916,13
6034548,10
6035168,14
6035800,15
6036424,12
6037048,16
6037680,19
6038296,21
6038928,16
6039560,16
6040184,10
6040816,14
6041440,18
6042072,15
6042700,14
6043320,14
6043948,14
6044576,14
6045200,20
6045828,16
6046448,27
6047080,30
6047704,29
6048328,27
6048956,30
6049576,25
6050208,17
6050836,10
6051456,11
6052088,12
6052712,13
6053344,12
6053976,14
6054592,16
6055224,18
6055848,19
6056472,15
6057104,11
6057724,11
6058352,10
6058980,16
6059604,17
6060236,16
6060856,11
6061488,12
6062120,25
6062736,31
6063368,33
6063992,32
6064624,32
6065256,30
6065872,33
6066504,28
6067128,15
6067752,10
6068384,11
6069004,11
6069636,11
6070260,19
6070884,29
6071516,36
6072140,29
6072772,19
6073404,10
6074024,10
6074656,13
6075280,20
6075912,26
6076544,18
6077164,12
6077792,12
6078420,13
6079044,18
6079676,17
6080300,20
6080928,24
6081556,36
6082176,47
6082808,47
6083428,38
6084060,27
6084688,18
6085312,11
6085940,11
6086568,13
6087192,17
6087824,22
6088440,26
6089068,27
6089692,20
6090320,12
6090948,10
6091568,11
6092200,11
6092828,10
6093448,12
6094076,14
6094704,12
6095332,18
6095964,25
6096584,31
6097216,25
6097840,23
6098464,25
6099096,27
6099712,23
6100344,21
6100968,18
6101592,15
6102224,10
6102844,11
6103476,13
6104108,16
6104728,17
6105360,17
6105984,17
6106616,15
6107244,15
6107864,11
6108496,11
6109120,12
6109744,11
6110376,13
6110996,13
6111628,12
6112252,19
6112880,22
6113512,24
6114136,27
6114768,28
6115400,26
6116016,22
6116648,11
6117272,10
6117896,10
6118528,10
6119152,15
6119784,15
6120408,17
6121032,17
6121664,17
6122280,16
6122912,16
6123544,11
6124164,10
6124792,11
6125416,11
6126048,14
6126680,18
6127304,29
6127936,19
6128564,18
6129188,26
6129820,24
6130440,27
6131072,31
6131700,35
6132324,35
6132956,29
6133584,27
6134216,19
6134848,13
6135468,10
6136100,14
6136724,15
6137352,19
6137984,23
6138604,25
6139236,32
6139864,25
6140488,11
6141120,13
6141740,13
6142372,12
6143004,10
6143628,21
6144260,27
6144884,21
6145512,19
6146140,32
6146760,41
6147388,45
6148012,35
6148636,33
6149264,29
6149888,26
6150516,19
6151140,16
6151764,14
6152396,10
6153016,11
6153644,16
6154276,16
6154896,20
6155524,23
6156148,24
6156780,19
6157412,12
6158032,11
6158664,12
6159288,13
6159912,13
6160544,11
6161160,12
6161788,16
6162412,23
6163036,23
6163668,21
6164292,19
6164924,19
6165552,28
6166172,27
6166800,22
6167424,12
6168056,10
6168684,10
6169304,10
6169936,15
6170556,18
6171184,17
6171812,17
6172432,19
6173060,18
6173688,13
6174312,13
6174944,17
6175568,24
6176196,18
6176828,14
6177448,11
6178076,13
6178700,22
6179332,20
6179964,22
6180584,25
6181212,30
6181840,35
6182464,34
6183092,26
6183712,19
6184344,9
6184916,13
6185544,17
6186176,10
6186792,13
6187424,16
6188052,17
6188672,17
6189304,19
6189928,19
6190560,21
6191188,20
6191808,18
6192440,17
6193064,11
6193688,11
6194320,11
6194936,13
6195568,21
6196192,24
6196816,25
6197448,23
6198064,24
6198696,29
6199328,27
6199944,19
6200576,21
6201200,21
6201828,15
6202460,11
6203080,13
6203712,17
6204336,19
6204960,19
6205592,17
6206208,15
6206840,11
6207464,11
6208088,14
6208716,14
6209336,20
6209964,21
6210596,13
6211216,11
6211844,17
6212472,31
6213100,41
6213732,31
6214352,28
6214984,32
6215608,37
6216232,27
6216864,15
6217480,10
6218112,10
6218736,11
6219360,14
6219992,15
6220616,22
6221248,23
6221880,20
6222496,21
6223128,19
6223752,14
6224384,10
6225016,11
6225636,11
6226268,18
6226892,23
6227512,20
6228144,13
6228764,21
6229392,28
6230024,31
6230644,38
6231276,37
6231900,36
6232532,34
6233160,26
6233784,15
6234412,10
6235040,11
6235664,15
6236296,14
6236912,16
6237544,17
6238168,19
6238792,20
6239424,19
6240044,16
6240672,15
6241300,12
6241920,12
6242548,13
6243176,15
6243804,12
6244436,11
6245056,13
6245688,23
6246312,27
6246936,26
6247568,24
6248184,27
6248816,30
6249440,27
6250064,18
6250692,11
6251312,11
6251944,12
6252572,20
6253192,14
6253824,16
6254448,17
6255076,16
6255708,16
6256328,15
6256956,10
6257584,11
6258208,13
6258836,12
6259456,13
6260088,14
6260712,15
6261336,20
6261968,29
6262584,37
