tempo_arduino_micro_s,valor_ADC
500,15
1004,15
1504,16
2000,20
2508,27
3000,30
3508,24
4000,24
4504,29
5000,36
5500,36
6000,28
6500,20
7000,16
7500,20
8000,32
8500,32
9000,26
9500,22
10000,32
10508,47
11028,39
11556,34
12076,22
12604,30
13124,39
13652,24
14172,10
14700,13
15220,15
15748,15
16268,16
16796,17
17316,17
17836,14
18356,10
18876,10
19396,10
19916,11
20436,12
20956,19
21476,23
21996,29
22516,28
23036,26
23564,21
24084,16
24612,17
25132,18
25660,22
26180,26
26708,39
27228,54
27756,53
28276,42
28804,26
29324,16
29852,12
30372,10
30900,12
31420,14
31948,23
32468,26
32996,20
33516,17
34044,15
34564,13
35092,14
35612,18
36140,16
36660,11
37188,11
37708,18
38236,27
38760,33
39284,42
39804,46
40332,32
40852,17
41372,18
41892,32
42412,51
42932,63
43452,75
43972,68
44492,45
45012,30
45532,23
46052,22
46572,11
47092,16
47612,23
48140,16
48660,15
49188,15
49708,15
50236,15
50760,16
51284,15
51804,22
52332,19
52852,12
53380,14
53900,22
54428,19
54948,12
55476,12
55996,15
56524,18
57044,15
57572,15
58096,16
58620,16
59140,16
59668,11
60188,13
60716,22
61240,35
61764,33
62284,18
62812,16
63332,16
63860,16
64384,26
64908,34
65428,37
65948,44
66468,52
66988,52
67508,17
68028,32
68548,29
69068,33
69588,30
70108,32
70628,32
71148,21
71672,11
72192,14
72716,36
73236,58
73764,66
74284,71
74812,68
75336,49
75860,27
76380,15
76908,16
77428,26
77956,27
78480,29
79004,24
79528,19
80052,25
80572,24
81100,15
81620,15
82148,22
82668,16
83196,21
83716,28
84244,26
84764,12
85292,23
85812,42
86340,36
86864,12
87388,12
87908,16
88436,30
88956,34
89484,33
90004,22
90524,20
91044,27
91564,25
92084,17
92604,16
93124,12
93644,10
94164,19
94684,29
95208,29
95724,27
96248,29
96764,23
97292,24
97812,25
98340,17
98860,16
99388,15
99908,16
100436,16
101000,18
101584,21
102156,22
102736,21
103304,10
103880,15
104456,32
105024,41
105600,30
106168,17
106744,27
107312,24
107896,16
108464,16
109040,16
109624,21
110192,31
110768,34
111336,26
111920,23
112492,10
113072,15
113640,23
114216,25
114792,15
115364,14
115944,15
116512,16
117096,17
117664,18
118244,14
118824,24
119392,31
119976,33
120548,11
121128,13
121696,19
122280,20
122848,19
123428,19
124008,24
124576,27
125160,45
125728,43
126312,47
126884,50
127456,57
128040,46
128608,29
129184,21
129752,13
130328,10
130896,14
131480,25
132048,40
132624,51
133200,60
133768,59
134344,67
134912,44
135496,12
136064,23
136648,56
137224,76
137792,58
138376,26
138944,28
139528,16
140096,19
140680,20
141252,22
141824,17
142408,23
142976,44
143560,70
144128,79
144712,54
145280,30
145864,17
146440,10
147008,11
147592,11
148160,13
148744,17
149312,30
149896,33
150468,27
151040,25
151624,25
152196,25
152776,33
153348,40
153928,47
154504,50
155088,49
155664,34
156236,26
156816,30
157384,24
157968,16
158540,16
159120,23
159692,33
160268,51
160848,64
161416,57
161992,56
162560,62
163144,29
163716,12
164296,29
164872,42
165440,37
166016,48
166584,38
167168,28
167736,16
168320,12
168888,17
169456,15
170032,29
170600,34
171184,37
171756,51
172336,43
172904,34
173488,23
174056,18
174636,26
175216,30
175784,38
176368,39
176936,34
177520,29
178088,19
178664,11
179248,10
179816,9
180340,11
180912,17
181496,14
182064,15
182648,16
183216,18
183792,18
184376,15
184944,10
185520,11
186092,11
186672,19
187240,27
187824,33
188396,35
188972,42
189552,41
190120,28
190704,16
191276,19
191856,21
192428,19
193000,21
193576,31
194148,33
194728,39
195296,38
195880,27
196448,22
197032,12
197604,11
198176,18
198760,20
199328,22
199912,25
200484,30
201064,23
201632,13
202208,15
202792,11
203364,11
203944,11
204516,13
205096,17
205664,12
206240,20
206808,19
207376,30
207952,39
208524,33
209104,26
209672,29
210256,11
210824,29
211400,18
211976,19
212544,14
213128,23
213696,17
214280,33
214852,60
215432,67
216000,70
216576,66
217160,59
217732,53
218312,32
218880,11
219464,18
220036,32
220616,42
221192,48
221764,55
222344,48
222916,30
223496,21
224068,18
224648,15
225216,24
225796,26
226376,24
226944,24
227528,32
228096,39
228680,28
229248,18
229832,15
230408,12
230976,9
231500,14
232076,14
232656,17
233224,19
233808,19
234376,17
234960,13
235536,19
236104,10
236688,10
237260,10
237840,15
238412,25
238992,25
239564,20
240140,17
240720,18
241288,18
241872,19
242444,19
243024,17
243596,16
244176,13
244752,10
245324,11
245904,14
246472,18
247056,20
247624,14
248208,15
248776,15
249352,20
249936,18
250504,17
251088,16
251656,11
252240,12
252808,11
253392,12
253968,17
254540,17
255120,11
255692,13
256272,19
256848,25
257424,28
257992,23
258560,19
259144,26
259712,51
260296,74
260864,70
261448,57
262016,46
262600,27
263176,15
263744,11
264328,11
264896,22
265480,23
266052,19
266632,17
267200,19
267776,17
268360,15
268928,15
269512,17
270080,24
270664,32
271236,41
271816,45
272392,48
272960,38
273544,26
274116,17
274696,35
275268,32
275848,25
276416,46
276996,58
277576,56
278148,42
278728,17
279296,11
279880,11
280452,12
281032,17
281608,15
282176,23
282752,29
283324,22
283904,15
284476,21
285056,43
285624,51
286200,18
286784,10
287352,11
287936,18
288508,18
289088,18
289656,20
290240,15
290808,16
291384,18
291968,18
292536,27
293120,33
293688,35
294272,36
294844,34
295416,24
296000,15
296568,11
297152,15
297724,17
298304,18
298876,17
299456,19
300040,27
300612,25
301192,19
301764,12
302344,10
302916,11
303496,11
304068,18
304644,20
305224,26
305796,15
306376,12
306948,14
307528,16
308104,16
308688,17
309264,15
309836,16
310416,27
310984,38
311568,30
312148,15
312728,11
313300,11
313876,10
314456,18
315028,27
315608,25
316180,26
316760,27
317332,20
317908,15
318488,15
319060,11
319640,21
320212,23
320792,17
321360,11
321944,17
322512,23
323092,27
323672,16
324244,27
324824,36
325392,30
325976,16
326548,13
327120,22
327704,27
328272,35
328848,30
329416,29
329992,22
330560,13
331144,11
331712,17
332288,15
332872,24
333440,36
334016,42
334584,34
335168,23
335740,13
336320,11
336888,14
337464,27
338040,37
338608,29
339192,16
339764,15
340344,13
340912,21
341488,39
342072,51
342644,62
343224,54
343792,39
344376,37
344944,26
345528,10
346100,20
346672,26
347256,26
347824,32
348408,35
348976,43
349560,21
350128,25
350708,34
351288,40
351860,32
352440,26
353012,31
353592,11
354164,40
354744,80
355316,90
355892,82
356472,53
357044,19
357624,61
358196,94
358776,99
359352,86
359932,70
360512,60
361080,53
361664,43
362232,17
362816,12
363388,20
363968,23
364540,25
365116,22
365696,22
366264,27
366848,28
367420,30
368000,31
368568,33
369148,38
369728,34
370296,25
370880,14
371448,12
372032,13
372600,24
373184,38
373756,68
374332,76
374912,57
375484,36
376064,28
376632,27
377216,19
377788,15
378364,14
378944,14
379516,13
380096,10
380668,11
381248,11
381820,18
382400,25
382972,32
383548,21
384128,15
384700,14
385280,11
385848,11
386432,19
387004,29
387580,24
388160,19
388728,13
389312,14
389880,17
390464,15
391032,15
391616,16
392188,15
392760,26
393344,29
393916,28
394496,15
395064,11
395648,16
396220,28
396796,30
397376,29
397948,34
398528,25
399100,21
399680,19
400260,23
400840,17
401416,11
401988,10
402568,11
403136,26
403720,43
404300,52
404880,63
405448,57
406028,39
406608,24
407180,15
407760,17
408332,18
408912,16
409484,12
410064,30
410648,45
411216,61
411792,64
412360,64
412944,91
413512,93
414096,62
414664,40
415240,31
415824,22
416396,15
416976,34
417544,74
418128,87
418696,71
419280,53
419856,32
420424,34
421008,33
421576,18
422160,10
422728,11
423312,15
423880,16
424456,17
425040,16
425608,17
426192,25
426764,30
427344,33
427916,41
428496,34
429072,22
429644,14
430224,11
430792,13
431376,14
431944,16
432528,15
433100,17
433676,19
434256,14
434828,21
435408,20
435976,18
436560,9
437076,22
437656,24
438228,26
438804,19
439384,13
439956,16
440536,15
441112,18
441696,21
442264,24
442840,35
443424,38
443996,22
444576,15
445148,19
445728,25
446300,29
446880,28
447452,28
448028,26
448608,17
449176,18
449760,24
450328,22
450912,20
451480,18
452056,18
452640,38
453208,48
453792,58
454364,72
454944,57
455524,39
456104,25
456672,16
457252,16
457832,21
458404,35
458984,38
459556,35
460136,49
460708,70
461284,77
461864,75
462436,67
463016,67
463588,72
464168,50
464736,32
465320,15
465892,20
466468,31
467048,45
467620,16
468200,21
468772,20
469352,12
469924,23
470500,48
471080,56
471652,50
472232,59
472804,59
473384,25
473956,22
474536,28
475108,18
475684,18
476264,33
476836,40
477416,37
477988,36
478568,35
479148,34
479724,23
480304,14
480876,10
481456,15
482024,16
482608,15
483176,18
483760,24
484340,27
484916,30
485496,30
486068,21
486648,15
487216,19
487800,26
488372,30
488948,32
489528,29
490100,21
490680,15
491252,15
491832,16
492404,24
492984,34
493552,43
494132,38
494712,26
495284,21
495864,21
496436,11
497016,13
497584,25
498164,50
498744,50
499316,25
499896,16
500468,30
501048,33
501620,20
502200,15
502772,16
503348,11
503928,11
504500,30
505080,45
505652,48
506232,45
506804,39
507380,30
507960,17
508532,25
509112,35
509684,43
510264,52
510836,63
511416,68
511996,68
512576,73
513152,53
513720,30
514304,16
514872,18
515456,14
516024,15
516600,18
517184,16
517752,11
518336,15
518908,29
519488,29
520056,34
520640,37
521208,37
521784,44
522368,42
522936,29
523520,15
524088,37
524672,41
525244,37
525816,29
526400,22
526968,15
527552,35
528124,49
528704,27
529272,22
529856,13
530428,12
531004,18
531584,19
532156,56
532736,63
533312,34
533896,17
534468,12
535040,17
535624,24
536196,30
536776,19
537348,14
537928,11
538504,10
539088,11
539664,21
540236,24
540816,26
541384,19
541968,16
542540,11
543120,25
543692,35
544268,40
544848,34
545416,20
546000,11
546568,10
547152,9
547672,12
548248,15
548816,16
549396,15
549976,20
550548,21
551128,12
551700,16
552280,30
552852,37
553428,44
554008,38
554580,41
555160,45
555732,36
556312,24
556892,20
557472,29
558044,38
558620,37
559200,37
559772,48
560352,48
560932,42
561512,21
562084,14
562660,18
563240,24
563808,38
564392,37
564964,27
565544,32
566116,38
566696,34
567268,28
567844,12
568424,15
568992,12
569576,14
570148,20
570728,23
571300,35
571876,56
572456,49
573028,32
573608,24
574180,20
574760,17
575332,15
575912,22
576492,44
577064,66
577648,74
578216,74
578800,60
579368,43
579952,16
580524,14
581100,18
581680,15
582252,16
582832,16
583404,24
583984,31
584556,35
585136,43
585708,34
586284,16
586864,10
587436,11
588016,11
588596,15
589176,26
589756,25
590332,20
590912,18
591484,16
592064,15
592636,12
593216,21
593796,41
594376,61
594960,68
595532,70
596112,61
596684,48
597264,57
597836,71
598416,45
598996,15
599572,28
600152,45
600724,52
601304,43
601884,51
602464,72
603036,58
603612,32
604192,15
604764,12
605344,13
605916,19
606496,15
607076,15
607656,16
608236,15
608812,16
609392,15
609964,15
610544,22
611116,21
611700,10
612276,11
612852,10
613432,13
614008,15
614584,19
615156,15
615736,17
616308,27
616888,52
617460,56
618036,39
618616,15
619188,12
619768,15
620348,11
620928,13
621500,24
622076,28
622656,29
623228,25
623808,17
624380,17
624960,26
625536,31
626120,41
626704,40
627276,29
627856,18
628428,10
629008,11
629580,18
630160,27
630740,32
631316,23
631896,20
632472,25
633048,23
633628,24
634208,15
634780,36
635356,48
635936,33
636512,13
637088,13
637664,28
638240,38
638820,28
639400,20
639980,19
640556,15
641136,31
641704,54
642288,68
642860,66
643440,37
644012,29
644584,19
645168,15
645736,15
646320,15
646892,15
647472,17
648044,18
648624,15
649196,15
649772,16
650352,17
650924,18
651504,16
652076,11
652656,19
653228,33
653804,50
654384,64
654956,65
655536,49
656108,41
656688,30
657256,19
657840,17
658408,15
658984,18
659568,24
660136,24
660720,29
661288,64
661872,77
662444,65
663016,58
663600,47
664172,32
664752,19
665324,16
665904,28
666472,37
667056,20
667624,15
668200,21
668784,11
669356,16
669936,12
670508,10
671088,13
671660,18
672236,14
672816,17
673384,36
673968,43
674536,46
675120,33
675692,32
676272,36
676840,27
677416,14
678000,10
678572,11
679152,10
679724,18
680304,13
680876,11
681452,15
682032,16
682600,16
683184,18
683756,16
684336,14
684908,22
685488,27
686060,19
686636,15
687216,16
687788,25
688368,24
688936,26
689520,24
690092,17
690668,16
691248,15
691816,20
692400,21
692972,22
693552,23
694124,27
694704,24
695276,28
695852,20
696432,12
697004,11
697584,12
698156,16
698736,15
699308,16
699884,17
700464,17
701036,15
701616,11
702188,11
702768,16
703340,10
703920,16
704500,27
705072,35
705656,47
706228,39
706808,19
707384,16
707968,17
708540,19
709116,28
709696,31
710268,31
710848,40
711420,34
712000,12
712576,40
713160,41
713736,35
714308,29
714888,23
715460,21
716040,16
716620,15
717200,20
717776,30
718356,62
718936,60
719508,14
720088,44
720656,58
721240,57
721812,59
722388,61
722968,61
723540,50
724120,55
724692,58
725272,60
725844,64
726424,79
726996,81
727572,78
728152,62
728724,45
729304,24
729876,10
730456,17
731028,23
731604,32
732184,44
732756,47
733336,44
733912,40
734488,35
735068,29
735648,18
736228,25
736804,26
737384,11
737956,15
738536,18
739108,21
739688,30
740268,41
740844,52
741424,30
741996,15
742576,21
743148,33
743728,37
744300,46
744880,39
745452,25
746028,18
746608,15
747180,15
747760,19
748340,15
748920,15
749492,17
750068,22
750648,17
751220,10
751800,10
752372,10
752952,15
753532,27
754112,38
754696,51
755272,53
755848,42
756420,22
757000,16
757580,16
758160,18
758740,26
759316,47
759896,54
760472,46
761048,39
761620,22
762200,14
762772,13
763348,10
763928,15
764500,15
765080,15
765652,15
766232,16
766812,15
767392,11
767972,10
768548,14
769128,17
769696,15
770280,17
770852,21
771432,13
772004,10
772576,12
773160,18
773732,16
774312,21
774884,29
775464,38
776036,37
776616,39
777188,39
777764,50
778344,60
778916,48
779496,28
780068,13
780648,15
781220,23
781796,21
782376,30
782948,50
783528,51
784100,32
784680,13
785248,15
785832,31
786404,23
786980,14
787560,33
788132,37
788712,25
789292,12
789872,17
790444,15
791020,18
791604,29
792176,39
792752,43
793328,47
793904,49
794484,66
795064,65
795636,49
796212,25
796792,11
797368,11
797944,16
798524,15
799104,21
799684,37
800260,43
800840,42
801408,27
801992,16
802564,11
803144,9
803664,16
804240,39
804812,47
805384,38
805968,20
806540,14
807120,15
807692,15
808272,15
808844,17
809424,22
810000,23
810572,28
811152,37
811724,37
812304,49
812884,47
813464,79
814036,74
814612,49
815192,27
815764,20
816344,25
816924,44
817504,55
818076,65
818652,52
819232,35
819804,22
820384,17
820952,15
821536,13
822104,12
822688,14
823256,16
823832,17
824416,18
824984,17
825568,15
826140,23
826720,35
827292,40
827864,31
828448,19
829016,20
829600,16
830168,17
830752,40
831320,46
831904,35
832476,23
833048,17
833632,27
834200,22
834784,12
835352,10
835936,13
836508,21
837080,29
837664,30
838236,26
838816,12
839388,25
839968,52
840540,56
841120,61
841688,62
842264,58
842848,59
843420,43
844000,46
844568,59
845152,67
845720,49
846296,21
846880,14
847448,14
848032,14
848600,22
849184,25
849756,31
850336,36
850908,27
851484,22
852064,27
852632,31
853216,28
853788,25
854368,32
854940,38
855516,34
856096,26
856668,17
857248,17
857820,19
858400,21
858968,14
859552,11
860124,24
860700,32
861280,29
861848,33
862432,29
863004,26
863584,20
864156,20
864728,17
865312,15
865880,17
866464,19
867036,18
867616,19
868196,11
868776,12
869348,10
869924,19
870504,26
871072,15
871656,17
872228,15
872808,17
873376,16
873956,18
874536,24
875108,25
875688,24
876260,28
876840,36
877408,34
877992,34
878572,27
879148,15
879728,10
880300,17
880880,16
881448,17
882032,32
882604,34
883180,22
883760,17
884332,10
884912,13
885484,11
886064,25
886636,64
887216,80
887788,65
888364,50
888944,46
889516,42
890096,26
890676,18
891256,17
891836,16
892412,12
892992,13
893564,24
894144,44
894716,51
895300,58
895876,47
896460,12
897040,10
897608,17
898192,15
898764,15
899344,16
899916,18
900496,17
901068,34
901644,40
902224,22
902796,13
903376,10
903948,19
904528,25
905096,35
905680,37
906256,25
906824,16
907408,27
907980,44
908560,35
909140,31
909720,29
910292,28
910868,40
911448,41
912020,34
912600,33
913172,38
913752,37
914332,33
914908,23
915488,15
916060,17
916640,22
917212,24
917792,28
918364,34
918944,38
919524,35
920100,36
920680,36
921252,37
921832,40
922408,35
922992,18
923564,17
924140,21
924720,27
925292,35
925872,37
926444,30
927024,25
927596,27
928176,25
928752,16
929332,13
929912,14
930484,30
931064,29
931636,26
932216,31
932796,29
933372,15
933952,12
934524,13
935104,14
935676,10
936256,22
936836,20
937416,14
938000,20
938572,24
939152,23
939728,32
940304,36
940884,41
941464,31
942036,21
942612,22
943192,15
943764,10
944344,10
944924,10
945504,12
946076,15
946652,10
947232,12
947804,21
948384,29
948956,33
949536,38
950116,30
950696,15
951276,11
951852,14
952432,36
953004,33
953584,18
954164,12
954744,30
955324,42
955900,55
956484,57
957056,69
957636,54
958208,17
958784,32
959364,42
959944,55
960532,74
961104,92
961680,84
962252,63
962832,36
963412,13
963992,11
964564,19
965140,15
965720,15
966292,15
966872,20
967452,27
968032,29
968612,23
969188,21
969768,20
970340,17
970920,15
971492,19
972072,30
972652,28
973232,17
973812,23
974388,25
974968,30
975540,31
976120,32
976700,34
977280,30
977852,23
978428,11
979008,13
979580,13
980160,21
980732,23
981312,14
981892,17
982472,18
983056,20
983628,24
984208,24
984780,22
985360,16
985932,15
986512,21
987084,21
987660,27
988240,29
988812,32
989392,25
989964,15
990544,25
991124,29
991700,26
992280,30
992852,22
993432,19
994004,28
994584,22
995156,15
995736,27
996316,26
996892,12
997472,13
998044,17
998624,15
999204,15
999784,18
1000356,24
1000976,46
1001604,66
1002224,67
1002852,42
1003476,17
1004100,16
1004728,40
1005344,58
1005976,66
1006604,45
1007224,36
1007852,16
1008476,39
1009104,53
1009736,47
1010352,40
1010980,32
1011604,23
1012228,19
1012860,14
1013480,13
1014108,13
1014732,16
1015356,16
1015984,28
1016608,25
1017236,27
1017868,32
1018488,31
1019116,27
1019740,29
1020372,35
1021000,34
1021624,32
1022252,36
1022880,30
1023500,16
1024132,19
1024748,38
1025376,36
1025996,33
1026620,46
1027244,42
1027860,33
1028488,37
1029108,41
1029732,19
1030360,11
1030984,15
1031612,19
1032240,26
1032856,29
1033484,47
1034108,80
1034736,67
1035364,53
1035984,33
1036612,11
1037236,22
1037856,52
1038484,90
1039100,101
1039784,63
1040404,28
1041020,19
1041648,16
1042272,15
1042900,20
1043528,24
1044144,13
1044772,15
1045396,12
1046020,12
1046648,10
1047268,14
1047900,15
1048520,16
1049144,16
1049772,28
1050388,38
1051016,43
1051640,37
1052264,17
1052892,16
1053512,26
1054144,29
1054772,20
1055392,19
1056020,21
1056640,19
1057268,19
1057896,19
1058512,15
1059144,31
1059768,44
1060388,39
1061020,38
1061640,41
1062268,39
1062892,30
1063516,34
1064144,29
1064760,15
1065388,15
1066016,16
1066636,16
1067268,14
1067888,27
1068520,34
1069148,29
1069768,33
1070396,41
1071016,43
1071640,37
1072272,26
1072888,17
1073516,15
1074140,21
1074764,40
1075392,44
1076008,27
1076636,23
1077264,26
1077880,23
1078508,12
1079132,26
1079760,35
1080388,30
1081008,39
1081636,35
1082256,28
1082884,17
1083512,20
1084136,32
1084764,36
1085388,19
1086012,11
1086640,16
1087264,21
1087892,15
1088524,11
1089140,14
1089772,19
1090392,20
1091020,20
1091652,16
1092272,19
1092900,25
1093524,25
1094148,30
1094780,73
1095400,93
1096028,55
1096652,24
1097272,14
1097900,29
1098520,41
1099148,51
1099772,60
1100400,35
1101028,24
1101652,27
1102280,35
1102912,29
1103528,11
1104156,11
1104780,18
1105412,22
1106040,24
1106656,25
1107284,22
1107908,20
1108528,17
1109160,11
1109776,13
1110404,15
1111028,19
1111652,19
1112284,31
1112904,31
1113536,30
1114168,42
1114784,45
1115412,36
1116036,20
1116668,15
1117296,10
1117920,17
1118548,21
1119172,24
1119800,19
1120428,14
1121048,16
1121676,38
1122300,45
1122928,45
1123556,35
1124180,18
1124808,16
1125440,37
1126056,63
1126684,64
1127308,50
1127936,37
1128568,30
1129184,35
1129812,33
1130436,27
1131056,23
1131688,17
1132304,23
1132932,34
1133556,41
1134180,49
1134808,54
1135432,52
1136064,39
1136692,28
1137312,20
1137940,28
1138564,46
1139192,35
1139824,17
1140440,25
1141068,43
1141692,58
1142316,66
1142948,54
1143568,57
1144196,53
1144824,25
1145444,41
1146076,31
1146700,11
1147332,17
1147960,23
1148576,24
1149208,23
1149828,23
1150460,34
1151088,36
1151712,18
1152344,11
1152964,11
1153588,11
1154216,19
1154832,18
1155460,13
1156084,15
1156708,20
1157336,33
1157960,25
1158588,46
1159216,92
1159840,97
1160468,111
1161144,113
1161812,88
1162436,41
1163056,16
1163684,31
1164312,22
1164936,28
1165564,27
1166188,27
1166816,24
1167444,19
1168064,26
1168692,29
1169312,13
1169936,17
1170564,27
1171184,32
1171812,31
1172436,29
1173060,21
1173692,19
1174312,18
1174940,17
1175572,22
1176192,23
1176820,15
1177444,17
1178076,17
1178704,16
1179320,12
1179952,12
1180576,12
1181200,15
1181828,14
1182448,22
1183076,26
1183700,13
1184324,11
1184952,11
1185576,13
1186204,23
1186836,31
1187456,34
1188084,17
1188708,11
1189336,19
1189968,24
1190584,20
1191212,20
1191836,30
1192460,38
1193088,29
1193712,18
1194340,11
1194964,11
1195588,15
1196216,26
1196840,17
1197468,27
1198100,16
1198720,29
1199348,45
1199972,47
1200604,44
1201236,44
1201856,27
1202484,11
1203108,21
1203732,21
1204364,18
1204984,19
1205612,19
1206236,16
1206860,16
1207492,14
1208112,19
1208740,12
1209372,16
1209992,35
1210620,37
1211244,23
1211872,11
1212504,11
1213124,14
1213752,11
1214376,43
1215000,51
1215632,43
1216248,30
1216876,18
1217500,10
1218124,14
1218752,33
1219376,48
1220004,31
1220632,24
1221256,21
1221884,14
1222508,17
1223140,17
1223768,20
1224392,24
1225020,30
1225644,11
1226268,28
1226900,42
1227520,57
1228148,48
1228776,26
1229400,11
1230028,10
1230648,12
1231276,15
1231904,16
1232528,19
1233156,30
1233780,34
1234408,25
1235036,24
1235656,25
1236284,21
1236908,14
1237532,13
1238160,14
1238784,12
1239412,31
1240036,48
1240660,57
1241288,50
1241904,40
1242536,34
1243164,36
1243784,39
1244412,31
1245036,21
1245668,11
1246296,13
1246912,26
1247544,25
1248168,25
1248788,34
1249420,38
1250040,35
1250668,36
1251292,26
1251912,22
1252544,31
1253160,35
1253792,40
1254420,19
1255036,17
1255668,22
1256292,33
1256920,38
1257552,56
1258168,68
1258800,42
1259424,21
1260048,21
1260676,18
1261296,11
1261924,13
1262548,22
1263172,21
1263804,30
1264424,45
1265052,51
1265684,26
1266304,17
1266932,18
1267556,21
1268188,14
1268816,12
1269440,36
1270068,57
1270692,46
1271316,16
1271948,31
1272568,20
1273196,16
1273820,17
1274444,21
1275076,28
1275696,44
1276324,47
1276956,16
1277576,11
1278208,10
1278832,15
1279460,19
1280092,38
1280708,37
1281336,24
1281956,15
1282580,16
1283208,16
1283824,13
1284452,12
1285076,23
1285696,21
1286328,11
1286944,29
1287572,33
1288200,24
1288820,19
1289452,16
1290072,19
1290700,21
1291328,18
1291952,13
1292580,18
1293204,27
1293828,40
1294456,39
1295080,39
1295708,31
1296332,27
1296952,14
1297584,20
1298200,21
1298828,19
1299452,18
1300080,16
1300708,19
1301332,41
1301960,27
1302588,12
1303208,19
1303836,29
1304460,32
1305088,44
1305720,55
1306336,38
1306964,17
1307588,20
1308212,43
1308840,65
1309456,53
1310084,40
1310708,38
1311332,50
1311964,59
1312584,52
1313212,41
1313840,50
1314460,49
1315092,37
1315716,18
1316344,17
1316972,28
1317588,45
1318220,38
1318844,36
1319464,36
1320092,32
1320708,35
1321340,28
1321960,28
1322580,28
1323212,18
1323828,40
1324460,31
1325088,32
1325704,36
1326332,20
1326956,17
1327584,22
1328212,31
1328832,25
1329460,20
1330080,42
1330704,39
1331332,29
1331948,17
1332580,21
1333200,32
1333820,24
1334448,16
1335068,13
1335696,13
1336328,12
1336944,13
1337572,13
1338196,15
1338824,17
1339452,14
1340072,19
1340700,15
1341324,16
1341952,26
1342584,34
1343200,45
1343828,50
1344452,33
1345072,22
1345704,15
1346320,10
1346948,11
1347572,17
1348192,15
1348820,17
1349444,17
1350072,18
1350700,34
1351320,44
1351948,49
1352572,33
1353200,13
1353828,20
1354448,16
1355076,24
1355696,23
1356320,19
1356948,16
1357564,15
1358196,14
1358816,14
1359440,31
1360068,50
1360684,57
1361312,47
1361944,23
1362560,11
1363188,11
1363812,11
1364440,16
1365068,35
1365688,54
1366316,51
1366940,36
1367564,13
1368192,16
1368808,10
1369436,24
1370060,26
1370684,31
1371312,25
1371928,22
1372560,21
1373184,18
1373808,38
1374436,45
1375060,42
1375688,73
1376316,92
1376936,65
1377564,29
1378188,13
1378816,13
1379444,9
1380012,27
1380644,45
1381268,23
1381892,16
1382524,16
1383140,22
1383772,31
1384396,34
1385016,39
1385648,41
1386264,49
1386892,44
1387516,42
1388140,45
1388768,42
1389392,15
1390020,26
1390652,23
1391272,19
1391900,37
1392528,61
1393156,81
1393784,80
1394408,45
1395036,27
1395660,21
1396284,15
1396912,13
1397528,19
1398160,28
1398780,34
1399408,36
1400036,28
1400660,13
1401288,13
1401916,26
1402536,32
1403164,31
1403788,53
1404420,62
1405048,44
1405664,27
1406292,16
1406916,16
1407540,19
1408172,22
1408788,28
1409416,33
1410040,28
1410664,13
1411292,11
1411916,12
1412544,25
1413172,29
1413792,20
1414420,15
1415040,26
1415672,48
1416300,42
1416920,29
1417548,11
1418172,15
1418796,10
1419428,10
1420048,11
1420676,13
1421300,24
1421924,18
1422556,17
1423180,25
1423808,25
1424436,18
1425056,20
1425684,24
1426308,31
1426936,34
1427568,42
1428184,43
1428812,32
1429436,11
1430060,18
1430692,18
1431312,20
1431940,19
1432568,21
1433192,29
1433820,31
1434444,21
1435072,13
1435704,11
1436320,16
1436948,28
1437572,19
1438200,18
1438832,25
1439448,26
1440076,16
1440700,15
1441320,58
1441948,91
1442568,79
1443196,59
1443820,55
1444440,42
1445072,29
1445688,15
1446316,41
1446948,29
1447568,24
1448196,25
1448820,19
1449448,16
1450076,20
1450696,15
1451324,19
1451948,19
1452572,19
1453200,22
1453824,27
1454452,24
1455076,19
1455700,17
1456328,16
1456944,24
1457572,27
1458204,31
1458824,35
1459452,38
1460076,39
1460704,42
1461336,27
1461952,13
1462580,10
1463204,11
1463828,13
1464460,23
1465080,15
1465708,16
1466332,30
1466956,40
1467584,28
1468204,17
1468832,11
1469460,11
1470080,13
1470708,19
1471332,17
1471964,13
1472596,14
1473216,15
1473844,19
1474468,23
1475092,16
1475724,10
1476344,21
1476972,41
1477596,31
1478220,10
1478848,18
1479464,30
1480096,18
1480724,20
1481344,25
1481972,22
1482596,16
1483224,25
1483852,10
1484472,17
1485100,17
1485724,17
1486348,12
1486976,12
1487592,11
1488220,16
1488844,35
1489468,54
1490096,65
1490712,45
1491340,27
1491964,25
1492592,27
1493220,22
1493844,25
1494472,28
1495104,25
1495720,15
1496348,10
1496972,11
1497600,16
1498228,18
1498848,17
1499476,18
1500100,23
1500724,21
1501356,26
1501976,27
1502604,28
1503228,20
1503856,31
1504488,21
1505108,13
1505740,17
1506368,14
1506992,21
1507620,31
1508244,37
1508868,54
1509500,54
1510120,49
1510752,35
1511376,29
1512000,23
1512628,10
1513248,18
1513876,18
1514508,14
1515128,18
1515760,21
1516384,24
1517012,33
1517644,35
1518264,11
1518892,26
1519516,13
1520144,19
1520772,26
1521392,39
1522020,43
1522644,38
1523268,47
1523896,31
1524520,17
1525148,26
1525780,43
1526400,53
1527028,47
1527652,33
1528284,18
1528912,10
1529536,11
1530168,11
1530792,16
1531416,17
1532048,15
1532664,19
1533296,30
1533920,39
1534544,43
1535176,33
1535796,26
1536428,15
1537056,13
1537672,27
1538300,42
1538924,45
1539552,29
1540180,17
1540800,16
1541428,22
1542052,40
1542676,56
1543304,50
1543920,40
1544548,26
1545172,16
1545796,16
1546424,19
1547048,14
1547676,17
1548304,18
1548928,16
1549556,16
1550180,16
1550812,20
1551440,17
1552056,15
1552688,17
1553312,13
1553936,11
1554564,10
1555184,13
1555816,18
1556440,16
1557064,20
1557692,23
1558312,26
1558940,33
1559572,32
1560192,29
1560820,13
1561444,10
1562076,10
1562704,15
1563320,15
1563948,18
1564572,24
1565196,20
1565828,18
1566448,25
1567076,19
1567700,15
1568324,11
1568952,11
1569576,20
1570204,29
1570836,24
1571456,25
1572084,21
1572708,15
1573340,15
1573968,19
1574588,27
1575216,46
1575840,51
1576464,56
1577092,51
1577712,36
1578340,27
1578964,14
1579588,11
1580220,40
1580840,53
1581468,30
1582100,16
1582720,21
1583348,33
1583976,38
1584604,63
1585236,82
1585856,73
1586488,55
1587112,53
1587736,30
1588364,11
1588984,29
1589612,33
1590236,22
1590860,29
1591492,24
1592112,20
1592744,12
1593372,10
1593992,15
1594624,13
1595248,21
1595876,36
1596508,32
1597128,23
1597760,20
1598384,20
1599008,28
1599636,25
1600256,17
1600884,12
1601508,15
1602128,17
1602760,11
1603376,15
1604004,20
1604632,13
1605248,14
1605876,16
1606500,17
1607128,24
1607756,28
1608376,23
1609004,26
1609624,45
1610248,51
1610876,37
1611496,26
1612124,17
1612748,10
1613372,17
1614004,17
1614624,16
1615252,23
1615880,26
1616504,21
1617132,17
1617756,23
1618388,19
1619016,11
1619632,26
1620264,49
1620888,59
1621508,44
1622140,28
1622760,24
1623388,21
1624012,16
1624636,18
1625264,35
1625884,45
1626512,51
1627140,56
1627760,56
1628388,75
1629012,70
1629644,53
1630272,44
1630888,38
1631520,21
1632144,18
1632772,21
1633404,28
1634024,33
1634652,24
1635276,18
1635900,17
1636532,20
1637152,25
1637780,17
1638412,12
1639028,18
1639656,16
1640276,16
1640904,17
1641532,22
1642148,29
1642776,22
1643400,16
1644028,19
1644656,28
1645272,25
1645900,10
1646524,19
1647144,26
1647772,18
1648392,16
1649020,19
1649640,29
1650260,19
1650888,12
1651508,11
1652140,29
1652768,19
1653384,11
1654012,14
1654636,21
1655264,27
1655892,46
1656512,74
1657140,60
1657764,37
1658384,12
1659016,14
1659632,33
1660260,57
1660884,60
1661504,42
1662132,31
1662752,14
1663380,10
1664008,16
1664628,16
1665256,17
1665876,16
1666504,15
1667136,10
1667752,11
1668380,11
1669004,19
1669632,11
1670260,44
1670880,50
1671508,39
1672128,25
1672752,17
1673380,15
1674000,18
1674628,25
1675248,34
1675872,45
1676500,44
1677124,43
1677752,47
1678380,59
1679000,37
1679628,26
1680252,22
1680880,16
1681508,22
1682128,28
1682756,29
1683376,17
1684000,11
1684628,12
1685244,25
1685876,34
1686496,26
1687116,12
1687748,16
1688368,27
1688996,19
1689624,18
1690240,15
1690868,18
1691488,27
1692116,35
1692744,38
1693368,37
1693996,21
1694620,28
1695240,47
1695872,39
1696488,16
1697116,19
1697740,21
1698360,20
1698992,20
1699608,23
1700236,25
1700860,16
1701484,18
1702116,31
1702740,15
1703368,17
1703996,30
1704616,37
1705244,32
1705868,15
1706496,20
1707124,16
1707744,20
1708372,16
1708996,31
1709620,41
1710248,56
1710864,47
1711496,24
1712120,12
1712740,24
1713372,29
1713996,29
1714624,33
1715252,37
1715872,39
1716500,21
1717124,17
1717752,24
1718380,23
1719000,23
1719628,11
1720252,12
1720876,14
1721508,26
1722128,30
1722756,19
1723380,15
1724004,16
1724632,20
1725256,29
1725884,25
1726516,27
1727136,27
1727764,21
1728388,25
1729016,18
1729648,66
1730264,77
1730892,52
1731516,44
1732140,28
1732768,19
1733384,54
1734016,83
1734640,85
1735260,65
1735892,53
1736516,54
1737144,65
1737772,64
1738392,57
1739020,35
1739644,37
1740276,16
1740904,37
1741524,52
1742156,46
1742776,41
1743400,45
1744028,52
1744644,51
1745276,35
1745896,29
1746520,48
1747152,70
1747768,59
1748400,71
1749028,64
1749648,41
1750276,13
1750900,12
1751532,18
1752160,20
1752776,29
1753408,35
1754032,35
1754656,33
1755284,22
1755904,21
1756532,20
1757156,21
1757780,22
1758412,10
1759032,13
1759664,16
1760292,23
1760912,17
1761540,13
1762164,10
1762792,19
1763420,23
1764040,16
1764668,17
1765292,18
1765912,18
1766540,23
1767156,11
1767788,13
1768412,12
1769032,17
1769664,27
1770280,40
1770908,38
1771536,11
1772160,31
1772788,58
1773412,59
1774044,60
1774672,44
1775288,37
1775920,28
1776544,29
1777168,31
1777796,12
1778416,19
1779044,28
1779668,23
1780292,26
1780924,27
1781544,32
1782172,35
1782804,30
1783424,22
1784052,17
1784676,14
1785304,11
1785936,11
1786552,21
1787180,25
1787808,12
1788432,20
1789060,65
1789680,62
1790308,51
1790932,47
1791560,49
1792192,46
1792804,30
1793436,12
1794064,20
1794680,11
1795308,19
1795932,16
1796560,19
1797192,20
1797808,20
1798436,27
1799060,27
1799684,31
1800316,25
1800936,15
1801564,19
1802188,31
1802812,34
1803440,22
1804064,20
1804692,26
1805320,27
1805936,17
1806568,17
1807188,22
1807820,35
1808448,45
1809064,68
1809692,77
1810316,67
1810944,59
1811572,55
1812192,42
1812820,27
1813444,24
1814064,24
1814696,17
1815312,17
1815944,21
1816568,35
1817192,43
1817820,47
1818444,51
1819072,55
1819704,50
1820320,52
1820948,49
1821572,40
1822200,31
1822832,20
1823448,16
1824080,16
1824700,18
1825324,52
1825952,59
1826568,69
1827200,61
1827820,52
1828444,41
1829076,51
1829700,64
1830328,55
1830960,32
1831576,15
1832208,20
1832832,27
1833460,24
1834092,26
1834712,22
1835340,16
1835964,11
1836592,11
1837220,10
1837840,11
1838468,15
1839092,19
1839716,19
1840348,16
1840972,17
1841600,23
1842232,43
1842848,46
1843480,33
1844100,17
1844732,12
1845360,10
1845976,13
1846604,12
1847228,15
1847848,17
1848480,27
1849096,33
1849724,28
1850348,16
1850972,10
1851600,10
1852216,18
1852848,15
1853476,10
1854096,15
1854724,27
1855348,28
1855976,25
1856608,16
1857224,17
1857856,17
1858476,29
1859100,45
1859732,68
1860352,77
1860980,86
1861604,48
1862228,23
1862856,14
1863480,19
1864108,27
1864736,17
1865360,47
1865988,62
1866612,34
1867244,25
1867872,36
1868488,39
1869120,27
1869740,11
1870364,12
1870996,16
1871616,17
1872244,16
1872868,16
1873492,16
1874124,18
1874744,30
1875372,43
1876004,50
1876624,35
1877252,18
1877876,19
1878508,21
1879136,14
1879760,13
1880388,17
1881012,17
1881636,17
1882268,16
1882888,19
1883516,10
1884140,10
1884768,13
1885396,21
1886020,31
1886652,31
1887280,27
1887900,29
1888528,30
1889152,24
1889780,22
1890408,22
1891032,18
1891660,18
1892288,28
1892908,31
1893540,20
1894160,19
1894792,25
1895412,20
1896036,13
1896668,12
1897288,15
1897920,20
1898548,24
1899168,16
1899796,15
1900420,16
1901052,21
1901684,12
1902304,11
1902932,24
1903560,17
1904184,14
1904812,23
1905432,23
1906060,17
1906684,22
1907312,35
1907940,37
1908564,54
1909196,44
1909824,23
1910448,12
1911076,11
1911700,13
1912328,11
1912956,12
1913576,15
1914208,18
1914832,19
1915456,15
1916088,19
1916704,15
1917336,11
1917964,13
1918584,16
1919216,11
1919840,10
1920472,11
1921100,12
1921720,24
1922348,17
1922972,16
1923596,20
1924224,16
1924844,15
1925472,22
1926096,20
1926716,18
1927348,18
1927968,13
1928596,14
1929228,12
1929848,16
1930476,27
1931100,45
1931732,50
1932360,22
1932976,15
1933608,31
1934232,56
1934856,47
1935484,38
1936104,19
1936732,12
1937356,21
1937980,19
1938608,37
1939228,59
1939856,38
1940484,18
1941104,16
1941732,11
1942356,15
1942988,34
1943620,34
1944240,31
1944868,25
1945496,21
1946120,15
1946748,11
1947368,15
1947996,17
1948620,19
1949244,22
1949876,28
1950496,31
1951124,32
1951756,28
1952376,34
1953004,39
1953628,49
1954256,46
1954888,28
1955504,16
1956136,23
1956760,36
1957384,57
1958012,58
1958632,51
1959260,48
1959884,62
1960508,56
1961140,34
1961760,21
1962388,10
1963020,10
1963640,17
1964268,16
1964892,18
1965524,22
1966152,29
1966776,32
1967404,25
1968028,13
1968648,10
1969276,12
1969896,25
1970524,28
1971148,29
1971772,32
1972404,18
1973024,19
1973652,27
1974280,40
1974904,57
1975532,55
1976156,50
1976788,34
1977416,19
1978032,14
1978664,11
1979288,11
1979912,21
1980540,22
1981160,16
1981788,15
1982412,17
1983036,14
1983668,12
1984288,14
1984916,14
1985544,10
1986168,12
1986796,14
1987420,16
1988048,18
1988680,19
1989296,17
1989924,16
1990548,15
1991172,17
1991804,20
1992424,27
1993052,26
1993676,17
1994300,13
1994932,10
1995552,11
1996180,13
1996812,14
1997432,16
1998060,17
1998684,30
1999312,42
1999944,30
2000564,20
2001192,12
2001816,10
2002440,11
2003068,10
2003688,23
2004316,34
2004940,24
2005564,22
2006192,24
2006816,29
2007444,63
2008076,74
2008696,104
2009376,116
2010044,66
2010664,37
2011292,20
2011912,13
2012540,27
2013164,50
2013788,52
2014420,31
2015040,22
2015672,25
2016300,25
2016920,17
2017548,10
2018172,10
2018800,10
2019432,17
2020048,28
2020680,25
2021304,17
2021928,16
2022556,20
2023176,27
2023804,24
2024428,18
2025052,19
2025680,22
2026304,15
2026932,10
2027564,10
2028184,13
2028812,16
2029436,21
2030064,29
2030696,20
2031316,18
2031944,25
2032572,25
2033196,16
2033824,10
2034448,11
2035076,11
2035704,13
2036328,22
2036956,25
2037580,21
2038212,17
2038844,15
2039464,23
2040092,37
2040716,35
2041348,32
2041980,38
2042600,34
2043232,29
2043852,24
2044476,28
2045108,20
2045728,10
2046360,11
2046988,16
2047608,28
2048240,34
2048860,32
2049488,30
2050116,26
2050732,18
2051360,14
2051984,15
2052612,12
2053240,14
2053856,21
2054484,11
2055104,19
2055728,29
2056356,20
2056972,28
2057600,27
2058224,40
2058848,54
2059476,58
2060096,53
2060728,41
2061356,32
2061976,21
2062604,14
2063228,21
2063856,15
2064484,18
2065100,17
2065732,15
2066352,14
2066976,10
2067608,14
2068224,37
2068852,47
2069476,49
2070096,42
2070724,36
2071344,15
2071972,17
2072600,18
2073224,21
2073852,19
2074476,21
2075104,18
2075732,22
2076352,37
2076980,53
2077604,61
2078224,67
2078856,62
2079472,35
2080100,21
2080724,19
2081344,16
2081972,16
2082588,27
2083220,63
2083848,68
2084464,51
2085092,39
2085716,51
2086344,54
2086972,32
2087592,33
2088220,30
2088844,18
2089472,18
2090100,16
2090720,21
2091348,25
2091972,31
2092592,31
2093224,37
2093840,45
2094468,40
2095092,27
2095716,27
2096344,31
2096968,49
2097596,41
2098224,22
2098844,16
2099472,22
2100092,20
2100724,16
2101352,13
2101968,20
2102596,11
2103220,23
2103844,30
2104472,31
2105088,27
2105716,19
2106340,15
2106964,31
2107592,36
2108212,36
2108840,37
2109468,44
2110088,43
2110716,30
2111340,23
2111968,14
2112600,10
2113216,12
2113848,18
2114468,24
2115092,23
2115724,20
2116344,19
2116972,12
2117596,12
2118220,13
2118848,20
2119472,35
2120100,45
2120728,38
2121352,35
2121980,23
2122604,15
2123232,16
2123864,15
2124480,19
2125108,21
2125732,35
2126356,46
2126984,52
2127608,56
2128236,35
2128860,13
2129484,11
2130112,19
2130736,20
2131364,15
2131992,16
2132608,17
2133240,28
2133860,31
2134492,15
2135120,15
2135736,13
2136364,20
2136988,17
2137612,11
2138240,11
2138856,21
2139488,15
2140112,18
2140736,27
2141364,34
2141984,54
2142612,73
2143244,72
2143864,53
2144492,40
2145116,41
2145748,17
2146376,12
2146996,21
2147624,27
2148248,19
2148872,19
2149500,19
2150120,12
2150748,13
2151372,12
2151996,15
2152624,25
2153248,39
2153876,37
2154504,26
2155128,26
2155756,17
2156380,16
2157012,18
2157640,25
2158256,35
2158888,41
2159512,30
2160136,22
2160764,14
2161384,16
2162012,13
2162636,10
2163256,12
2163888,29
2164504,29
2165132,19
2165756,16
2166384,15
2167012,18
2167636,21
2168268,43
2168896,82
2169520,80
2170148,59
2170772,43
2171400,26
2172028,18
2172648,28
2173276,37
2173900,39
2174524,40
2175156,48
2175776,70
2176408,63
2177036,47
2177656,53
2178284,47
2178908,22
2179536,25
2180164,23
2180784,16
2181412,27
2182036,32
2182660,33
2183292,22
2183912,11
2184540,15
2185164,18
2185788,15
2186416,13
2187040,11
2187668,13
2188296,23
2188920,22
2189548,18
2190172,18
2190804,18
2191432,20
2192048,21
2192680,13
2193300,31
2193928,33
2194556,28
2195176,21
2195808,11
2196432,17
2197056,18
2197684,15
2198304,18
2198936,17
2199564,17
2200184,33
2200812,29
2201436,14
2202068,23
2202696,46
2203320,40
2203948,25
2204572,13
2205196,19
2205828,18
2206448,17
2207076,16
2207700,15
2208324,13
2208956,20
2209576,34
2210204,28
2210836,26
2211456,34
2212088,13
2212708,26
2213340,19
2213968,19
2214588,23
2215216,26
2215840,17
2216464,24
2217092,14
2217712,15
2218340,16
2218964,11
2219588,11
2220220,20
2220840,38
2221468,65
2222100,41
2222720,16
2223348,25
2223972,32
2224604,49
2225236,58
2225856,42
2226484,25
2227112,12
2227736,11
2228364,10
2228984,19
2229612,26
2230236,21
2230864,21
2231492,21
2232112,21
2232744,23
2233372,26
2233992,33
2234620,28
2235248,12
2235876,13
2236508,16
2237128,15
2237760,14
2238384,20
2239008,23
2239636,24
2240256,29
2240888,36
2241508,51
2242132,65
2242764,64
2243384,59
2244012,37
2244640,14
2245264,17
2245892,33
2246516,52
2247144,56
2247776,49
2248392,52
2249024,41
2249648,36
2250272,36
2250900,21
2251520,15
2252148,11
2252776,23
2253400,34
2254028,46
2254648,53
2255276,59
2255904,72
2256528,75
2257156,53
2257780,40
2258408,39
2259040,29
2259656,25
2260284,20
2260908,17
2261532,10
2262160,11
2262784,15
2263412,18
2264036,23
2264660,27
2265288,27
2265912,28
2266540,25
2267172,28
2267792,29
2268420,25
2269044,27
2269676,28
2270304,24
2270928,24
2271556,19
2272184,15
2272804,16
2273436,16
2274056,18
2274684,30
2275308,50
2275932,55
2276564,45
2277188,22
2277816,11
2278444,10
2279064,10
2279692,11
2280316,19
2280944,24
2281576,27
2282196,27
2282824,19
2283448,17
2284072,15
2284700,10
2285320,21
2285948,33
2286572,32
2287196,28
2287828,29
2288452,32
2289084,33
2289716,32
2290336,22
2290968,22
2291592,35
2292220,43
2292852,48
2293472,43
2294104,42
2294724,27
2295348,13
2295980,34
2296600,35
2297228,34
2297852,36
2298480,37
2299108,23
2299732,28
2300364,61
2300992,64
2301616,48
2302244,50
2302868,59
2303496,56
2304128,46
2304740,47
2305372,35
2305992,17
2306616,16
2307244,16
2307864,16
2308492,19
2309116,39
2309740,61
2310368,67
2310992,73
2311620,71
2312252,60
2312872,63
2313500,56
2314124,32
2314756,15
2315384,17
2316008,25
2316636,25
2317260,26
2317884,26
2318516,22
2319136,31
2319768,36
2320396,38
2321016,35
2321644,30
2322268,17
2322896,15
2323528,18
2324144,24
2324772,12
2325396,21
2326024,49
2326652,60
2327272,69
2327900,53
2328528,31
2329148,30
2329780,34
2330400,28
2331028,21
2331656,16
2332280,21
2332908,31
2333532,36
2334164,34
2334792,34
2335416,39
2336044,45
2336668,36
2337292,23
2337920,18
2338536,17
2339164,15
2339788,22
2340416,39
2341044,44
2341664,41
2342292,24
2342924,20
2343544,22
2344172,19
2344796,20
2345428,10
2346056,11
2346680,17
2347308,17
2347936,16
2348560,17
2349188,18
2349808,22
2350436,18
2351064,14
2351688,19
2352316,28
2352936,27
2353564,19
2354196,11
2354816,22
2355448,35
2356068,27
2356700,26
2357328,47
2357952,55
2358580,50
2359204,50
2359828,39
2360460,28
2361080,19
2361708,13
2362332,14
2362956,18
2363588,23
2364208,29
2364836,20
2365468,22
2366088,23
2366716,22
2367344,22
2367972,12
2368604,16
2369224,35
2369852,71
2370476,67
2371100,41
2371732,27
2372352,19
2372984,17
2373608,19
2374232,23
2374860,33
2375480,31
2376112,22
2376740,19
2377360,11
2377988,11
2378612,11
2379244,17
2379872,15
2380496,16
2381124,16
2381748,18
2382372,17
2383004,15
2383624,17
2384252,25
2384876,21
2385500,20
2386132,12
2386756,15
2387388,18
2388016,18
2388632,18
2389264,27
2389888,37
2390520,44
2391148,58
2391768,67
2392400,78
2393024,68
2393648,41
2394276,29
2394896,22
2395524,11
2396152,34
2396776,37
2397408,20
2398032,16
2398664,17
2399292,25
2399912,19
2400544,13
2401168,16
2401796,31
2402428,46
2403048,49
2403676,39
2404300,15
2404924,16
2405556,17
2406176,20
2406808,19
2407436,22
2408056,40
2408684,52
2409308,59
2409936,50
2410568,32
2411184,26
2411816,15
2412440,12
2413064,12
2413692,15
2414312,15
2414944,17
2415568,15
2416192,15
2416820,23
2417440,25
2418068,11
2418696,10
2419320,21
2419948,30
2420572,31
2421204,25
2421832,22
2422452,18
2423080,15
2423704,25
2424328,29
2424956,30
2425576,32
2426208,28
2426832,19
2427456,16
2428084,23
2428704,37
2429336,31
2429964,18
2430584,15
2431216,16
2431840,16
2432472,25
2433100,11
2433720,15
2434348,13
2434972,11
2435596,15
2436228,22
2436848,30
2437476,30
2438100,27
2438724,24
2439356,16
2439976,15
2440608,20
2441236,30
2441856,30
2442484,40
2443108,54
2443740,55
2444372,46
2444992,32
2445620,11
2446244,12
2446868,15
2447500,18
2448120,16
2448748,16
2449372,13
2449996,12
2450628,11
2451248,13
2451876,10
2452508,11
2453128,21
2453756,11
2454384,11
2455016,17
2455648,17
2456264,15
2456896,18
2457524,37
2458148,27
2458776,17
2459400,34
2460028,15
2460652,13
2461272,15
2461904,17
2462520,23
2463152,27
2463780,30
2464400,29
2465028,24
2465652,24
2466280,19
2466908,18
2467528,18
2468156,11
2468780,12
2469404,19
2470032,12
2470652,22
2471280,45
2471904,53
2472528,54
2473156,45
2473776,39
2474404,42
2475032,46
2475656,39
2476284,31
2476908,27
2477540,26
2478168,20
2478792,12
2479420,11
2480044,17
2480668,16
2481296,27
2481912,31
2482544,25
2483168,14
2483792,11
2484420,21
2485040,33
2485668,34
2486296,52
2486920,56
2487548,73
2488172,61
2488804,17
2489432,31
2490052,39
2490680,51
2491304,72
2491928,81
2492560,78
2493176,51
2493808,35
2494432,23
2495056,19
2495684,23
2496304,29
2496932,29
2497564,32
2498184,29
2498812,16
2499436,19
2500068,25
2500696,46
2501312,49
2501944,51
2502568,49
2503192,45
2503820,39
2504440,22
2505068,16
2505692,25
2506316,31
2506948,28
2507568,23
2508196,25
2508828,32
2509448,42
2510076,40
2510700,27
2511332,22
2511960,25
2512584,29
2513212,25
2513840,31
2514464,18
2515092,22
2515712,24
2516340,33
2516968,53
2517592,40
2518220,28
2518840,17
2519472,33
2520100,28
2520720,23
2521348,25
2521976,31
2522604,30
2523236,17
2523856,33
2524488,38
2525108,11
2525736,15
2526364,20
2526984,22
2527616,16
2528240,11
2528864,19
2529492,37
2530116,43
2530748,25
2531376,16
2532000,26
2532628,39
2533256,42
2533884,30
2534516,21
2535136,12
2535768,21
2536392,43
2537016,31
2537648,11
2538264,19
2538892,23
2539524,18
2540144,18
2540772,20
2541400,15
2542028,14
2542660,18
2543280,20
2543912,25
2544536,24
2545160,30
2545792,28
2546408,31
2547036,39
2547664,32
2548288,19
2548916,15
2549536,15
2550168,17
2550796,22
2551416,25
2552048,24
2552672,26
2553300,29
2553932,30
2554552,27
2555184,21
2555808,21
2556432,29
2557064,26
2557680,17
2558312,41
2558940,64
2559564,68
2560200,50
2560812,39
2561440,24
2562068,11
2562684,18
2563316,28
2563936,27
2564564,21
2565192,19
2565808,15
2566440,16
2567060,18
2567684,17
2568312,17
2568928,19
2569560,23
2570184,26
2570808,25
2571436,16
2572056,20
2572684,17
2573308,24
2573936,24
2574564,25
2575188,24
2575816,22
2576444,16
2577064,11
2577692,10
2578316,17
2578944,21
2579572,11
2580192,23
2580820,25
2581444,17
2582064,15
2582696,22
2583312,17
2583940,12
2584564,13
2585188,14
2585820,16
2586440,12
2587068,22
2587700,17
2588320,21
2588948,27
2589572,25
2590200,24
2590828,14
2591448,19
2592076,17
2592700,10
2593324,14
2593952,11
2594568,10
2595196,15
2595820,24
2596444,26
2597076,25
2597700,24
2598328,17
2598960,22
2599576,14
2600204,10
2600828,12
2601460,19
2602088,11
2602704,21
2603336,34
2603960,23
2604584,15
2605212,14
2605832,15
2606460,16
2607084,19
2607708,32
2608340,65
2608964,78
2609592,81
2610224,49
2610840,25
2611468,14
2612092,11
2612724,12
2613352,15
2613972,14
2614600,17
2615224,16
2615848,18
2616476,23
2617096,21
2617724,13
2618348,14
2618972,17
2619604,28
2620228,27
2620856,23
2621488,19
2622104,16
2622732,18
2623356,17
2623984,17
2624612,18
2625232,11
2625860,11
2626480,12
2627104,12
2627732,11
2628352,13
2628980,11
2629600,16
2630224,31
2630852,32
2631472,35
2632100,21
2632728,16
2633344,19
2633976,24
2634596,16
2635228,11
2635856,13
2636472,34
2637104,48
2637728,45
2638348,33
2638980,16
2639600,29
2640228,31
2640852,18
2641472,20
2642104,35
2642720,57
2643348,65
2643976,67
2644592,54
2645224,19
2645844,15
2646476,34
2647104,36
2647720,28
2648348,17
2648972,17
2649600,11
2650228,12
2650848,11
2651476,14
2652100,26
2652724,30
2653352,44
2653976,45
2654604,21
2655228,45
2655856,58
2656484,54
2657108,57
2657736,41
2658368,17
2658984,15
2659612,15
2660236,13
2660868,12
2661496,11
2662112,15
2662744,22
2663364,17
2663988,15
2664616,18
2665232,18
2665860,18
2666484,16
2667104,11
2667732,10
2668356,11
2668984,11
2669612,20
2670232,28
2670860,29
2671484,20
2672112,16
2672740,19
2673360,32
2673988,37
2674612,46
2675232,44
2675860,38
2676480,24
2677108,15
2677732,11
2678356,10
2678984,19
2679608,19
2680236,15
2680868,15
2681488,15
2682116,15
2682740,10
2683372,12
2684000,12
2684616,12
2685244,21
2685868,36
2686492,37
2687120,32
2687744,13
2688376,30
2688996,46
2689620,47
2690248,41
2690864,32
2691492,33
2692120,37
2692744,24
2693372,12
2693996,13
2694624,13
2695252,18
2695872,13
2696500,15
2697124,15
2697748,16
2698376,16
2698992,15
2699620,11
2700244,11
2700868,15
2701496,14
2702112,14
2702744,21
2703372,33
2703992,27
2704620,23
2705244,23
2705872,17
2706500,15
2707120,16
2707748,19
2708372,27
2708996,37
2709628,44
2710248,37
2710876,45
2711500,50
2712124,55
2712756,44
2713376,21
2714008,19
2714636,28
2715256,30
2715884,17
2716508,10
2717136,10
2717768,11
2718384,11
2719016,14
2719640,28
2720264,50
2720892,51
2721512,24
2722140,15
2722764,17
2723388,17
2724016,18
2724632,32
2725260,34
2725884,38
2726512,31
2727140,49
2727764,63
2728392,56
2729020,35
2729640,21
2730268,18
2730888,29
2731520,48
2732148,55
2732768,38
2733396,35
2734020,38
2734644,35
2735276,40
2735896,52
2736524,57
2737148,40
2737776,27
2738404,15
2739028,35
2739660,67
2740288,77
2740908,66
2741536,64
2742160,57
2742788,54
2743420,30
2744040,19
2744668,12
2745292,10
2745916,13
2746544,17
2747164,21
2747792,26
2748420,24
2749040,27
2749668,31
2750292,22
2750924,12
2751552,10
2752176,13
2752804,31
2753428,35
2754056,28
2754684,22
2755304,19
2755932,17
2756556,19
2757180,33
2757812,46
2758432,45
2759060,41
2759692,30
2760312,15
2760940,17
2761564,31
2762196,36
2762828,47
2763448,52
2764080,31
2764704,16
2765328,21
2765956,32
2766576,39
2767204,43
2767828,44
2768452,41
2769080,31
2769696,34
2770328,21
2770956,12
2771576,17
2772204,16
2772828,16
2773456,16
2774088,23
2774704,31
2775336,32
2775960,39
2776584,37
2777212,39
2777832,25
2778460,17
2779084,11
2779708,16
2780340,15
2780960,19
2781588,19
2782220,18
2782840,11
2783468,11
2784096,18
2784724,16
2785352,16
2785976,32
2786604,49
2787228,40
2787852,31
2788480,19
2789096,17
2789724,16
2790348,18
2790976,24
2791604,35
2792224,48
2792852,50
2793484,44
2794104,41
2794732,33
2795356,16
2795988,12
2796620,14
2797240,27
2797868,27
2798492,22
2799116,16
2799748,35
2800368,29
2800996,15
2801620,10
2802244,13
2802872,38
2803496,64
2804124,101
2804808,102
2805476,48
2806100,20
2806724,17
2807348,26
2807980,34
2808600,48
2809228,47
2809852,34
2810480,35
2811108,37
2811732,34
2812364,27
2812996,23
2813616,19
2814244,16
2814868,23
2815496,21
2816124,11
2816740,18
2817372,15
2817992,12
2818616,11
2819244,11
2819864,25
2820492,33
2821116,24
2821740,16
2822368,14
2822992,22
2823620,27
2824252,28
2824872,33
2825500,27
2826124,27
2826756,37
2827384,36
2828008,30
2828636,22
2829260,26
2829884,26
2830512,16
2831128,20
2831760,25
2832388,30
2833008,33
2833636,35
2834260,31
2834888,21
2835520,21
2836136,18
2836764,28
2837388,35
2838020,34
2838648,18
2839272,16
2839900,20
2840528,20
2841152,31
2841780,27
2842400,20
2843028,29
2843656,42
2844280,43
2844908,30
2845532,24
2846164,23
2846792,18
2847416,16
2848044,17
2848668,16
2849292,18
2849920,29
2850536,26
2851164,24
2851792,18
2852416,11
2853044,11
2853664,14
2854292,12
2854924,18
2855544,19
2856172,18
2856796,31
2857428,41
2858060,52
2858680,57
2859312,45
2859936,21
2860560,12
2861188,23
2861808,29
2862436,20
2863060,26
2863688,21
2864316,16
2864936,23
2865568,27
2866196,28
2866816,33
2867448,25
2868068,21
2868696,17
2869328,13
2869944,15
2870572,14
2871196,16
2871820,21
2872452,22
2873072,21
2873700,16
2874324,31
2874948,30
2875576,12
2876196,14
2876824,20
2877452,26
2878072,25
2878700,29
2879324,22
2879956,15
2880588,16
2881204,28
2881836,22
2882460,12
2883080,12
2883708,18
2884328,32
2884956,35
2885580,17
2886204,11
2886832,20
2887448,38
2888080,43
2888700,36
2889328,43
2889956,37
2890580,23
2891208,23
2891836,14
2892456,12
2893084,10
2893708,15
2894336,31
2894968,30
2895584,19
2896216,16
2896836,17
2897460,19
2898088,20
2898712,25
2899340,19
2899964,23
2900592,29
2901220,25
2901844,13
2902476,14
2903104,31
2903724,41
2904352,31
2904976,16
2905604,17
2906236,23
2906856,26
2907484,43
2908108,66
2908736,66
2909364,48
2909984,26
2910612,19
2911244,19
2911864,24
2912496,19
2913116,24
2913748,19
2914376,18
2915000,16
2915628,21
2916256,23
2916876,17
2917508,16
2918128,18
2918760,14
2919380,16
2920004,26
2920632,28
2921256,23
2921884,16
2922516,18
2923136,31
2923768,41
2924388,43
2925020,45
2925648,51
2926272,50
2926900,33
2927524,21
2928148,14
2928780,10
2929400,13
2930028,16
2930652,27
2931276,30
2931908,18
2932528,11
2933156,11
2933788,11
2934408,20
2935036,35
2935664,41
2936292,43
2936924,41
2937544,37
2938176,33
2938800,24
2939424,17
2940052,27
2940672,43
2941304,63
2941928,73
2942552,71
2943184,58
2943804,63
2944436,98
2945064,73
2945680,45
2946312,24
2946936,15
2947564,17
2948196,35
2948816,72
2949444,89
2950068,56
2950692,33
2951320,24
2951944,25
2952572,30
2953196,25
2953820,23
2954452,30
2955076,21
2955704,17
2956332,20
2956952,26
2957580,29
2958204,36
2958836,34
2959464,29
2960088,17
2960716,22
2961340,22
2961964,14
2962592,13
2963208,20
2963840,25
2964464,17
2965084,17
2965716,25
2966340,28
2966972,35
2967600,38
2968224,24
2968852,11
2969476,12
2970108,12
2970740,12
2971360,17
2971988,17
2972612,15
2973236,15
2973868,20
2974488,11
2975116,13
2975740,10
2976368,12
2976996,13
2977620,35
2978248,41
2978880,44
2979496,38
2980124,22
2980748,24
2981380,29
2982008,26
2982632,21
2983260,13
2983884,10
2984508,11
2985140,12
2985760,24
2986388,33
2987020,32
2987640,25
2988268,19
2988892,18
2989524,18
2990152,18
2990776,12
2991404,16
2992028,15
2992652,18
2993280,15
2993904,11
2994532,15
2995160,23
2995784,15
2996412,15
2997032,15
2997660,20
2998292,21
2998912,15
2999544,13
3000168,11
3000796,16
3001428,12
3002048,29
3002676,52
3003304,47
3003928,26
3004556,18
3005176,39
3005808,54
3006432,58
3007056,39
3007684,33
3008304,42
3008932,42
3009564,33
3010184,19
3010816,11
3011436,17
3012068,23
3012700,22
3013320,16
3013948,17
3014576,25
3015200,32
3015828,35
3016448,36
3017076,29
3017704,12
3018328,11
3018956,13
3019576,33
3020208,28
3020836,27
3021456,44
3022084,40
3022708,35
3023340,16
3023972,22
3024592,26
3025224,10
3025848,13
3026472,20
3027100,34
3027720,26
3028352,13
3028976,15
3029600,25
3030232,31
3030856,29
3031488,19
3032116,35
3032736,49
3033368,40
3033992,31
3034620,25
3035252,10
3035872,13
3036504,12
3037128,15
3037752,22
3038384,17
3039004,16
3039632,19
3040264,17
3040884,16
3041512,42
3042136,52
3042764,50
3043396,42
3044016,33
3044644,17
3045268,11
3045896,14
3046524,16
3047144,20
3047772,20
3048400,20
3049020,26
3049652,30
3050272,32
3050900,26
3051532,29
3052152,32
3052784,29
3053408,27
3054036,25
3054668,30
3055288,26
3055920,18
3056544,19
3057168,42
3057800,67
3058416,84
3059048,90
3059672,81
3060296,47
3060928,18
3061544,10
3062176,23
3062808,38
3063424,26
3064056,17
3064680,22
3065312,41
3065940,37
3066560,21
3067192,11
3067816,17
3068440,12
3069072,11
3069692,11
3070324,11
3070948,18
3071576,16
3072208,20
3072824,25
3073452,20
3074080,13
3074696,17
3075328,26
3075952,29
3076580,24
3077208,22
3077832,17
3078460,10
3079084,11
3079708,21
3080336,18
3080952,15
3081584,16
3082208,14
3082832,30
3083460,51
3084080,25
3084708,11
3085340,14
3085960,35
3086588,43
3087212,39
3087844,56
3088472,60
3089096,35
3089724,23
3090348,30
3090972,17
3091604,10
3092224,17
3092852,38
3093476,49
3094100,61
3094732,58
3095352,64
3095984,47
3096612,21
3097232,17
3097864,16
3098484,15
3099116,11
3099748,12
3100368,12
3100996,17
3101624,32
3102248,48
3102876,60
3103496,48
3104128,28
3104748,18
3105372,17
3106004,27
3106628,31
3107260,43
3107888,62
3108508,64
3109136,44
3109760,48
3110392,44
3111024,21
3111640,10
3112272,15
3112896,17
3113520,17
3114148,15
3114768,17
3115400,16
3116024,13
3116648,19
3117276,22
3117900,18
3118532,18
3119164,22
3119784,26
3120416,19
3121040,16
3121668,18
3122300,20
3122920,17
3123552,17
3124172,15
3124796,17
3125428,10
3126048,11
3126676,11
3127308,10
3127928,11
3128560,14
3129184,11
3129812,20
3130444,19
3131064,22
3131692,23
3132320,19
3132944,11
3133572,13
3134192,12
3134824,11
3135448,12
3136072,24
3136700,31
3137320,35
3137948,27
3138580,15
3139200,20
3139828,26
3140452,27
3141084,31
3141716,32
3142336,29
3142968,17
3143592,11
3144216,19
3144844,24
3145464,22
3146096,21
3146720,16
3147344,25
3147976,17
3148592,17
3149224,11
3149852,12
3150472,14
3151104,28
3151728,12
3152360,11
3152988,10
3153608,13
3154240,18
3154864,14
3155488,16
3156116,16
3156736,19
3157368,20
3157992,27
3158616,32
3159248,26
3159864,18
3160496,18
3161124,15
3161744,10
3162372,12
3163000,16
3163628,16
3164260,23
3164880,37
3165508,37
3166136,26
3166760,13
3167388,15
3168008,37
3168636,77
3169264,96
3169888,72
3170516,47
3171144,28
3171776,22
3172408,56
3173024,54
3173656,38
3174280,36
3174912,31
3175544,31
3176164,31
3176792,30
3177416,24
3178040,14
3178672,13
3179288,14
3179920,16
3180548,20
3181168,20
3181800,22
3182424,16
3183052,12
3183684,10
3184304,10
3184936,16
3185560,13
3186184,20
3186816,23
3187432,11
3188064,19
3188688,30
3189312,35
3189944,28
3190564,22
3191192,23
3191824,26
3192444,24
3193076,19
3193700,14
3194332,11
3194964,17
3195584,14
3196216,16
3196840,18
3197464,19
3198096,31
3198712,42
3199344,39
3199972,38
3200600,31
3201228,21
3201848,11
3202476,33
3203104,48
3203720,48
3204352,47
3204976,37
3205604,25
3206232,19
3206852,18
3207480,13
3208104,12
3208724,24
3209356,32
3209976,45
3210604,73
3211228,71
3211852,53
3212480,46
3213104,30
3213732,17
3214364,14
3214984,19
3215612,21
3216236,29
3216868,23
3217496,21
3218112,28
3218744,30
3219368,31
3219992,27
3220620,24
3221240,25
3221868,19
3222492,17
3223116,17
3223748,19
3224368,48
3224996,71
3225628,67
3226248,40
3226876,24
3227500,17
3228128,11
3228756,11
3229376,16
3230004,15
3230628,17
3231252,20
3231884,19
3232504,11
3233132,11
3233756,13
3234380,19
3235012,28
3235632,29
3236260,29
3236892,28
3237512,25
3238140,15
3238768,17
3239396,17
3240024,16
3240648,29
3241276,35
3241900,31
3242524,33
3243152,32
3243776,27
3244404,13
3245028,11
3245652,14
3246284,27
3246904,34
3247532,33
3248164,21
3248784,14
3249412,19
3250036,15
3250668,13
3251300,10
3251920,15
3252548,23
3253172,30
3253796,22
3254428,16
3255048,17
3255676,16
3256304,20
3256928,19
3257556,27
3258184,44
3258812,49
3259444,42
3260064,38
3260696,35
3261320,26
3261948,15
3262580,14
3263200,17
3263832,19
3264456,19
3265080,23
3265708,22
3266328,18
3266956,11
3267584,10
3268208,17
3268836,27
3269460,37
3270092,32
3270724,18
3271344,16
3271976,19
3272600,17
3273224,17
3273856,13
3274472,17
3275104,21
3275728,28
3276352,27
3276984,27
3277600,17
3278228,11
3278856,11
3279472,15
3280100,15
3280720,21
3281348,26
3281976,17
3282592,12
3283220,14
3283840,15
3284468,17
3285096,17
3285712,18
3286340,24
3286964,28
3287588,27
3288216,18
3288832,17
3289460,19
3290084,29
3290704,32
3291336,34
3291952,39
3292580,35
3293208,24
3293832,18
3294460,10
3295084,14
3295712,21
3296340,24
3296960,24
3297588,29
3298208,32
3298832,25
3299460,19
3300080,27
3300708,29
3301332,35
3301952,29
3302584,21
3303200,26
3303828,14
3304456,24
3305072,46
3305704,67
3306324,77
3306956,63
3307584,57
3308200,55
3308832,49
3309452,32
3310080,28
3310708,25
3311328,22
3311956,13
3312584,17
3313204,25
3313836,28
3314456,33
3315084,34
3315708,42
3316336,36
3316964,23
3317588,19
3318220,11
3318848,12
3319468,11
3320096,13
3320720,27
3321348,23
3321976,24
3322600,29
3323228,18
3323852,17
3324476,32
3325104,46
3325728,57
3326356,58
3326988,54
3327608,29
3328236,14
3328860,21
3329488,25
3330116,20
3330736,16
3331364,19
3331984,17
3332612,14
3333244,14
3333864,11
3334492,12
3335112,15
3335736,20
3336368,26
3336984,23
3337612,22
3338236,16
3338860,21
3339488,27
3340112,20
3340740,17
3341372,16
3341992,13
3342620,16
3343244,21
3343872,23
3344504,11
3345120,11
3345748,11
3346372,16
3346996,15
3347628,16
3348248,18
3348876,11
3349500,14
3350128,15
3350756,13
3351380,18
3352012,31
3352640,37
3353256,21
3353888,12
3354512,17
3355140,19
3355772,30
3356392,45
3357020,37
3357644,44
3358268,41
3358900,42
3359520,37
3360148,27
3360776,19
3361392,10
3362020,17
3362644,19
3363272,18
3363900,16
3364520,19
3365148,19
3365772,10
3366400,11
3367028,12
3367648,14
3368276,13
3368900,13
3369524,17
3370152,28
3370768,31
3371400,20
3372024,16
3372644,16
3373276,21
3373900,32
3374528,32
3375160,23
3375776,23
3376404,16
3377028,19
3377660,20
3378288,12
3378904,11
3379536,17
3380156,17
3380780,17
3381412,16
3382032,29
3382660,47
3383284,19
3383908,25
3384536,19
3385160,15
3385788,31
3386416,26
3387032,19
3387664,17
3388288,18
3388916,18
3389544,21
3390168,26
3390796,31
3391420,40
3392044,50
3392672,51
3393288,35
3393920,17
3394540,11
3395164,13
3395796,21
3396420,15
3397048,16
3397676,18
3398296,19
3398924,13
3399548,21
3400180,16
3400808,10
3401424,23
3402056,35
3402680,45
3403300,34
3403932,26
3404552,25
3405180,18
3405804,15
3406428,19
3407056,23
3407680,35
3408308,45
3408936,46
3409560,47
3410188,42
3410812,27
3411440,15
3412072,11
3412688,21
3413316,22
3413940,27
3414564,24
3415196,20
3415816,21
3416444,15
3417068,11
3417692,14
3418324,15
3418948,22
3419576,26
3420204,26
3420824,19
3421452,17
3422076,19
3422704,21
3423336,26
3423956,23
3424588,16
3425208,21
3425832,22
3426464,17
3427080,13
3427712,11
3428336,11
3428960,12
3429588,24
3430216,23
3430844,19
3431476,32
3432096,28
3432724,16
3433348,10
3433980,11
3434608,16
3435232,17
3435860,21
3436484,18
3437108,15
3437740,39
3438360,63
3438992,69
3439620,56
3440240,42
3440868,35
3441492,26
3442120,16
3442752,11
3443368,11
3443996,11
3444620,11
3445248,11
3445880,15
3446496,17
3447124,18
3447748,16
3448372,17
3449000,19
3449624,21
3450252,22
3450876,15
3451504,15
3452132,18
3452756,18
3453388,21
3454020,15
3454640,17
3455268,25
3455896,30
3456520,27
3457148,24
3457768,25
3458396,27
3459020,29
3459644,26
3460272,16
3460896,11
3461524,11
3462156,14
3462776,29
3463404,29
3464028,25
3464656,19
3465288,15
3465904,25
3466532,20
3467156,14
3467784,15
3468412,20
3469032,23
3469660,28
3470284,25
3470908,20
3471540,16
3472160,19
3472788,16
3473420,18
3474040,15
3474668,16
3475292,25
3475924,60
3476552,72
3477176,57
3477804,57
3478428,41
3479052,17
3479684,24
3480304,45
3480936,71
3481560,53
3482184,22
3482812,15
3483432,25
3484060,17
3484688,13
3485312,22
3485940,22
3486564,20
3487192,17
3487824,15
3488444,16
3489072,17
3489696,19
3490316,24
3490948,27
3491568,31
3492196,31
3492820,20
3493444,12
3494072,11
3494696,11
3495324,11
3495956,14
3496576,17
3497204,23
3497828,30
3498460,21
3499088,10
3499712,14
3500340,17
3500968,20
3501588,13
3502220,16
3502840,32
3503468,41
3504092,46
3504716,32
3505348,16
3505968,16
3506596,18
3507228,16
3507848,24
3508476,35
3509100,60
3509732,62
3510364,54
3510984,30
3511616,11
3512240,12
3512864,17
3513492,14
3514112,19
3514744,16
3515368,16
3515992,24
3516624,21
3517244,19
3517872,20
3518504,14
3519124,19
3519756,32
3520380,36
3521012,34
3521640,21
3522256,18
3522888,21
3523512,14
3524136,12
3524764,18
3525384,35
3526012,39
3526636,33
3527260,28
3527892,13
3528516,10
3529144,17
3529772,18
3530392,17
3531020,17
3531648,17
3532276,15
3532908,12
3533528,11
3534156,13
3534780,27
3535404,33
3536032,29
3536656,25
3537284,18
3537908,18
3538532,19
3539160,18
3539788,15
3540416,14
3541044,18
3541664,16
3542292,16
3542920,12
3543548,15
3544180,15
3544800,11
3545428,13
3546052,19
3546676,29
3547308,36
3547928,27
3548556,14
3549184,11
3549808,22
3550436,27
3551060,13
3551692,16
3552324,30
3552944,29
3553576,26
3554200,26
3554824,16
3555452,19
3556072,27
3556700,61
3557328,89
3557952,64
3558584,62
3559200,49
3559828,40
3560460,16
3561080,29
3561708,61
3562336,51
3562964,31
3563596,34
3564216,45
3564844,43
3565468,37
3566092,25
3566720,20
3567344,26
3567976,32
3568600,31
3569224,25
3569852,14
3570472,12
3571104,25
3571736,29
3572352,19
3572984,16
3573608,25
3574236,40
3574868,50
3575488,56
3576120,48
3576744,46
3577368,35
3578000,23
3578616,19
3579248,20
3579872,15
3580496,17
3581128,21
3581744,22
3582376,22
3583008,22
3583628,23
3584260,25
3584884,21
3585512,22
3586140,11
3586760,20
3587388,25
3588012,17
3588636,15
3589264,18
3589888,17
3590516,14
3591140,21
3591764,27
3592396,23
3593016,20
3593644,16
3594276,12
3594896,12
3595524,21
3596148,33
3596780,37
3597412,38
3598032,40
3598664,41
3599288,39
3599912,41
3600544,27
3601160,15
3601788,11
3602412,13
3603036,24
3603668,23
3604292,16
3604924,19
3605552,20
3606168,22
3606800,54
3607424,107
3608104,132
3608776,127
3609452,97
3610076,85
3610708,54
3611328,16
3611956,22
3612580,20
3613204,15
3613836,20
3614456,27
3615084,23
3615708,11
3616332,14
3616960,12
3617584,11
3618212,18
3618840,36
3619464,48
3620092,45
3620716,28
3621348,15
3621976,16
3622600,15
3623228,18
3623852,19
3624476,24
3625108,30
3625728,28
3626356,17
3626980,20
3627604,13
3628232,11
3628856,15
3629484,15
3630116,16
3630736,16
3631364,17
3631988,19
3632620,21
3633252,22
3633872,23
3634504,28
3635128,30
3635752,40
3636380,33
3637000,23
3637628,16
3638252,20
3638876,33
3639508,32
3640132,23
3640764,34
3641392,26
3642016,18
3642644,13
3643268,13
3643900,24
3644528,16
3645152,34
3645784,36
3646404,28
3647028,17
3647660,14
3648280,15
3648908,12
3649532,10
3650160,23
3650788,12
3651412,10
3652044,21
3652672,43
3653292,47
3653920,38
3654544,17
3655172,16
3655804,17
3656424,18
3657052,26
3657676,42
3658300,43
3658932,36
3659552,20
3660180,13
3660812,10
3661432,12
3662060,11
3662684,14
3663316,28
3663948,20
3664568,17
3665196,17
3665824,19
3666448,27
3667076,46
3667696,58
3668324,49
3668948,29
3669572,11
3670204,25
3670824,24
3671456,15
3672084,18
3672704,17
3673336,17
3673960,10
3674588,11
3675220,12
3675840,32
3676472,53
3677096,69
3677720,45
3678352,14
3678968,15
3679600,20
3680224,19
3680848,17
3681476,20
3682096,26
3682724,26
3683356,36
3683976,36
3684608,18
3685232,22
3685860,38
3686492,35
3687108,23
3687740,16
3688360,15
3688984,15
3689612,16
3690232,11
3690860,15
3691484,25
3692108,31
3692736,32
3693360,30
3693988,26
3694620,24
3695240,12
3695868,16
3696492,16
3697124,17
3697752,19
3698372,21
3699000,11
3699624,11
3700248,13
3700876,10
3701496,13
3702124,27
3702748,19
3703372,16
3704004,22
3704624,21
3705252,18
3705884,16
3706504,19
3707136,47
3707760,48
3708388,45
3709020,42
3709640,44
3710268,34
3710896,21
3711520,11
3712152,26
3712768,29
3713396,22
3714020,18
3714644,32
3715272,41
3715896,28
3716524,19
3717156,10
3717776,28
3718404,36
3719028,51
3719660,75
3720292,74
3720912,63
3721540,55
3722168,35
3722792,22
3723420,22
3724040,60
3724668,85
3725296,83
3725920,65
3726548,57
3727172,53
3727804,55
3728436,54
3729056,74
3729684,72
3730308,54
3730940,30
3731568,16
3732192,28
3732820,35
3733444,33
3734068,29
3734700,30
3735320,36
3735952,41
3736580,41
3737200,36
3737832,20
3738452,16
3739084,16
3739716,16
3740336,24
3740964,25
3741588,23
3742216,22
3742844,17
3743464,14
3744096,12
3744716,11
3745340,14
3745972,16
3746592,15
3747220,15
3747852,24
3748472,27
3749104,19
3749728,21
3750356,18
3750988,14
3751608,11
3752240,18
3752864,23
3753488,19
3754120,17
3754736,15
3755368,20
3755992,25
3756616,22
3757248,26
3757868,40
3758500,53
3759128,46
3759752,34
3760384,17
3761008,11
3761636,10
3762268,16
3762888,16
3763520,16
3764144,17
3764768,22
3765396,32
3766016,32
3766648,42
3767272,44
3767896,41
3768528,35
3769144,31
3769772,28
3770404,16
3771024,19
3771652,33
3772280,43
3772908,63
3773540,64
3774160,52
3774792,43
3775416,33
3776040,35
3776668,34
3777288,21
3777916,24
3778540,29
3779168,26
3779796,22
3780420,25
3781052,17
3781684,16
3782304,27
3782936,21
3783560,21
3784192,13
3784820,10
3785440,32
3786072,69
3786696,98
3787320,80
3787952,41
3788572,20
3789200,16
3789832,16
3790448,32
3791076,51
3791704,61
3792332,44
3792964,26
3793584,23
3794216,12
3794840,12
3795464,23
3796092,20
3796712,20
3797344,16
3797968,17
3798592,18
3799224,24
3799840,27
3800472,33
3801100,35
3801720,49
3802348,55
3802976,43
3803604,37
3804236,32
3804856,34
3805484,21
3806112,18
3806736,45
3807364,50
3807984,49
3808616,49
3809240,47
3809864,47
3810492,38
3811112,33
3811744,41
3812372,38
3812992,30
3813624,21
3814248,18
3814880,15
3815508,11
3816128,11
3816756,21
3817384,29
3818008,32
3818640,35
3819256,41
3819888,36
3820512,31
3821136,17
3821768,17
3822384,22
3823016,28
3823648,27
3824264,21
3824896,26
3825520,30
3826152,23
3826784,28
3827404,28
3828036,19
3828660,22
3829284,15
3829916,27
3830536,32
3831168,26
3831792,13
3832416,12
3833048,18
3833672,15
3834304,20
3834932,26
3835552,27
3836184,18
3836812,13
3837440,18
3838072,15
3838692,18
3839324,20
3839952,18
3840580,19
3841208,18
3841824,14
3842452,16
3843084,28
3843704,26
3844332,14
3844956,11
3845588,15
3846216,16
3846840,15
3847468,19
3848092,21
3848716,11
3849348,10
3849968,11
3850596,14
3851220,11
3851844,17
3852472,30
3853096,29
3853724,15
3854356,16
3854976,22
3855604,15
3856228,19
3856860,26
3857488,36
3858104,37
3858736,31
3859360,22
3859984,15
3860612,10
3861232,11
3861860,12
3862484,15
3863108,15
3863740,18
3864360,20
3864988,17
3865620,14
3866240,11
3866868,10
3867492,11
3868124,12
3868752,22
3869376,29
3870008,15
3870632,21
3871256,36
3871888,47
3872504,44
3873132,29
3873756,24
3874384,13
3875012,14
3875632,12
3876264,10
3876892,12
3877512,11
3878144,12
3878768,27
3879396,32
3880028,22
3880648,19
3881276,17
3881900,10
3882524,17
3883156,16
3883776,13
3884408,13
3885032,20
3885656,24
3886284,24
3886904,27
3887536,16
3888164,16
3888784,18
3889416,18
3890040,20
3890672,27
3891300,32
3891920,33
3892548,28
3893172,23
3893796,15
3894424,12
3895048,18
3895676,17
3896304,16
3896928,16
3897556,17
3898184,21
3898812,24
3899444,19
3900064,18
3900696,27
3901320,26
3901952,32
3902580,35
3903200,44
3903832,34
3904456,20
3905080,17
3905708,19
3906328,17
3906960,15
3907584,14
3908208,14
3908836,24
3909460,50
3910092,58
3910724,53
3911344,47
3911976,40
3912600,45
3913224,45
3913856,17
3914472,37
3915104,37
3915728,13
3916352,18
3916984,30
3917608,27
3918236,14
3918868,16
3919488,29
3920120,34
3920744,25
3921372,25
3922004,30
3922624,21
3923252,14
3923876,27
3924500,52
3925132,58
3925752,54
3926384,49
3927008,35
3927632,27
3928264,24
3928884,20
3929512,17
3930144,26
3930768,26
3931400,25
3932024,26
3932656,27
3933284,19
3933904,21
3934532,29
3935156,31
3935784,36
3936412,34
3937032,25
3937660,17
3938284,17
3938908,16
3939540,16
3940164,16
3940792,29
3941424,43
3942040,42
3942672,29
3943296,23
3943924,25
3944556,28
3945176,30
3945804,23
3946428,18
3947052,18
3947684,18
3948304,15
3948932,10
3949556,12
3950180,16
3950812,32
3951436,51
3952068,51
3952696,38
3953320,40
3953948,29
3954572,17
3955204,15
3955832,16
3956452,20
3957084,28
3957708,27
3958332,30
3958964,26
3959584,24
3960216,22
3960844,14
3961464,11
3962096,19
3962720,29
3963348,27
3963980,36
3964600,41
3965232,45
3965856,36
3966480,27
3967108,14
3967728,12
3968360,20
3968984,25
3969608,46
3970236,27
3970856,24
3971484,22
3972116,21
3972736,26
3973368,28
3973992,27
3974620,15
3975252,22
3975872,25
3976500,10
3977124,11
3977748,16
3978380,14
3979000,17
3979632,15
3980256,17
3980880,16
3981508,14
3982128,15
3982756,17
3983388,18
3984008,19
3984636,11
3985260,23
3985892,33
3986524,35
3987144,35
3987776,26
3988400,19
3989024,17
3989656,23
3990272,34
3990904,33
3991528,37
3992152,26
3992784,23
3993404,26
3994036,15
3994664,16
3995284,25
3995912,23
3996536,20
3997168,15
3997796,23
3998416,26
3999048,20
3999672,23
4000296,29
4000924,30
4001544,32
4002172,28
4002796,21
4003420,13
4004052,15
4004672,20
4005304,29
4005932,39
4006552,45
4007180,48
4007804,53
4008436,62
4009064,57
4009680,42
4010312,23
4010936,11
4011560,17
4012188,24
4012808,17
4013436,16
4014060,16
4014688,16
4015316,12
4015940,17
4016572,18
4017200,13
4017820,15
4018448,30
4019072,41
4019700,42
4020332,38
4020952,25
4021580,15
4022204,27
4022828,32
4023460,42
4024080,43
4024708,47
4025332,45
4025956,37
4026588,28
4027212,11
4027840,13
4028468,11
4029088,15
4029716,17
4030340,21
4030972,21
4031604,18
4032224,19
4032852,23
4033476,23
4034100,34
4034732,44
4035352,51
4035980,53
4036604,52
4037232,52
4037860,38
4038484,21
4039116,20
4039748,38
4040368,57
4040996,61
4041620,63
4042248,67
4042876,100
4043548,90
4044176,73
4044800,64
4045424,63
4046052,46
4046676,17
4047308,44
4047936,65
4048556,39
4049184,28
4049812,29
4050440,32
4051068,30
4051688,21
4052316,11
4052944,13
4053568,19
4054196,17
4054816,16
4055448,17
4056076,20
4056696,25
4057324,28
4057952,26
4058580,24
4059208,28
4059832,29
4060464,22
4061088,14
4061712,23
4062340,23
4062960,21
4063592,18
4064216,17
4064840,13
4065468,10
4066088,19
4066716,27
4067348,20
4067968,19
4068600,30
4069224,24
4069852,20
4070484,16
4071104,17
4071736,15
4072360,17
4072984,17
4073612,25
4074232,29
4074864,25
4075488,23
4076112,13
4076744,12
4077360,18
4077992,12
4078624,16
4079240,16
4079872,15
4080496,16
4081128,17
4081756,10
4082376,14
4083008,12
4083632,15
4084256,15
4084884,24
4085504,33
4086136,23
4086760,14
4087384,17
4088016,22
4088632,28
4089264,29
4089896,33
4090512,31
4091144,28
4091768,27
4092400,19
4093028,11
4093648,15
4094280,27
4094904,19
4095528,16
4096160,17
4096780,18
4097408,21
4098028,22
4098652,13
4099280,19
4099892,40
4100520,52
4101152,41
4101768,24
4102396,11
4103016,11
4103648,17
4104276,14
4104896,17
4105524,22
4106148,17
4106768,14
4107396,16
4108016,22
4108644,20
4109268,26
4109892,33
4110520,33
4111136,31
4111764,30
4112396,19
4113016,16
4113644,15
4114268,17
4114896,14
4115524,10
4116144,14
4116772,26
4117396,30
4118020,29
4118652,33
4119272,28
4119900,29
4120524,21
4121148,17
4121776,23
4122392,23
4123020,19
4123644,17
4124272,24
4124900,41
4125524,53
4126152,50
4126780,35
4127400,21
4128028,18
4128648,17
4129276,18
4129908,28
4130528,27
4131156,22
4131780,24
4132404,30
4133036,32
4133656,34
4134284,39
4134908,36
4135536,31
4136164,18
4136788,13
4137420,15
4138048,43
4138664,61
4139292,63
4139916,60
4140544,57
4141176,47
4141792,41
4142424,17
4143048,15
4143672,15
4144300,15
4144920,17
4145548,19
4146172,26
4146800,21
4147428,17
4148052,13
4148680,18
4149312,24
4149928,25
4150556,14
4151180,10
4151812,12
4152440,18
4153064,33
4153692,22
4154316,19
4154940,17
4155568,16
4156192,22
4156820,34
4157452,60
4158072,87
4158700,93
4159324,69
4159956,46
4160588,22
4161204,11
4161836,15
4162456,26
4163080,39
4163708,47
4164328,39
4164956,30
4165580,15
4166204,18
4166832,20
4167448,12
4168080,16
4168700,32
4169328,43
4169956,42
4170580,24
4171208,16
4171836,26
4172456,36
4173084,51
4173708,58
4174340,47
4174968,39
4175584,29
4176216,25
4176840,21
4177460,12
4178092,10
4178708,16
4179340,15
4179964,16
4180584,15
4181212,17
4181836,14
4182468,17
4183096,23
4183712,28
4184344,33
4184968,42
4185596,41
4186224,34
4186848,21
4187476,19
4188100,26
4188724,21
4189352,19
4189976,22
4190604,26
4191228,43
4191856,56
4192488,49
4193108,47
4193740,37
4194368,16
4194992,12
4195620,15
4196244,16
4196868,19
4197500,23
4198120,26
4198748,19
4199372,16
4199996,17
4200624,20
4201248,27
4201876,38
4202504,40
4203128,37
4203756,27
4204380,17
4205008,15
4205640,17
4206256,25
4206884,45
4207508,49
4208136,55
4208764,50
4209384,55
4210012,41
4210636,25
4211260,24
4211888,27
4212508,18
4213136,16
4213764,16
4214384,16
4215012,10
4215636,11
4216268,13
4216900,15
4217520,21
4218152,29
4218776,40
4219400,47
4220028,35
4220648,20
4221276,17
4221900,26
4222524,30
4223156,28
4223776,28
4224408,30
4225036,32
4225656,27
4226284,22
4226908,22
4227536,19
4228164,10
4228784,15
4229412,15
4230036,18
4230664,23
4231292,26
4231912,29
4232540,16
4233164,11
4233788,10
4234420,20
4235040,47
4235668,55
4236300,52
4236920,45
4237548,28
4238172,17
4238804,36
4239432,32
4240056,25
4240684,43
4241308,54
4241928,64
4242560,65
4243176,62
4243808,53
4244432,41
4245056,31
4245684,16
4246304,20
4246932,29
4247564,26
4248184,16
4248812,16
4249436,25
4250068,28
4250696,19
4251320,28
4251948,49
4252572,66
4253196,43
4253828,14
4254448,30
4255076,25
4255700,23
4256328,31
4256956,42
4257576,48
4258204,35
4258836,18
4259456,17
4260084,33
4260708,34
4261336,35
4261968,41
4262584,30
4263212,23
4263836,16
4264460,21
4265088,24
4265704,25
4266336,20
4266956,15
4267580,13
4268212,12
4268832,15
4269460,14
4270088,19
4270712,26
4271340,25
4271964,20
4272596,23
4273228,35
4273848,30
4274476,23
4275100,11
4275728,41
4276356,30
4276976,20
4277604,15
4278228,11
4278852,15
4279484,14
4280104,16
4280732,16
4281364,16
4281984,16
4282612,11
4283236,11
4283864,20
4284496,23
4285112,31
4285744,33
4286368,28
4286992,21
4287620,16
4288240,15
4288868,15
4289492,16
4290116,14
4290744,24
4291368,43
4291996,46
4292628,35
4293248,20
4293876,10
4294500,11
4295132,28
4295760,24
4296384,17
4297012,24
4297636,25
4298264,13
4298892,10
4299512,13
4300144,12
4300768,18
4301392,11
4302024,11
4302640,11
4303268,17
4303900,22
4304520,20
4305148,20
4305772,25
4306404,17
4307032,13
4307652,23
4308280,25
4308904,18
4309528,30
4310156,34
4310776,20
4311404,11
4312028,15
4312652,15
4313284,27
4313904,33
4314532,29
4315164,32
4315784,34
4316416,25
4317040,15
4317668,10
4318300,12
4318920,15
4319552,11
4320176,17
4320800,24
4321428,25
4322048,30
4322676,32
4323300,35
4323924,36
4324552,38
4325176,41
4325804,37
4326436,23
4327056,13
4327684,12
4328308,15
4328936,15
4329568,15
4330184,18
4330816,19
4331440,23
4332064,35
4332692,39
4333312,33
4333944,25
4334568,19
4335192,17
4335820,16
4336440,12
4337068,17
4337700,14
4338320,19
4338952,20
4339576,26
4340204,37
4340836,32
4341456,22
4342088,37
4342708,38
4343332,37
4343964,46
4344584,53
4345212,55
4345840,37
4346464,15
4347092,40
4347716,40
4348348,31
4348976,19
4349600,18
4350228,29
4350856,43
4351484,51
4352116,48
4352736,40
4353364,27
4353988,16
4354608,22
4355240,26
4355856,29
4356484,37
4357108,40
4357732,46
4358364,37
4358988,26
4359616,20
4360244,10
4360864,18
4361492,26
4362116,23
4362748,20
4363376,21
4363996,17
4364624,12
4365248,11
4365872,15
4366500,24
4367120,27
4367748,31
4368376,18
4368996,11
4369628,11
4370252,25
4370880,28
4371508,30
4372128,38
4372760,39
4373380,44
4374012,42
4374644,32
4375264,20
4375892,11
4376520,12
4377144,16
4377772,12
4378392,17
4379020,19
4379648,20
4380272,23
4380900,23
4381524,21
4382156,28
4382788,38
4383408,29
4384036,14
4384660,11
4385284,13
4385916,22
4386536,39
4387168,45
4387792,44
4388416,33
4389044,23
4389664,22
4390292,21
4390924,26
4391544,35
4392176,32
4392800,20
4393428,12
4394060,12
4394680,13
4395312,17
4395936,15
4396560,16
4397192,19
4397808,19
4398440,17
4399064,17
4399688,18
4400320,15
4400936,22
4401564,35
4402196,43
4402816,47
4403448,32
4404068,16
4404700,19
4405328,25
4405948,19
4406576,12
4407200,21
4407824,39
4408452,50
4409072,44
4409700,39
4410324,29
4410948,20
4411580,18
4412200,19
4412828,17
4413460,16
4414080,18
4414708,13
4415336,13
4415964,14
4416596,11
4417216,12
4417844,11
4418468,20
4419092,31
4419724,24
4420344,18
4420972,15
4421600,17
4422224,21
4422852,25
4423472,32
4424104,32
4424732,31
4425352,28
4425980,21
4426604,17
4427236,11
4427864,11
4428484,15
4429112,16
4429736,17
4430360,18
4430988,16
4431608,10
4432236,14
4432860,13
4433484,10
4434116,18
4434736,27
4435364,27
4435996,26
4436616,27
4437244,16
4437868,19
4438500,24
4439132,22
4439752,25
4440384,27
4441008,24
4441632,19
4442260,15
4442880,15
4443508,11
4444136,11
4444760,16
4445388,19
4446008,15
4446636,17
4447268,20
4447888,20
4448520,14
4449144,11
4449772,11
4450404,10
4451024,11
4451656,29
4452280,34
4452904,27
4453536,23
4454152,17
4454784,15
4455408,16
4456032,25
4456664,40
4457288,46
4457916,34
4458548,24
4459168,27
4459800,26
4460424,23
4461056,16
4461684,16
4462304,16
4462936,30
4463560,41
4464184,48
4464816,52
4465432,22
4466064,12
4466688,21
4467312,19
4467940,11
4468568,35
4469196,48
4469828,48
4470448,53
4471076,44
4471704,29
4472328,17
4472956,27
4473576,53
4474208,67
4474836,59
4475460,39
4476092,38
4476712,50
4477344,67
4477976,77
4478596,88
4479224,81
4479852,62
4480484,47
4481112,35
4481732,53
4482360,39
4482984,19
4483608,11
4484236,12
4484856,29
4485484,35
4486108,55
4486732,74
4487360,44
4487984,27
4488612,28
4489244,21
4489864,11
4490492,19
4491116,28
4491748,20
4492380,10
4493000,11
4493628,10
4494252,15
4494876,17
4495508,18
4496128,20
4496756,22
4497380,25
4498004,20
4498636,18
4499256,15
4499884,11
4500516,11
4501136,34
4501768,53
4502392,48
4503024,29
4503652,15
4504272,28
4504904,36
4505528,34
4506152,48
4506784,51
4507400,51
4508028,44
4508652,37
4509276,31
4509904,22
4510528,11
4511156,13
4511788,16
4512408,20
4513036,18
4513660,20
4514292,23
4514920,31
4515536,27
4516168,31
4516792,47
4517416,51
4518044,38
4518664,26
4519292,21
4519916,20
4520540,27
4521172,69
4521796,88
4522424,85
4523056,84
4523672,69
4524304,49
4524928,35
4525556,21
4526188,12
4526808,11
4527436,11
4528060,11
4528684,15
4529312,15
4529936,15
4530564,15
4531188,13
4531816,16
4532444,11
4533068,15
4533700,24
4534332,32
4534952,47
4535584,51
4536208,46
4536836,31
4537468,24
4538088,15
4538716,19
4539344,21
4539968,34
4540596,48
4541216,48
4541848,37
4542476,23
4543096,12
4543728,12
4544352,11
4544980,18
4545612,16
4546232,16
4546864,17
4547488,25
4548112,14
4548740,10
4549360,12
4549988,11
4550616,13
4551240,13
4551868,19
4552488,15
4553116,14
4553748,14
4554368,20
4555000,19
4555624,17
4556256,11
4556884,13
4557504,20
4558132,17
4558756,11
4559384,11
4560012,10
4560632,17
4561260,24
4561884,15
4562508,18
4563140,26
4563760,42
4564388,37
4565020,20
4565640,20
4566272,28
4566896,40
4567528,13
4568156,13
4568776,14
4569408,20
4570032,20
4570656,17
4571284,19
4571904,23
4572536,15
4573160,15
4573784,36
4574416,53
4575032,58
4575664,62
4576296,69
4576912,71
4577544,67
4578168,55
4578800,37
4579428,16
4580048,21
4580676,25
4581304,25
4581928,26
4582560,34
4583176,35
4583808,37
4584432,31
4585056,25
4585688,31
4586312,33
4586940,28
4587572,17
4588192,17
4588820,31
4589444,36
4590076,38
4590704,42
4591328,39
4591960,25
4592584,16
4593208,11
4593836,11
4594456,16
4595084,17
4595716,20
4596336,21
4596964,17
4597588,17
4598220,23
4598852,23
4599472,21
4600104,11
4600728,21
4601352,38
4601984,51
4602600,43
4603232,25
4603856,16
4604480,23
4605108,32
4605728,34
4606360,37
4606992,52
4607612,59
4608244,44
4608864,25
4609492,16
4610120,11
4610736,11
4611368,11
4611992,15
4612616,21
4613244,24
4613864,24
4614492,19
4615116,20
4615740,21
4616368,15
4616992,16
4617620,14
4618252,16
4618872,19
4619500,12
4620124,17
4620756,22
4621388,22
4622008,21
4622636,23
4623260,30
4623888,35
4624516,29
4625136,21
4625764,20
4626388,23
4627012,17
4627644,15
4628264,15
4628892,15
4629524,14
4630144,15
4630772,17
4631396,21
4632028,20
4632660,16
4633280,11
4633908,13
4634536,18
4635160,21
4635788,29
4636408,33
4637036,17
4637664,15
4638288,15
4638916,16
4639536,15
4640168,22
4640796,23
4641416,16
4642044,12
4642668,48
4643296,48
4643928,33
4644544,34
4645176,39
4645800,25
4646424,17
4647052,26
4647672,45
4648300,35
4648928,27
4649552,15
4650180,11
4650800,11
4651428,12
4652060,14
4652680,13
4653308,17
4653936,16
4654564,15
4655196,16
4655816,22
4656448,32
4657072,48
4657696,61
4658324,58
4658944,45
4659576,24
4660200,11
4660820,14
4661452,17
4662072,23
4662700,25
4663332,30
4663952,33
4664584,24
4665208,14
4665836,11
4666468,10
4667088,13
4667716,17
4668344,21
4668968,26
4669596,28
4670216,21
4670844,17
4671472,18
4672096,27
4672724,35
4673348,36
4673976,39
4674608,28
4675224,26
4675852,26
4676476,19
4677108,13
4677740,10
4678360,15
4678992,16
4679616,17
4680240,22
4680868,31
4681488,19
4682116,11
4682744,11
4683368,15
4683996,23
4684624,33
4685252,39
4685884,36
4686504,23
4687132,18
4687760,20
4688388,23
4689020,22
4689640,30
4690268,37
4690892,40
4691516,32
4692148,30
4692768,16
4693396,23
4694028,51
4694648,64
4695280,70
4695904,40
4696532,16
4697164,22
4697784,29
4698412,17
4699040,11
4699664,15
4700296,18
4700912,22
4701544,42
4702168,52
4702792,43
4703424,48
4704040,63
4704672,74
4705304,61
4705920,43
4706548,47
4707176,34
4707808,33
4708440,28
4709056,26
4709688,23
4710316,11
4710940,13
4711572,19
4712192,18
4712820,16
4713444,17
4714068,22
4714700,26
4715320,24
4715952,16
4716580,16
4717200,28
4717828,39
4718456,45
4719084,48
4719716,40
4720336,22
4720964,16
4721588,16
4722212,16
4722844,22
4723464,33
4724092,41
4724716,39
4725344,22
4725972,16
4726596,12
4727228,11
4727860,10
4728480,15
4729108,15
4729736,16
4730368,20
4730996,22
4731616,22
4732248,20
4732872,14
4733496,9
4734076,10
4734700,18
4735332,21
4735960,20
4736584,17
4737216,16
4737832,24
4738464,31
4739092,26
4739712,29
4740344,29
4740968,32
4741600,32
4742228,26
4742848,24
4743476,12
4744104,11
4744728,14
4745356,16
4745976,20
4746608,21
4747232,19
4747856,11
4748488,11
4749104,13
4749736,11
4750364,13
4750984,21
4751616,24
4752240,20
4752872,13
4753500,16
4754120,17
4754748,21
4755376,25
4756000,24
4756628,22
4757248,19
4757876,19
4758504,13
4759128,14
4759760,17
4760376,15
4761008,10
4761640,16
4762256,29
4762884,25
4763508,19
4764140,23
4764772,14
4765392,12
4766024,14
4766648,21
4767272,24
4767904,34
4768524,41
4769152,42
4769776,30
4770400,20
4771032,17
4771656,16
4772288,29
4772916,11
4773536,41
4774168,73
4774792,78
4775424,60
4776052,51
4776672,43
4777304,29
4777928,32
4778552,40
4779184,26
4779804,19
4780436,18
4781064,12
4781688,21
4782320,19
4782944,17
4783576,18
4784208,11
4784824,19
4785452,19
4786080,14
4786704,17
4787336,15
4787952,15
4788584,19
4789212,25
4789836,29
4790468,31
4791088,31
4791720,24
4792352,14
4792968,10
4793600,14
4794224,18
4794856,18
4795488,15
4796104,16
4796736,16
4797364,16
4797988,12
4798620,10
4799240,10
4799872,10
4800500,15
4801124,27
4801752,30
4802376,27
4803008,24
4803636,16
4804256,17
4804884,16
4805508,16
4806140,18
4806772,21
4807392,20
4808020,23
4808644,21
4809268,17
4809900,13
4810520,18
4811148,23
4811780,15
4812400,21
4813032,23
4813652,17
4814284,25
4814912,17
4815532,11
4816160,13
4816784,12
4817412,27
4818044,62
4818664,88
4819292,58
4819916,25
4820540,15
4821172,16
4821792,17
4822424,30
4823052,44
4823672,49
4824304,37
4824928,24
4825556,16
4826188,19
4826808,13
4827436,10
4828064,15
4828688,17
4829316,17
4829936,26
4830568,29
4831192,24
4831816,18
4832448,15
4833064,12
4833696,11
4834324,31
4834944,54
4835576,47
4836200,22
4836828,16
4837460,28
4838080,37
4838712,46
4839332,45
4839960,47
4840588,57
4841208,53
4841836,33
4842464,22
4843088,11
4843716,19
4844336,21
4844964,17
4845596,22
4846216,20
4846844,16
4847472,15
4848100,16
4848732,26
4849352,24
4849984,13
4850608,10
4851232,15
4851860,19
4852480,12
4853108,17
4853736,25
4854360,29
4854992,30
4855608,26
4856240,24
4856872,18
4857488,19
4858120,15
4858744,11
4859376,15
4860004,27
4860624,31
4861256,26
4861880,20
4862504,19
4863136,16
4863756,15
4864388,29
4865012,41
4865636,38
4866264,32
4866888,13
4867516,13
4868148,11
4868768,14
4869400,11
4870024,21
4870652,42
4871284,40
4871904,26
4872536,19
4873160,36
4873784,55
4874416,60
4875032,63
4875664,48
4876292,35
4876912,25
4877540,21
4878164,18
4878796,15
4879428,14
4880048,16
4880676,17
4881300,15
4881928,17
4882556,16
4883176,16
4883808,21
4884432,29
4885056,37
4885684,29
4886304,27
4886936,17
4887564,32
4888184,29
4888812,32
4889440,36
4890068,42
4890700,36
4891320,15
4891952,19
4892576,15
4893200,14
4893832,21
4894448,18
4895080,15
4895704,16
4896328,16
4896956,16
4897576,15
4898208,15
4898836,16
4899456,19
4900088,11
4900712,18
4901344,28
4901972,21
4902592,19
4903224,27
4903848,27
4904472,25
4905104,15
4905720,22
4906352,47
4906976,60
4907600,58
4908232,41
4908852,24
4909480,20
4910112,15
4910728,11
4911360,16
4911988,15
4912620,17
4913252,19
4913872,18
4914504,16
4915132,20
4915760,21
4916388,19
4917008,21
4917636,40
4918260,52
4918884,50
4919516,45
4920140,26
4920768,18
4921396,30
4922016,28
4922644,22
4923268,21
4923900,24
4924528,21
4925148,38
4925776,53
4926400,59
4927024,53
4927652,32
4928272,31
4928900,28
4929524,17
4930148,15
4930776,12
4931400,10
4932032,11
4932660,12
4933280,12
4933908,19
4934532,35
4935164,26
4935796,19
4936416,21
4937044,17
4937668,16
4938292,16
4938920,17
4939544,32
4940172,34
4940800,30
4941424,23
4942052,16
4942676,16
4943308,11
4943936,14
4944560,16
4945188,16
4945812,23
4946440,16
4947068,16
4947688,11
4948316,12
4948940,14
4949564,11
4950196,15
4950816,28
4951448,36
4952076,36
4952696,35
4953328,17
4953952,22
4954580,25
4955212,28
4955832,28
4956464,41
4957088,48
4957712,39
4958344,24
4958960,11
4959592,15
4960216,25
4960840,21
4961468,17
4962088,17
4962716,35
4963348,30
4963968,21
4964596,14
4965224,11
4965852,10
4966484,16
4967104,35
4967732,45
4968356,30
4968980,19
4969608,16
4970232,19
4970860,17
4971484,20
4972112,17
4972740,15
4973360,19
4973988,11
4974620,10
4975240,11
4975872,17
4976496,21
4977124,17
4977756,16
4978376,17
4979008,19
4979632,17
4980256,17
4980884,19
4981504,19
4982136,15
4982760,12
4983384,13
4984012,16
4984632,30
4985264,27
4985892,12
4986512,15
4987144,16
4987768,17
4988400,23
4989028,25
4989648,37
4990280,42
4990904,41
4991528,34
4992160,32
4992776,21
4993404,10
4994028,13
4994652,16
4995284,16
4995908,16
4996536,15
4997168,16
4997784,17
4998416,25
4999040,19
4999668,11
5000300,22
5000920,30
5001548,36
5002176,42
5002800,32
5003428,16
5004048,27
5004676,25
5005304,16
5005928,25
5006556,20
5007184,16
5007812,26
5008444,25
5009064,23
5009692,13
5010320,10
5010948,10
5011580,14
5012200,17
5012832,17
5013456,25
5014080,25
5014712,16
5015328,10
5015960,11
5016592,11
5017212,12
5017844,11
5018464,16
5019096,16
5019724,17
5020344,15
5020972,16
5021596,21
5022224,28
5022852,28
5023472,25
5024104,14
5024728,11
5025352,11
5025980,12
5026600,24
5027228,24
5027860,18
5028480,17
5029108,15
5029736,17
5030368,29
5031000,68
5031616,68
5032248,66
5032872,77
5033496,65
5034128,26
5034744,24
5035376,68
5036004,85
5036628,45
5037260,19
5037880,15
5038512,16
5039144,20
5039764,31
5040396,31
5041020,21
5041648,16
5042280,20
5042900,14
5043528,11
5044152,12
5044780,27
5045408,21
5046032,19
5046664,23
5047288,21
5047912,11
5048544,16
5049168,16
5049800,16
5050428,36
5051048,53
5051680,51
5052304,41
5052936,24
5053564,15
5054184,19
5054816,19
5055440,20
5056064,24
5056692,26
5057312,44
5057944,51
5058572,47
5059192,38
5059824,26
5060448,31
5061080,33
5061708,16
5062328,15
5062960,17
5063584,22
5064208,23
5064840,27
5065460,29
5066088,34
5066716,33
5067340,33
5067972,33
5068592,35
5069228,30
5069856,16
5070476,25
5071108,41
5071732,53
5072364,55
5072996,56
5073616,55
5074248,55
5074872,35
5075496,17
5076128,9
5076696,10
5077328,18
5077952,29
5078576,35
5079208,25
5079832,18
5080464,19
5081092,18
5081712,16
5082340,11
5082968,10
5083596,21
5084228,36
5084848,38
5085476,35
5086104,21
5086728,24
5087360,36
5087976,44
5088608,48
5089236,59
5089860,57
5090492,48
5091112,39
5091744,23
5092376,12
5092996,11
5093624,15
5094252,16
5094884,22
5095516,26
5096136,37
5096768,42
5097392,30
5098016,13
5098648,15
5099268,21
5099900,17
5100524,11
5101152,11
5101784,20
5102408,29
5103040,19
5103672,16
5104292,17
5104920,27
5105548,42
5106180,51
5106812,50
5107432,50
5108064,40
5108692,37
5109316,43
5109948,34
5110568,23
5111200,17
5111832,18
5112452,28
5113084,30
5113708,21
5114340,18
5114972,14
5115592,11
5116228,11
5116852,16
5117480,31
5118112,25
5118732,11
5119364,15
5119992,15
5120620,15
5121248,20
5121868,36
5122500,38
5123128,30
5123744,14
5124376,33
5124996,51
5125628,49
5126256,35
5126872,37
5127504,33
5128128,19
5128748,16
5129380,30
5130000,29
5130628,26
5131252,22
5131876,24
5132504,21
5133128,15
5133756,16
5134388,22
5135008,24
5135636,12
5136260,26
5136892,30
5137520,28
5138136,27
5138768,34
5139392,49
5140016,53
5140644,48
5141264,29
5141892,17
5142516,16
5143140,13
5143768,10
5144392,15
5145024,17
5145652,20
5146272,21
5146900,24
5147524,20
5148152,15
5148784,18
5149400,13
5150028,10
5150656,20
5151280,36
5151908,32
5152528,21
5153156,15
5153780,22
5154404,28
5155036,34
5155660,42
5156292,51
5156920,54
5157540,40
5158168,30
5158796,21
5159424,11
5160056,11
5160672,11
5161300,16
5161924,16
5162548,15
5163180,15
5163800,18
5164428,16
5165052,16
5165680,16
5166308,11
5166932,23
5167564,35
5168196,46
5168816,54
5169444,59
5170068,47
5170696,23
5171324,16
5171944,15
5172572,22
5173196,41
5173820,49
5174448,33
5175072,14
5175700,25
5176332,39
5176952,44
5177580,44
5178208,47
5178836,57
5179468,59
5180088,49
5180716,23
5181344,12
5181968,22
5182596,22
5183216,25
5183848,33
5184472,43
5185096,40
5185724,32
5186344,26
5186972,21
5187604,18
5188224,15
5188852,15
5189476,16
5190108,24
5190740,23
5191360,19
5191988,23
5192616,46
5193240,27
5193868,16
5194488,17
5195116,16
5195744,16
5196368,18
5197000,16
5197616,13
5198244,17
5198876,22
5199496,43
5200128,77
5200752,89
5201380,62
5202012,31
5202632,13
5203260,38
5203884,74
5204508,87
5205136,86
5205752,71
5206384,49
5207008,37
5207636,43
5208264,37
5208884,46
5209512,38
5210144,25
5210760,15
5211388,15
5212016,16
5212644,17
5213276,26
5213896,29
5214528,25
5215152,26
5215776,20
5216408,18
5217024,30
5217656,45
5218280,40
5218904,31
5219532,24
5220152,17
5220784,16
5221412,15
5222032,15
5222664,23
5223288,32
5223916,28
5224548,27
5225168,32
5225796,32
5226420,24
5227044,15
5227676,14
5228296,17
5228924,16
5229548,16
5230176,16
5230804,19
5231428,17
5232060,14
5232688,14
5233312,11
5233940,12
5234568,24
5235196,29
5235828,24
5236448,24
5237080,19
5237704,19
5238328,21
5238960,25
5239576,36
5240208,48
5240840,51
5241460,46
5242088,35
5242712,19
5243344,11
5243972,10
5244592,15
5245220,15
5245844,16
5246468,15
5247100,16
5247720,15
5248348,16
5248972,18
5249592,21
5250224,23
5250840,34
5251468,42
5252092,42
5252720,38
5253348,24
5253972,21
5254600,25
5255228,19
5255848,30
5256476,78
5257100,82
5257728,72
5258356,52
5258976,55
5259604,44
5260228,24
5260852,14
5261480,23
5262096,15
5262724,17
5263348,15
5263972,11
5264604,14
5265224,16
5265856,11
5266484,10
5267104,15
5267732,18
5268356,19
5268988,24
5269616,27
5270232,21
5270864,20
5271488,17
5272112,15
5272740,18
5273360,39
5273992,44
5274612,31
5275236,15
5275864,12
5276488,19
5277120,18
5277748,22
5278368,24
5278996,25
5279624,24
5280252,15
5280880,18
5281504,23
5282132,28
5282756,39
5283380,30
5284008,13
5284624,16
5285252,15
5285876,12
5286500,27
5287128,24
5287748,18
5288380,18
5289008,20
5289624,25
5290252,28
5290876,26
5291504,16
5292136,12
5292752,11
5293384,15
5294008,14
5294632,15
5295260,15
5295880,26
5296508,19
5297132,13
5297756,11
5298388,14
5299012,19
5299644,31
5300272,41
5300888,39
5301520,32
5302144,24
5302772,19
5303404,14
5304024,18
5304652,22
5305276,23
5305900,11
5306532,26
5307152,45
5307780,60
5308408,61
5309032,41
5309660,14
5310284,10
5310916,22
5311544,24
5312168,26
5312796,27
5313420,25
5314052,11
5314680,12
5315300,13
5315928,10
5316552,11
5317176,15
5317804,20
5318424,11
5319052,15
5319676,27
5320304,33
5320936,35
5321560,33
5322188,20
5322820,12
5323440,17
5324072,19
5324696,23
5325320,26
5325948,18
5326568,15
5327196,14
5327820,16
5328444,16
5329072,21
5329688,33
5330320,41
5330940,34
5331568,17
5332196,11
5332820,11
5333448,11
5334076,19
5334696,30
5335324,41
5335948,34
5336580,17
5337208,15
5337828,16
5338456,21
5339080,35
5339704,41
5340332,44
5340952,39
5341580,21
5342204,10
5342832,26
5343460,44
5344084,41
5344716,28
5345344,21
5345960,16
5346592,29
5347216,63
5347844,86
5348472,63
5349092,27
5349720,14
5350344,19
5350968,19
5351596,14
5352216,11
5352844,17
5353468,16
5354096,16
5354724,24
5355348,26
5355980,35
5356612,46
5357232,48
5357860,53
5358488,42
5359108,21
5359740,10
5360360,11
5360988,17
5361612,18
5362236,16
5362868,18
5363488,24
5364116,19
5364748,12
5365368,16
5365996,11
5366620,13
5367252,31
5367880,41
5368500,41
5369128,20
5369752,17
5370376,17
5371004,15
5371624,16
5372252,11
5372876,21
5373500,41
5374132,54
5374752,56
5375384,46
5376012,24
5376628,11
5377260,15
5377880,15
5378512,15
5379140,15
5379760,17
5380388,20
5381012,17
5381640,13
5382268,16
5382888,19
5383516,24
5384140,26
5384764,21
5385396,20
5386016,25
5386644,21
5387276,22
5387896,23
5388524,16
5389148,16
5389780,18
5390408,21
5391024,20
5391656,25
5392280,28
5392904,20
5393532,21
5394152,27
5394780,44
5395408,46
5396032,40
5396660,32
5397280,32
5397908,35
5398540,20
5399160,11
5399792,19
5400416,31
5401044,40
5401676,40
5402296,32
5402924,24
5403548,24
5404172,17
5404804,15
5405424,18
5406052,22
5406680,32
5407304,41
5407932,33
5408552,29
5409180,21
5409812,10
5410432,12
5411060,20
5411684,19
5412316,17
5412944,16
5413568,25
5414196,28
5414824,27
5415444,13
5416076,19
5416696,15
5417324,12
5417948,16
5418572,17
5419204,20
5419824,22
5420452,40
5421084,40
5421704,24
5422332,11
5422960,12
5423588,11
5424220,13
5424840,13
5425468,16
5426092,15
5426716,25
5427348,32
5427968,18
5428596,16
5429220,17
5429844,16
5430472,13
5431096,20
5431724,16
5432356,25
5432976,31
5433604,31
5434228,24
5434860,15
5435488,10
5436112,16
5436744,14
5437368,22
5437992,18
5438624,15
5439240,16
5439872,27
5440496,32
5441120,37
5441748,33
5442372,25
5443000,13
5443628,28
5444248,27
5444876,29
5445500,28
5446132,28
5446760,22
5447376,15
5448008,18
5448628,24
5449252,16
5449884,10
5450504,14
5451132,11
5451756,11
5452380,11
5453012,19
5453636,23
5454264,32
5454892,26
5455512,24
5456140,20
5456764,18
5457396,18
5458024,19
5458648,19
5459276,11
5459900,10
5460524,11
5461152,18
5461772,22
5462400,19
5463024,19
5463648,15
5464276,12
5464900,13
5465532,21
5466164,31
5466784,37
5467416,40
5468040,33
5468668,21
5469300,18
5469920,17
5470548,17
5471176,17
5471800,19
5472428,33
5473048,48
5473676,46
5474300,43
5474928,40
5475556,43
5476184,37
5476812,33
5477444,37
5478064,45
5478696,39
5479320,26
5479944,17
5480572,12
5481192,12
5481820,12
5482444,16
5483068,29
5483700,12
5484320,17
5484948,30
5485580,36
5486200,39
5486832,50
5487456,69
5488084,65
5488716,31
5489336,12
5489964,16
5490588,16
5491212,11
5491840,24
5492464,45
5493092,48
5493720,68
5494344,83
5494972,68
5495592,41
5496224,17
5496852,26
5497472,45
5498104,40
5498728,34
5499356,35
5499988,32
5500608,33
5501240,35
5501864,35
5502488,33
5503120,22
5503736,17
5504368,21
5504992,34
5505616,37
5506248,48
5506864,58
5507492,59
5508124,40
5508744,50
5509376,44
5510000,34
5510628,32
5511260,22
5511880,15
5512512,17
5513136,17
5513760,14
5514388,17
5515008,27
5515640,39
5516264,41
5516888,32
5517516,30
5518136,22
5518768,13
5519396,17
5520016,16
5520644,17
5521268,19
5521900,24
5522532,36
5523152,45
5523784,41
5524408,35
5525032,31
5525664,17
5526280,14
5526912,13
5527536,16
5528160,16
5528792,16
5529416,16
5530048,15
5530676,10
5531296,12
5531924,12
5532548,11
5533180,17
5533812,34
5534432,31
5535060,21
5535684,15
5536312,14
5536940,15
5537560,17
5538188,15
5538812,14
5539440,19
5540068,21
5540692,16
5541324,15
5541956,20
5542576,20
5543204,11
5543828,13
5544456,27
5545084,32
5545704,34
5546332,26
5546956,51
5547584,71
5548212,41
5548832,11
5549460,25
5550092,42
5550712,56
5551344,53
5551968,52
5552600,23
5553232,17
5553848,23
5554480,25
5555104,26
5555728,34
5556360,42
5556980,30
5557608,10
5558232,11
5558860,28
5559492,25
5560112,21
5560744,19
5561376,15
5561992,19
5562624,26
5563248,37
5563880,32
5564508,20
5565128,15
5565760,14
5566384,15
5567008,16
5567640,14
5568260,12
5568892,17
5569516,33
5570140,27
5570772,20
5571396,19
5572028,21
5572656,28
5573276,31
5573904,41
5574528,36
5575156,26
5575788,18
5576408,11
5577036,10
5577660,15
5578284,15
5578916,16
5579536,17
5580168,17
5580792,19
5581416,25
5582044,36
5582672,29
5583300,24
5583932,37
5584552,43
5585180,31
5585808,19
5586436,22
5587068,30
5587688,32
5588316,26
5588944,33
5589568,39
5590200,35
5590816,25
5591448,21
5592076,12
5592696,11
5593328,11
5593952,13
5594580,17
5595212,24
5595832,24
5596464,18
5597088,12
5597712,12
5598344,13
5598964,11
5599592,13
5600220,11
5600844,31
5601472,43
5602092,39
5602720,27
5603348,15
5603968,18
5604596,34
5605220,41
5605852,44
5606484,47
5607104,43
5607732,36
5608356,29
5608980,28
5609612,10
5610232,17
5610864,21
5611488,22
5612112,25
5612740,16
5613360,17
5613988,13
5614620,18
5615240,15
5615872,14
5616496,24
5617124,25
5617756,25
5618376,20
5619008,25
5619632,23
5620256,16
5620884,18
5621504,25
5622136,34
5622760,49
5623384,64
5624012,68
5624632,57
5625264,49
5625892,31
5626512,18
5627144,12
5627768,21
5628400,38
5629028,41
5629648,35
5630280,25
5630904,23
5631528,16
5632160,10
5632776,15
5633404,12
5634028,17
5634652,28
5635280,27
5635896,22
5636524,16
5637156,17
5637776,21
5638404,25
5639028,33
5639656,39
5640288,42
5640904,39
5641536,31
5642160,19
5642784,17
5643412,16
5644032,19
5644660,17
5645284,31
5645908,41
5646540,36
5647160,32
5647792,19
5648420,13
5649040,10
5649668,43
5650292,75
5650924,81
5651556,64
5652176,46
5652804,21
5653428,16
5654052,16
5654684,17
5655304,25
5655932,27
5656560,39
5657184,39
5657812,22
5658436,16
5659064,13
5659696,16
5660312,20
5660944,15
5661568,18
5662196,21
5662828,18
5663448,16
5664076,11
5664700,16
5665324,11
5665956,11
5666576,13
5667204,24
5667828,32
5668452,19
5669084,16
5669708,23
5670340,25
5670972,24
5671592,28
5672224,35
5672848,34
5673476,25
5674108,14
5674728,11
5675360,10
5675984,10
5676608,11
5677240,12
5677856,20
5678488,16
5679116,14
5679736,18
5680368,19
5680992,10
5681620,13
5682252,16
5682872,14
5683504,11
5684128,24
5684752,28
5685380,20
5686000,16
5686628,16
5687252,16
5687876,16
5688508,28
5689128,45
5689756,51
5690388,50
5691008,38
5691640,26
5692264,22
5692892,15
5693524,14
5694144,16
5694772,17
5695400,16
5696024,17
5696652,24
5697272,33
5697900,41
5698524,33
5699152,27
5699780,24
5700400,27
5701028,39
5701660,37
5702280,35
5702912,24
5703536,15
5704168,25
5704796,34
5705416,47
5706048,62
5706672,73
5707296,63
5707928,50
5708544,46
5709176,38
5709800,25
5710424,14
5711052,18
5711672,19
5712304,20
5712936,15
5713556,22
5714188,29
5714812,40
5715444,22
5716072,12
5716696,11
5717328,17
5717952,11
5718576,13
5719208,22
5719824,21
5720456,39
5721080,28
5721704,17
5722336,31
5722960,38
5723592,35
5724220,37
5724840,47
5725468,56
5726096,40
5726728,13
5727356,15
5727976,15
5728612,16
5729236,25
5729860,31
5730492,23
5731112,14
5731744,12
5732376,20
5732996,28
5733628,33
5734252,43
5734884,46
5735512,28
5736136,17
5736764,38
5737388,41
5738012,40
5738644,36
5739264,38
5739892,29
5740516,28
5741140,20
5741772,20
5742392,25
5743024,19
5743652,13
5744272,17
5744900,28
5745524,33
5746156,37
5746788,34
5747408,24
5748036,28
5748660,41
5749284,31
5749916,20
5750536,20
5751168,19
5751792,18
5752416,23
5753044,17
5753672,16
5754300,23
5754932,40
5755552,41
5756184,43
5756808,63
5757436,53
5758068,22
5758688,12
5759320,15
5759944,10
5760568,13
5761200,16
5761816,16
5762444,21
5763068,22
5763696,16
5764324,10
5764948,16
5765576,26
5766208,36
5766824,30
5767456,14
5768080,11
5768708,13
5769336,14
5769960,17
5770588,21
5771212,25
5771836,21
5772468,14
5773088,20
5773716,27
5774348,18
5774968,28
5775596,26
5776220,17
5776852,11
5777480,22
5778100,36
5778728,45
5779352,35
5779976,29
5780604,15
5781224,14
5781852,20
5782476,13
5783100,12
5783732,24
5784352,30
5784980,32
5785612,24
5786232,17
5786860,18
5787484,50
5788116,74
5788744,67
5789364,64
5789992,67
5790616,64
5791244,42
5791872,12
5792492,38
5793120,31
5793744,26
5794368,27
5795000,25
5795620,26
5796252,30
5796880,34
5797496,29
5798128,32
5798752,27
5799380,14
5800012,14
5800632,19
5801260,16
5801884,13
5802508,20
5803140,28
5803760,38
5804388,42
5805016,36
5805640,36
5806268,35
5806888,29
5807516,20
5808148,20
5808768,21
5809396,16
5810024,13
5810652,18
5811284,20
5811904,19
5812532,19
5813156,17
5813784,12
5814412,22
5815032,25
5815664,22
5816288,23
5816912,26
5817540,36
5818160,39
5818792,30
5819424,15
5820040,16
5820668,16
5821296,16
5821924,11
5822556,14
5823176,37
5823808,63
5824432,51
5825056,36
5825684,25
5826304,19
5826936,28
5827560,32
5828184,32
5828812,19
5829432,17
5830064,21
5830692,32
5831312,41
5831944,29
5832568,11
5833196,16
5833828,11
5834448,24
5835076,38
5835704,37
5836328,18
5836960,19
5837576,31
5838208,42
5838828,44
5839452,41
5840084,34
5840708,24
5841336,27
5841964,32
5842584,24
5843212,15
5843836,15
5844468,15
5845096,22
5845720,35
5846352,38
5846976,35
5847600,31
5848228,22
5848848,24
5849476,28
5850104,30
5850728,34
5851356,31
5851984,13
5852612,22
5853244,19
5853864,16
5854496,19
5855120,32
5855752,46
5856384,43
5857000,36
5857632,33
5858256,39
5858880,35
5859508,18
5860128,11
5860756,15
5861388,15
5862008,17
5862640,20
5863264,20
5863892,16
5864524,13
5865144,11
5865772,11
5866400,19
5867024,35
5867652,46
5868272,48
5868904,39
5869528,19
5870152,20
5870780,26
5871400,29
5872032,39
5872660,41
5873280,45
5873908,45
5874536,34
5875168,21
5875800,10
5876420,13
5877048,15
5877676,20
5878300,23
5878932,22
5879552,17
5880184,13
5880808,17
5881432,16
5882064,10
5882684,11
5883312,12
5883944,17
5884564,21
5885196,18
5885820,16
5886452,15
5887084,15
5887704,16
5888336,14
5888960,17
5889584,25
5890212,32
5890832,23
5891460,18
5892088,19
5892712,11
5893344,11
5893968,15
5894596,15
5895228,15
5895848,16
5896480,22
5897104,23
5897736,19
5898364,14
5898984,12
5899612,10
5900236,13
5900860,13
5901492,15
5902112,16
5902740,16
5903372,20
5903992,21
5904624,21
5905248,21
5905876,25
5906508,33
5907128,29
5907760,12
5908384,32
5909008,34
5909636,28
5910256,39
5910888,32
5911512,19
5912136,15
5912768,27
5913384,54
5914016,47
5914648,39
5915268,28
5915896,20
5916520,27
5917152,28
5917780,23
5918400,24
5919032,24
5919656,16
5920280,20
5920908,27
5921528,31
5922156,35
5922780,37
5923408,32
5924036,25
5924656,23
5925284,20
5925916,10
5926536,11
5927164,15
5927788,16
5928420,15
5929052,15
5929672,17
5930300,13
5930928,13
5931552,13
5932180,10
5932800,14
5933428,19
5934056,19
5934680,22
5935312,25
5935928,21
5936560,14
5937192,19
5937812,21
5938444,35
5939068,59
5939700,55
5940332,41
5940952,32
5941580,20
5942204,12
5942828,10
5943460,10
5944080,14
5944708,15
5945332,16
5945960,16
5946588,13
5947212,13
5947844,14
5948472,10
5949096,15
5949728,13
5950352,24
5950984,43
5951612,47
5952232,46
5952860,52
5953484,44
5954108,30
5954740,22
5955360,12
5955988,17
5956620,26
5957240,46
5957868,51
5958496,43
5959124,28
5959756,22
5960376,28
5961004,28
5961628,18
5962252,15
5962884,14
5963504,11
5964136,11
5964760,13
5965384,21
5966012,28
5966632,37
5967264,47
5967892,26
5968512,13
5969140,33
5969768,37
5970396,30
5971028,28
5971648,33
5972280,35
5972904,25
5973528,13
5974160,10
5974776,10
5975408,11
5976032,11
5976656,11
5977288,21
5977904,23
5978536,17
5979168,41
5979788,45
5980416,44
5981040,40
5981672,23
5982304,13
5982920,27
5983552,48
5984176,76
5984800,71
5985428,62
5986048,44
5986676,30
5987304,17
5987928,17
5988560,25
5989176,34
5989808,35
5990440,46
5991056,47
5991684,29
5992308,11
5992940,10
5993572,29
5994192,39
5994824,25
5995448,27
5996072,34
5996704,16
5997320,13
5997952,18
5998576,14
5999204,12
5999832,10
6000460,11
6001092,20
6001720,22
6002340,16
6002968,20
6003596,27
6004224,23
6004852,18
6005472,27
6006104,29
6006728,33
6007352,24
6007984,19
6008604,11
6009232,14
6009864,21
6010480,23
6011112,29
6011736,24
6012368,21
6012996,18
6013616,17
6014248,31
6014872,38
6015496,19
6016128,10
6016752,13
6017380,15
6018004,13
6018632,15
6019260,23
6019880,21
6020512,19
6021140,17
6021760,40
6022388,49
6023016,48
6023644,51
6024276,44
6024896,31
6025528,16
6026152,11
6026776,34
6027408,60
6028024,53
6028656,35
6029280,28
6029904,23
6030536,19
6031152,20
6031788,11
6032416,22
6033040,27
6033672,24
6034296,11
6034924,25
6035556,28
6036176,16
6036808,23
6037432,44
6038056,55
6038688,62
6039308,54
6039940,40
6040564,29
6041188,29
6041820,30
6042444,19
6043076,11
6043708,16
6044328,26
6044956,31
6045584,27
6046212,30
6046844,29
6047464,27
6048096,20
6048720,15
6049344,19
6049972,12
6050592,23
6051224,15
6051852,20
6052472,27
6053104,20
6053728,17
6054360,33
6054992,57
6055612,48
6056240,15
6056868,12
6057492,22
6058124,60
6058744,80
6059376,76
6060000,63
6060624,45
6061256,20
6061876,17
6062508,27
6063136,27
6063760,19
6064392,28
6065016,32
6065648,25
6066276,22
6066896,22
6067528,15
6068152,12
6068776,17
6069408,18
6070024,15
6070656,17
6071280,24
6071904,27
6072536,42
6073160,51
6073792,51
6074424,43
6075040,38
6075672,23
6076296,11
6076928,12
6077556,15
6078176,20
6078808,21
6079432,36
6080056,59
6080688,61
6081304,64
6081932,62
6082560,59
6083184,54
6083816,48
6084440,25
6085068,39
6085700,103
6086372,116
6087052,74
6087672,49
6088296,32
6088928,25
6089552,31
6090184,45
6090812,41
6091432,29
6092064,11
6092688,11
6093320,14
6093948,19
6094568,32
6095200,45
6095824,40
6096448,19
6097076,20
6097696,31
6098328,29
6098956,29
6099576,33
6100208,40
6100832,43
6101464,12
6102092,23
6102712,25
6103344,29
6103968,24
6104592,20
6105224,38
6105844,50
6106472,69
6107096,81
6107720,83
6108352,88
6108968,64
6109600,34
6110232,18
6110848,26
6111480,15
6112108,24
6112736,43
6113368,54
6113992,62
6114624,52
6115248,26
6115872,13
6116504,12
6117120,23
6117752,35
6118376,25
6119004,21
6119636,16
6120264,17
6120892,18
6121524,15
6122144,22
6122776,34
6123400,44
6124032,32
6124664,13
6125284,11
6125916,26
6126540,15
6127164,16
6127796,15
6128420,15
6129048,16
6129680,28
6130300,31
6130932,25
6131556,19
6132188,11
6132820,12
6133440,11
6134072,21
6134696,39
6135324,42
6135956,16
6136580,20
6137212,29
6137836,23
6138460,27
6139096,22
6139720,18
6140352,23
6140984,23
6141604,26
6142236,23
6142864,29
6143496,38
6144128,24
6144748,21
6145380,15
6146004,15
6146624,13
6147256,16
6147872,15
6148500,13
6149132,19
6149752,12
6150380,13
6151008,25
6151636,28
6152268,14
6152888,21
6153516,17
6154144,27
6154768,24
6155396,16
6156016,13
6156644,16
6157268,13
6157896,12
6158524,10
6159144,17
6159776,13
6160404,43
6161024,75
6161652,77
6162276,74
6162908,55
6163536,30
6164160,12
6164788,35
6165412,89
6166036,81
6166668,46
6167288,42
6167916,34
6168544,17
6169168,15
6169796,18
6170416,21
6171044,27
6171676,26
6172296,27
6172924,21
6173552,11
6174180,12
6174812,11
6175432,17
6176064,13
6176684,11
6177308,14
6177940,15
6178560,17
6179188,27
6179816,15
6180440,12
6181068,13
6181688,21
6182320,40
6182948,53
6183568,47
6184200,30
6184824,24
6185452,17
6186084,24
6186704,33
6187336,37
6187960,55
6188584,57
6189216,50
6189832,47
6190464,42
6191088,27
6191712,25
6192344,11
6192968,13
6193596,15
6194228,17
6194848,15
6195480,17
6196104,17
6196732,17
6197364,10
6197984,11
6198616,19
6199240,23
6199864,35
6200496,42
6201112,48
6201744,31
6202372,19
6202992,32
6203624,33
6204248,30
6204880,29
6205508,26
6206128,23
6206760,18
6207384,21
6208008,24
6208636,12
6209256,15
6209888,21
6210512,21
6211136,20
6211768,15
6212384,16
6213016,16
6213648,17
6214264,10
6214896,16
6215524,22
6216152,10
6216784,24
6217404,37
6218036,33
6218660,37
6219284,36
6219916,28
6220536,16
6221168,21
6221796,37
6222420,40
6223048,40
6223672,36
6224304,32
6224936,28
6225552,17
6226188,14
6226812,15
6227440,15
6228068,18
6228688,24
6229316,26
6229944,22
6230568,22
6231196,16
6231816,15
6232448,13
6233072,14
6233696,23
6234324,36
6234952,33
6235580,18
6236212,15
6236832,15
6237460,17
6238088,27
6238716,48
6239348,44
6239968,35
6240604,30
6241228,31
6241852,35
6242480,36
6243104,25
6243736,30
6244368,26
6244984,17
6245616,19
6246240,16
6246868,11
6247500,14
6248120,13
6248748,11
6249372,18
6249996,30
6250628,35
6251248,32
6251880,25
6252500,15
6253128,15
6253756,21
6254376,24
6255008,37
6255636,46
6256256,46
6256888,41
6257512,25
6258140,16
6258772,16
6259392,13
6260020,10
6260644,14
6261272,18
6261900,16
6262520,16
