tempo_arduino_micro_s,valor_ADC
500,14
1004,20
1504,15
2000,10
2508,12
3000,14
3508,12
4000,13
4508,17
5000,17
5500,16
6000,13
6500,14
7004,15
7500,12
8000,11
8500,12
9000,16
9500,13
10000,11
10516,10
11036,11
11564,10
12084,10
12612,10
13132,10
13660,11
14180,10
14708,10
15228,10
15756,13
16276,11
16796,10
17316,10
17836,10
18356,10
18876,10
19396,10
19916,10
20436,13
20956,12
21476,11
21996,10
22516,11
23036,10
23564,11
24084,13
24612,15
25132,13
25660,11
26180,10
26708,11
27228,11
27756,10
28276,10
28804,10
29324,10
29852,11
30372,10
30900,10
31420,13
31948,16
32472,11
32996,13
33516,17
34044,19
34564,20
35092,14
35612,10
36140,12
36660,18
37188,14
37708,11
38236,10
38760,14
39284,18
39804,17
40332,15
40852,16
41372,14
41892,11
42412,10
42932,17
43452,21
43972,15
44492,12
45012,11
45532,13
46052,16
46572,16
47092,16
47612,13
48140,12
48660,11
49188,10
49708,17
50236,15
50756,11
51284,10
51804,12
52332,14
52852,11
53380,10
53900,11
54428,12
54948,13
55476,11
55996,10
56524,10
57044,10
57572,12
58096,10
58620,10
59140,10
59668,10
60188,10
60716,10
61240,11
61764,10
62284,10
62812,10
63332,11
63860,12
64384,12
64908,13
65428,11
65948,14
66468,18
66988,19
67508,13
68028,12
68548,10
69068,11
69588,10
70108,10
70628,11
71148,14
71668,14
72192,14
72716,11
73236,10
73764,10
74284,11
74812,11
75332,11
75860,10
76384,13
76908,13
77428,12
77956,14
78476,14
79004,12
79528,10
80052,10
80572,11
81100,11
81620,12
82148,10
82668,10
83196,10
83720,10
84244,11
84764,15
85292,11
85812,10
86340,11
86860,11
87388,10
87908,13
88436,16
88956,15
89484,14
90004,12
90524,12
91044,12
91564,12
92084,10
92604,11
93124,12
93644,13
94164,12
94684,10
95204,11
95724,12
96248,13
96764,11
97292,11
97812,13
98340,13
98860,10
99388,10
99908,10
100436,13
101000,12
101584,12
102156,11
102736,10
103304,11
103880,12
104456,16
105024,19
105600,15
106168,10
106744,11
107312,11
107896,13
108464,19
109040,19
109624,15
110192,12
110768,11
111336,11
111920,11
112492,12
113072,11
113640,11
114216,11
114792,19
115364,18
115944,13
116512,10
117096,11
117664,11
118240,16
118824,16
119392,14
119976,11
120548,11
121128,11
121696,11
122280,11
122848,11
123428,13
124008,14
124576,16
125160,16
125728,15
126312,11
126884,14
127456,10
128040,15
128608,13
129184,13
129752,9
130276,11
130848,13
131432,13
132000,13
132576,10
133152,12
133720,15
134304,15
134872,16
135456,15
136024,13
136608,10
137176,11
137752,11
138336,10
138904,10
139488,12
140056,11
140640,9
141160,11
141736,11
142304,11
142880,11
143464,11
144032,13
144616,10
145184,11
145768,10
146336,15
146912,11
147496,10
148064,11
148648,11
149216,10
149800,10
150368,11
150952,11
151524,10
152100,11
152680,15
153252,18
153832,15
154408,11
154992,11
155560,11
156136,14
156720,13
157288,10
157872,10
158444,11
159024,11
159596,10
160176,10
160752,9
161268,9
161788,10
162368,14
162952,13
163520,11
164104,14
164672,12
165248,11
165816,11
166384,13
166960,11
167528,11
168104,14
168672,15
169248,12
169816,13
170392,16
170960,15
171536,15
172120,15
172688,14
173272,10
173840,11
174424,12
174992,10
175568,11
176144,11
176712,11
177296,11
177864,10
178448,11
179016,14
179600,16
180168,13
180736,9
181260,10
181832,11
182416,10
182984,9
183508,10
184084,13
184664,15
185232,13
185808,10
186384,12
186952,11
187536,11
188104,10
188688,13
189256,21
189840,16
190408,16
190984,16
191568,12
192140,10
192720,10
193288,11
193872,9
194392,11
194968,11
195536,11
196112,11
196696,14
197264,12
197848,11
198416,10
199000,11
199572,11
200148,13
200728,11
201296,10
201880,11
202448,10
203032,11
203604,10
204184,11
204756,11
205332,12
205912,11
206480,11
207064,11
207632,11
208216,10
208784,11
209360,14
209936,11
210504,11
211080,10
211648,10
212232,10
212800,11
213384,10
213952,11
214528,11
215112,14
215680,14
216264,14
216832,12
217416,11
217988,11
218568,9
219084,10
219656,10
220240,10
220808,10
221392,10
221964,10
222544,9
223064,12
223640,16
224212,20
224784,17
225368,15
225936,11
226512,10
227080,10
227664,11
228232,11
228816,10
229392,11
229964,11
230544,10
231112,11
231696,11
232264,11
232848,11
233416,11
233996,11
234576,11
235144,11
235728,9
236248,11
236824,11
237392,11
237976,9
238496,19
239064,20
239648,14
240220,10
240800,11
241368,12
241944,13
242512,14
243096,12
243668,12
244240,11
244824,10
245392,10
245976,9
246492,10
247072,10
247640,11
248224,12
248792,13
249372,13
249952,11
250520,11
251104,10
251676,11
252256,9
252776,11
253352,10
253924,10
254500,10
255080,10
255652,11
256232,11
256808,12
257384,14
257952,17
258520,18
259096,18
259664,16
260248,14
260816,11
261400,9
261916,11
262496,10
263064,9
263580,10
264156,10
264728,11
265312,12
265880,14
266464,12
267032,9
267556,10
268128,11
268712,14
269284,11
269856,10
270432,10
271000,10
271584,11
272156,10
272736,11
273304,13
273880,10
274464,10
275036,11
275616,10
276188,12
276768,16
277336,17
277920,14
278488,15
279064,11
279648,10
280220,12
280800,13
281368,11
281952,11
282520,14
283096,11
283680,11
284248,12
284832,11
285400,10
285984,11
286556,13
287136,12
287708,11
288284,11
288864,11
289432,11
290016,10
290584,11
291168,12
291740,14
292316,14
292896,13
293464,11
294048,11
294620,11
295200,9
295716,10
296296,11
296868,10
297444,11
298024,10
298592,10
299176,13
299748,14
300328,16
300900,15
301480,16
302052,15
302628,13
303208,11
303780,11
304360,10
304940,11
305520,12
306092,13
306668,12
307248,10
307820,16
308400,15
308968,10
309552,11
310124,11
310704,10
311276,10
311852,10
312432,10
313004,11
313584,9
314104,10
314680,9
315200,10
315776,9
316296,11
316872,9
317392,10
317964,15
318544,15
319116,11
319696,11
320276,11
320856,16
321424,16
322000,13
322584,11
323152,13
323736,17
324308,19
324888,18
325456,13
326040,12
326612,12
327184,10
327768,10
328336,10
328912,11
329480,13
330064,13
330632,11
331216,10
331792,11
332364,10
332944,11
333512,12
334088,9
334604,10
335184,11
335756,11
336336,10
336912,11
337480,11
338064,14
338632,18
339216,13
339784,11
340360,10
340928,10
341504,11
342088,11
342656,11
343240,12
343808,13
344392,14
344964,15
345544,11
346120,11
346688,10
347272,15
347844,14
348424,9
348940,11
349520,13
350088,10
350672,10
351248,11
351820,10
352400,15
352972,20
353552,19
354124,13
354704,12
355276,13
355852,11
356432,11
357004,10
357584,11
358156,14
358736,14
359312,11
359888,10
360472,13
361040,15
361624,12
362192,11
362776,12
363348,11
363928,11
364500,10
365076,10
365656,11
366228,18
366808,20
367376,16
367960,13
368532,11
369108,12
369688,14
370256,16
370840,14
371412,11
371992,11
372564,11
373144,10
373712,11
374292,15
374872,13
375444,10
376024,22
376592,38
377176,37
377748,28
378324,16
378904,10
379476,24
380056,28
380628,22
381208,18
381780,18
382360,15
382932,12
383508,14
384088,15
384660,12
385240,10
385808,11
386392,10
386964,13
387536,19
388120,24
388692,27
389272,29
389840,25
390424,19
390992,15
391576,9
392096,12
392664,16
393248,19
393820,31
394400,46
394968,45
395552,29
396124,13
396704,13
397276,19
397852,24
398432,25
399004,23
399584,16
400164,11
400744,19
401312,24
401888,25
402472,14
403044,15
403624,17
404196,15
404776,21
405348,22
405928,13
406500,16
407076,18
407656,15
408228,14
408808,9
409328,15
409904,18
410472,20
411048,26
411616,28
412184,23
412768,23
413336,17
413920,12
414488,11
415072,10
415640,10
416216,11
416800,11
417368,10
417944,11
418512,11
419088,11
419656,11
420240,11
420808,11
421384,13
421960,21
422528,18
423112,11
423680,12
424264,13
424832,13
425416,11
425992,11
426560,11
427144,11
427716,11
428296,11
428868,18
429448,17
430016,11
430596,10
431176,11
431748,13
432328,10
432896,11
433480,12
434052,21
434632,27
435208,26
435776,23
436352,18
436924,11
437504,11
438076,14
438656,9
439176,12
439752,12
440328,10
440900,12
441480,13
442052,16
442632,9
443152,12
443728,11
444300,12
444880,13
445456,11
446024,14
446608,15
447180,14
447760,12
448340,15
448920,14
449488,14
450064,11
450648,10
451216,11
451800,10
452372,10
452952,12
453524,17
454096,16
454680,14
455248,12
455832,11
456404,12
456984,11
457552,11
458136,9
458656,12
459228,11
459808,10
460380,11
460960,13
461532,12
462112,13
462680,14
463264,10
463836,11
464412,12
464992,16
465560,18
466144,12
466716,11
467296,13
467864,12
468444,11
469024,11
469596,13
470176,17
470748,20
471328,13
471900,18
472480,23
473056,18
473636,14
474216,11
474788,10
475368,9
475888,10
476464,11
477044,10
477624,9
478144,11
478716,14
479296,11
479872,10
480448,11
481020,15
481600,18
482168,13
482752,10
483324,11
483900,11
484480,11
485048,12
485632,13
486204,15
486784,15
487364,11
487936,14
488520,10
489088,11
489672,22
490244,25
490824,13
491396,10
491976,10
492560,10
493132,10
493712,14
494284,21
494864,17
495436,11
496016,11
496584,11
497164,11
497744,14
498316,10
498896,10
499468,10
500048,10
500616,10
501200,11
501776,14
502344,17
502928,15
503500,11
504080,14
504660,13
505240,12
505812,14
506388,16
506968,15
507540,14
508120,14
508692,14
509272,22
509852,23
510428,18
511008,13
511584,11
512164,10
512732,11
513312,10
513880,11
514464,15
515032,14
515612,10
516192,11
516760,11
517344,9
517860,10
518440,16
519008,19
519584,15
520156,14
520728,18
521312,11
521880,11
522464,11
523032,17
523616,20
524184,16
524760,13
525344,14
525916,14
526496,12
527064,12
527648,11
528216,12
528800,11
529368,12
529948,11
530528,11
531100,10
531680,10
532260,10
532840,9
533356,10
533936,13
534504,15
535080,17
535664,21
536236,16
536816,12
537384,12
537968,16
538536,14
539116,15
539696,13
540268,11
540848,11
541416,11
542000,13
542572,14
543152,12
543724,14
544300,15
544880,14
545448,10
546032,13
546604,14
547184,15
547756,18
548332,13
548912,13
549484,14
550064,13
550636,10
551216,10
551788,10
552368,9
552888,10
553460,10
554040,11
554612,11
555192,11
555764,11
556344,10
556916,11
557496,12
558068,12
558644,10
559224,11
559796,10
560376,11
560956,11
561536,9
562056,10
562632,10
563208,10
563780,10
564360,10
564932,14
565512,21
566084,20
566664,17
567236,11
567812,10
568392,15
568964,15
569544,18
570116,11
570696,13
571268,14
571848,10
572424,12
572996,11
573576,10
574148,10
574728,12
575300,14
575880,22
576460,22
577032,19
577616,12
578184,11
578768,9
579288,10
579864,10
580436,10
581016,9
581536,13
582108,16
582688,18
583260,15
583840,11
584412,10
584992,15
585564,19
586144,16
586724,12
587300,12
587880,21
588452,23
589032,15
589612,10
590192,12
590764,19
591340,22
591920,16
592496,12
593072,12
593644,17
594224,13
594796,11
595376,12
595956,11
596532,10
597112,15
597684,19
598264,18
598844,15
599424,16
600004,17
600580,20
601160,22
601732,20
602312,13
602884,10
603464,11
604036,13
604616,11
605200,13
605772,16
606352,17
606924,12
607504,11
608084,13
608664,12
609236,11
609812,13
610392,18
610964,18
611544,18
612124,18
612704,19
613284,20
613860,18
614440,11
615012,11
615592,12
616164,12
616744,12
617316,11
617896,12
618468,11
619044,11
619624,11
620196,18
620776,24
621348,18
621928,22
622500,31
623076,32
623656,31
624228,29
624808,22
625376,17
625960,13
626532,11
627112,11
627692,12
628268,13
628848,18
629420,19
630000,14
630580,11
631160,12
631732,12
632308,10
632888,10
633460,11
634040,10
634616,12
635192,11
635772,13
636352,11
636936,11
637508,10
638088,10
638660,11
639240,10
639820,11
640404,15
640976,13
641544,12
642128,12
642696,15
643280,15
643848,15
644432,12
645004,11
645584,12
646160,11
646728,10
647312,10
647884,11
648464,11
649032,12
649616,9
650132,11
650708,11
651288,11
651860,11
652440,12
653012,13
653592,12
654164,10
654744,9
655264,10
655836,10
656416,10
656984,9
657508,13
658080,11
658664,12
659232,27
659816,28
660388,17
660964,13
661544,17
662116,19
662696,19
663268,18
663848,13
664420,11
665000,12
665572,13
666148,12
666728,11
667296,12
667880,12
668448,11
669032,9
669552,11
670128,10
670696,10
671276,11
671856,10
672428,11
673008,11
673576,14
674160,18
674728,13
675304,11
675888,14
676456,11
677040,21
677608,23
678192,16
678764,11
679344,10
679916,10
680492,10
681072,11
681640,11
682224,11
682796,11
683376,9
683896,11
684472,9
684992,12
685564,11
686144,10
686712,11
687296,11
687868,10
688448,10
689016,11
689600,10
690168,10
690748,10
691328,11
691896,11
692480,11
693048,13
693632,13
694204,11
694780,10
695360,10
695932,11
696512,14
697084,13
697664,12
698232,16
698816,20
699388,18
699964,14
700544,11
701116,11
701696,11
702276,11
702856,9
703376,10
703952,10
704540,10
705108,10
705688,13
706256,16
706840,13
707412,11
707992,13
708564,13
709140,11
709720,11
710292,10
710872,13
711452,12
712032,11
712612,10
713188,10
713768,11
714340,13
714920,17
715492,20
716072,21
716652,22
717232,16
717812,12
718388,11
718968,10
719540,10
720120,11
720688,12
721272,9
721792,13
722368,13
722940,11
723516,10
724096,12
724668,16
725248,16
725820,13
726400,12
726968,11
727548,10
728128,13
728700,12
729280,10
729852,11
730432,13
731004,16
731584,17
732156,17
732732,16
733312,17
733884,11
734464,11
735044,11
735624,11
736204,10
736780,11
737360,11
737928,11
738512,10
739084,11
739664,12
740236,14
740816,16
741392,15
741964,11
742544,15
743116,16
743696,15
744268,12
744848,12
745420,11
745996,10
746576,11
747148,10
747728,11
748308,10
748888,10
749464,11
750044,11
750624,13
751196,12
751780,16
752352,18
752928,15
753508,14
754088,12
754668,10
755244,11
755824,10
756396,12
756976,12
757556,10
758140,10
758716,11
759292,12
759872,13
760444,12
761024,11
761596,10
762180,12
762756,11
763336,11
763920,9
764444,10
765024,11
765600,14
766176,13
766748,10
767328,10
767908,11
768484,14
769064,14
769632,12
770216,10
770788,11
771368,9
771888,11
772464,13
773036,15
773612,12
774192,14
774764,14
775344,11
775916,13
776496,10
777076,12
777656,11
778228,10
778804,11
779384,15
779956,11
780536,11
781116,10
781696,12
782276,14
782852,12
783432,9
783952,12
784528,13
785100,11
785680,11
786260,12
786840,10
787412,11
787988,13
788568,15
789140,11
789720,12
790292,15
790872,19
791452,15
792028,14
792608,11
793180,10
793764,11
794332,12
794912,13
795484,18
796064,19
796644,16
797220,13
797800,12
798372,12
798956,10
799532,11
800112,17
800688,18
801264,11
801848,10
802416,11
803000,11
803572,11
804152,11
804724,10
805304,11
805876,11
806452,10
807032,17
807604,13
808184,13
808756,21
809336,26
809916,19
810492,12
811072,11
811644,10
812224,10
812796,10
813376,16
813956,18
814536,15
815120,10
815692,10
816272,10
816844,10
817424,11
817996,10
818576,10
819156,9
819680,10
820256,13
820824,13
821400,11
821968,11
822552,11
823120,11
823704,10
824272,11
824848,13
825432,11
826004,11
826584,11
827152,14
827736,20
828308,24
828884,20
829464,15
830032,11
830616,13
831188,14
831768,12
832340,11
832920,11
833488,12
834064,11
834648,12
835216,13
835800,12
836368,11
836952,11
837524,11
838100,10
838680,12
839252,10
839832,11
840404,11
840984,10
841552,13
842136,14
842708,11
843284,12
843864,16
844436,14
845016,11
845584,11
846168,10
846736,10
847312,11
847896,11
848468,10
849048,11
849616,11
850200,11
850768,10
851352,10
851924,11
852500,10
853080,10
853652,10
854232,9
854752,10
855328,13
855900,16
856480,16
857056,18
857636,15
858216,11
858788,10
859368,11
859940,12
860520,14
861096,11
861676,10
862256,11
862828,15
863408,18
863980,18
864560,15
865136,12
865720,9
866240,11
866808,14
867392,17
867964,17
868544,17
869116,17
869696,18
870276,12
870856,11
871440,11
872012,11
872592,16
873164,18
873744,11
874316,10
874896,10
875468,11
876044,11
876624,11
877196,11
877776,11
878348,11
878928,11
879500,10
880080,10
880664,11
881232,13
881816,14
882388,13
882968,10
883540,10
884120,10
884692,10
885268,13
885848,10
886420,11
887000,13
887572,13
888152,16
888732,11
889308,12
889888,12
890460,12
891040,13
891612,14
892192,13
892764,15
893344,16
893924,13
894500,12
895080,13
895652,14
896236,14
896808,11
897392,9
897912,10
898488,11
899060,10
899636,10
900216,12
900788,15
901368,16
901944,12
902528,9
903044,10
903624,9
904144,12
904712,12
905296,11
905868,13
906448,12
907020,11
907600,10
908180,10
908756,12
909336,12
909908,12
910488,11
911060,10
911640,11
912220,10
912800,9
913320,10
913892,10
914472,10
915044,10
915624,10
916196,10
916776,10
917356,12
917936,11
918516,10
919092,10
919672,12
920248,13
920824,13
921396,13
921980,11
922552,12
923132,11
923712,11
924284,14
924864,18
925432,18
926016,14
926596,11
927176,11
927760,10
928332,10
928912,11
929484,10
930064,10
930636,10
931216,9
931736,11
932308,14
932888,24
933460,27
934040,17
934612,12
935192,11
935764,11
936344,17
936916,22
937492,19
938072,17
938644,21
939224,29
939804,23
940384,14
940964,11
941540,11
942120,13
942692,17
943272,18
943844,15
944424,12
945004,10
945584,10
946156,13
946732,15
947312,15
947884,10
948464,9
948984,10
949560,12
950132,15
950712,18
951292,22
951872,16
952452,12
953020,15
953600,13
954180,12
954760,14
955340,15
955916,14
956500,14
957072,10
957652,10
958228,11
958812,11
959388,11
959964,14
960548,15
961120,10
961696,11
962268,11
962848,13
963420,15
964000,10
964568,10
965148,12
965728,17
966300,21
966880,20
967460,18
968040,15
968620,15
969196,13
969776,10
970348,10
970928,9
971448,10
972032,10
972612,12
973192,11
973772,19
974348,19
974928,12
975500,11
976080,11
976656,10
977240,9
977760,10
978336,11
978908,11
979484,11
980064,12
980636,18
981216,18
981796,13
982376,14
982956,11
983532,10
984112,10
984684,11
985264,10
985836,10
986416,10
986984,11
987568,9
988088,10
988660,13
989240,10
989812,18
990392,22
990964,17
991544,13
992116,11
992696,9
993216,10
993788,11
994368,13
994940,13
995520,11
996092,12
996672,10
997244,11
997824,11
998396,12
998976,13
999552,11
1000124,11
1000748,10
1001372,10
1001996,11
1002624,10
1003240,10
1003872,13
1004496,11
1005116,9
1005696,11
1006320,13
1006948,14
1007572,17
1008196,14
1008824,11
1009440,11
1010068,13
1010696,11
1011320,13
1011948,11
1012572,10
1013200,13
1013832,14
1014448,13
1015076,11
1015700,10
1016324,11
1016956,10
1017576,11
1018208,11
1018832,11
1019456,12
1020084,10
1020704,11
1021332,11
1021964,10
1022584,14
1023212,15
1023840,12
1024468,11
1025096,10
1025712,12
1026340,12
1026960,11
1027588,10
1028216,10
1028832,11
1029460,11
1030080,11
1030700,11
1031332,11
1031952,10
1032580,10
1033200,13
1033824,15
1034452,12
1035072,10
1035704,12
1036332,13
1036952,12
1037580,10
1038200,10
1038832,11
1039460,10
1040080,15
1040704,12
1041328,15
1041948,14
1042580,14
1043196,11
1043828,12
1044452,14
1045072,11
1045704,10
1046320,11
1046948,10
1047576,10
1048200,11
1048828,10
1049448,15
1050080,14
1050708,10
1051328,11
1051956,10
1052580,10
1053200,15
1053832,17
1054448,13
1055076,10
1055700,12
1056324,16
1056952,14
1057568,13
1058196,22
1058824,19
1059448,19
1060076,19
1060696,16
1061328,13
1061956,15
1062576,13
1063204,12
1063824,14
1064452,14
1065084,14
1065700,14
1066332,13
1066952,11
1067576,10
1068204,11
1068824,11
1069452,11
1070072,11
1070696,11
1071324,10
1071948,11
1072580,13
1073208,23
1073824,23
1074452,11
1075076,13
1075708,14
1076336,12
1076952,12
1077580,11
1078204,10
1078828,15
1079456,14
1080072,11
1080700,13
1081324,14
1081944,15
1082576,15
1083192,15
1083820,14
1084452,10
1085072,11
1085700,12
1086324,14
1086952,16
1087580,16
1088200,16
1088828,21
1089448,23
1090068,23
1090700,16
1091320,11
1091948,13
1092572,18
1093192,19
1093824,16
1094440,13
1095068,10
1095696,12
1096320,15
1096948,11
1097572,10
1098200,11
1098828,10
1099448,12
1100076,12
1100700,13
1101324,13
1101952,14
1102576,17
1103204,19
1103828,17
1104452,11
1105080,10
1105704,11
1106332,10
1106964,10
1107584,11
1108212,11
1108836,10
1109464,14
1110092,10
1110712,11
1111340,11
1111964,13
1112588,15
1113220,14
1113840,11
1114468,13
1115092,14
1115716,11
1116348,11
1116968,12
1117596,10
1118228,13
1118848,15
1119476,16
1120104,15
1120732,15
1121360,16
1121976,22
1122604,23
1123228,10
1123852,10
1124480,18
1125096,23
1125728,14
1126352,12
1126976,9
1127552,17
1128176,19
1128804,17
1129424,12
1130048,11
1130676,14
1131296,15
1131924,19
1132556,24
1133176,23
1133804,15
1134428,11
1135056,11
1135684,10
1136304,11
1136932,10
1137556,11
1138184,11
1138812,10
1139432,13
1140060,13
1140684,15
1141308,16
1141936,12
1142560,17
1143188,15
1143820,12
1144440,11
1145068,13
1145692,21
1146320,21
1146952,16
1147568,17
1148196,14
1148820,14
1149444,17
1150072,14
1150696,15
1151324,13
1151952,11
1152576,11
1153204,10
1153824,11
1154452,10
1155080,11
1155696,11
1156324,10
1156948,10
1157576,10
1158208,10
1158824,11
1159452,11
1160076,10
1160704,11
1161332,10
1161952,13
1162580,10
1163204,11
1163824,11
1164456,10
1165072,11
1165704,18
1166328,15
1166948,10
1167580,11
1168204,11
1168832,11
1169460,10
1170080,11
1170708,11
1171332,11
1171960,12
1172592,12
1173208,11
1173836,10
1174460,10
1175084,10
1175712,12
1176336,14
1176964,11
1177588,16
1178212,11
1178844,10
1179468,10
1180096,11
1180724,10
1181344,11
1181972,10
1182596,10
1183228,15
1183856,15
1184480,11
1185108,13
1185732,15
1186356,12
1186988,11
1187608,14
1188236,22
1188860,20
1189488,16
1190116,14
1190740,13
1191368,13
1191996,12
1192616,13
1193244,11
1193868,12
1194500,10
1195128,11
1195748,12
1196376,10
1197000,10
1197624,11
1198256,11
1198872,11
1199500,12
1200128,12
1200752,11
1201380,12
1202004,12
1202632,10
1203264,12
1203880,26
1204508,30
1205132,29
1205760,23
1206392,18
1207008,18
1207636,20
1208260,15
1208884,10
1209516,12
1210136,13
1210764,11
1211388,10
1212016,10
1212644,11
1213268,12
1213900,15
1214532,11
1215152,11
1215784,10
1216408,11
1217032,11
1217660,10
1218280,11
1218908,10
1219532,11
1220156,11
1220784,11
1221408,18
1222036,16
1222668,10
1223288,11
1223916,11
1224544,11
1225172,11
1225804,10
1226424,12
1227052,17
1227676,13
1228304,14
1228932,15
1229548,13
1230180,15
1230800,17
1231424,15
1232052,13
1232668,12
1233300,11
1233928,10
1234544,11
1235172,11
1235796,14
1236428,23
1237056,22
1237672,18
1238304,15
1238928,10
1239556,11
1240188,14
1240808,13
1241436,17
1242060,23
1242684,15
1243312,10
1243928,10
1244560,13
1245188,14
1245808,14
1246436,12
1247060,11
1247692,10
1248320,11
1248936,14
1249568,11
1250188,10
1250820,10
1251448,10
1252064,10
1252696,11
1253320,11
1253944,11
1254572,10
1255192,12
1255820,14
1256444,11
1257072,10
1257700,10
1258324,10
1258952,10
1259584,11
1260200,12
1260832,13
1261452,12
1262084,12
1262712,11
1263332,13
1263960,16
1264588,13
1265212,11
1265840,10
1266460,11
1267088,11
1267720,10
1268336,11
1268964,11
1269588,11
1270220,15
1270852,16
1271472,13
1272100,12
1272724,14
1273352,16
1273980,14
1274600,11
1275228,12
1275852,14
1276476,12
1277108,11
1277728,14
1278356,14
1278988,10
1279608,12
1280240,11
1280860,15
1281488,19
1282116,16
1282732,13
1283360,11
1283984,11
1284612,11
1285240,10
1285856,10
1286484,10
1287104,11
1287728,11
1288356,10
1288976,11
1289604,10
1290224,11
1290848,11
1291476,11
1292100,10
1292728,11
1293356,11
1293976,13
1294604,14
1295228,15
1295856,16
1296484,13
1297100,11
1297732,11
1298356,12
1298976,12
1299608,11
1300224,11
1300852,9
1301424,9
1301996,11
1302628,11
1303248,12
1303876,11
1304500,9
1305072,10
1305700,11
1306320,11
1306948,11
1307572,16
1308192,21
1308824,19
1309440,14
1310068,14
1310692,13
1311316,10
1311948,10
1312568,21
1313196,23
1313824,20
1314440,15
1315068,15
1315692,19
1316320,24
1316948,16
1317568,11
1318196,11
1318820,11
1319440,11
1320068,10
1320684,11
1321316,11
1321936,12
1322556,12
1323188,10
1323808,11
1324436,13
1325064,18
1325680,14
1326312,10
1326932,12
1327564,15
1328192,14
1328808,10
1329436,10
1330060,10
1330688,10
1331316,10
1331932,10
1332560,10
1333184,11
1333804,11
1334432,14
1335052,17
1335684,17
1336304,19
1336928,14
1337556,11
1338180,11
1338808,12
1339436,10
1340056,10
1340684,10
1341308,10
1341936,14
1342564,15
1343184,11
1343812,12
1344436,13
1345056,11
1345688,13
1346304,14
1346932,12
1347556,10
1348176,11
1348804,10
1349420,15
1350052,17
1350680,12
1351304,11
1351932,10
1352556,12
1353184,15
1353812,16
1354432,13
1355060,12
1355684,15
1356304,18
1356936,19
1357552,15
1358180,11
1358804,11
1359428,10
1360056,14
1360672,16
1361300,14
1361928,10
1362544,14
1363172,14
1363796,10
1364424,11
1365052,10
1365672,17
1366300,12
1366924,10
1367552,10
1368180,10
1368800,11
1369428,11
1370052,14
1370676,11
1371304,11
1371920,11
1372552,12
1373176,11
1373796,14
1374428,15
1375048,13
1375680,15
1376308,11
1376928,11
1377556,10
1378180,12
1378808,12
1379436,12
1380056,12
1380684,10
1381308,14
1381932,13
1382560,14
1383176,15
1383804,17
1384428,15
1385048,16
1385680,15
1386296,14
1386924,11
1387552,11
1388176,12
1388804,11
1389428,10
1390056,11
1390684,11
1391304,11
1391932,11
1392560,12
1393184,11
1393812,12
1394432,12
1395060,13
1395684,11
1396308,10
1396936,11
1397552,10
1398184,12
1398812,12
1399432,16
1400060,13
1400684,11
1401312,12
1401944,10
1402560,13
1403188,19
1403812,18
1404436,20
1405064,18
1405688,17
1406316,13
1406940,12
1407564,11
1408196,12
1408812,10
1409440,10
1410072,10
1410688,11
1411316,11
1411940,10
1412568,11
1413196,10
1413816,11
1414444,16
1415064,18
1415688,17
1416316,12
1416936,11
1417564,11
1418188,11
1418812,11
1419440,10
1420064,14
1420692,14
1421324,10
1421944,13
1422572,10
1423196,12
1423828,12
1424456,10
1425080,11
1425708,12
1426332,13
1426956,13
1427588,11
1428208,13
1428836,16
1429460,15
1430084,11
1430712,13
1431336,11
1431964,15
1432596,12
1433216,13
1433848,10
1434468,10
1435096,11
1435724,10
1436344,11
1436972,15
1437596,23
1438220,22
1438848,13
1439464,10
1440096,11
1440716,10
1441340,10
1441968,11
1442584,11
1443212,12
1443836,11
1444460,10
1445088,9
1445660,11
1446292,10
1446920,10
1447544,11
1448172,10
1448792,10
1449424,13
1450052,14
1450672,13
1451300,11
1451924,10
1452548,10
1453180,10
1453800,11
1454428,11
1455052,11
1455676,10
1456304,12
1456920,9
1457500,12
1458128,12
1458752,11
1459380,10
1460000,12
1460628,11
1461256,11
1461872,10
1462504,13
1463128,15
1463756,15
1464384,16
1465008,15
1465636,11
1466260,12
1466884,11
1467516,12
1468136,13
1468764,11
1469388,13
1470012,17
1470644,16
1471264,11
1471896,10
1472524,10
1473144,11
1473772,10
1474396,11
1475028,11
1475656,13
1476272,15
1476904,16
1477524,11
1478148,10
1478780,12
1479400,15
1480028,19
1480652,16
1481272,11
1481904,11
1482520,11
1483148,12
1483772,12
1484400,13
1485028,14
1485652,11
1486280,12
1486908,10
1487528,11
1488156,13
1488780,12
1489408,11
1490036,10
1490656,10
1491284,11
1491908,12
1492532,11
1493160,11
1493776,13
1494404,10
1495028,13
1495652,17
1496284,18
1496908,19
1497536,15
1498164,14
1498784,11
1499412,10
1500036,11
1500668,12
1501296,13
1501916,13
1502544,15
1503168,11
1503792,10
1504424,10
1505040,11
1505668,11
1506292,14
1506916,18
1507548,16
1508172,16
1508800,15
1509428,11
1510048,11
1510680,11
1511300,11
1511932,13
1512564,12
1513184,10
1513812,11
1514436,11
1515064,12
1515692,11
1516312,11
1516940,10
1517564,10
1518192,11
1518820,11
1519444,10
1520076,11
1520704,14
1521320,16
1521952,15
1522576,12
1523204,14
1523836,10
1524456,14
1525084,12
1525708,11
1526336,12
1526964,10
1527584,13
1528212,13
1528844,14
1529464,11
1530092,10
1530716,11
1531348,10
1531980,10
1532600,11
1533232,11
1533856,21
1534480,23
1535108,16
1535728,14
1536360,13
1536984,11
1537604,11
1538232,10
1538856,12
1539484,12
1540112,11
1540728,13
1541360,11
1541984,11
1542612,10
1543240,10
1543864,9
1544440,11
1545064,14
1545692,11
1546320,13
1546944,15
1547572,11
1548196,10
1548820,16
1549448,11
1550064,13
1550696,14
1551320,12
1551944,11
1552572,11
1553192,13
1553820,13
1554452,14
1555072,17
1555704,13
1556328,11
1556956,12
1557584,13
1558208,14
1558836,15
1559460,12
1560084,11
1560712,12
1561336,15
1561964,11
1562588,14
1563212,15
1563840,17
1564456,13
1565088,11
1565716,10
1566336,12
1566964,13
1567588,11
1568220,10
1568848,12
1569464,12
1570092,10
1570716,11
1571340,10
1571968,10
1572592,13
1573220,13
1573844,10
1574468,12
1575100,10
1575720,9
1576296,11
1576928,11
1577552,13
1578180,11
1578800,13
1579428,12
1580060,10
1580680,13
1581308,11
1581932,15
1582564,22
1583192,22
1583816,18
1584448,11
1585072,11
1585696,13
1586324,11
1586944,11
1587576,11
1588196,11
1588820,11
1589452,10
1590072,15
1590700,16
1591332,14
1591952,11
1592584,11
1593208,11
1593836,11
1594468,10
1595088,14
1595716,13
1596344,11
1596968,15
1597596,14
1598216,11
1598848,13
1599472,15
1600096,15
1600724,13
1601344,12
1601972,10
1602600,10
1603216,14
1603844,11
1604464,10
1605096,11
1605724,10
1606344,11
1606972,13
1607596,10
1608220,14
1608848,12
1609464,10
1610096,10
1610716,11
1611340,10
1611972,12
1612592,18
1613220,21
1613852,16
1614472,14
1615100,10
1615724,10
1616352,11
1616984,11
1617600,11
1618228,14
1618852,11
1619476,10
1620104,12
1620720,13
1621352,13
1621976,11
1622600,13
1623228,16
1623848,16
1624476,10
1625104,10
1625728,11
1626356,12
1626980,12
1627608,11
1628240,10
1628856,10
1629484,10
1630108,11
1630732,12
1631360,10
1631984,11
1632616,11
1633240,11
1633864,11
1634492,10
1635112,13
1635744,11
1636372,10
1636992,11
1637620,11
1638244,11
1638876,15
1639504,13
1640120,19
1640748,18
1641368,16
1641988,13
1642616,10
1643232,13
1643860,11
1644480,11
1645104,11
1645732,10
1646352,11
1646980,14
1647600,15
1648224,15
1648852,11
1649472,12
1650100,11
1650728,14
1651352,15
1651980,21
1652600,24
1653228,15
1653856,11
1654472,12
1655100,16
1655724,13
1656344,10
1656972,10
1657588,10
1658220,10
1658844,11
1659468,10
1660096,10
1660712,11
1661340,10
1661972,10
1662592,11
1663220,12
1663844,14
1664472,11
1665100,10
1665716,11
1666348,12
1666968,14
1667588,13
1668216,10
1668836,11
1669464,11
1670088,12
1670708,10
1671340,10
1671960,11
1672588,11
1673208,11
1673832,11
1674460,12
1675084,13
1675712,13
1676340,14
1676960,11
1677588,10
1678212,10
1678840,11
1679468,10
1680088,12
1680712,10
1681336,11
1681956,9
1682532,12
1683156,15
1683788,13
1684408,13
1685032,11
1685660,10
1686280,10
1686908,10
1687532,11
1688152,11
1688780,10
1689400,14
1690028,20
1690656,15
1691272,11
1691900,12
1692524,13
1693152,17
1693780,14
1694400,15
1695028,11
1695648,18
1696272,15
1696900,18
1697520,14
1698148,11
1698768,10
1699392,11
1700020,12
1700636,20
1701268,12
1701896,12
1702512,13
1703140,15
1703764,18
1704392,24
1705020,16
1705640,12
1706268,10
1706888,11
1707516,15
1708148,18
1708768,16
1709396,16
1710020,21
1710644,14
1711276,11
1711896,13
1712524,16
1713148,14
1713776,13
1714404,10
1715028,11
1715660,11
1716288,18
1716904,25
1717532,21
1718156,11
1718788,17
1719416,16
1720036,12
1720664,11
1721284,12
1721908,11
1722536,10
1723160,12
1723788,11
1724412,12
1725040,11
1725668,10
1726292,10
1726920,10
1727548,10
1728168,11
1728796,11
1729420,12
1730048,15
1730676,14
1731296,15
1731924,13
1732548,12
1733168,11
1733800,10
1734416,11
1735044,11
1735668,15
1736292,11
1736920,13
1737544,11
1738172,11
1738804,10
1739424,11
1740052,12
1740676,12
1741308,11
1741936,11
1742552,11
1743184,11
1743808,15
1744432,15
1745060,14
1745680,18
1746308,18
1746932,11
1747556,10
1748184,11
1748808,13
1749436,10
1750064,11
1750688,11
1751316,10
1751940,10
1752572,10
1753200,12
1753820,13
1754448,16
1755072,19
1755696,19
1756324,12
1756944,11
1757572,10
1758196,11
1758820,13
1759452,13
1760076,15
1760704,11
1761332,10
1761952,11
1762580,10
1763200,10
1763828,11
1764460,10
1765080,9
1765656,10
1766280,12
1766908,10
1767536,10
1768160,13
1768788,11
1769412,10
1770032,11
1770664,11
1771280,12
1771908,11
1772532,11
1773156,12
1773788,12
1774408,11
1775040,15
1775668,14
1776288,15
1776916,13
1777540,16
1778172,16
1778800,13
1779416,12
1780048,19
1780672,23
1781296,12
1781924,16
1782544,11
1783172,14
1783796,18
1784420,19
1785048,14
1785672,11
1786304,11
1786932,10
1787552,11
1788180,11
1788804,11
1789432,13
1790064,15
1790684,13
1791316,10
1791940,14
1792564,11
1793192,10
1793816,12
1794444,10
1795068,10
1795692,10
1796320,12
1796944,12
1797572,14
1798200,10
1798824,11
1799452,10
1800076,10
1800704,10
1801336,14
1801952,12
1802580,13
1803204,17
1803828,10
1804456,10
1805072,11
1805700,10
1806324,12
1806944,10
1807576,14
1808200,12
1808828,11
1809456,11
1810072,17
1810700,21
1811324,17
1811952,11
1812584,12
1813200,10
1813828,10
1814452,12
1815076,18
1815704,18
1816320,13
1816952,11
1817576,12
1818200,11
1818828,10
1819448,12
1820076,12
1820708,10
1821328,11
1821956,11
1822580,10
1823212,13
1823840,16
1824464,15
1825092,18
1825716,17
1826340,11
1826968,11
1827588,12
1828216,17
1828840,17
1829460,15
1830092,12
1830712,11
1831340,10
1831972,11
1832592,13
1833220,15
1833844,13
1834476,10
1835104,11
1835724,12
1836352,13
1836976,12
1837600,12
1838228,12
1838848,15
1839476,11
1840104,9
1840672,11
1841308,10
1841928,11
1842556,13
1843180,11
1843808,11
1844436,11
1845060,10
1845688,13
1846316,22
1846936,17
1847564,10
1848188,11
1848816,18
1849444,22
1850064,21
1850692,19
1851316,14
1851940,12
1852568,11
1853184,11
1853816,11
1854440,12
1855064,13
1855692,10
1856312,12
1856940,11
1857568,10
1858192,11
1858820,10
1859444,11
1860072,13
1860700,10
1861320,13
1861948,11
1862572,18
1863196,26
1863828,22
1864448,27
1865076,26
1865700,17
1866324,12
1866952,17
1867568,31
1868200,30
1868828,16
1869444,11
1870076,13
1870700,12
1871328,14
1871960,17
1872580,15
1873208,11
1873832,15
1874456,11
1875084,12
1875704,12
1876332,11
1876956,12
1877580,11
1878212,12
1878832,14
1879460,13
1880092,10
1880712,11
1881340,11
1881964,11
1882596,10
1883224,10
1883848,11
1884476,13
1885100,11
1885724,11
1886356,10
1886976,11
1887604,12
1888228,14
1888852,14
1889480,18
1890100,14
1890728,11
1891356,22
1891976,28
1892604,22
1893228,14
1893860,22
1894492,26
1895112,13
1895740,14
1896364,17
1896988,17
1897616,16
1898232,12
1898864,12
1899488,10
1900112,11
1900740,10
1901360,14
1901988,17
1902620,10
1903240,11
1903868,10
1904496,14
1905124,13
1905756,10
1906376,11
1907004,11
1907632,10
1908256,12
1908884,10
1909504,12
1910136,16
1910760,17
1911384,15
1912012,13
1912632,11
1913264,13
1913892,11
1914512,11
1915144,15
1915768,14
1916400,11
1917028,10
1917648,11
1918280,14
1918904,14
1919528,15
1920160,14
1920776,13
1921404,11
1922028,12
1922648,11
1923280,11
1923896,11
1924524,13
1925152,10
1925776,13
1926404,16
1927024,13
1927656,17
1928284,18
1928904,12
1929532,11
1930156,11
1930780,15
1931412,16
1932032,15
1932660,10
1933284,11
1933908,11
1934540,10
1935160,12
1935788,15
1936420,14
1937040,11
1937668,10
1938292,11
1938920,10
1939552,10
1940168,11
1940800,10
1941424,11
1942048,15
1942676,14
1943296,14
1943924,11
1944552,11
1945176,12
1945804,10
1946424,13
1947052,18
1947680,18
1948296,18
1948928,11
1949552,13
1950180,17
1950812,16
1951432,11
1952060,15
1952684,12
1953308,14
1953936,12
1954556,10
1955184,12
1955808,12
1956436,11
1957064,10
1957684,10
1958312,11
1958944,11
1959560,11
1960188,11
1960812,12
1961444,17
1962072,14
1962696,11
1963324,11
1963952,13
1964576,11
1965204,11
1965824,14
1966452,11
1967076,10
1967700,11
1968328,10
1968952,13
1969580,10
1970208,16
1970832,20
1971460,13
1972084,10
1972712,10
1973340,10
1973960,11
1974588,9
1975160,10
1975788,11
1976420,10
1977040,11
1977668,11
1978292,17
1978916,13
1979544,10
1980160,19
1980788,23
1981412,10
1982036,16
1982668,16
1983288,16
1983916,11
1984548,11
1985168,14
1985796,21
1986420,20
1987048,15
1987680,10
1988296,12
1988924,15
1989548,10
1990172,11
1990804,10
1991424,14
1992052,13
1992676,11
1993300,10
1993932,10
1994552,13
1995180,13
1995812,13
1996432,13
1997064,11
1997684,10
1998316,13
1998944,12
1999564,9
2000140,10
2000768,11
2001396,11
2002024,16
2002640,12
2003272,11
2003892,10
2004516,10
2005144,11
2005768,10
2006396,10
2007020,11
2007648,10
2008276,10
2008900,17
2009528,17
2010156,10
2010776,15
2011404,17
2012028,17
2012660,14
2013288,10
2013904,13
2014532,12
2015160,11
2015784,11
2016412,11
2017032,11
2017660,12
2018284,10
2018908,10
2019536,10
2020152,12
2020784,16
2021412,15
2022032,11
2022664,10
2023284,11
2023916,14
2024544,13
2025164,10
2025792,14
2026416,15
2027040,11
2027668,10
2028288,13
2028916,19
2029540,15
2030164,13
2030792,10
2031416,11
2032044,12
2032676,14
2033296,11
2033924,17
2034548,23
2035180,16
2035812,10
2036432,11
2037064,10
2037688,11
2038312,11
2038940,11
2039560,11
2040192,11
2040816,15
2041440,13
2042068,10
2042692,14
2043324,11
2043956,14
2044576,22
2045208,21
2045832,15
2046460,11
2047092,10
2047712,10
2048344,11
2048964,11
2049584,10
2050212,10
2050828,9
2051408,12
2052028,15
2052652,16
2053280,14
2053896,11
2054524,13
2055144,18
2055768,11
2056396,13
2057016,11
2057644,11
2058272,10
2058888,11
2059516,11
2060140,10
2060768,11
2061396,11
2062016,11
2062644,14
2063264,17
2063888,21
2064520,21
2065136,17
2065764,12
2066388,10
2067008,10
2067640,11
2068256,11
2068884,12
2069512,11
2070128,10
2070760,11
2071380,12
2072012,11
2072640,10
2073256,11
2073884,11
2074508,11
2075136,11
2075764,10
2076384,15
2077012,12
2077636,10
2078260,11
2078888,10
2079504,11
2080136,10
2080756,10
2081380,12
2082008,16
2082628,17
2083260,12
2083888,10
2084504,10
2085132,10
2085752,11
2086384,13
2087012,10
2087632,13
2088260,15
2088884,12
2089504,10
2090136,12
2090752,11
2091380,12
2092004,10
2092628,10
2093256,10
2093872,14
2094500,19
2095128,14
2095752,11
2096380,19
2097004,26
2097632,23
2098264,19
2098880,13
2099508,15
2100132,10
2100752,15
2101384,18
2102000,10
2102628,12
2103252,11
2103876,11
2104504,19
2105120,16
2105752,13
2106380,10
2107000,13
2107628,12
2108252,12
2108880,11
2109512,16
2110128,17
2110756,16
2111380,15
2112004,11
2112632,11
2113256,11
2113884,13
2114508,12
2115132,11
2115760,11
2116376,13
2117008,13
2117636,10
2118256,11
2118884,11
2119508,18
2120140,14
2120768,10
2121384,10
2122016,11
2122640,13
2123268,13
2123896,10
2124520,11
2125148,13
2125772,13
2126396,10
2127024,10
2127648,11
2128276,13
2128908,11
2129528,11
2130156,10
2130780,11
2131408,17
2132036,18
2132656,13
2133284,10
2133904,11
2134536,14
2135164,10
2135784,11
2136412,11
2137036,10
2137660,11
2138288,10
2138904,11
2139532,14
2140156,11
2140784,9
2141360,10
2141992,13
2142620,11
2143252,10
2143872,11
2144500,10
2145124,13
2145756,20
2146384,14
2147000,13
2147632,11
2148256,12
2148880,9
2149456,11
2150080,11
2150708,10
2151332,11
2151956,14
2152584,16
2153208,12
2153836,11
2154460,13
2155084,22
2155712,13
2156328,12
2156960,16
2157588,13
2158208,12
2158836,12
2159460,11
2160092,10
2160720,10
2161336,11
2161964,12
2162588,10
2163212,10
2163840,16
2164456,14
2165084,11
2165708,11
2166332,11
2166964,10
2167584,18
2168212,18
2168844,10
2169464,16
2170092,13
2170716,10
2171348,14
2171976,17
2172600,19
2173228,15
2173852,13
2174476,11
2175108,10
2175728,12
2176360,13
2176980,15
2177604,14
2178232,11
2178848,11
2179476,10
2180104,10
2180728,12
2181356,11
2181980,13
2182608,16
2183240,14
2183856,12
2184484,14
2185108,10
2185732,11
2186364,10
2186984,11
2187612,10
2188236,10
2188860,10
2189488,14
2190104,17
2190736,15
2191364,12
2191984,11
2192612,10
2193236,10
2193868,11
2194496,10
2195120,11
2195752,13
2196376,13
2197000,11
2197628,10
2198248,11
2198876,11
2199504,10
2200128,11
2200756,10
2201376,11
2202008,13
2202636,10
2203256,11
2203884,11
2204508,11
2205140,12
2205768,13
2206384,14
2207016,12
2207640,15
2208264,13
2208892,10
2209512,9
2210088,13
2210720,12
2211344,13
2211972,10
2212592,11
2213220,11
2213844,10
2214468,11
2215096,14
2215712,14
2216344,12
2216972,12
2217592,13
2218220,15
2218844,12
2219476,10
2220108,10
2220728,11
2221356,11
2221984,12
2222608,11
2223236,10
2223856,11
2224488,13
2225108,14
2225732,10
2226364,13
2226984,14
2227616,10
2228244,12
2228864,11
2229492,11
2230116,10
2230748,12
2231376,16
2232000,11
2232628,11
2233252,11
2233876,11
2234508,12
2235128,12
2235756,10
2236384,11
2237008,11
2237636,18
2238256,23
2238888,15
2239516,11
2240136,12
2240768,12
2241388,15
2242020,24
2242648,23
2243264,17
2243892,10
2244516,12
2245140,15
2245768,14
2246384,11
2247016,10
2247640,13
2248264,11
2248892,10
2249512,13
2250144,12
2250772,10
2251392,9
2251972,12
2252600,19
2253232,19
2253860,14
2254480,14
2255108,10
2255732,10
2256360,10
2256992,11
2257608,15
2258236,21
2258860,25
2259484,24
2260112,10
2260728,14
2261360,13
2261984,12
2262608,13
2263236,12
2263856,18
2264484,17
2265116,18
2265736,18
2266364,18
2266988,18
2267620,18
2268248,11
2268864,11
2269496,15
2270120,13
2270744,13
2271372,12
2271992,11
2272624,11
2273248,16
2273872,14
2274500,10
2275120,11
2275748,10
2276380,10
2277000,11
2277628,11
2278252,11
2278884,10
2279512,9
2280084,14
2280716,11
2281340,11
2281972,10
2282600,13
2283220,16
2283848,15
2284472,12
2285096,12
2285724,12
2286344,11
2286972,10
2287600,13
2288224,12
2288852,14
2289476,16
2290108,17
2290736,16
2291360,13
2291988,11
2292612,10
2293244,10
2293876,10
2294496,10
2295124,11
2295748,13
2296372,11
2297000,10
2297620,11
2298248,19
2298872,12
2299496,11
2300124,11
2300748,12
2301380,10
2302012,10
2302632,11
2303264,12
2303888,11
2304520,13
2305148,12
2305768,17
2306396,14
2307020,10
2307644,11
2308272,10
2308888,13
2309520,13
2310140,10
2310768,11
2311396,11
2312020,10
2312648,10
2313280,11
2313896,10
2314524,13
2315148,19
2315780,14
2316408,10
2317032,11
2317660,10
2318284,11
2318908,11
2319540,14
2320160,12
2320788,10
2321416,10
2322040,11
2322668,12
2323292,13
2323920,13
2324552,11
2325168,11
2325796,10
2326420,10
2327044,11
2327676,10
2328296,11
2328924,11
2329548,11
2330176,11
2330804,10
2331424,12
2332052,11
2332684,10
2333304,12
2333932,10
2334560,13
2335188,17
2335820,23
2336440,23
2337068,11
2337692,10
2338316,10
2338944,12
2339568,15
2340196,14
2340820,14
2341444,12
2342072,10
2342696,13
2343324,15
2343956,14
2344576,12
2345204,10
2345828,11
2346460,10
2347088,10
2347712,11
2348340,12
2348964,11
2349588,9
2350168,14
2350792,12
2351424,11
2352048,11
2352672,13
2353300,12
2353920,12
2354548,13
2355176,18
2355800,13
2356432,10
2357048,10
2357680,12
2358308,14
2358928,19
2359556,19
2360184,15
2360812,13
2361444,12
2362064,14
2362692,11
2363316,11
2363940,20
2364572,15
2365192,12
2365824,11
2366448,10
2367072,11
2367700,10
2368324,12
2368956,10
2369584,10
2370208,11
2370836,11
2371464,15
2372092,15
2372724,10
2373344,10
2373972,12
2374600,10
2375224,11
2375852,11
2376472,13
2377100,13
2377724,14
2378352,13
2378980,13
2379604,14
2380236,14
2380864,11
2381488,10
2382116,11
2382740,10
2383368,9
2383944,13
2384568,16
2385196,15
2385824,11
2386448,11
2387076,22
2387696,28
2388324,11
2388948,14
2389572,23
2390204,30
2390824,22
2391456,11
2392084,14
2392704,18
2393336,16
2393960,16
2394588,11
2395220,12
2395840,13
2396472,17
2397096,19
2397720,15
2398352,11
2398968,12
2399600,13
2400224,11
2400848,11
2401476,10
2402096,11
2402724,11
2403356,11
2403976,12
2404604,10
2405228,12
2405860,14
2406488,12
2407112,12
2407740,11
2408364,11
2408988,11
2409616,10
2410232,10
2410864,11
2411488,11
2412112,12
2412740,11
2413360,14
2413988,11
2414620,10
2415240,12
2415868,13
2416496,16
2417124,14
2417756,10
2418376,11
2419004,11
2419632,11
2420252,10
2420884,10
2421504,11
2422132,11
2422756,12
2423384,11
2424012,10
2424632,12
2425260,11
2425892,11
2426512,14
2427144,13
2427768,12
2428396,11
2429028,10
2429648,13
2430276,13
2430904,16
2431528,16
2432160,10
2432776,21
2433404,13
2434028,11
2434652,18
2435284,21
2435908,11
2436536,12
2437164,17
2437784,11
2438412,15
2439036,15
2439668,11
2440300,18
2440920,21
2441548,16
2442176,11
2442800,10
2443428,10
2444048,12
2444676,19
2445304,19
2445928,19
2446556,19
2447180,25
2447812,27
2448444,23
2449064,15
2449692,11
2450316,15
2450948,17
2451580,10
2452200,22
2452828,19
2453452,12
2454080,11
2454708,14
2455328,15
2455960,14
2456592,11
2457208,14
2457840,13
2458460,11
2459092,10
2459720,10
2460336,10
2460964,11
2461588,13
2462212,11
2462844,12
2463464,15
2464092,17
2464716,15
2465336,11
2465968,10
2466584,11
2467212,11
2467836,10
2468464,11
2469092,10
2469716,11
2470348,13
2470976,12
2471600,12
2472228,10
2472852,10
2473480,12
2474108,12
2474728,12
2475356,11
2475980,14
2476608,12
2477236,11
2477856,11
2478484,11
2479116,10
2479736,12
2480364,11
2480988,12
2481620,13
2482248,11
2482864,12
2483492,13
2484116,13
2484740,11
2485372,10
2485992,11
2486620,13
2487244,11
2487868,10
2488500,10
2489120,12
2489748,10
2490376,10
2491000,11
2491628,13
2492252,19
2492884,15
2493512,11
2494132,11
2494760,10
2495384,11
2496012,14
2496640,14
2497256,16
2497884,21
2498508,13
2499132,11
2499764,10
2500384,11
2501012,11
2501644,10
2502264,10
2502892,10
2503516,10
2504148,10
2504776,10
2505400,12
2506028,11
2506656,13
2507276,16
2507908,16
2508528,17
2509160,19
2509780,21
2510404,19
2511036,11
2511656,11
2512284,13
2512916,10
2513536,11
2514168,10
2514788,11
2515420,11
2516052,11
2516672,13
2517300,11
2517928,13
2518552,15
2519180,17
2519800,17
2520428,12
2521052,12
2521680,13
2522308,11
2522928,11
2523556,11
2524188,12
2524808,13
2525436,13
2526060,11
2526692,10
2527324,10
2527944,10
2528576,10
2529200,14
2529824,19
2530452,13
2531072,13
2531704,13
2532328,11
2532952,11
2533584,13
2534200,13
2534832,13
2535464,12
2536084,10
2536712,11
2537336,12
2537968,10
2538596,10
2539216,11
2539848,11
2540472,11
2541096,13
2541724,14
2542344,22
2542976,21
2543600,11
2544224,10
2544852,10
2545476,13
2546108,11
2546740,11
2547360,15
2547988,13
2548616,11
2549244,11
2549876,10
2550496,10
2551124,10
2551752,10
2552376,11
2553008,10
2553624,11
2554252,10
2554880,10
2555504,11
2556136,10
2556760,11
2557392,11
2558024,12
2558644,12
2559276,12
2559900,10
2560528,11
2561156,10
2561772,11
2562400,12
2563024,17
2563648,17
2564276,14
2564896,15
2565524,13
2566152,11
2566768,11
2567396,10
2568020,12
2568648,15
2569276,14
2569896,12
2570524,11
2571148,11
2571776,12
2572404,12
2573024,11
2573652,15
2574276,12
2574896,14
2575528,11
2576144,11
2576772,10
2577396,13
2578020,17
2578648,17
2579272,15
2579900,17
2580532,14
2581152,12
2581780,10
2582400,11
2583032,12
2583660,16
2584280,12
2584908,10
2585532,20
2586156,23
2586784,18
2587408,14
2588036,11
2588660,12
2589284,11
2589912,20
2590536,27
2591164,25
2591796,14
2592416,11
2593044,11
2593668,10
2594296,12
2594924,11
2595544,11
2596172,12
2596796,12
2597420,12
2598052,10
2598672,11
2599300,11
2599924,11
2600548,11
2601180,13
2601800,19
2602432,21
2603060,16
2603680,13
2604308,11
2604932,13
2605564,11
2606192,11
2606808,17
2607440,18
2608064,13
2608688,14
2609316,12
2609936,11
2610564,10
2611188,10
2611816,13
2612444,11
2613068,11
2613700,10
2614328,10
2614948,10
2615576,12
2616200,13
2616828,15
2617460,12
2618080,11
2618708,11
2619332,10
2619956,11
2620588,10
2621208,18
2621836,16
2622460,11
2623088,11
2623716,11
2624340,10
2624968,11
2625592,10
2626216,12
2626844,11
2627464,11
2628092,12
2628720,12
2629344,13
2629972,11
2630596,12
2631216,12
2631848,20
2632464,21
2633092,11
2633716,14
2634340,14
2634968,15
2635592,11
2636220,10
2636848,10
2637468,11
2638096,11
2638720,10
2639348,12
2639980,11
2640600,11
2641228,13
2641852,16
2642476,21
2643104,20
2643720,15
2644348,11
2644972,11
2645592,10
2646224,11
2646840,11
2647468,13
2648096,13
2648720,11
2649348,10
2649972,13
2650600,17
2651228,16
2651848,13
2652476,11
2653100,10
2653724,10
2654352,11
2654972,11
2655600,13
2656224,11
2656844,16
2657476,16
2658096,12
2658724,12
2659352,14
2659976,11
2660604,10
2661228,10
2661860,12
2662488,10
2663104,11
2663732,14
2664356,14
2664976,11
2665604,10
2666220,12
2666852,12
2667472,13
2668096,21
2668724,14
2669344,11
2669972,16
2670600,15
2671224,12
2671852,14
2672476,19
2673104,12
2673736,10
2674352,12
2674980,11
2675604,17
2676228,16
2676860,12
2677480,12
2678108,12
2678732,17
2679356,17
2679984,13
2680604,11
2681232,11
2681860,10
2682480,13
2683108,15
2683732,11
2684360,11
2684992,11
2685608,13
2686236,13
2686860,15
2687488,15
2688120,11
2688736,13
2689364,16
2689984,19
2690608,21
2691236,12
2691856,11
2692484,13
2693104,12
2693728,10
2694360,12
2694984,15
2695612,13
2696240,16
2696864,15
2697492,15
2698116,10
2698744,10
2699376,10
2699992,12
2700620,12
2701248,14
2701868,14
2702500,14
2703120,14
2703748,11
2704372,10
2704996,13
2705624,11
2706248,12
2706876,14
2707504,11
2708124,11
2708752,13
2709376,10
2710004,10
2710632,11
2711256,13
2711884,12
2712508,11
2713132,11
2713764,10
2714384,11
2715012,10
2715636,17
2716260,19
2716888,12
2717512,15
2718140,18
2718772,14
2719392,15
2720020,13
2720644,13
2721272,16
2721900,17
2722520,21
2723148,16
2723772,10
2724396,14
2725024,10
2725648,19
2726276,16
2726900,15
2727524,18
2728152,12
2728776,21
2729404,21
2730032,10
2730656,10
2731284,11
2731908,15
2732540,18
2733168,14
2733784,11
2734416,10
2735040,10
2735660,11
2736292,11
2736912,15
2737540,11
2738164,12
2738788,12
2739420,15
2740044,14
2740672,14
2741300,11
2741920,11
2742548,13
2743172,14
2743804,13
2744432,16
2745056,13
2745684,11
2746308,11
2746932,10
2747560,16
2748176,21
2748808,16
2749432,12
2750056,11
2750684,11
2751308,11
2751940,10
2752572,10
2753192,13
2753820,11
2754444,11
2755076,11
2755704,11
2756320,10
2756952,11
2757576,13
2758200,12
2758828,11
2759448,25
2760076,22
2760700,12
2761328,11
2761956,10
2762580,11
2763212,10
2763840,10
2764464,12
2765096,12
2765716,11
2766340,12
2766972,10
2767592,11
2768220,12
2768844,11
2769468,10
2770096,11
2770712,29
2771344,21
2771972,10
2772592,10
2773220,11
2773844,21
2774476,27
2775104,22
2775728,18
2776356,15
2776980,15
2777604,15
2778236,14
2778856,11
2779484,13
2780112,11
2780736,13
2781364,13
2781984,21
2782616,19
2783244,10
2783864,12
2784496,11
2785120,10
2785748,10
2786380,10
2787000,12
2787628,11
2788252,11
2788876,12
2789504,10
2790128,11
2790756,17
2791380,12
2792004,11
2792632,10
2793256,12
2793884,13
2794516,12
2795136,10
2795768,12
2796388,11
2797020,15
2797648,12
2798272,12
2798900,10
2799524,11
2800148,13
2800780,11
2801400,11
2802028,11
2802652,11
2803276,11
2803904,9
2804472,10
2805100,11
2805728,11
2806352,11
2806980,10
2807600,12
2808228,14
2808860,12
2809480,12
2810108,10
2810732,10
2811364,9
2811940,11
2812568,11
2813196,14
2813820,17
2814452,13
2815084,10
2815704,11
2816336,11
2816956,10
2817580,11
2818208,10
2818832,11
2819460,11
2820084,13
2820708,11
2821336,11
2821960,13
2822588,11
2823216,10
2823840,11
2824468,11
2825092,10
2825720,12
2826352,11
2826968,13
2827596,17
2828220,17
2828844,17
2829472,14
2830088,10
2830716,16
2831340,15
2831964,11
2832596,15
2833220,11
2833848,10
2834480,10
2835096,11
2835728,16
2836348,22
2836980,18
2837608,9
2838180,11
2838812,11
2839436,19
2840068,20
2840696,10
2841320,19
2841948,16
2842572,11
2843196,14
2843828,18
2844448,15
2845076,10
2845708,10
2846328,11
2846956,10
2847580,11
2848212,10
2848840,12
2849464,15
2850092,10
2850716,16
2851340,28
2851972,25
2852592,21
2853220,17
2853844,13
2854468,10
2855100,10
2855720,11
2856348,12
2856980,10
2857600,11
2858228,10
2858852,16
2859484,13
2860116,10
2860736,13
2861368,16
2861992,13
2862616,14
2863248,14
2863864,13
2864496,11
2865120,13
2865744,17
2866372,16
2866992,19
2867624,18
2868252,18
2868872,17
2869500,11
2870124,10
2870752,11
2871380,11
2872000,13
2872628,11
2873252,11
2873876,12
2874504,10
2875128,11
2875756,11
2876380,12
2877004,14
2877636,10
2878256,11
2878884,10
2879516,10
2880136,11
2880764,10
2881384,10
2882016,11
2882644,10
2883260,11
2883892,10
2884512,11
2885136,11
2885764,14
2886384,16
2887012,12
2887636,14
2888260,16
2888888,11
2889504,10
2890136,17
2890764,24
2891384,19
2892012,11
2892636,10
2893268,10
2893896,10
2894512,10
2895140,12
2895764,12
2896388,14
2897020,12
2897640,11
2898268,9
2898840,10
2899464,11
2900092,12
2900712,13
2901340,10
2901964,12
2902588,12
2903220,10
2903840,11
2904468,11
2905100,12
2905720,14
2906348,15
2906972,17
2907604,19
2908232,12
2908848,10
2909480,12
2910100,14
2910728,13
2911356,11
2911976,11
2912608,11
2913232,11
2913856,11
2914484,13
2915104,18
2915736,15
2916364,10
2916984,12
2917612,14
2918236,15
2918868,13
2919500,10
2920120,15
2920748,17
2921372,17
2921996,17
2922624,12
2923248,11
2923876,17
2924500,13
2925124,11
2925756,10
2926376,14
2927004,17
2927636,10
2928256,13
2928884,14
2929508,16
2930140,16
2930768,13
2931388,13
2932016,13
2932640,12
2933264,14
2933892,12
2934512,11
2935140,13
2935768,11
2936392,14
2937020,12
2937640,11
2938268,11
2938900,10
2939520,10
2940148,11
2940776,18
2941404,19
2942036,18
2942656,24
2943288,21
2943912,17
2944536,10
2945168,13
2945784,16
2946416,14
2947040,11
2947664,11
2948292,12
2948912,11
2949540,12
2950172,24
2950792,20
2951420,10
2952044,10
2952672,13
2953304,15
2953920,11
2954552,14
2955176,19
2955800,17
2956428,18
2957048,13
2957676,13
2958300,12
2958924,10
2959556,12
2960176,21
2960804,29
2961432,24
2962056,18
2962684,15
2963308,16
2963936,17
2964568,11
2965184,22
2965812,21
2966436,11
2967060,10
2967692,15
2968312,16
2968944,11
2969568,11
2970192,11
2970820,10
2971440,12
2972068,11
2972700,12
2973320,13
2973948,14
2974572,16
2975204,17
2975832,14
2976452,11
2977080,11
2977704,11
2978328,11
2978956,10
2979576,12
2980204,13
2980828,13
2981452,11
2982080,10
2982704,10
2983332,12
2983964,10
2984584,11
2985212,11
2985836,10
2986468,10
2987096,10
2987720,10
2988348,10
2988972,11
2989596,12
2990228,14
2990848,18
2991476,23
2992100,25
2992724,22
2993356,17
2993976,13
2994604,10
2995236,10
2995856,12
2996484,12
2997108,11
2997740,10
2998368,11
2998988,11
2999620,11
3000244,10
3000868,10
3001496,10
3002120,11
3002748,11
3003372,12
3004000,9
3004576,10
3005200,17
3005828,19
3006456,13
3007080,11
3007708,10
3008336,11
3008964,11
3009592,10
3010216,15
3010848,13
3011472,12
3012100,13
3012732,12
3013352,12
3013984,11
3014608,11
3015232,11
3015864,11
3016480,11
3017108,15
3017740,15
3018360,16
3018992,13
3019616,16
3020248,14
3020876,10
3021496,12
3022124,12
3022748,11
3023372,11
3024004,11
3024624,13
3025252,15
3025880,11
3026504,11
3027132,10
3027752,10
3028384,11
3029016,10
3029632,10
3030264,12
3030888,11
3031520,15
3032148,18
3032768,19
3033400,16
3034024,13
3034648,11
3035276,10
3035896,11
3036528,11
3037152,11
3037776,10
3038408,10
3039024,9
3039604,13
3040232,18
3040856,20
3041484,13
3042104,11
3042732,10
3043364,12
3043984,15
3044612,14
3045240,13
3045868,13
3046500,10
3047120,11
3047748,13
3048372,14
3048996,16
3049628,20
3050248,22
3050876,11
3051504,11
3052128,11
3052756,14
3053384,12
3054016,9
3054588,10
3055220,11
3055848,10
3056476,11
3057104,11
3057736,11
3058352,11
3058984,10
3059608,11
3060232,19
3060864,25
3061480,25
3062112,21
3062736,17
3063360,14
3063992,11
3064612,12
3065240,17
3065872,15
3066492,11
3067124,11
3067748,11
3068380,13
3069012,10
3069632,11
3070264,15
3070888,15
3071516,22
3072148,25
3072764,25
3073396,16
3074020,13
3074640,12
3075272,11
3075888,12
3076516,14
3077148,10
3077768,11
3078396,10
3079020,15
3079652,13
3080280,10
3080904,11
3081532,17
3082156,18
3082780,12
3083412,10
3084032,11
3084660,12
3085284,11
3085908,21
3086540,20
3087160,12
3087792,12
3088420,12
3089040,11
3089668,10
3090292,11
3090924,10
3091552,11
3092172,12
3092800,18
3093424,19
3094048,11
3094676,11
3095296,12
3095924,17
3096552,15
3097176,16
3097804,13
3098424,14
3099052,14
3099684,12
3100304,11
3100936,11
3101560,11
3102188,12
3102820,14
3103440,15
3104072,10
3104692,14
3105316,16
3105948,14
3106568,17
3107196,15
3107824,16
3108448,15
3109076,15
3109704,11
3110332,11
3110964,10
3111584,11
3112216,11
3112840,11
3113472,15
3114100,19
3114720,17
3115348,14
3115976,10
3116600,11
3117232,10
3117848,11
3118480,10
3119104,10
3119728,10
3120360,11
3120984,17
3121612,15
3122244,14
3122864,25
3123496,17
3124120,12
3124740,11
3125372,10
3125992,12
3126620,17
3127244,25
3127868,22
3128500,14
3129120,11
3129748,11
3130380,12
3131000,15
3131632,11
3132256,15
3132884,18
3133516,10
3134136,11
3134764,11
3135392,11
3136016,11
3136644,14
3137264,18
3137892,12
3138516,10
3139144,11
3139772,12
3140392,15
3141024,16
3141652,15
3142272,15
3142904,11
3143528,10
3144160,10
3144788,10
3145408,11
3146040,10
3146664,11
3147288,11
3147916,10
3148536,12
3149168,14
3149792,11
3150416,11
3151044,10
3151664,10
3152296,11
3152924,11
3153544,15
3154176,13
3154800,11
3155428,11
3156060,10
3156680,11
3157308,11
3157936,10
3158560,11
3159188,10
3159808,14
3160440,22
3161064,17
3161688,13
3162316,10
3162936,10
3163568,16
3164196,12
3164816,10
3165444,9
3166016,11
3166656,15
3167288,15
3167904,12
3168536,10
3169164,10
3169792,12
3170424,14
3171044,16
3171676,12
3172300,11
3172924,10
3173556,10
3174176,13
3174808,13
3175440,11
3176056,10
3176688,11
3177312,11
3177944,11
3178572,18
3179192,15
3179824,16
3180448,16
3181072,13
3181704,11
3182320,11
3182952,23
3183576,21
3184200,10
3184832,10
3185448,11
3186080,11
3186712,10
3187328,10
3187960,12
3188584,14
3189216,16
3189844,16
3190464,15
3191096,11
3191720,13
3192344,14
3192976,15
3193592,12
3194228,15
3194852,11
3195480,11
3196108,10
3196728,13
3197360,16
3197992,15
3198612,10
3199240,11
3199868,19
3200500,19
3201128,19
3201744,19
3202372,15
3202996,15
3203620,17
3204248,16
3204864,14
3205492,14
3206116,11
3206740,12
3207368,11
3207984,11
3208612,10
3209244,10
3209864,12
3210492,10
3211116,15
3211748,16
3212376,11
3212996,10
3213624,11
3214248,11
3214872,11
3215500,13
3216120,25
3216748,12
3217372,13
3217996,11
3218624,10
3219244,13
3219872,13
3220500,15
3221120,13
3221748,13
3222372,15
3223004,11
3223632,11
3224256,20
3224884,14
3225508,11
3226136,13
3226764,12
3227384,11
3228012,10
3228636,10
3229260,10
3229892,10
3230512,11
3231144,13
3231772,13
3232392,13
3233020,12
3233644,11
3234276,10
3234904,12
3235524,11
3236152,19
3236776,20
3237400,14
3238028,13
3238648,15
3239276,11
3239900,11
3240524,11
3241156,10
3241776,13
3242404,11
3243036,10
3243656,13
3244284,17
3244908,15
3245540,11
3246168,10
3246792,11
3247420,13
3248044,15
3248668,12
3249300,12
3249920,11
3250548,13
3251176,13
3251800,11
3252428,10
3253048,11
3253676,10
3254308,10
3254928,10
3255556,11
3256184,13
3256812,15
3257444,16
3258064,15
3258692,11
3259320,11
3259944,13
3260572,12
3261192,12
3261824,11
3262448,13
3263072,13
3263704,12
3264328,14
3264956,11
3265588,10
3266208,11
3266836,11
3267464,10
3268092,10
3268724,10
3269344,11
3269972,11
3270600,13
3271224,10
3271856,11
3272472,11
3273104,12
3273736,12
3274352,17
3274984,19
3275608,19
3276240,18
3276868,19
3277484,17
3278112,11
3278736,11
3279364,10
3279992,10
3280608,11
3281236,13
3281856,19
3282480,16
3283108,12
3283728,13
3284356,10
3284976,11
3285600,12
3286228,10
3286852,11
3287480,11
3288108,11
3288724,11
3289356,11
3289976,15
3290604,12
3291236,12
3291856,12
3292484,12
3293104,17
3293728,21
3294356,20
3294976,15
3295604,13
3296228,11
3296852,19
3297480,14
3298096,15
3298724,23
3299352,22
3299968,20
3300596,17
3301220,13
3301848,10
3302476,10
3303092,12
3303724,11
3304344,10
3304968,11
3305596,14
3306216,11
3306844,9
3307416,10
3308040,10
3308668,10
3309288,11
3309916,13
3310540,16
3311164,16
3311792,15
3312416,13
3313044,13
3313676,12
3314296,13
3314924,13
3315548,16
3316180,13
3316808,10
3317424,12
3318052,14
3318676,11
3319300,11
3319932,12
3320552,12
3321180,11
3321804,10
3322428,11
3323056,12
3323680,13
3324308,11
3324940,10
3325560,12
3326188,13
3326812,11
3327444,10
3328072,12
3328692,20
3329320,18
3329940,13
3330564,11
3331192,12
3331812,10
3332440,11
3333064,12
3333684,13
3334316,16
3334936,20
3335564,14
3336188,10
3336816,10
3337444,10
3338068,10
3338696,11
3339324,10
3339944,11
3340572,12
3341196,12
3341824,12
3342456,13
3343072,19
3343700,17
3344324,13
3344948,10
3345576,12
3346196,11
3346824,10
3347448,13
3348068,17
3348700,19
3349324,17
3349952,14
3350580,10
3351200,11
3351828,12
3352452,13
3353084,20
3353712,18
3354336,21
3354964,17
3355588,13
3356212,11
3356840,11
3357464,13
3358092,14
3358716,17
3359344,16
3359972,12
3360600,13
3361228,11
3361856,13
3362472,13
3363100,11
3363724,11
3364352,10
3364984,11
3365600,12
3366228,15
3366852,18
3367476,11
3368104,10
3368720,14
3369348,12
3369972,11
3370596,12
3371224,20
3371848,22
3372476,11
3373108,13
3373728,22
3374356,22
3374980,19
3375612,17
3376240,14
3376864,13
3377492,13
3378116,12
3378740,10
3379368,10
3379988,11
3380620,10
3381240,12
3381864,13
3382492,15
3383116,11
3383744,16
3384372,15
3384992,12
3385620,10
3386240,10
3386872,11
3387500,10
3388120,11
3388748,12
3389372,12
3389996,11
3390628,10
3391248,11
3391876,11
3392504,11
3393124,12
3393756,14
3394380,13
3395008,13
3395636,12
3396256,15
3396884,19
3397508,21
3398136,14
3398768,11
3399384,12
3400012,11
3400636,10
3401260,10
3401888,11
3402504,11
3403136,10
3403760,11
3404384,10
3405012,10
3405636,10
3406264,11
3406892,13
3407512,13
3408140,11
3408764,11
3409392,11
3410024,10
3410640,11
3411268,11
3411892,13
3412516,11
3413144,16
3413760,18
3414392,15
3415016,13
3415640,15
3416268,10
3416888,12
3417516,11
3418148,12
3418768,17
3419396,21
3420024,19
3420652,11
3421280,12
3421904,12
3422532,11
3423156,11
3423784,11
3424412,10
3425032,11
3425660,11
3426284,12
3426908,14
3427540,16
3428164,17
3428792,15
3429424,17
3430040,13
3430672,11
3431296,13
3431924,13
3432556,10
3433176,16
3433804,12
3434428,11
3435052,11
3435684,10
3436304,11
3436932,11
3437556,11
3438184,13
3438812,11
3439436,9
3440016,10
3440644,10
3441260,11
3441892,11
3442516,14
3443144,16
3443772,16
3444392,12
3445020,15
3445644,15
3446276,10
3446904,11
3447520,14
3448152,18
3448776,17
3449400,11
3450028,16
3450648,13
3451276,11
3451900,10
3452528,13
3453156,15
3453780,19
3454412,15
3455040,12
3455664,10
3456296,11
3456916,13
3457540,13
3458172,10
3458792,13
3459420,13
3460044,10
3460668,11
3461296,10
3461920,11
3462548,11
3463176,14
3463800,16
3464428,13
3465052,17
3465684,19
3466312,14
3466928,11
3467556,11
3468180,10
3468804,10
3469436,10
3470056,11
3470684,13
3471312,11
3471936,12
3472568,11
3473184,11
3473812,10
3474444,17
3475064,23
3475696,24
3476320,19
3476948,12
3477580,12
3478200,14
3478832,13
3479456,11
3480080,10
3480708,10
3481328,12
3481960,14
3482580,12
3483204,11
3483832,10
3484452,11
3485080,11
3485708,13
3486328,17
3486956,13
3487580,10
3488212,10
3488840,12
3489456,12
3490084,11
3490708,10
3491336,11
3491964,11
3492584,11
3493212,10
3493836,10
3494460,11
3495088,11
3495712,12
3496340,11
3496972,10
3497592,12
3498220,15
3498844,12
3499476,14
3500108,19
3500728,16
3501360,11
3501984,11
3502608,11
3503236,11
3503856,15
3504488,17
3505108,17
3505736,15
3506364,12
3506984,10
3507616,13
3508244,11
3508864,14
3509492,17
3510116,14
3510748,11
3511380,10
3512000,10
3512628,10
3513252,10
3513880,12
3514508,11
3515128,11
3515760,10
3516384,11
3517008,11
3517640,10
3518256,11
3518888,12
3519516,16
3520136,15
3520768,14
3521392,11
3522020,15
3522652,16
3523272,11
3523900,10
3524524,11
3525148,13
3525776,11
3526392,11
3527024,11
3527648,11
3528272,14
3528900,13
3529520,12
3530148,11
3530780,11
3531400,11
3532028,10
3532656,11
3533284,11
3533912,16
3534536,21
3535164,17
3535788,14
3536412,12
3537044,10
3537664,10
3538292,11
3538916,12
3539540,11
3540172,10
3540792,11
3541424,12
3542052,10
3542672,12
3543304,14
3543924,13
3544556,13
3545188,16
3545808,14
3546436,11
3547060,10
3547684,17
3548316,18
3548936,14
3549564,11
3550188,12
3550816,11
3551444,13
3552068,14
3552700,10
3553328,10
3553952,11
3554580,10
3555204,13
3555836,14
3556468,10
3557088,11
3557720,11
3558344,12
3558968,12
3559596,12
3560216,12
3560844,11
3561468,10
3562096,10
3562724,12
3563352,12
3563980,14
3564612,14
3565232,15
3565860,13
3566484,10
3567108,10
3567740,10
3568360,11
3568988,11
3569612,11
3570236,10
3570868,10
3571488,11
3572116,11
3572748,14
3573368,14
3574000,14
3574624,11
3575252,14
3575884,14
3576504,11
3577132,16
3577760,15
3578384,11
3579016,10
3579632,13
3580264,10
3580888,10
3581512,12
3582144,18
3582764,11
3583392,11
3584024,16
3584644,14
3585276,13
3585896,16
3586528,15
3587156,16
3587776,20
3588404,21
3589028,15
3589652,12
3590284,18
3590904,15
3591532,11
3592156,12
3592784,11
3593412,10
3594032,11
3594660,16
3595292,16
3595912,13
3596544,12
3597168,11
3597796,10
3598428,10
3599048,11
3599680,10
3600304,11
3600928,12
3601556,14
3602176,17
3602804,14
3603428,15
3604052,11
3604684,12
3605304,11
3605932,10
3606560,13
3607176,15
3607808,19
3608432,15
3609060,13
3609688,11
3610308,11
3610940,14
3611564,12
3612184,14
3612816,14
3613432,11
3614060,10
3614684,10
3615308,11
3615940,10
3616560,12
3617188,11
3617820,10
3618440,13
3619068,15
3619692,11
3620324,10
3620952,12
3621568,10
3622200,11
3622824,13
3623448,16
3624076,12
3624696,11
3625324,10
3625948,14
3626572,11
3627200,10
3627824,11
3628452,10
3629084,10
3629704,11
3630332,11
3630956,11
3631588,11
3632220,12
3632840,14
3633468,11
3634092,11
3634716,10
3635348,10
3635968,15
3636596,18
3637220,17
3637844,11
3638476,10
3639096,11
3639724,12
3640356,10
3640976,15
3641604,11
3642228,10
3642860,10
3643488,10
3644108,12
3644736,15
3645364,12
3645988,12
3646616,13
3647240,11
3647868,10
3648496,10
3649116,11
3649748,14
3650372,11
3651000,9
3651572,12
3652200,13
3652828,15
3653452,11
3654084,11
3654712,11
3655332,11
3655960,12
3656584,12
3657216,11
3657844,11
3658464,11
3659092,13
3659716,11
3660344,12
3660972,10
3661592,11
3662220,11
3662848,10
3663472,11
3664100,10
3664724,10
3665356,10
3665988,10
3666608,11
3667236,10
3667860,11
3668488,11
3669116,10
3669736,13
3670368,13
3670992,12
3671616,11
3672248,10
3672864,11
3673496,10
3674124,10
3674744,11
3675376,11
3676000,11
3676628,11
3677260,14
3677880,18
3678512,13
3679136,10
3679760,11
3680392,16
3681008,22
3681636,13
3682260,10
3682884,10
3683516,10
3684136,12
3684764,11
3685396,10
3686016,10
3686648,14
3687268,14
3687896,10
3688528,10
3689144,16
3689772,13
3690396,11
3691020,12
3691648,13
3692264,11
3692896,15
3693520,15
3694140,11
3694772,10
3695392,13
3696020,13
3696652,10
3697272,12
3697900,10
3698524,11
3699156,12
3699784,10
3700408,13
3701036,12
3701660,10
3702284,11
3702916,10
3703536,11
3704164,11
3704788,10
3705412,12
3706044,15
3706664,15
3707292,17
3707924,14
3708544,15
3709172,13
3709800,13
3710428,11
3711060,12
3711680,11
3712312,11
3712936,10
3713556,10
3714188,11
3714808,13
3715436,11
3716060,11
3716684,9
3717264,13
3717888,13
3718516,11
3719140,11
3719764,11
3720396,10
3721016,13
3721644,15
3722276,16
3722896,14
3723524,11
3724148,11
3724780,15
3725412,15
3726032,13
3726664,9
3727236,10
3727872,11
3728500,12
3729120,14
3729748,11
3730372,13
3730996,12
3731628,12
3732248,14
3732876,11
3733500,10
3734128,12
3734756,16
3735384,17
3736012,13
3736644,10
3737264,11
3737896,12
3738520,12
3739144,11
3739772,13
3740392,13
3741020,10
3741648,11
3742272,11
3742900,11
3743520,11
3744152,14
3744780,18
3745400,14
3746028,13
3746652,15
3747284,16
3747916,12
3748536,11
3749164,9
3749736,11
3750376,11
3751008,12
3751624,11
3752256,11
3752880,11
3753504,11
3754136,10
3754752,11
3755384,11
3756008,14
3756632,12
3757264,10
3757884,10
3758512,10
3759144,10
3759764,10
3760396,10
3761020,11
3761652,9
3762228,9
3762804,10
3763440,13
3764064,11
3764692,12
3765324,14
3765944,11
3766576,16
3767200,13
3767824,16
3768456,26
3769072,23
3769700,22
3770324,19
3770948,15
3771580,14
3772200,15
3772828,12
3773460,10
3774080,11
3774708,11
3775336,11
3775968,11
3776600,10
3777216,11
3777844,11
3778468,10
3779096,11
3779724,15
3780344,15
3780972,11
3781600,13
3782224,14
3782852,12
3783472,10
3784104,11
3784732,10
3785352,15
3785984,23
3786608,18
3787236,12
3787868,11
3788488,11
3789120,12
3789740,11
3790364,19
3790996,14
3791616,10
3792248,10
3792868,12
3793492,14
3794124,12
3794744,11
3795372,11
3796004,11
3796624,11
3797252,16
3797880,19
3798508,15
3799140,12
3799760,11
3800392,11
3801016,12
3801640,10
3802268,10
3802888,11
3803516,11
3804144,13
3804768,11
3805400,11
3806024,11
3806656,16
3807284,14
3807904,13
3808536,14
3809160,15
3809792,17
3810420,15
3811040,13
3811672,11
3812296,11
3812920,11
3813552,11
3814168,13
3814800,15
3815432,15
3816048,13
3816680,13
3817304,13
3817936,12
3818564,10
3819184,11
3819816,15
3820440,12
3821064,11
3821696,12
3822312,14
3822944,12
3823568,11
3824192,12
3824824,10
3825440,11
3826072,11
3826700,11
3827320,14
3827952,13
3828576,10
3829208,11
3829836,10
3830456,10
3831088,12
3831712,11
3832336,12
3832968,11
3833584,11
3834216,15
3834844,16
3835468,15
3836100,11
3836720,13
3837352,13
3837988,11
3838608,10
3839240,11
3839868,12
3840500,10
3841128,10
3841752,12
3842380,13
3843004,13
3843628,15
3844260,12
3844880,12
3845508,14
3846132,11
3846756,11
3847388,11
3848012,13
3848640,11
3849268,10
3849888,12
3850516,13
3851140,13
3851772,10
3852400,10
3853024,11
3853652,10
3854276,11
3854900,12
3855532,11
3856152,12
3856780,12
3857404,11
3858032,11
3858660,15
3859284,13
3859916,10
3860544,12
3861168,15
3861796,15
3862420,15
3863044,13
3863676,10
3864296,10
3864924,12
3865552,11
3866176,12
3866804,14
3867424,19
3868052,13
3868684,10
3869304,11
3869932,14
3870560,12
3871188,13
3871820,10
3872440,12
3873068,13
3873692,11
3874316,12
3874948,11
3875568,20
3876196,24
3876820,20
3877444,17
3878076,12
3878696,11
3879324,11
3879956,10
3880576,10
3881208,11
3881832,19
3882460,14
3883092,12
3883712,11
3884344,13
3884968,14
3885592,11
3886224,11
3886840,12
3887472,12
3888096,11
3888720,13
3889348,15
3889968,11
3890600,11
3891232,14
3891848,13
3892476,12
3893100,11
3893732,11
3894364,10
3894984,11
3895612,11
3896240,11
3896864,11
3897492,11
3898112,11
3898740,10
3899368,11
3899992,11
3900620,13
3901240,14
3901872,11
3902500,11
3903120,11
3903752,11
3904376,12
3905004,12
3905636,16
3906256,16
3906884,17
3907508,13
3908136,10
3908764,10
3909384,11
3910016,14
3910640,13
3911264,11
3911896,11
3912520,12
3913148,14
3913780,16
3914400,17
3915028,13
3915656,12
3916288,11
3916916,12
3917536,12
3918168,11
3918792,11
3919416,12
3920048,11
3920664,12
3921292,10
3921916,10
3922544,10
3923176,12
3923800,13
3924432,13
3925060,10
3925680,11
3926312,11
3926936,11
3927560,10
3928192,11
3928808,11
3929440,12
3930064,14
3930688,11
3931320,10
3931940,11
3932572,11
3933200,13
3933816,12
3934448,11
3935072,11
3935700,11
3936332,10
3936952,13
3937580,12
3938204,11
3938828,10
3939460,11
3940080,13
3940708,15
3941332,13
3941956,11
3942588,11
3943208,14
3943836,11
3944468,10
3945088,12
3945716,16
3946340,13
3946972,11
3947600,10
3948220,10
3948848,11
3949472,10
3950096,10
3950724,10
3951344,11
3951976,11
3952600,12
3953224,11
3953852,10
3954472,11
3955104,11
3955732,10
3956352,11
3956980,11
3957604,10
3958236,12
3958868,15
3959488,16
3960120,15
3960744,16
3961368,15
3961996,14
3962616,11
3963248,11
3963872,11
3964496,10
3965124,14
3965744,14
3966376,11
3967004,15
3967624,17
3968256,15
3968880,19
3969508,16
3970140,10
3970760,12
3971388,10
3972012,11
3972636,11
3973268,14
3973888,16
3974516,17
3975140,15
3975764,13
3976396,12
3977016,11
3977644,11
3978276,12
3978896,12
3979524,10
3980148,10
3980780,10
3981412,11
3982032,17
3982664,21
3983288,14
3983912,11
3984544,11
3985160,10
3985792,11
3986416,17
3987040,15
3987672,11
3988296,14
3988924,15
3989556,20
3990176,20
3990808,16
3991432,11
3992064,10
3992692,10
3993312,11
3993944,12
3994568,12
3995192,12
3995820,11
3996440,11
3997068,10
3997696,10
3998320,11
3998952,12
3999576,12
4000208,13
4000836,14
4001456,14
4002084,12
4002708,11
4003332,13
4003964,12
4004584,10
4005212,11
4005836,11
4006460,10
4007088,12
4007704,13
4008336,13
4008960,10
4009584,11
4010212,10
4010836,12
4011468,12
4012100,12
4012720,11
4013352,11
4013976,12
4014600,12
4015228,10
4015848,12
4016476,13
4017100,12
4017724,11
4018356,10
4018976,12
4019604,11
4020236,10
4020856,11
4021484,10
4022108,11
4022740,11
4023368,13
4023984,11
4024616,10
4025240,11
4025864,11
4026492,12
4027112,15
4027744,18
4028368,20
4028992,18
4029620,11
4030240,11
4030868,10
4031500,10
4032120,11
4032748,11
4033372,10
4034004,11
4034632,12
4035248,20
4035880,16
4036504,10
4037128,12
4037756,15
4038376,17
4039008,13
4039632,13
4040256,11
4040884,13
4041504,15
4042132,15
4042764,16
4043384,16
4044012,12
4044640,12
4045268,12
4045900,10
4046520,10
4047148,11
4047772,11
4048396,13
4049028,15
4049648,18
4050276,15
4050900,12
4051524,11
4052156,11
4052776,11
4053408,11
4054036,10
4054656,11
4055288,11
4055908,12
4056540,12
4057172,12
4057792,11
4058420,10
4059044,11
4059668,11
4060300,10
4060920,13
4061548,12
4062172,11
4062800,11
4063428,11
4064048,11
4064676,11
4065308,10
4065928,13
4066556,11
4067184,12
4067812,16
4068444,16
4069064,15
4069696,11
4070320,11
4070944,13
4071576,12
4072196,10
4072824,11
4073448,9
4074020,10
4074656,11
4075272,13
4075904,11
4076528,11
4077152,15
4077784,14
4078408,14
4079036,11
4079668,10
4080288,13
4080916,13
4081544,10
4082172,10
4082804,10
4083424,17
4084052,15
4084676,10
4085304,11
4085932,10
4086552,11
4087184,13
4087812,17
4088432,15
4089064,13
4089688,24
4090316,22
4090948,24
4091568,31
4092200,30
4092824,23
4093448,13
4094080,11
4094696,10
4095328,10
4095956,10
4096584,11
4097212,10
4097828,13
4098456,14
4099084,14
4099700,11
4100332,10
4100952,10
4101580,11
4102208,10
4102832,11
4103460,12
4104080,13
4104708,10
4105336,10
4105952,10
4106584,10
4107204,13
4107828,13
4108456,14
4109072,13
4109704,12
4110324,10
4110948,10
4111576,12
4112200,14
4112828,11
4113456,10
4114072,11
4114704,10
4115328,11
4115956,18
4116584,18
4117208,11
4117836,11
4118460,12
4119080,11
4119712,11
4120328,12
4120956,11
4121580,11
4122204,12
4122832,10
4123456,13
4124084,11
4124712,11
4125336,15
4125964,12
4126588,10
4127220,10
4127848,10
4128464,9
4129040,12
4129664,15
4130292,16
4130920,13
4131540,10
4132168,10
4132792,10
4133416,9
4133992,10
4134616,12
4135244,12
4135868,14
4136492,16
4137120,12
4137744,11
4138372,10
4138996,13
4139620,13
4140248,15
4140872,15
4141500,13
4142128,10
4142752,13
4143380,13
4144004,11
4144632,11
4145260,10
4145880,12
4146508,11
4147132,10
4147760,11
4148388,11
4149008,13
4149636,13
4150260,12
4150884,11
4151512,11
4152140,10
4152768,11
4153396,10
4154016,10
4154644,12
4155268,11
4155900,10
4156528,10
4157152,11
4157780,11
4158404,11
4159028,13
4159660,17
4160280,18
4160908,13
4161528,10
4162152,11
4162780,10
4163404,11
4164032,11
4164660,10
4165280,11
4165908,11
4166532,10
4167160,11
4167788,12
4168408,10
4169036,10
4169660,10
4170280,12
4170912,11
4171528,15
4172156,17
4172780,17
4173404,13
4174036,17
4174660,18
4175288,11
4175916,16
4176536,13
4177164,11
4177788,11
4178420,12
4179048,11
4179664,15
4180292,16
4180916,14
4181540,10
4182168,11
4182784,11
4183416,10
4184040,11
4184660,10
4185292,10
4185912,16
4186540,20
4187172,16
4187792,13
4188420,10
4189044,11
4189676,10
4190304,10
4190924,10
4191552,10
4192176,12
4192800,11
4193428,10
4194048,12
4194676,12
4195300,11
4195924,12
4196552,11
4197176,11
4197804,10
4198436,12
4199052,17
4199684,13
4200304,11
4200936,11
4201564,10
4202184,11
4202812,11
4203436,11
4204060,10
4204688,13
4205308,11
4205936,14
4206560,13
4207184,11
4207812,10
4208432,11
4209060,13
4209692,14
4210312,14
4210940,13
4211564,12
4212196,10
4212824,11
4213440,10
4214068,13
4214692,14
4215316,12
4215948,10
4216568,12
4217196,10
4217820,10
4218448,10
4219076,14
4219696,14
4220324,11
4220956,10
4221576,11
4222204,12
4222828,14
4223460,17
4224092,16
4224708,12
4225340,12
4225960,12
4226584,13
4227212,10
4227832,11
4228460,10
4229084,11
4229708,10
4230336,14
4230960,11
4231588,10
4232220,14
4232840,15
4233468,13
4234092,11
4234724,10
4235352,10
4235972,11
4236604,11
4237228,10
4237852,15
4238480,15
4239096,13
4239728,11
4240352,11
4240976,11
4241604,13
4242224,19
4242852,17
4243484,10
4244104,11
4244732,11
4245356,10
4245988,10
4246616,12
4247240,13
4247868,11
4248492,11
4249116,15
4249748,17
4250368,15
4250996,11
4251620,11
4252244,12
4252872,15
4253496,15
4254124,13
4254756,10
4255376,10
4256004,10
4256628,10
4257260,11
4257888,12
4258508,11
4259136,12
4259760,11
4260384,11
4261012,10
4261632,11
4262260,11
4262884,10
4263508,11
4264136,14
4264752,15
4265384,13
4266012,12
4266632,12
4267260,12
4267884,11
4268512,10
4269144,10
4269760,11
4270392,13
4271016,13
4271640,11
4272268,10
4272888,11
4273516,11
4274140,12
4274764,11
4275396,10
4276016,11
4276644,11
4277272,10
4277896,11
4278524,10
4279148,13
4279780,14
4280412,10
4281032,11
4281660,11
4282284,13
4282908,22
4283536,18
4284152,17
4284784,16
4285408,15
4286032,11
4286660,11
4287280,11
4287908,10
4288540,10
4289160,11
4289788,11
4290412,13
4291044,11
4291672,10
4292288,12
4292920,11
4293544,13
4294168,13
4294796,15
4295416,17
4296048,15
4296668,11
4297292,12
4297924,10
4298544,13
4299176,11
4299804,10
4300424,10
4301056,11
4301676,11
4302308,11
4302936,13
4303556,13
4304184,14
4304808,16
4305428,17
4306060,19
4306680,17
4307308,11
4307932,10
4308556,10
4309184,10
4309808,11
4310436,11
4311068,12
4311688,13
4312316,11
4312940,11
4313572,10
4314204,10
4314824,11
4315452,12
4316080,11
4316704,11
4317332,12
4317952,12
4318584,10
4319208,11
4319832,11
4320464,10
4321080,11
4321708,11
4322340,10
4322960,11
4323588,10
4324212,10
4324844,13
4325472,13
4326092,13
4326720,13
4327344,11
4327968,11
4328596,10
4329216,11
4329844,13
4330468,15
4331092,15
4331724,12
4332344,11
4332972,11
4333604,10
4334224,11
4334852,10
4335476,10
4336108,11
4336740,10
4337360,10
4337988,16
4338612,18
4339240,15
4339868,12
4340488,17
4341116,17
4341744,12
4342368,10
4342996,11
4343624,11
4344252,10
4344884,11
4345504,11
4346136,11
4346760,11
4347388,11
4348020,10
4348640,11
4349268,11
4349896,11
4350520,11
4351152,10
4351768,12
4352400,10
4353028,11
4353648,11
4354276,11
4354900,12
4355528,12
4356160,15
4356776,14
4357404,12
4358028,12
4358660,11
4359288,11
4359912,11
4360540,10
4361164,11
4361788,10
4362420,10
4363040,13
4363668,12
4364300,10
4364920,11
4365548,11
4366172,11
4366804,10
4367432,12
4368048,11
4368680,11
4369300,12
4369928,13
4370556,12
4371176,14
4371808,12
4372432,13
4373056,13
4373684,12
4374304,11
4374936,11
4375564,10
4376184,11
4376812,14
4377440,11
4378068,11
4378700,12
4379320,11
4379948,12
4380576,13
4381200,12
4381828,10
4382448,12
4383076,14
4383704,13
4384328,11
4384956,12
4385576,15
4386204,15
4386836,14
4387456,15
4388084,13
4388708,13
4389340,10
4389972,10
4390592,20
4391220,20
4391844,13
4392472,13
4393100,19
4393720,15
4394348,11
4394976,12
4395600,13
4396228,12
4396848,13
4397476,13
4398108,11
4398728,12
4399356,12
4399984,11
4400616,11
4401248,10
4401864,10
4402496,10
4403120,11
4403744,10
4404372,10
4404992,11
4405620,12
4406244,13
4406868,10
4407500,10
4408120,11
4408748,10
4409380,10
4410000,17
4410628,22
4411252,16
4411884,15
4412516,12
4413136,15
4413768,12
4414388,14
4415016,22
4415648,10
4416264,12
4416896,12
4417516,12
4418144,13
4418772,23
4419396,17
4420028,14
4420656,16
4421280,11
4421908,12
4422536,13
4423164,12
4423796,10
4424416,13
4425044,10
4425668,10
4426292,10
4426920,11
4427536,10
4428168,13
4428792,14
4429416,17
4430044,13
4430668,14
4431300,13
4431932,12
4432552,12
4433180,10
4433808,11
4434436,11
4435068,10
4435688,11
4436316,11
4436940,11
4437564,13
4438196,11
4438816,12
4439444,13
4440076,12
4440696,12
4441324,10
4441952,13
4442580,15
4443212,15
4443832,14
4444464,12
4445088,11
4445712,11
4446340,10
4446960,11
4447588,11
4448216,13
4448840,13
4449468,11
4450088,13
4450716,13
4451348,12
4451968,12
4452600,10
4453224,11
4453856,11
4454484,11
4455104,11
4455732,11
4456356,13
4456980,11
4457612,18
4458232,21
4458864,16
4459488,14
4460112,15
4460744,11
4461360,10
4461992,11
4462624,11
4463240,10
4463872,10
4464496,10
4465128,11
4465756,14
4466376,13
4467008,13
4467632,14
4468256,10
4468884,12
4469504,11
4470136,11
4470760,11
4471384,11
4472016,12
4472632,12
4473264,10
4473896,11
4474516,11
4475144,13
4475772,18
4476404,12
4477032,10
4477656,10
4478288,11
4478912,12
4479536,11
4480168,10
4480784,11
4481412,10
4482036,11
4482660,15
4483288,15
4483912,12
4484540,11
4485172,11
4485792,11
4486420,10
4487044,11
4487672,11
4488300,11
4488920,18
4489548,19
4490176,17
4490800,12
4491428,10
4492048,11
4492676,11
4493304,12
4493928,11
4494556,10
4495184,11
4495812,11
4496444,11
4497064,11
4497692,11
4498316,10
4498948,11
4499580,10
4500200,12
4500828,11
4501452,11
4502080,11
4502708,12
4503328,12
4503960,11
4504592,11
4505208,10
4505840,13
4506460,16
4507092,15
4507720,12
4508336,14
4508968,13
4509592,11
4510216,11
4510844,10
4511464,11
4512092,13
4512716,20
4513340,18
4513968,16
4514592,16
4515220,11
4515852,16
4516472,21
4517100,17
4517724,11
4518356,11
4518988,11
4519608,11
4520236,11
4520860,12
4521484,12
4522116,10
4522736,11
4523364,11
4523988,15
4524616,12
4525244,10
4525864,13
4526496,12
4527124,10
4527744,11
4528372,11
4528996,15
4529628,14
4530256,10
4530880,11
4531508,11
4532132,11
4532760,11
4533388,11
4534008,12
4534636,12
4535264,10
4535888,11
4536516,10
4537136,11
4537764,11
4538396,10
4539016,11
4539648,11
4540272,11
4540900,11
4541532,10
4542152,12
4542784,13
4543408,11
4544032,13
4544660,12
4545280,13
4545908,14
4546536,13
4547160,13
4547788,13
4548408,11
4549036,10
4549668,10
4550288,11
4550920,11
4551544,11
4552172,11
4552804,11
4553424,11
4554056,10
4554680,11
4555304,11
4555936,10
4556552,10
4557184,10
4557808,12
4558436,11
4559064,11
4559688,11
4560316,13
4560948,13
4561568,11
4562200,10
4562824,11
4563452,10
4564084,10
4564704,11
4565332,11
4565960,12
4566584,12
4567212,10
4567832,12
4568464,15
4569088,13
4569712,12
4570340,12
4570964,13
4571596,14
4572228,10
4572848,17
4573476,12
4574104,13
4574728,17
4575356,20
4575976,16
4576608,11
4577236,12
4577860,13
4578492,11
4579112,11
4579744,11
4580376,11
4580992,12
4581624,11
4582248,11
4582880,13
4583508,13
4584128,12
4584760,11
4585384,11
4586008,10
4586640,10
4587256,14
4587888,23
4588512,16
4589136,11
4589764,11
4590384,11
4591016,11
4591644,11
4592264,13
4592892,11
4593516,11
4594148,14
4594780,12
4595400,15
4596028,13
4596652,10
4597276,12
4597908,12
4598528,11
4599156,13
4599784,12
4600408,13
4601036,12
4601656,9
4602232,10
4602864,13
4603488,14
4604120,13
4604744,16
4605376,11
4606008,12
4606624,13
4607256,11
4607880,11
4608512,13
4609140,13
4609760,12
4610388,10
4611012,10
4611636,13
4612264,14
4612880,14
4613512,10
4614136,10
4614760,11
4615388,11
4616012,11
4616640,11
4617268,10
4617888,11
4618516,10
4619140,10
4619772,11
4620400,12
4621024,12
4621652,11
4622276,11
4622900,13
4623532,18
4624152,18
4624780,15
4625404,10
4626032,14
4626660,16
4627284,14
4627916,12
4628544,10
4629168,11
4629796,11
4630420,10
4631044,10
4631676,10
4632296,11
4632924,12
4633552,11
4634176,10
4634804,10
4635424,10
4636052,11
4636684,12
4637304,19
4637932,22
4638560,22
4639188,17
4639820,10
4640440,11
4641068,10
4641692,11
4642316,14
4642944,14
4643568,11
4644196,14
4644820,14
4645444,11
4646072,11
4646696,11
4647324,12
4647956,12
4648576,12
4649204,10
4649828,11
4650460,11
4651088,13
4651708,11
4652336,11
4652960,10
4653584,11
4654212,10
4654832,12
4655460,13
4656088,14
4656708,13
4657340,12
4657960,12
4658588,13
4659220,15
4659840,17
4660468,15
4661092,15
4661724,11
4662352,10
4662976,12
4663604,11
4664232,14
4664856,13
4665484,11
4666104,11
4666732,11
4667360,11
4667984,12
4668616,10
4669232,10
4669864,12
4670492,11
4671112,11
4671744,12
4672368,11
4672996,10
4673628,12
4674248,11
4674876,11
4675500,12
4676124,12
4676756,14
4677376,14
4678004,11
4678632,11
4679256,11
4679884,10
4680504,11
4681132,13
4681764,14
4682384,13
4683012,11
4683640,13
4684268,17
4684900,10
4685520,10
4686148,9
4686720,11
4687356,11
4687988,10
4688608,12
4689236,12
4689864,11
4690488,11
4691116,12
4691736,11
4692368,15
4692996,17
4693616,17
4694248,13
4694872,11
4695504,10
4696132,10
4696752,12
4697384,11
4698008,15
4698632,16
4699264,13
4699880,10
4700512,13
4701136,17
4701760,19
4702392,14
4703008,14
4703640,13
4704272,11
4704896,13
4705528,11
4706152,11
4706784,12
4707412,13
4708032,11
4708664,11
4709288,11
4709912,11
4710544,10
4711160,10
4711792,11
4712416,11
4713040,11
4713668,11
4714288,13
4714916,12
4715548,10
4716168,12
4716796,11
4717424,12
4718056,11
4718684,11
4719304,11
4719936,11
4720560,13
4721184,13
4721816,12
4722432,13
4723060,11
4723688,12
4724312,11
4724940,11
4725560,11
4726192,12
4726820,15
4727440,17
4728072,11
4728696,11
4729324,11
4729956,10
4730576,11
4731208,11
4731832,10
4732456,10
4733088,11
4733704,11
4734336,13
4734960,14
4735588,11
4736220,10
4736844,10
4737472,11
4738100,10
4738720,11
4739348,11
4739976,11
4740604,10
4741236,11
4741856,11
4742488,13
4743108,11
4743736,11
4744364,10
4744984,10
4745612,10
4746236,12
4746864,15
4747496,19
4748120,13
4748752,11
4749384,11
4750000,10
4750632,11
4751256,11
4751884,13
4752512,12
4753136,13
4753764,11
4754392,11
4755016,15
4755648,11
4756264,11
4756896,11
4757524,13
4758144,14
4758776,14
4759400,12
4760032,11
4760660,10
4761280,12
4761912,10
4762536,11
4763160,12
4763788,12
4764408,13
4765036,11
4765664,9
4766236,10
4766872,10
4767488,10
4768120,10
4768744,11
4769368,11
4769996,11
4770616,16
4771248,17
4771876,20
4772496,18
4773124,13
4773748,11
4774380,11
4775012,11
4775632,11
4776264,12
4776888,11
4777512,13
4778144,11
4778760,10
4779392,12
4780020,13
4780644,13
4781276,13
4781900,12
4782532,12
4783164,10
4783784,10
4784416,10
4785040,11
4785672,11
4786304,11
4786920,10
4787552,12
4788180,12
4788804,10
4789432,10
4790056,10
4790688,11
4791320,13
4791940,11
4792572,12
4793196,11
4793828,14
4794460,15
4795080,15
4795712,15
4796336,13
4796960,11
4797592,11
4798212,10
4798844,10
4799468,13
4800092,15
4800724,16
4801344,17
4801976,14
4802604,13
4803224,22
4803852,19
4804476,13
4805108,13
4805736,12
4806360,12
4806992,11
4807616,10
4808240,11
4808868,10
4809488,12
4810116,14
4810744,11
4811368,11
4812000,13
4812624,13
4813256,14
4813884,16
4814504,15
4815132,11
4815756,11
4816388,11
4817016,11
4817640,13
4818268,17
4818892,18
4819516,12
4820148,10
4820768,11
4821396,11
4822028,10
4822648,12
4823276,12
4823904,12
4824532,10
4825164,10
4825784,13
4826412,11
4827036,10
4827664,12
4828292,10
4828912,13
4829540,13
4830168,11
4830792,11
4831424,9
4831988,12
4832624,14
4833248,13
4833872,11
4834500,13
4835120,15
4835752,13
4836380,11
4837000,13
4837628,11
4838256,13
4838884,12
4839516,12
4840136,15
4840764,17
4841388,11
4842016,14
4842644,12
4843264,12
4843892,10
4844520,10
4845144,11
4845772,12
4846392,13
4847024,12
4847652,13
4848272,16
4848900,15
4849528,15
4850156,13
4850788,14
4851408,13
4852036,13
4852664,12
4853288,11
4853916,12
4854536,16
4855164,19
4855792,11
4856416,11
4857044,10
4857672,11
4858300,11
4858932,10
4859552,13
4860184,13
4860808,11
4861436,11
4862072,11
4862688,10
4863320,12
4863948,11
4864576,16
4865204,16
4865824,12
4866452,13
4867084,12
4867704,13
4868332,11
4868960,10
4869588,11
4870220,10
4870840,10
4871468,10
4872096,10
4872720,11
4873348,10
4873968,11
4874600,10
4875224,11
4875848,12
4876476,13
4877096,11
4877724,11
4878356,11
4878976,13
4879608,11
4880232,10
4880860,11
4881492,10
4882112,11
4882740,13
4883368,15
4883988,14
4884620,12
4885240,11
4885868,11
4886496,10
4887120,13
4887748,16
4888368,16
4888996,11
4889628,11
4890248,11
4890876,14
4891500,15
4892132,10
4892764,10
4893384,10
4894016,11
4894640,11
4895264,11
4895896,10
4896512,10
4897144,11
4897768,11
4898392,11
4899024,10
4899640,10
4900272,11
4900904,10
4901520,11
4902152,11
4902776,16
4903408,15
4904036,14
4904656,13
4905288,11
4905912,11
4906536,11
4907168,12
4907788,11
4908420,10
4909044,10
4909668,11
4910300,10
4910928,11
4911556,11
4912192,11
4912808,14
4913440,15
4914064,13
4914696,11
4915328,10
4915944,11
4916572,11
4917196,11
4917820,11
4918448,10
4919072,10
4919700,11
4920332,10
4920952,10
4921580,11
4922204,10
4922836,10
4923464,10
4924088,12
4924716,14
4925340,16
4925968,15
4926596,11
4927216,11
4927844,11
4928472,11
4929092,11
4929724,10
4930344,13
4930972,13
4931604,10
4932224,14
4932852,11
4933476,13
4934108,13
4934736,14
4935360,14
4935988,16
4936612,12
4937236,11
4937868,11
4938488,16
4939116,11
4939740,11
4940368,12
4940996,10
4941616,14
4942244,20
4942876,14
4943496,13
4944124,9
4944696,13
4945332,10
4945964,12
4946584,11
4947212,10
4947836,10
4948468,11
4949096,12
4949720,12
4950352,13
4950976,13
4951600,12
4952232,11
4952848,11
4953480,12
4954104,10
4954728,11
4955360,10
4955984,10
4956616,11
4957244,10
4957864,11
4958492,10
4959120,10
4959748,11
4960380,10
4961000,12
4961628,13
4962252,11
4962876,11
4963508,10
4964128,11
4964756,11
4965388,11
4966008,10
4966640,11
4967260,10
4967892,11
4968520,14
4969136,16
4969768,16
4970392,11
4971016,9
4971596,11
4972220,12
4972848,12
4973472,13
4974096,12
4974724,11
4975344,16
4975976,18
4976600,14
4977224,11
4977852,10
4978472,12
4979104,14
4979732,12
4980352,11
4980980,12
4981608,12
4982236,11
4982868,14
4983488,14
4984120,13
4984744,11
4985368,11
4985996,12
4986616,16
4987248,17
4987872,17
4988496,11
4989124,10
4989744,11
4990376,13
4991008,14
4991624,11
4992256,11
4992880,10
4993512,12
4994144,10
4994760,11
4995388,11
4996016,10
4996640,11
4997268,10
4997888,12
4998516,13
4999140,12
4999764,11
5000396,11
5001016,12
5001644,12
5002276,16
5002896,17
5003524,17
5004148,14
5004780,14
5005412,16
5006032,16
5006664,14
5007288,14
5007912,14
5008544,11
5009160,10
5009792,11
5010416,12
5011040,12
5011672,13
5012296,12
5012928,12
5013556,10
5014176,10
5014808,11
5015432,10
5016064,11
5016696,11
5017312,10
5017944,12
5018568,12
5019192,13
5019824,13
5020440,12
5021068,11
5021696,14
5022320,13
5022952,12
5023576,11
5024208,13
5024836,12
5025456,13
5026084,11
5026708,11
5027336,11
5027964,11
5028584,15
5029212,15
5029840,12
5030464,11
5031092,10
5031712,11
5032344,13
5032972,19
5033592,23
5034224,21
5034848,19
5035480,12
5036112,11
5036732,11
5037364,10
5037988,14
5038612,13
5039244,11
5039864,13
5040496,11
5041120,11
5041744,11
5042376,11
5042992,13
5043624,15
5044252,12
5044872,11
5045500,11
5046128,10
5046756,12
5047388,11
5048008,10
5048636,11
5049264,11
5049888,12
5050516,12
5051136,11
5051768,11
5052392,10
5053016,10
5053648,11
5054268,10
5054900,11
5055532,11
5056152,10
5056784,9
5057356,9
5057940,10
5058576,11
5059192,12
5059824,13
5060448,13
5061080,11
5061708,10
5062328,10
5062960,11
5063584,13
5064208,17
5064840,18
5065460,12
5066088,11
5066716,11
5067340,12
5067972,14
5068592,15
5069224,13
5069856,11
5070476,10
5071108,10
5071732,10
5072364,10
5072996,10
5073616,11
5074248,11
5074872,11
5075496,10
5076128,11
5076748,10
5077380,11
5078004,11
5078632,11
5079264,13
5079888,11
5080520,10
5081148,10
5081768,11
5082396,11
5083024,11
5083652,11
5084284,10
5084904,11
5085532,11
5086160,10
5086784,13
5087416,12
5088032,12
5088664,12
5089292,10
5089912,11
5090544,10
5091168,11
5091800,11
5092432,11
5093052,10
5093680,10
5094308,10
5094932,11
5095564,14
5096184,10
5096816,11
5097440,14
5098064,12
5098696,10
5099316,11
5099948,10
5100576,11
5101200,11
5101832,13
5102456,13
5103088,13
5103720,12
5104340,11
5104972,11
5105596,10
5106224,11
5106856,10
5107476,10
5108108,11
5108732,13
5109360,10
5109992,18
5110620,13
5111252,10
5111884,11
5112504,11
5113136,11
5113764,11
5114388,11
5115020,12
5115644,12
5116276,13
5116900,14
5117528,13
5118160,10
5118780,11
5119412,11
5120044,10
5120660,11
5121288,12
5121908,16
5122540,24
5123168,15
5123784,11
5124412,12
5125036,11
5125660,11
5126288,10
5126904,10
5127536,11
5128160,10
5128780,10
5129412,10
5130032,14
5130660,15
5131292,14
5131912,12
5132540,10
5133164,11
5133796,12
5134424,11
5135040,11
5135672,13
5136296,12
5136920,10
5137548,10
5138168,11
5138796,10
5139420,10
5140044,11
5140676,12
5141296,15
5141924,11
5142556,11
5143176,12
5143804,16
5144428,12
5145060,11
5145688,12
5146312,14
5146940,15
5147564,11
5148188,10
5148816,12
5149440,15
5150068,12
5150692,11
5151316,10
5151948,10
5152568,11
5153196,11
5153828,10
5154448,12
5155076,13
5155704,15
5156332,14
5156964,10
5157584,11
5158216,11
5158840,11
5159464,11
5160092,10
5160712,12
5161340,13
5161964,15
5162588,9
5163168,12
5163792,11
5164420,10
5165044,11
5165668,11
5166300,10
5166924,10
5167552,11
5168184,11
5168800,14
5169428,12
5170052,13
5170684,12
5171316,10
5171936,9
5172512,11
5173144,11
5173768,11
5174396,12
5175016,13
5175648,12
5176272,12
5176896,11
5177524,11
5178144,11
5178772,11
5179404,10
5180024,10
5180652,15
5181280,17
5181908,11
5182540,12
5183160,16
5183792,17
5184416,14
5185040,12
5185668,12
5186288,12
5186916,11
5187540,11
5188164,10
5188796,10
5189416,11
5190048,11
5190676,10
5191296,11
5191928,15
5192552,18
5193180,17
5193812,13
5194432,12
5195060,11
5195688,10
5196312,11
5196944,10
5197560,11
5198192,11
5198816,12
5199440,13
5200068,13
5200688,14
5201316,12
5201948,10
5202568,11
5203196,12
5203820,14
5204452,12
5205080,10
5205704,11
5206332,12
5206960,11
5207584,11
5208212,12
5208832,11
5209460,12
5210088,16
5210712,16
5211340,11
5211960,11
5212592,13
5213220,11
5213840,12
5214468,11
5215096,10
5215724,11
5216356,12
5216976,13
5217604,11
5218228,10
5218856,11
5219484,12
5220104,14
5220736,11
5221360,11
5221984,12
5222616,11
5223240,12
5223868,13
5224496,10
5225120,10
5225748,15
5226372,17
5227004,17
5227632,12
5228256,13
5228884,21
5229508,19
5230132,11
5230764,14
5231384,15
5232016,13
5232640,12
5233264,15
5233896,14
5234520,15
5235148,14
5235780,13
5236400,12
5237032,10
5237656,11
5238280,11
5238912,11
5239528,10
5240160,11
5240784,10
5241408,11
5242040,14
5242656,16
5243288,11
5243916,12
5244536,11
5245164,11
5245788,10
5246416,10
5247048,10
5247664,12
5248296,13
5248916,12
5249540,13
5250168,11
5250792,12
5251420,10
5252044,10
5252664,10
5253296,10
5253912,11
5254540,12
5255164,14
5255792,19
5256420,17
5257044,11
5257672,11
5258300,10
5258920,12
5259548,11
5260172,11
5260800,12
5261428,11
5262048,11
5262676,11
5263300,11
5263924,10
5264556,10
5265176,11
5265804,12
5266428,15
5267056,15
5267684,12
5268308,10
5268936,10
5269568,11
5270184,19
5270812,19
5271436,12
5272068,11
5272696,10
5273320,11
5273952,11
5274572,10
5275196,10
5275828,10
5276448,12
5277076,13
5277708,10
5278328,11
5278956,11
5279580,10
5280212,10
5280840,10
5281464,11
5282092,11
5282716,10
5283336,13
5283968,15
5284584,13
5285212,10
5285836,10
5286460,10
5287088,10
5287704,11
5288332,12
5288956,10
5289580,13
5290208,15
5290832,13
5291460,11
5292092,10
5292712,15
5293340,13
5293964,12
5294596,11
5295224,13
5295848,15
5296476,17
5297100,12
5297724,11
5298356,14
5298976,12
5299604,11
5300236,14
5300856,13
5301484,12
5302108,10
5302740,10
5303368,11
5303988,10
5304616,10
5305240,11
5305864,13
5306492,13
5307112,11
5307740,12
5308368,17
5308992,13
5309620,11
5310240,10
5310868,9
5311444,10
5312072,11
5312700,10
5313320,11
5313948,11
5314580,10
5315200,12
5315828,15
5316452,15
5317084,13
5317712,10
5318336,11
5318968,12
5319592,13
5320216,13
5320844,10
5321464,10
5322092,11
5322720,13
5323344,21
5323972,19
5324592,15
5325224,11
5325852,10
5326472,11
5327100,10
5327724,15
5328352,11
5328980,16
5329600,16
5330228,10
5330852,10
5331472,10
5332104,10
5332720,11
5333348,11
5333972,13
5334596,11
5335228,10
5335848,11
5336476,11
5337104,11
5337728,11
5338356,10
5338980,10
5339608,10
5340240,10
5340856,11
5341484,11
5342108,10
5342732,10
5343364,10
5343984,11
5344616,11
5345240,11
5345864,11
5346492,12
5347112,13
5347740,13
5348372,10
5348992,13
5349620,11
5350244,10
5350876,10
5351504,10
5352128,11
5352756,12
5353380,13
5354004,11
5354636,18
5355256,27
5355884,25
5356508,17
5357132,11
5357764,10
5358384,12
5359016,13
5359644,11
5360264,13
5360892,15
5361516,13
5362148,13
5362776,10
5363400,12
5364028,10
5364652,11
5365276,12
5365908,10
5366528,11
5367156,10
5367780,12
5368404,11
5369032,10
5369656,11
5370284,10
5370916,10
5371536,12
5372164,12
5372788,10
5373420,10
5374052,11
5374672,12
5375304,11
5375928,14
5376552,11
5377184,11
5377800,11
5378428,12
5379052,11
5379676,11
5380304,10
5380928,11
5381556,10
5382188,10
5382808,10
5383436,10
5384060,11
5384688,11
5385320,10
5385936,12
5386568,17
5387192,15
5387816,13
5388444,12
5389064,11
5389692,11
5390316,10
5390940,10
5391572,11
5392196,12
5392824,12
5393456,10
5394072,12
5394700,13
5395324,13
5395956,13
5396588,12
5397208,15
5397836,13
5398460,11
5399084,12
5399716,14
5400336,13
5400964,11
5401588,11
5402216,11
5402844,13
5403468,12
5404100,10
5404732,10
5405352,11
5405984,11
5406608,12
5407236,12
5407868,10
5408488,13
5409116,16
5409740,13
5410364,10
5410992,10
5411616,12
5412244,13
5412876,11
5413496,11
5414124,13
5414748,14
5415380,11
5416008,15
5416628,16
5417256,13
5417880,13
5418504,20
5419132,19
5419752,13
5420380,13
5421008,19
5421632,19
5422260,14
5422880,10
5423508,11
5424140,10
5424760,10
5425388,17
5426016,19
5426644,15
5427276,14
5427896,12
5428524,9
5429096,10
5429724,11
5430356,10
5430976,10
5431604,11
5432228,11
5432856,16
5433484,16
5434104,18
5434732,13
5435356,11
5435984,11
5436612,10
5437232,12
5437864,14
5438492,12
5439112,12
5439744,11
5440368,12
5440996,12
5441624,10
5442248,11
5442876,10
5443500,10
5444124,10
5444752,10
5445368,10
5446000,11
5446624,11
5447248,14
5447876,15
5448496,13
5449124,12
5449752,11
5450376,11
5451004,11
5451628,11
5452260,11
5452888,12
5453512,12
5454140,11
5454764,13
5455388,13
5456016,12
5456632,11
5457264,10
5457888,11
5458512,10
5459140,10
5459760,10
5460388,11
5461020,10
5461640,12
5462268,14
5462892,11
5463524,10
5464156,10
5464776,10
5465404,11
5466032,11
5466656,13
5467284,11
5467904,14
5468536,18
5469160,28
5469784,19
5470412,10
5471032,25
5471664,20
5472292,10
5472912,11
5473540,10
5474168,11
5474796,10
5475428,10
5476048,13
5476676,13
5477304,10
5477928,11
5478556,11
5479176,11
5479804,10
5480432,10
5481052,11
5481684,12
5482308,11
5482936,10
5483568,12
5484184,10
5484816,11
5485440,11
5486068,11
5486700,10
5487320,15
5487952,14
5488576,12
5489200,11
5489828,10
5490448,10
5491076,11
5491704,15
5492328,19
5492956,17
5493580,15
5494212,12
5494844,10
5495464,11
5496092,11
5496716,13
5497348,17
5497980,13
5498600,12
5499232,11
5499856,11
5500480,11
5501108,10
5501728,10
5502360,17
5502988,14
5503608,14
5504240,17
5504864,15
5505492,12
5506124,10
5506744,13
5507372,14
5507996,13
5508624,13
5509252,10
5509872,11
5510500,10
5511124,11
5511748,10
5512380,12
5513000,11
5513628,11
5514260,10
5514880,11
5515508,11
5516136,11
5516768,11
5517396,11
5518016,11
5518648,11
5519272,11
5519896,11
5520528,12
5521148,15
5521776,16
5522400,13
5523024,10
5523656,10
5524280,11
5524912,11
5525540,12
5526160,14
5526792,11
5527416,13
5528048,18
5528676,12
5529296,11
5529928,13
5530548,11
5531172,11
5531804,11
5532424,11
5533052,11
5533676,10
5534300,15
5534932,11
5535556,10
5536188,11
5536820,11
5537440,12
5538068,12
5538692,10
5539324,10
5539956,10
5540576,12
5541204,11
5541828,11
5542456,10
5543084,10
5543704,11
5544332,16
5544956,14
5545584,16
5546216,17
5546840,13
5547472,11
5548100,12
5548720,15
5549352,10
5549976,19
5550600,21
5551228,11
5551848,11
5552480,11
5553104,13
5553728,13
5554360,11
5554976,10
5555608,11
5556236,10
5556856,11
5557484,11
5558112,11
5558740,13
5559372,15
5559992,16
5560624,14
5561248,11
5561872,10
5562504,11
5563120,13
5563752,10
5564376,10
5565000,11
5565632,12
5566248,10
5566880,10
5567512,10
5568132,10
5568760,11
5569384,12
5570016,11
5570644,10
5571264,11
5571892,12
5572516,10
5573140,10
5573772,10
5574392,17
5575024,17
5575648,15
5576272,13
5576900,13
5577520,13
5578152,13
5578780,11
5579400,12
5580032,12
5580656,11
5581288,12
5581916,10
5582536,11
5583164,11
5583792,11
5584416,11
5585044,10
5585664,11
5586292,11
5586920,12
5587544,15
5588172,14
5588792,15
5589424,12
5590056,10
5590672,10
5591304,9
5591876,10
5592512,11
5593140,13
5593760,11
5594388,11
5595016,13
5595644,12
5596276,10
5596896,11
5597524,13
5598152,12
5598776,10
5599408,10
5600024,10
5600656,11
5601280,10
5601904,11
5602532,11
5603156,12
5603788,10
5604420,10
5605040,11
5605668,11
5606296,11
5606920,11
5607548,10
5608168,11
5608796,10
5609420,12
5610048,11
5610676,10
5611296,11
5611928,13
5612556,12
5613176,11
5613804,11
5614428,11
5615060,14
5615692,14
5616312,13
5616944,13
5617568,11
5618192,12
5618824,12
5619440,12
5620068,10
5620692,10
5621320,12
5621948,11
5622568,11
5623196,12
5623828,11
5624448,11
5625076,11
5625704,11
5626332,13
5626964,11
5627584,11
5628216,11
5628840,11
5629464,11
5630096,13
5630712,11
5631344,12
5631968,13
5632596,11
5633224,10
5633848,13
5634476,22
5635108,16
5635728,11
5636356,10
5636980,11
5637612,11
5638240,13
5638860,17
5639488,17
5640112,12
5640736,11
5641364,11
5641984,15
5642612,17
5643236,12
5643860,10
5644492,10
5645112,11
5645740,10
5646372,12
5646992,13
5647620,11
5648244,11
5648876,10
5649504,10
5650128,10
5650756,11
5651384,10
5652008,11
5652636,10
5653256,12
5653884,11
5654508,10
5655132,10
5655764,10
5656388,11
5657016,15
5657648,14
5658264,12
5658892,11
5659516,12
5660148,15
5660776,14
5661400,13
5662028,11
5662656,11
5663280,12
5663908,13
5664528,15
5665160,14
5665784,12
5666408,13
5667036,14
5667660,11
5668292,12
5668924,14
5669544,11
5670176,11
5670800,13
5671428,15
5672060,16
5672680,12
5673312,11
5673936,11
5674560,11
5675188,10
5675808,11
5676440,11
5677068,11
5677688,11
5678316,13
5678944,13
5679572,10
5680204,11
5680824,11
5681452,11
5682076,13
5682704,11
5683332,10
5683952,11
5684580,14
5685204,17
5685828,14
5686460,11
5687080,11
5687708,10
5688340,10
5688960,12
5689588,11
5690216,11
5690844,9
5691424,12
5692052,16
5692680,11
5693308,10
5693940,11
5694568,10
5695192,9
5695772,9
5696348,10
5696980,11
5697612,12
5698232,13
5698864,13
5699488,12
5700112,12
5700740,11
5701360,11
5701992,12
5702616,11
5703240,11
5703872,13
5704488,14
5705120,16
5705748,13
5706368,11
5707000,11
5707624,9
5708204,10
5708840,12
5709456,16
5710084,13
5710708,14
5711340,11
5711972,10
5712592,11
5713224,13
5713852,11
5714476,11
5715108,10
5715728,14
5716360,11
5716984,10
5717608,10
5718240,11
5718864,16
5719496,13
5720128,13
5720744,12
5721376,11
5722004,10
5722632,12
5723260,18
5723880,11
5724512,15
5725136,17
5725760,13
5726392,10
5727012,13
5727640,16
5728272,15
5728896,12
5729528,10
5730152,12
5730784,12
5731416,10
5732036,10
5732664,10
5733292,10
5733916,10
5734548,11
5735168,15
5735796,16
5736420,19
5737044,17
5737672,12
5738296,11
5738924,13
5739556,18
5740176,11
5740804,15
5741428,17
5742060,14
5742688,10
5743312,11
5743944,12
5744568,11
5745192,12
5745824,11
5746440,11
5747068,15
5747696,15
5748320,13
5748948,10
5749572,11
5750204,11
5750836,10
5751456,11
5752088,11
5752712,10
5753344,11
5753972,10
5754592,13
5755224,13
5755848,12
5756472,10
5757100,10
5757720,10
5758352,11
5758984,10
5759600,10
5760232,12
5760856,11
5761484,11
5762112,10
5762728,10
5763360,12
5763980,11
5764612,13
5765240,12
5765856,10
5766488,14
5767112,12
5767736,13
5768364,11
5768984,10
5769612,10
5770236,12
5770864,14
5771492,15
5772116,16
5772748,14
5773380,10
5774000,11
5774628,10
5775252,11
5775880,12
5776508,13
5777128,13
5777756,11
5778380,10
5779004,12
5779636,12
5780256,13
5780884,13
5781516,10
5782136,11
5782764,13
5783388,11
5784020,11
5784648,14
5785272,18
5785904,13
5786524,12
5787148,11
5787780,12
5788400,13
5789028,10
5789652,10
5790276,10
5790908,10
5791528,12
5792160,11
5792788,10
5793408,10
5794036,11
5794660,10
5795292,11
5795920,10
5796544,13
5797172,15
5797796,16
5798420,15
5799052,10
5799672,12
5800304,11
5800928,10
5801552,11
5802180,10
5802800,11
5803432,10
5804060,10
5804680,11
5805312,12
5805936,14
5806568,15
5807196,12
5807816,12
5808448,11
5809072,10
5809696,11
5810324,11
5810944,11
5811576,14
5812200,17
5812824,15
5813452,10
5814072,17
5814704,11
5815332,10
5815952,11
5816584,9
5817156,9
5817740,10
5818372,10
5818992,9
5819568,10
5820200,11
5820828,10
5821460,10
5822080,11
5822708,12
5823336,13
5823968,12
5824600,12
5825216,14
5825844,13
5826472,11
5827096,15
5827724,12
5828344,11
5828972,11
5829600,12
5830224,11
5830852,10
5831472,10
5832104,10
5832732,12
5833352,16
5833984,14
5834608,10
5835240,11
5835868,13
5836488,12
5837120,11
5837744,11
5838368,11
5838996,10
5839616,10
5840244,11
5840868,11
5841492,11
5842124,12
5842744,17
5843372,20
5844004,15
5844624,13
5845252,11
5845876,10
5846508,12
5847140,14
5847760,13
5848388,11
5849016,13
5849640,15
5850268,12
5850888,11
5851516,14
5852144,15
5852768,14
5853400,12
5854024,11
5854656,11
5855284,10
5855904,10
5856536,10
5857160,11
5857792,11
5858420,10
5859040,10
5859668,10
5860296,10
5860920,11
5861548,10
5862168,15
5862800,13
5863424,12
5864048,11
5864676,11
5865300,12
5865932,13
5866564,10
5867184,10
5867816,11
5868440,11
5869064,10
5869692,10
5870312,12
5870944,12
5871568,13
5872192,15
5872824,14
5873440,13
5874072,13
5874700,14
5875320,12
5875952,11
5876576,15
5877208,17
5877836,14
5878456,11
5879088,13
5879712,13
5880336,15
5880968,11
5881584,12
5882216,12
5882840,11
5883464,10
5884096,10
5884716,10
5885348,10
5885980,10
5886600,13
5887232,12
5887860,10
5888492,10
5889120,10
5889744,11
5890372,11
5891000,12
5891624,12
5892252,10
5892872,11
5893504,10
5894128,11
5894752,11
5895384,11
5896008,12
5896636,11
5897268,10
5897888,12
5898520,12
5899144,11
5899772,11
5900404,10
5901024,11
5901652,10
5902276,11
5902900,10
5903532,10
5904152,14
5904780,17
5905404,16
5906032,11
5906660,11
5907284,11
5907916,11
5908548,10
5909168,11
5909796,11
5910420,11
5911048,11
5911676,10
5912296,11
5912928,13
5913552,10
5914176,11
5914808,10
5915428,10
5916056,10
5916688,10
5917308,11
5917936,10
5918564,10
5919196,11
5919824,11
5920448,15
5921076,16
5921700,15
5922324,13
5922956,10
5923576,11
5924204,12
5924828,14
5925452,19
5926084,18
5926704,15
5927332,11
5927964,11
5928584,10
5929216,11
5929840,12
5930468,11
5931100,12
5931720,11
5932352,11
5932976,13
5933600,11
5934228,11
5934848,13
5935480,12
5936104,11
5936728,10
5937356,10
5937976,10
5938608,13
5939240,12
5939856,14
5940484,12
5941108,11
5941736,12
5942368,12
5942988,14
5943616,22
5944240,21
5944864,16
5945492,10
5946112,12
5946740,12
5947368,11
5947992,11
5948620,10
5949240,10
5949872,11
5950504,11
5951120,11
5951752,11
5952376,11
5953004,11
5953636,10
5954256,11
5954884,11
5955508,10
5956136,11
5956764,10
5957384,10
5958016,10
5958640,15
5959264,19
5959896,15
5960520,10
5961148,10
5961780,12
5962400,11
5963028,11
5963656,14
5964284,12
5964916,10
5965536,10
5966164,12
5966788,10
5967416,18
5968044,16
5968664,11
5969292,11
5969916,10
5970544,10
5971176,11
5971800,11
5972432,14
5973064,11
5973680,10
5974312,15
5974936,18
5975564,13
5976192,10
5976816,11
5977448,11
5978072,11
5978696,10
5979328,11
5979948,10
5980580,10
5981208,11
5981828,11
5982456,11
5983080,14
5983712,14
5984344,15
5984964,12
5985592,9
5986168,10
5986800,10
5987428,10
5988048,11
5988676,11
5989304,11
5989928,12
5990560,10
5991176,11
5991808,13
5992432,15
5993056,15
5993684,15
5994308,11
5994940,11
5995572,10
5996192,13
5996824,12
5997448,11
5998076,11
5998708,10
5999328,10
5999960,10
6000588,10
6001212,10
6001844,12
6002464,11
6003092,12
6003724,11
6004344,11
6004976,10
6005600,12
6006228,10
6006860,10
6007480,10
6008112,11
6008736,13
6009360,14
6009992,11
6010608,11
6011240,14
6011864,13
6012488,11
6013120,10
6013736,10
6014368,12
6015000,12
6015620,11
6016252,11
6016876,11
6017504,10
6018136,11
6018752,11
6019384,11
6020008,11
6020632,16
6021264,15
6021880,11
6022508,11
6023132,11
6023756,12
6024388,13
6025008,11
6025636,13
6026268,12
6026888,13
6027516,11
6028144,10
6028776,13
6029404,15
6030024,13
6030656,11
6031280,11
6031904,11
6032536,10
6033152,13
6033784,12
6034408,11
6035032,10
6035664,14
6036284,12
6036916,10
6037544,10
6038168,10
6038800,10
6039428,10
6040060,10
6040688,10
6041312,11
6041944,9
6042516,10
6043144,11
6043776,11
6044392,13
6045024,12
6045648,11
6046272,12
6046904,13
6047520,14
6048152,14
6048780,11
6049400,16
6050032,21
6050656,20
6051288,15
6051916,10
6052536,11
6053168,12
6053792,11
6054416,11
6055044,12
6055664,10
6056296,11
6056920,11
6057544,11
6058176,10
6058796,10
6059428,11
6060060,10
6060680,11
6061312,12
6061940,13
6062572,12
6063200,11
6063824,11
6064456,10
6065080,11
6065704,12
6066336,12
6066952,14
6067584,11
6068208,11
6068836,17
6069464,19
6070088,18
6070720,12
6071348,12
6071968,10
6072600,15
6073228,12
6073856,10
6074488,11
6075108,11
6075740,12
6076364,12
6076988,11
6077620,10
6078240,12
6078872,13
6079504,11
6080124,10
6080752,11
6081376,12
6082004,12
6082636,10
6083256,13
6083884,11
6084508,11
6085132,11
6085764,10
6086384,13
6087016,13
6087640,14
6088264,11
6088892,10
6089512,10
6090144,11
6090772,12
6091392,15
6092024,12
6092648,13
6093280,18
6093908,16
6094528,12
6095160,10
6095784,11
6096408,11
6097036,12
6097656,11
6098288,11
6098912,11
6099536,11
6100164,10
6100784,10
6101416,10
6102048,10
6102668,10
6103296,11
6103924,9
6104500,12
6105136,12
6105752,12
6106384,12
6107008,11
6107640,13
6108268,13
6108888,13
6109516,16
6110144,13
6110768,10
6111400,11
6112020,11
6112652,11
6113276,12
6113904,13
6114536,11
6115160,11
6115792,13
6116424,11
6117044,11
6117676,10
6118300,10
6118928,11
6119560,12
6120180,13
6120808,11
6121432,10
6122056,10
6122688,10
6123308,11
6123940,21
6124572,16
6125192,10
6125824,12
6126448,13
6127080,15
6127708,16
6128328,16
6128960,13
6129584,12
6130208,10
6130840,14
6131464,17
6132096,14
6132724,11
6133348,10
6133980,10
6134608,11
6135236,11
6135868,11
6136488,11
6137120,10
6137748,10
6138376,11
6139008,11
6139628,11
6140260,11
6140888,11
6141512,11
6142144,10
6142764,11
6143396,10
6144032,10
6144644,11
6145276,13
6145900,12
6146528,14
6147156,10
6147776,11
6148404,11
6149028,11
6149652,13
6150284,12
6150904,11
6151532,12
6152160,11
6152780,13
6153412,12
6154032,11
6154664,11
6155292,10
6155912,12
6156544,13
6157168,16
6157796,15
6158428,12
6159048,14
6159676,13
6160304,13
6160928,11
6161556,14
6162176,14
6162804,10
6163428,11
6164052,11
6164684,10
6165304,11
6165932,13
6166564,10
6167184,14
6167812,20
6168440,17
6169068,11
6169700,10
6170320,14
6170948,13
6171572,15
6172196,16
6172828,14
6173448,13
6174076,11
6174704,11
6175328,11
6175960,11
6176584,12
6177212,12
6177844,12
6178464,12
6179092,13
6179720,12
6180352,11
6180980,11
6181600,13
6182228,11
6182856,12
6183480,11
6184112,11
6184728,11
6185360,13
6185988,10
6186608,10
6187236,10
6187864,11
6188492,10
6189124,10
6189744,11
6190376,9
6190948,11
6191584,14
6192212,12
6192832,11
6193460,9
6194036,11
6194672,11
6195300,13
6195920,15
6196548,13
6197172,10
6197800,11
6198428,10
6199048,10
6199676,11
6200304,16
6200928,24
6201560,24
6202184,23
6202816,18
6203444,10
6204064,11
6204696,18
6205320,15
6205952,13
6206580,11
6207200,11
6207832,10
6208456,14
6209080,19
6209708,17
6210328,14
6210960,10
6211588,10
6212208,12
6212840,15
6213464,15
6214092,12
6214724,10
6215344,10
6215976,11
6216600,11
6217224,11
6217856,11
6218472,14
6219104,18
6219728,17
6220356,13
6220988,11
6221608,13
6222240,14
6222868,16
6223488,15
6224120,18
6224744,19
6225376,14
6226004,10
6226624,11
6227252,10
6227876,11
6228500,12
6229132,14
6229752,15
6230384,11
6231008,11
6231632,11
6232264,12
6232880,10
6233512,13
6234144,16
6234764,12
6235392,10
6236020,12
6236648,12
6237280,10
6237900,11
6238532,10
6239156,15
6239780,15
6240412,10
6241032,11
6241664,12
6242288,11
6242912,14
6243540,12
6244164,10
6244796,11
6245428,10
6246048,11
6246680,11
6247304,11
6247932,10
6248564,10
6249184,12
6249812,12
6250436,11
6251060,13
6251692,15
6252312,10
6252944,12
6253572,15
6254192,15
6254824,12
6255448,14
6256076,26
6256708,22
6257328,15
6257956,12
6258584,12
6259208,11
6259836,10
6260456,11
6261088,15
6261712,17
6262336,12
6262968,10
