tempo_arduino_micro_s,valor_ADC
500,14
1004,18
1504,26
2000,33
2508,33
3000,26
3508,23
4000,16
4508,18
5000,20
5500,24
6000,27
6500,31
7000,35
7500,34
8000,32
8500,28
9000,20
9500,17
10000,20
10508,16
11028,12
11556,10
12076,19
12604,17
13124,17
13648,16
14172,16
14700,14
15220,14
15748,22
16268,21
16796,13
17316,13
17836,16
18356,27
18876,31
19396,34
19916,26
20436,23
20956,17
21476,20
21996,27
22516,29
23036,33
23564,39
24084,42
24612,40
25132,38
25660,29
26180,20
26708,19
27228,12
27756,11
28276,10
28804,17
29324,19
29852,17
30372,16
30900,18
31420,14
31948,17
32468,20
32996,17
33516,11
34044,12
34564,18
35092,26
35612,27
36140,26
36660,21
37188,18
37708,18
38236,19
38760,19
39284,22
39804,25
40332,34
40852,36
41372,41
41892,43
42412,39
42932,33
43452,23
43972,13
44492,10
45012,12
45532,17
46052,16
46572,16
47092,18
47612,18
48140,12
48660,10
49188,11
49708,14
50236,15
50760,19
51284,22
51804,29
52332,29
52852,24
53380,17
53900,16
54428,21
54948,25
55476,29
55996,28
56524,28
57044,25
57572,30
58096,29
58620,30
59140,28
59668,35
60188,28
60716,12
61240,10
61764,11
62284,15
62812,17
63332,16
63860,16
64384,16
64908,14
65428,13
65948,15
66468,14
66988,14
67508,16
68028,22
68548,28
69068,26
69588,20
70108,17
70628,16
71148,18
71668,19
72192,19
72716,19
73236,22
73764,32
74284,35
74812,35
75336,32
75860,24
76384,19
76908,15
77428,12
77956,11
78476,14
79004,17
79528,18
80052,17
80572,16
81100,17
81620,11
82148,10
82668,11
83196,10
83720,10
84244,10
84764,15
85292,28
85812,35
86340,35
86860,27
87388,16
87908,17
88436,18
88956,18
89484,19
90004,28
90524,41
91044,46
91564,44
92084,33
92604,25
93124,25
93644,21
94164,18
94684,16
95204,21
95724,19
96248,16
96764,16
97292,20
97812,21
98340,15
98860,16
99388,11
99908,12
100436,15
101000,21
101584,21
102156,24
102736,28
103304,20
103880,17
104456,20
105024,22
105600,24
106168,21
106744,30
107312,42
107896,41
108464,35
109040,27
109624,21
110192,18
110776,11
111344,11
111928,17
112500,18
113080,16
113648,18
114224,18
114808,18
115376,17
115960,19
116528,16
117112,13
117684,18
118256,27
118840,32
119408,27
119992,23
120564,17
121144,19
121712,22
122296,23
122864,23
123444,35
124024,43
124592,48
125176,41
125744,30
126328,22
126896,16
127472,11
128056,11
128624,17
129200,16
129768,16
130344,17
130912,18
131496,13
132064,16
132640,23
133216,19
133784,19
134360,23
134928,27
135512,28
136084,34
136656,29
137232,18
137800,20
138384,23
138952,22
139536,21
140104,27
140688,35
141260,42
141832,42
142416,29
142984,20
143568,17
144136,15
144720,15
145288,20
145864,19
146440,18
147008,16
147592,17
148160,14
148744,13
149312,12
149896,12
150464,14
151040,19
151624,30
152196,35
152776,30
153348,17
153928,15
154504,18
155088,18
155664,22
156232,18
156816,29
157384,42
157968,45
158540,43
159120,33
159692,30
160268,23
160848,17
161416,13
161992,19
162560,17
163144,17
163716,18
164296,21
164872,19
165440,19
166016,18
166584,14
167168,11
167736,13
168312,19
168880,18
169456,19
170032,23
170600,16
171184,19
171756,26
172336,22
172904,27
173488,33
174056,30
174636,27
175216,30
175784,20
176368,16
176936,15
177520,12
178088,11
178664,19
179248,18
179816,16
180392,17
180960,22
181544,23
182112,16
182696,16
183264,16
183840,19
184424,15
184992,19
185568,23
186140,23
186720,20
187288,16
187864,19
188448,22
189016,25
189600,26
190168,32
190752,37
191324,47
191904,45
192476,36
193048,32
193632,21
194200,13
194784,11
195352,18
195936,17
196504,17
197080,19
197664,19
198232,18
198816,19
199384,14
199968,11
200540,10
201120,14
201688,24
202264,27
202848,26
203420,21
204000,15
204568,18
205152,21
205720,26
206288,30
206864,35
207432,34
208016,32
208584,29
209160,24
209728,21
210312,13
210880,14
211456,13
212032,19
212600,17
213184,18
213752,17
214336,16
214908,10
215488,11
216056,14
216632,14
217216,18
217784,19
218368,29
218936,35
219520,29
220088,26
220664,16
221248,16
221816,22
222400,29
222968,35
223552,42
224124,46
224704,45
225272,35
225852,32
226432,31
227000,21
227584,17
228152,18
228736,18
229308,16
229880,17
230464,19
231032,22
231616,18
232188,18
232768,13
233336,15
233920,20
234488,26
235064,34
235648,30
236216,22
236800,19
237368,17
237944,20
238516,22
239092,26
239672,33
240244,43
240824,43
241392,40
241976,33
242548,25
243128,17
243700,10
244272,15
244856,15
245424,16
246008,16
246576,17
247160,17
247728,18
248304,10
248888,12
249456,15
250040,14
250608,18
251192,22
251764,31
252344,29
252912,26
253488,21
254072,18
254644,18
255224,20
255796,20
256376,27
256952,32
257520,37
258104,42
258672,35
259248,30
259816,19
260392,10
260960,12
261544,12
262112,17
262688,19
263272,18
263840,17
264424,17
264992,12
265576,12
266148,16
266724,17
267304,24
267872,28
268456,41
269024,41
269608,28
270176,20
270752,17
271320,21
271900,22
272480,25
273048,26
273632,32
274200,38
274784,45
275356,37
275932,27
276512,18
277080,11
277664,10
278236,11
278816,15
279388,18
279968,17
280540,19
281116,21
281696,16
282264,20
282848,16
283416,13
284000,11
284568,15
285144,26
285728,28
286300,23
286880,19
287448,18
288032,18
288600,19
289176,20
289744,20
290320,22
290904,27
291472,39
292056,45
292624,45
293208,37
293776,16
294352,11
294936,13
295508,15
296088,16
296656,16
297240,16
297808,17
298392,16
298964,15
299540,15
300120,11
300692,10
301272,11
301852,19
302432,21
303012,16
303588,18
304168,16
304740,18
305320,23
305892,27
306472,37
307052,43
307632,43
308208,42
308784,35
309368,32
309940,26
310520,17
311092,11
311672,16
312244,16
312820,22
313400,20
313972,15
314552,13
315124,11
315704,15
316276,21
316856,25
317428,31
318004,30
318584,26
319156,24
319736,24
320316,18
320896,20
321464,24
322040,23
322624,28
323192,35
323776,40
324344,42
324928,42
325496,39
326080,35
326652,28
327224,15
327808,10
328376,18
328960,16
329528,16
330104,16
330672,18
331248,15
331832,11
332404,11
332984,13
333552,14
334128,21
334696,31
335280,37
335848,37
336424,26
337008,19
337576,17
338160,21
338728,25
339312,26
339880,38
340456,40
341040,37
341608,35
342192,30
342764,24
343344,20
343916,11
344496,9
345012,17
345588,16
346168,16
346736,19
347320,19
347892,24
348472,27
349040,22
349624,17
350192,16
350772,18
351352,19
351924,25
352504,25
353072,14
353656,18
354224,22
354804,24
355384,26
355956,30
356536,38
357108,43
357688,45
358260,39
358840,30
359416,19
359992,11
360576,11
361144,14
361728,16
362296,16
362880,17
363448,18
364028,18
364608,18
365180,13
365760,11
366328,11
366912,11
367484,12
368064,15
368632,22
369212,25
369792,22
370360,18
370944,16
371516,18
372096,19
372664,23
373240,32
373824,36
374396,38
374976,38
375548,32
376128,29
376700,23
377280,13
377852,11
378428,17
379008,16
379580,17
380160,17
380732,17
381312,11
381892,12
382468,13
383048,12
383620,11
384200,14
384772,24
385352,28
385920,28
386504,18
387080,16
387652,17
388232,19
388804,24
389384,24
389952,27
390536,27
391104,32
391684,40
392264,34
392836,36
393416,32
393988,22
394568,16
395136,19
395720,16
396304,16
396876,18
397456,21
398028,19
398608,18
399180,22
399760,27
400340,21
400912,17
401496,26
402068,30
402648,25
403216,20
403800,16
404372,19
404948,19
405528,21
406100,24
406680,36
407252,38
407832,37
408404,33
408984,27
409556,22
410132,12
410712,14
411280,13
411864,16
412432,16
413016,17
413584,18
414160,16
414744,11
415312,14
415896,14
416468,13
417048,13
417616,16
418200,26
418768,27
419344,28
419928,21
420496,17
421080,16
421648,18
422232,23
422804,32
423376,40
423960,36
424532,40
425112,42
425684,38
426264,33
426832,19
427416,12
427988,13
428564,18
429144,16
429712,16
430296,17
430864,17
431448,11
432016,12
432592,17
433176,21
433748,28
434328,38
434900,44
435480,41
436048,32
436632,24
437200,17
437776,19
438360,22
438932,26
439512,36
440084,45
440664,49
441232,48
441812,39
442392,29
442964,27
443544,17
444116,11
444696,11
445268,15
445848,17
446420,19
446996,18
447576,18
448148,15
448728,15
449296,15
449880,16
450452,18
451028,22
451608,30
452176,32
452760,28
453332,24
453912,16
454484,19
455064,26
455636,30
456212,39
456792,47
457364,50
457944,47
458516,35
459096,28
459668,23
460244,11
460824,10
461392,11
461968,15
462536,16
463120,17
463692,16
464272,17
464840,11
465416,14
466000,15
466568,18
467152,23
467724,20
468304,21
468876,19
469456,17
470032,22
470604,17
471184,18
471756,20
472336,21
472904,22
473488,30
474060,34
474636,30
475216,22
475788,25
476368,33
476948,24
477528,13
478100,14
478676,16
479256,16
479832,17
480412,16
480980,17
481560,12
482132,12
482712,12
483284,15
483856,10
484440,17
485012,26
485592,31
486164,29
486744,27
487320,19
487900,16
488480,18
489048,22
489632,30
490204,32
490784,42
491364,45
491944,38
492524,38
493100,34
493680,16
494248,12
494832,12
495404,15
495984,18
496556,21
497132,20
497712,15
498284,11
498864,14
499436,14
500016,13
500584,17
501168,22
501740,24
502316,24
502896,19
503468,17
504048,17
504620,24
505200,28
505772,36
506348,47
506928,48
507500,41
508080,31
508652,19
509232,14
509812,13
510392,9
510912,10
511484,12
512068,15
512636,17
513216,18
513784,17
514368,16
514936,15
515520,16
516088,16
516664,17
517248,19
517816,19
518400,27
518968,32
519544,27
520116,25
520688,17
521272,22
521844,29
522424,32
522992,43
523576,45
524144,46
524728,45
525300,38
525872,34
526456,25
527024,11
527608,13
528176,15
528760,16
529328,18
529904,17
530488,16
531060,19
531640,17
532212,15
532792,15
533364,15
533944,18
534516,24
535092,30
535672,32
536244,29
536824,23
537396,16
537976,19
538552,22
539132,29
539712,42
540284,50
540864,52
541432,48
542016,38
542596,34
543176,26
543760,11
544332,14
544912,18
545480,16
546064,17
546632,18
547216,17
547784,13
548364,12
548944,14
549516,15
550096,16
550668,19
551248,25
551820,28
552400,34
552984,29
553552,18
554136,17
554708,21
555288,26
555868,33
556448,43
557020,41
557596,39
558176,37
558748,25
559328,13
559900,10
560480,10
561060,10
561636,18
562216,15
562788,18
563368,26
563940,25
564520,17
565088,11
565672,10
566244,10
566820,11
567400,16
567972,26
568552,31
569132,35
569712,25
570284,17
570860,18
571440,18
572012,23
572592,28
573164,34
573744,35
574324,33
574904,31
575476,22
576052,28
576632,21
577204,11
577784,12
578352,23
578936,20
579508,18
580084,17
580664,16
581236,13
581816,12
582388,12
582968,14
583548,19
584128,27
584712,38
585284,42
585864,35
586436,25
587016,15
587588,19
588168,20
588740,23
589316,22
589896,26
590468,32
591048,35
591620,39
592200,29
592780,31
593360,19
593944,10
594516,14
595096,24
595668,28
596248,24
596820,16
597400,17
597972,16
598548,17
599128,13
599700,12
600280,12
600860,18
601440,25
602012,28
602588,26
603168,21
603740,17
604320,22
604892,27
605472,24
606044,26
606624,36
607204,38
607780,34
608364,28
608932,22
609512,16
610092,10
610672,11
611244,14
611820,17
612400,16
612976,16
613552,18
614128,17
614708,14
615280,13
615864,12
616436,13
617012,13
617592,15
618164,22
618744,22
619316,19
619896,18
620468,17
621044,22
621624,23
622196,27
622776,29
623348,38
623928,40
624508,36
625088,27
625672,22
626244,15
626824,11
627396,13
627976,11
628548,15
629128,17
629700,16
630276,18
630856,21
631428,20
632008,15
632580,11
633160,13
633740,15
634320,27
634904,40
635476,34
636056,25
636632,19
637208,18
637788,20
638368,24
638948,20
639524,28
640108,38
640676,43
641256,37
641828,26
642408,21
642976,20
643552,14
644136,16
644708,22
645288,21
645856,19
646440,16
647008,18
647592,21
648164,23
648736,25
649320,22
649892,25
650472,23
651044,23
651624,21
652196,13
652772,11
653352,18
653924,22
654504,23
655076,23
655656,26
656232,33
656816,37
657384,37
657952,38
658536,37
659108,34
659688,31
660256,21
660840,11
661408,14
661984,16
662568,18
663136,19
663720,19
664288,16
664872,11
665444,11
666024,11
666592,13
667160,19
667744,24
668312,25
668896,25
669464,19
670048,18
670620,18
671196,19
671776,28
672348,29
672928,32
673496,32
674080,33
674648,35
675232,21
675800,21
676380,19
676960,13
677528,12
678112,15
678684,17
679264,17
679832,17
680412,16
680992,15
681560,15
682144,15
682716,12
683296,12
683868,14
684448,21
685020,24
685596,25
686176,22
686744,19
687328,16
687900,17
688480,20
689056,24
689636,32
690216,33
690788,35
691368,38
691940,32
692520,24
693088,16
693672,9
694192,10
694764,15
695344,16
695916,16
696496,18
697068,22
697648,20
698216,16
698800,10
699372,10
699948,11
700528,18
701100,27
701680,31
702260,27
702840,19
703412,17
703988,18
704572,22
705140,20
705720,24
706292,27
706872,36
707444,40
708024,44
708592,42
709172,35
709752,27
710324,17
710904,17
711484,21
712064,18
712644,16
713220,16
713800,18
714372,15
714952,13
715524,16
716104,20
716684,19
717264,22
717848,24
718416,27
719000,27
719572,20
720152,16
720720,18
721304,21
721876,22
722452,18
723032,22
723604,39
724184,49
724756,47
725336,37
725908,32
726484,19
727064,10
727636,11
728216,16
728788,16
729368,18
729940,18
730520,17
731092,14
731668,16
732248,18
732820,15
733400,13
733972,15
734552,21
735132,23
735708,26
736288,24
736860,18
737440,16
738008,18
738592,21
739160,27
739744,39
740324,44
740900,46
741480,42
742052,31
742632,27
743212,14
743792,9
744312,11
744888,16
745460,18
746036,15
746616,16
747188,15
747768,11
748348,11
748928,12
749500,12
750076,14
750656,17
751228,24
751808,24
752384,26
752960,27
753540,17
754120,18
754704,17
755276,16
755856,18
756428,27
757008,35
757588,44
758168,50
758748,46
759324,38
759904,23
760480,12
761056,10
761628,15
762208,19
762780,19
763356,20
763936,17
764512,12
765088,11
765660,11
766240,11
766820,14
767400,18
767980,30
768556,30
769136,31
769708,25
770288,16
770860,18
771440,20
772012,27
772588,40
773168,50
773740,48
774320,40
774892,30
775472,26
776044,23
776624,14
777196,11
777772,13
778352,17
778924,17
779504,18
780076,18
780656,18
781236,13
781812,11
782392,11
782964,13
783544,20
784116,27
784696,31
785268,29
785848,26
786428,22
787004,16
787584,20
788156,26
788736,29
789316,30
789896,36
790476,35
791052,32
791632,23
792204,19
792784,18
793364,15
793944,20
794524,22
795100,18
795680,15
796252,17
796832,16
797404,18
797984,15
798564,15
799144,18
799724,15
800300,17
800880,22
801448,31
802032,33
802604,29
803184,24
803756,15
804332,17
804912,20
805484,24
806064,28
806636,35
807216,40
807788,44
808368,34
808940,29
809516,28
810096,16
810668,11
811248,11
811828,16
812408,17
812988,17
813564,16
814144,17
814716,14
815296,13
815868,12
816448,14
817028,19
817608,25
818192,29
818764,27
819344,17
819916,19
820496,17
821064,20
821640,20
822208,19
822784,30
823368,36
823936,46
824520,48
825088,38
825672,29
826240,24
826824,12
827400,10
827968,15
828552,16
829124,16
829704,16
830272,17
830856,16
831428,14
832004,11
832584,10
833152,12
833728,18
834296,19
834880,29
835448,33
836032,32
836600,26
837176,17
837760,19
838328,24
838912,29
839484,44
840064,47
840632,39
841204,34
841784,30
842352,30
842936,29
843504,19
844088,15
844660,19
845240,16
845808,17
846384,19
846968,22
847536,20
848120,19
848688,17
849272,12
849844,11
850416,14
851000,22
851572,31
852152,30
852724,24
853304,21
853876,16
854456,21
855028,28
855604,25
856184,28
856756,33
857336,35
857916,30
858496,21
859076,20
859652,16
860232,11
860800,10
861384,18
861956,18
862536,17
863108,17
863688,19
864264,15
864832,14
865416,15
865984,13
866568,11
867136,15
867720,20
868292,19
868868,22
869448,18
870020,16
870600,20
871172,22
871752,20
872324,24
872904,28
873480,30
874052,32
874632,38
875204,33
875784,27
876356,21
876936,9
877456,13
878032,17
878608,16
879180,15
879760,17
880332,19
880912,16
881480,12
882064,11
882636,13
883212,15
883792,19
884364,24
884944,27
885516,31
886096,31
886676,22
887252,15
887832,19
888404,22
888984,19
889556,23
890136,42
890716,50
891296,47
891876,39
892452,32
893032,17
893604,11
894184,21
894756,22
895336,18
895916,15
896492,17
897072,19
897644,13
898224,10
898796,14
899376,12
899948,10
900528,20
901100,33
901676,31
902256,27
902828,23
903408,16
903980,19
904560,24
905132,26
905708,26
906288,38
906860,42
907440,40
908012,33
908592,21
909164,18
909744,15
910316,10
910892,10
911472,17
912044,15
912624,17
913196,18
913776,19
914356,15
914932,16
915512,20
916088,19
916664,20
917236,24
917816,22
918396,21
918980,22
919560,17
920136,15
920712,17
921284,19
921864,25
922440,27
923024,32
923596,33
924172,36
924752,35
925324,28
925904,29
926476,19
927056,13
927628,11
928208,16
928792,16
929364,18
929944,16
930516,16
931096,11
931676,10
932256,11
932836,11
933412,13
933992,15
934568,23
935144,29
935716,30
936296,26
936876,16
937452,18
938032,19
938604,22
939184,23
939756,33
940336,37
940916,40
941496,37
942076,31
942656,28
943232,15
943804,10
944384,11
944964,15
945544,16
946116,16
946692,15
947272,16
947844,13
948424,14
948996,13
949576,15
950148,22
950728,25
951312,29
951888,26
952464,23
953036,21
953616,17
954196,19
954776,24
955356,27
955932,29
956512,32
957088,33
957668,37
958244,31
958824,30
959404,29
959980,21
960564,20
961136,16
961712,16
962284,17
962864,17
963436,18
964016,19
964584,14
965164,14
965744,21
966316,27
966896,27
967476,28
968056,33
968636,25
969212,18
969792,19
970364,18
970944,20
971516,21
972100,28
972676,42
973260,46
973840,45
974412,44
974992,34
975564,24
976144,16
976724,10
977304,10
977876,14
978452,16
979032,17
979604,15
980184,16
980756,14
981336,12
981916,14
982492,15
983072,13
983640,15
984224,22
984796,26
985376,30
985948,29
986528,20
987100,17
987676,19
988256,23
988828,27
989408,31
989980,35
990560,38
991140,36
991716,26
992296,25
992868,22
993448,15
994020,11
994600,16
995172,17
995752,16
996332,19
996908,18
997488,14
998060,10
998640,11
999220,11
999800,13
1000372,21
1000992,30
1001620,32
1002240,34
1002868,30
1003492,16
1004116,16
1004744,18
1005360,22
1005992,33
1006620,39
1007240,45
1007868,43
1008492,32
1009120,23
1009748,16
1010368,15
1010996,15
1011620,17
1012244,16
1012872,16
1013496,16
1014124,13
1014748,13
1015372,14
1016000,15
1016616,18
1017248,26
1017876,34
1018496,36
1019124,27
1019748,19
1020380,20
1021008,27
1021628,30
1022256,29
1022880,33
1023504,34
1024136,31
1024748,31
1025376,31
1025996,23
1026620,12
1027248,11
1027860,14
1028488,15
1029112,17
1029732,19
1030364,23
1030984,20
1031616,15
1032244,10
1032860,11
1033492,14
1034112,19
1034740,23
1035368,25
1035984,27
1036612,19
1037236,16
1037860,22
1038488,24
1039104,27
1039732,33
1040356,35
1040976,34
1041604,27
1042220,23
1042852,19
1043480,11
1044096,11
1044724,16
1045348,16
1045976,17
1046604,18
1047220,22
1047852,22
1048472,22
1049096,17
1049724,18
1050340,23
1050968,24
1051592,30
1052216,34
1052844,24
1053460,17
1054092,24
1054712,30
1055336,36
1055968,41
1056592,43
1057220,43
1057848,41
1058464,33
1059092,24
1059716,15
1060344,12
1060972,14
1061592,17
1062220,17
1062844,17
1063468,18
1064096,17
1064712,14
1065344,15
1065964,14
1066588,15
1067216,20
1067832,27
1068460,28
1069088,27
1069712,24
1070340,17
1070964,23
1071592,29
1072220,33
1072840,41
1073468,43
1074088,40
1074712,33
1075340,28
1075956,25
1076588,15
1077208,12
1077828,17
1078460,16
1079080,16
1079708,17
1080336,17
1080952,12
1081580,16
1082204,15
1082832,14
1083464,23
1084080,30
1084708,34
1085332,32
1085960,24
1086588,16
1087208,20
1087836,21
1088460,22
1089084,24
1089712,34
1090328,49
1090956,52
1091580,38
1092208,28
1092836,22
1093460,16
1094088,12
1094716,16
1095336,17
1095964,16
1096588,18
1097216,19
1097848,16
1098464,15
1099092,17
1099716,16
1100340,24
1100972,29
1101592,29
1102220,23
1102844,21
1103472,16
1104100,19
1104724,21
1105352,23
1105984,30
1106600,38
1107228,40
1107852,38
1108480,28
1109108,22
1109728,17
1110356,12
1110980,13
1111604,17
1112236,16
1112856,17
1113484,17
1114108,14
1114736,12
1115364,13
1115988,15
1116620,19
1117248,20
1117872,29
1118500,27
1119124,21
1119752,18
1120380,17
1121000,17
1121628,19
1122252,19
1122872,23
1123504,39
1124120,48
1124752,45
1125380,38
1126000,29
1126628,17
1127252,13
1127880,18
1128508,17
1129128,17
1129756,18
1130380,18
1131008,16
1131636,14
1132256,13
1132884,13
1133508,19
1134132,21
1134760,19
1135376,23
1136004,21
1136628,15
1137252,21
1137880,18
1138504,19
1139132,27
1139764,36
1140384,40
1141012,39
1141636,29
1142268,23
1142896,16
1143516,10
1144144,15
1144768,27
1145392,18
1146024,16
1146640,21
1147268,24
1147892,18
1148516,17
1149144,15
1149768,20
1150396,27
1151028,28
1151648,27
1152276,24
1152900,20
1153528,17
1154156,22
1154776,25
1155404,23
1156028,25
1156648,28
1157276,31
1157896,33
1158524,31
1159148,31
1159768,20
1160400,14
1161016,17
1161644,19
1162272,16
1162896,19
1163524,20
1164148,14
1164776,12
1165404,10
1166024,15
1166652,18
1167276,18
1167900,29
1168528,30
1169152,25
1169780,19
1170404,19
1171024,22
1171656,25
1172272,27
1172904,35
1173532,36
1174152,33
1174780,30
1175404,26
1176036,20
1176664,13
1177284,12
1177912,18
1178536,17
1179156,17
1179788,16
1180408,18
1181036,15
1181660,13
1182284,14
1182916,14
1183536,17
1184164,24
1184796,26
1185416,27
1186044,21
1186668,16
1187296,19
1187928,22
1188544,25
1189172,29
1189796,38
1190420,39
1191048,35
1191664,28
1192296,30
1192920,22
1193544,15
1194172,11
1194792,15
1195424,17
1196052,22
1196672,20
1197300,15
1197924,12
1198556,12
1199188,12
1199808,14
1200440,19
1201060,28
1201684,35
1202316,29
1202936,23
1203564,17
1204188,21
1204812,24
1205440,27
1206056,37
1206688,44
1207316,41
1207936,31
1208568,32
1209188,26
1209820,13
1210448,10
1211064,14
1211696,17
1212320,18
1212944,17
1213572,18
1214192,11
1214820,12
1215444,11
1216072,10
1216700,10
1217320,23
1217948,36
1218580,38
1219200,36
1219828,25
1220452,18
1221084,16
1221712,17
1222332,19
1222960,33
1223584,40
1224208,40
1224836,30
1225456,25
1226084,17
1226712,11
1227336,10
1227964,15
1228584,17
1229216,17
1229844,16
1230464,21
1231092,21
1231716,12
1232344,10
1232972,10
1233592,11
1234220,17
1234844,23
1235468,21
1236096,19
1236712,17
1237344,17
1237968,19
1238592,18
1239220,30
1239840,45
1240468,47
1241096,47
1241716,40
1242344,33
1242968,21
1243596,15
1244224,14
1244840,16
1245472,17
1246096,19
1246724,21
1247352,19
1247972,19
1248604,16
1249224,16
1249848,18
1250480,21
1251096,33
1251724,37
1252348,26
1252976,19
1253604,17
1254228,19
1254860,21
1255488,26
1256104,41
1256736,46
1257360,41
1257988,35
1258620,28
1259240,23
1259868,13
1260492,11
1261116,16
1261744,16
1262368,18
1262996,18
1263628,18
1264248,19
1264876,17
1265500,14
1266132,12
1266760,14
1267384,21
1268012,24
1268636,26
1269260,21
1269892,14
1270512,17
1271140,21
1271764,23
1272388,29
1273020,38
1273640,47
1274268,48
1274900,36
1275520,28
1276148,19
1276776,11
1277404,11
1278036,16
1278656,16
1279288,18
1279912,17
1280536,17
1281164,16
1281780,19
1282408,19
1283032,21
1283656,28
1284284,36
1284904,41
1285532,31
1286160,25
1286776,17
1287404,31
1288028,38
1288656,39
1289284,51
1289904,52
1290532,45
1291156,37
1291780,28
1292412,24
1293032,17
1293660,12
1294284,12
1294904,16
1295532,17
1296152,17
1296780,17
1297404,11
1298024,11
1298652,18
1299276,16
1299904,15
1300532,12
1301152,25
1301780,30
1302404,36
1303032,27
1303660,16
1304280,19
1304908,21
1305532,22
1306156,34
1306788,46
1307408,44
1308036,32
1308660,22
1309284,17
1309912,10
1310536,13
1311168,23
1311796,18
1312416,17
1313044,16
1313664,25
1314292,24
1314920,20
1315536,17
1316164,15
1316788,19
1317408,23
1318036,28
1318656,35
1319284,32
1319904,16
1320528,20
1321156,22
1321776,23
1322404,31
1323032,39
1323648,42
1324276,41
1324900,31
1325528,29
1326156,20
1326776,13
1327404,13
1328024,18
1328648,17
1329276,21
1329896,24
1330524,21
1331148,19
1331772,19
1332400,18
1333016,20
1333644,23
1334268,29
1334888,30
1335516,27
1336140,22
1336768,17
1337400,18
1338016,22
1338644,27
1339268,34
1339896,42
1340524,50
1341144,46
1341772,38
1342396,29
1343016,15
1343648,10
1344264,12
1344892,19
1345516,17
1346140,17
1346768,19
1347384,17
1348012,12
1348640,11
1349256,12
1349884,14
1350508,25
1351136,36
1351764,32
1352384,24
1353012,16
1353632,21
1354256,26
1354884,24
1355504,27
1356132,37
1356756,37
1357380,35
1358008,23
1358624,19
1359252,19
1359884,14
1360504,11
1361132,18
1361756,17
1362384,17
1363012,16
1363632,20
1364260,23
1364880,22
1365508,19
1366136,21
1366760,25
1367388,24
1368012,27
1368632,33
1369260,27
1369880,17
1370508,23
1371132,30
1371760,33
1372388,39
1373012,43
1373640,50
1374268,46
1374888,35
1375516,27
1376140,15
1376768,10
1377396,12
1378016,17
1378644,15
1379264,17
1379888,16
1380516,14
1381136,12
1381764,13
1382388,18
1383012,24
1383640,26
1384264,33
1384892,32
1385520,24
1386144,21
1386772,16
1387396,19
1388028,22
1388656,30
1389272,41
1389904,48
1390528,51
1391152,45
1391780,38
1392400,31
1393028,16
1393652,13
1394276,18
1394904,19
1395528,17
1396156,18
1396784,21
1397404,20
1398032,14
1398656,13
1399284,14
1399912,16
1400536,21
1401164,25
1401788,25
1402412,18
1403040,17
1403656,17
1404288,16
1404912,20
1405532,20
1406164,31
1406788,39
1407416,45
1408044,36
1408660,30
1409288,24
1409912,15
1410540,11
1411172,16
1411792,17
1412420,17
1413044,17
1413668,18
1414296,12
1414920,12
1415548,13
1416172,14
1416796,20
1417424,27
1418040,31
1418672,27
1419300,22
1419920,18
1420548,20
1421172,24
1421804,21
1422432,25
1423048,35
1423676,43
1424300,43
1424924,23
1425552,18
1426176,17
1426804,13
1427428,15
1428052,17
1428684,16
1429304,16
1429932,23
1430564,26
1431184,20
1431812,14
1432440,11
1433068,11
1433700,10
1434316,16
1434948,20
1435572,23
1436192,19
1436820,21
1437440,22
1438068,24
1438692,21
1439316,31
1439944,43
1440568,43
1441196,34
1441824,26
1442448,20
1443076,11
1443700,10
1444328,17
1444956,16
1445576,17
1446204,18
1446828,19
1447448,17
1448080,16
1448696,12
1449324,11
1449948,11
1450568,15
1451200,26
1451816,30
1452444,29
1453072,16
1453696,18
1454324,24
1454948,31
1455576,35
1456208,40
1456824,41
1457452,46
1458076,31
1458700,15
1459328,10
1459952,11
1460580,9
1461152,17
1461776,17
1462404,16
1463024,17
1463652,20
1464276,19
1464900,23
1465528,22
1466152,22
1466780,20
1467412,26
1468032,36
1468660,30
1469284,26
1469916,17
1470544,16
1471168,23
1471800,23
1472424,33
1473048,43
1473676,46
1474296,44
1474924,41
1475548,37
1476172,22
1476800,13
1477416,13
1478044,16
1478676,18
1479296,21
1479924,23
1480548,22
1481176,16
1481804,10
1482424,14
1483052,28
1483676,24
1484300,21
1484928,19
1485544,18
1486172,19
1486796,17
1487420,21
1488048,23
1488664,22
1489292,23
1489916,22
1490540,31
1491168,32
1491792,21
1492420,14
1493052,10
1493672,11
1494300,16
1494924,17
1495556,16
1496184,16
1496808,19
1497436,16
1498060,14
1498684,11
1499312,10
1499936,11
1500564,20
1501196,26
1501816,29
1502444,22
1503068,16
1503700,18
1504328,20
1504952,24
1505580,30
1506204,38
1506828,40
1507460,38
1508080,30
1508708,23
1509332,11
1509956,10
1510588,10
1511208,16
1511836,17
1512468,16
1513088,17
1513716,14
1514340,12
1514972,13
1515604,11
1516224,11
1516852,18
1517476,28
1518100,30
1518732,26
1519352,25
1519984,17
1520608,19
1521232,25
1521860,26
1522480,32
1523108,33
1523740,34
1524360,33
1524988,30
1525612,24
1526244,13
1526872,10
1527496,13
1528124,16
1528748,18
1529372,22
1530004,18
1530624,15
1531252,12
1531880,10
1532504,10
1533132,13
1533752,21
1534384,25
1535016,25
1535632,20
1536264,19
1536888,26
1537516,25
1538144,24
1538768,22
1539396,29
1540020,38
1540640,39
1541272,31
1541888,27
1542516,25
1543140,15
1543764,12
1544392,18
1545008,17
1545640,17
1546268,20
1546888,24
1547516,24
1548140,23
1548768,17
1549400,14
1550016,11
1550648,15
1551272,18
1551896,17
1552524,18
1553144,18
1553772,21
1554396,24
1555020,21
1555652,18
1556272,27
1556900,36
1557532,42
1558152,32
1558780,30
1559404,24
1560036,18
1560664,17
1561280,17
1561912,16
1562532,20
1563156,20
1563788,24
1564408,23
1565036,16
1565660,11
1566284,17
1566912,22
1567536,31
1568164,29
1568792,23
1569416,18
1570044,22
1570668,23
1571296,19
1571928,23
1572544,39
1573172,45
1573796,41
1574420,44
1575052,36
1575672,25
1576304,11
1576928,10
1577552,17
1578180,17
1578800,17
1579428,19
1580060,22
1580680,14
1581308,11
1581932,13
1582564,15
1583196,19
1583816,22
1584448,23
1585072,26
1585696,17
1586324,16
1586944,18
1587576,17
1588196,18
1588820,23
1589452,36
1590072,47
1590700,44
1591332,33
1591952,27
1592584,19
1593208,10
1593836,11
1594468,14
1595088,17
1595716,17
1596344,20
1596968,18
1597596,14
1598216,14
1598844,13
1599468,13
1600096,17
1600724,25
1601344,33
1601972,30
1602600,23
1603216,16
1603844,17
1604464,20
1605096,24
1605724,36
1606344,43
1606972,47
1607596,41
1608220,30
1608848,21
1609464,11
1610092,11
1610716,12
1611340,16
1611968,16
1612592,17
1613220,17
1613852,10
1614472,11
1615100,14
1615724,15
1616352,26
1616984,31
1617600,39
1618228,36
1618852,31
1619476,23
1620104,16
1620720,23
1621352,32
1621976,37
1622600,49
1623228,52
1623848,53
1624476,40
1625104,29
1625728,29
1626356,17
1626980,13
1627608,17
1628240,17
1628856,19
1629484,21
1630108,23
1630732,24
1631360,20
1631984,17
1632616,13
1633240,17
1633864,25
1634492,27
1635112,32
1635744,27
1636372,17
1636992,18
1637620,21
1638244,25
1638876,33
1639504,39
1640120,43
1640748,40
1641368,31
1641988,28
1642616,24
1643236,18
1643864,14
1644488,17
1645108,16
1645736,17
1646360,18
1646988,23
1647608,20
1648232,15
1648860,12
1649480,13
1650108,14
1650736,22
1651352,21
1651980,17
1652604,19
1653232,18
1653860,16
1654476,17
1655104,22
1655728,37
1656352,44
1656980,40
1657596,32
1658228,25
1658852,16
1659476,10
1660104,11
1660720,13
1661348,17
1661976,15
1662600,17
1663228,17
1663852,12
1664480,11
1665108,12
1665724,14
1666352,18
1666976,26
1667596,36
1668228,30
1668844,26
1669472,17
1670096,17
1670716,17
1671348,18
1671968,21
1672596,36
1673224,48
1673840,44
1674468,39
1675092,32
1675720,23
1676352,15
1676968,10
1677596,17
1678220,16
1678848,16
1679476,19
1680096,21
1680720,17
1681344,13
1681964,12
1682592,11
1683212,13
1683840,22
1684464,30
1685088,31
1685716,27
1686336,17
1686968,21
1687596,26
1688216,25
1688844,36
1689468,42
1690096,34
1690724,26
1691340,15
1691972,18
1692592,19
1693216,17
1693844,14
1694464,19
1695092,17
1695716,17
1696336,17
1696964,19
1697580,19
1698212,20
1698840,18
1699456,17
1700084,24
1700708,42
1701336,44
1701964,32
1702584,21
1703212,21
1703832,24
1704456,25
1705084,28
1705704,41
1706332,44
1706952,46
1707576,31
1708208,19
1708824,15
1709452,10
1710076,11
1710704,14
1711332,16
1711956,16
1712588,16
1713216,16
1713840,17
1714468,18
1715092,19
1715720,19
1716348,18
1716968,21
1717596,27
1718220,27
1718844,22
1719472,16
1720096,18
1720724,25
1721352,27
1721976,31
1722604,38
1723228,42
1723856,41
1724484,28
1725104,21
1725732,14
1726356,10
1726984,13
1727612,20
1728232,19
1728860,16
1729484,17
1730104,16
1730732,10
1731352,12
1731980,10
1732604,10
1733224,15
1733856,24
1734480,28
1735108,25
1735736,19
1736356,16
1736984,18
1737608,18
1738236,18
1738864,28
1739488,41
1740116,41
1740740,40
1741368,26
1741996,25
1742616,19
1743244,13
1743868,13
1744496,17
1745124,19
1745748,20
1746376,21
1747004,14
1747624,11
1748252,12
1748876,13
1749504,16
1750132,19
1750752,31
1751380,30
1752004,23
1752628,18
1753256,17
1753876,18
1754504,29
1755128,30
1755752,35
1756380,31
1757004,37
1757636,40
1758264,38
1758884,33
1759512,19
1760136,13
1760764,17
1761392,16
1762016,17
1762644,18
1763264,21
1763888,19
1764516,16
1765136,15
1765764,12
1766388,17
1767012,27
1767640,35
1768264,36
1768892,27
1769520,17
1770140,16
1770768,19
1771392,22
1772020,30
1772652,36
1773272,45
1773900,49
1774524,35
1775148,24
1775780,18
1776400,12
1777028,10
1777652,16
1778276,16
1778904,19
1779528,19
1780156,18
1780788,12
1781408,11
1782036,10
1782660,16
1783292,29
1783920,34
1784540,30
1785168,27
1785792,26
1786416,17
1787044,24
1787664,19
1788292,17
1788916,30
1789540,47
1790172,52
1790796,36
1791424,26
1792056,25
1792676,17
1793304,12
1793928,13
1794556,17
1795188,16
1795808,17
1796436,17
1797060,13
1797684,13
1798312,15
1798936,15
1799564,17
1800188,22
1800816,34
1801444,29
1802068,21
1802696,18
1803328,17
1803944,19
1804572,22
1805196,23
1805824,33
1806452,40
1807072,44
1807700,38
1808324,24
1808944,19
1809572,14
1810192,11
1810820,18
1811444,16
1812068,17
1812696,17
1813320,17
1813948,11
1814576,12
1815192,12
1815824,12
1816448,17
1817076,26
1817708,26
1818328,22
1818956,18
1819580,17
1820204,18
1820832,17
1821448,19
1822076,27
1822700,38
1823324,38
1823956,37
1824580,28
1825208,19
1825836,10
1826456,11
1827084,11
1827708,17
1828340,16
1828968,16
1829584,16
1830212,13
1830836,11
1831460,10
1832092,10
1832712,12
1833340,11
1833964,23
1834588,28
1835220,22
1835844,18
1836472,18
1837104,18
1837720,17
1838348,19
1838976,23
1839604,29
1840236,40
1840856,41
1841484,36
1842108,28
1842732,14
1843364,10
1843980,15
1844612,16
1845232,19
1845856,21
1846484,19
1847108,16
1847736,15
1848364,10
1848984,10
1849612,10
1850232,14
1850864,33
1851492,37
1852112,26
1852740,16
1853364,20
1853988,19
1854620,16
1855240,19
1855868,26
1856492,37
1857116,39
1857744,35
1858368,30
1858996,23
1859624,12
1860248,16
1860876,22
1861500,18
1862128,17
1862756,16
1863376,20
1864004,20
1864628,18
1865252,19
1865880,17
1866496,13
1867124,22
1867748,32
1868372,35
1869004,31
1869624,19
1870252,16
1870880,23
1871496,24
1872128,33
1872752,42
1873380,44
1874012,38
1874632,24
1875260,19
1875884,11
1876508,10
1877136,14
1877760,23
1878388,18
1879012,17
1879640,17
1880268,15
1880888,17
1881516,15
1882148,10
1882768,11
1883396,13
1884020,23
1884652,26
1885280,22
1885904,19
1886532,18
1887156,21
1887780,23
1888412,24
1889032,29
1889660,29
1890284,30
1890908,24
1891536,21
1892156,17
1892784,11
1893412,10
1894032,16
1894664,16
1895284,17
1895916,16
1896544,18
1897168,11
1897796,13
1898420,11
1899044,12
1899672,13
1900296,14
1900924,24
1901548,24
1902172,23
1902804,16
1903428,19
1904060,26
1904688,33
1905304,35
1905936,36
1906560,41
1907188,42
1907820,39
1908440,35
1909068,18
1909692,11
1910320,11
1910948,16
1911568,23
1912200,23
1912824,18
1913448,15
1914076,11
1914704,12
1915336,14
1915964,18
1916584,17
1917216,21
1917840,23
1918472,19
1919100,18
1919720,16
1920352,16
1920976,20
1921600,23
1922228,30
1922848,34
1923476,34
1924108,38
1924728,31
1925356,24
1925980,14
1926608,11
1927240,16
1927856,17
1928484,16
1929108,17
1929732,17
1930364,18
1930984,20
1931612,17
1932236,15
1932860,16
1933488,18
1934108,22
1934736,21
1935364,20
1935984,19
1936612,17
1937236,17
1937868,23
1938496,31
1939120,42
1939752,45
1940376,41
1941000,30
1941628,27
1942248,24
1942876,11
1943504,11
1944128,16
1944756,16
1945376,17
1946008,15
1946636,16
1947256,11
1947884,10
1948508,10
1949136,14
1949768,24
1950384,40
1951016,41
1951640,27
1952264,24
1952892,18
1953512,20
1954140,21
1954764,23
1955388,33
1956020,41
1956640,49
1957268,51
1957900,41
1958520,32
1959148,13
1959772,11
1960404,12
1961032,16
1961652,16
1962280,19
1962904,22
1963528,21
1964156,14
1964776,13
1965408,15
1966032,18
1966656,23
1967284,32
1967904,31
1968532,23
1969160,18
1969784,21
1970412,23
1971036,21
1971668,19
1972296,28
1972912,32
1973540,35
1974164,29
1974788,29
1975420,28
1976040,21
1976668,17
1977292,21
1977916,18
1978544,16
1979164,18
1979792,24
1980420,27
1981040,24
1981668,17
1982292,11
1982924,10
1983552,12
1984176,21
1984804,29
1985428,26
1986052,17
1986684,16
1987304,18
1987932,19
1988556,23
1989180,34
1989808,42
1990424,45
1991056,37
1991676,35
1992304,28
1992932,15
1993556,10
1994188,16
1994820,16
1995440,19
1996068,19
1996696,19
1997320,13
1997948,11
1998568,20
1999196,30
1999820,33
2000448,37
2001076,22
2001696,12
2002324,19
2002952,23
2003576,25
2004204,23
2004828,24
2005456,38
2006084,49
2006704,43
2007332,37
2007956,35
2008584,28
2009212,12
2009832,11
2010460,12
2011084,16
2011708,16
2012336,17
2012952,17
2013584,20
2014212,19
2014832,17
2015460,14
2016084,13
2016716,14
2017344,25
2017960,25
2018592,25
2019216,21
2019844,19
2020472,24
2021096,27
2021724,31
2022352,34
2022976,36
2023604,35
2024224,24
2024852,18
2025484,14
2026104,10
2026732,11
2027356,18
2027988,15
2028620,17
2029240,18
2029868,17
2030492,10
2031116,10
2031748,10
2032368,14
2032996,21
2033620,28
2034244,28
2034876,30
2035496,23
2036124,16
2036756,18
2037376,21
2038008,23
2038632,23
2039260,33
2039892,43
2040512,43
2041140,27
2041768,27
2042388,25
2043020,18
2043640,13
2044268,17
2044896,18
2045520,20
2046148,24
2046768,25
2047400,20
2048028,12
2048644,11
2049272,11
2049892,15
2050520,28
2051148,32
2051768,29
2052396,21
2053016,17
2053640,27
2054268,32
2054888,34
2055512,29
2056136,24
2056756,28
2057388,22
2058008,22
2058636,23
2059256,21
2059880,21
2060508,18
2061132,18
2061760,18
2062388,16
2063008,17
2063636,14
2064260,14
2064888,21
2065516,19
2066136,17
2066764,15
2067388,23
2068008,27
2068640,22
2069256,18
2069884,18
2070504,21
2071128,24
2071756,30
2072376,37
2073004,36
2073632,25
2074252,17
2074884,20
2075504,27
2076132,15
2076764,10
2077384,18
2078012,16
2078636,17
2079260,19
2079888,18
2080512,12
2081140,12
2081764,11
2082384,11
2083012,17
2083632,29
2084260,36
2084888,33
2085504,29
2086132,16
2086756,21
2087384,24
2088012,26
2088628,40
2089260,47
2089880,51
2090504,45
2091132,26
2091752,17
2092380,10
2093004,10
2093628,11
2094256,16
2094872,23
2095500,24
2096124,24
2096752,23
2097380,20
2098004,20
2098632,17
2099260,11
2099876,16
2100504,25
2101128,24
2101756,25
2102388,20
2103008,18
2103636,21
2104260,23
2104884,28
2105512,37
2106132,45
2106760,45
2107384,37
2108008,32
2108636,27
2109260,20
2109888,14
2110520,17
2111136,18
2111764,19
2112388,20
2113020,18
2113648,16
2114264,15
2114892,11
2115516,11
2116140,14
2116768,23
2117388,31
2118016,30
2118640,20
2119264,16
2119892,19
2120516,20
2121144,22
2121772,27
2122392,36
2123020,34
2123644,35
2124276,25
2124904,18
2125520,18
2126148,10
2126772,11
2127396,17
2128024,16
2128640,16
2129272,17
2129896,17
2130520,17
2131148,17
2131768,20
2132396,17
2133028,21
2133648,32
2134276,32
2134900,26
2135528,23
2136160,16
2136776,17
2137404,19
2138028,22
2138652,36
2139280,44
2139904,49
2140532,40
2141156,29
2141780,22
2142408,13
2143024,12
2143656,18
2144284,21
2144904,16
2145532,20
2146156,17
2146784,16
2147416,16
2148032,17
2148664,21
2149288,24
2149912,23
2150540,32
2151160,32
2151788,29
2152412,19
2153032,18
2153664,21
2154280,23
2154908,23
2155536,34
2156160,36
2156788,39
2157412,31
2158044,28
2158672,20
2159292,11
2159920,10
2160544,19
2161168,17
2161796,17
2162416,18
2163044,19
2163668,15
2164292,11
2164920,11
2165540,10
2166168,15
2166796,23
2167416,33
2168044,35
2168668,30
2169296,17
2169928,20
2170544,23
2171172,24
2171796,27
2172420,33
2173052,36
2173672,36
2174300,25
2174924,21
2175548,14
2176180,10
2176796,11
2177428,15
2178056,16
2178672,18
2179300,21
2179924,23
2180552,21
2181184,11
2181800,11
2182428,11
2183052,21
2183680,29
2184308,26
2184928,20
2185556,18
2186180,19
2186804,24
2187436,27
2188056,31
2188684,37
2189308,42
2189936,42
2190564,31
2191188,22
2191820,16
2192452,10
2193072,11
2193700,14
2194324,20
2194948,21
2195580,18
2196200,20
2196828,17
2197452,13
2198076,13
2198708,10
2199328,12
2199956,15
2200588,22
2201208,25
2201836,20
2202460,15
2203092,17
2203720,17
2204336,17
2204968,24
2205592,36
2206216,44
2206844,45
2207464,36
2208092,28
2208716,20
2209340,10
2209968,11
2210588,16
2211216,18
2211844,22
2212464,19
2213092,17
2213716,15
2214344,13
2214976,15
2215596,15
2216224,23
2216848,28
2217476,27
2218108,22
2218728,21
2219356,17
2219984,20
2220608,25
2221236,22
2221856,23
2222484,32
2223116,40
2223736,41
2224364,31
2224992,29
2225620,15
2226248,10
2226872,11
2227504,16
2228128,16
2228752,18
2229380,18
2230000,17
2230628,15
2231252,15
2231880,13
2232508,18
2233128,25
2233756,31
2234388,26
2235008,19
2235636,17
2236264,20
2236892,23
2237524,20
2238144,22
2238776,30
2239400,37
2240024,42
2240652,32
2241272,25
2241900,19
2242524,11
2243148,11
2243776,17
2244400,16
2245028,16
2245660,18
2246280,21
2246908,14
2247532,13
2248164,10
2248792,10
2249412,10
2250040,18
2250664,31
2251288,32
2251916,23
2252536,15
2253168,17
2253788,21
2254412,22
2255040,23
2255656,23
2256288,29
2256916,33
2257536,35
2258164,37
2258788,34
2259416,19
2260048,12
2260664,15
2261292,16
2261916,17
2262540,20
2263172,24
2263792,23
2264420,25
2265044,21
2265668,14
2266296,16
2266912,23
2267544,24
2268172,20
2268792,19
2269420,17
2270044,17
2270676,21
2271308,24
2271928,38
2272560,40
2273180,41
2273808,37
2274436,29
2275056,21
2275684,11
2276308,11
2276932,13
2277564,16
2278184,21
2278816,21
2279444,18
2280064,13
2280692,12
2281316,12
2281948,13
2282576,17
2283192,18
2283824,26
2284448,29
2285072,25
2285700,18
2286320,19
2286948,23
2287572,25
2288200,25
2288828,34
2289448,35
2290076,34
2290708,32
2291328,35
2291956,28
2292580,15
2293212,11
2293844,16
2294464,16
2295092,17
2295716,17
2296340,17
2296968,14
2297584,20
2298216,23
2298840,19
2299464,17
2300092,22
2300712,21
2301344,17
2301972,16
2302592,19
2303224,23
2303848,24
2304480,29
2305108,38
2305728,41
2306356,42
2306980,41
2307604,31
2308232,24
2308848,13
2309480,10
2310100,11
2310724,15
2311356,16
2311976,17
2312604,17
2313236,16
2313856,17
2314484,18
2315108,16
2315740,17
2316368,23
2316988,36
2317616,34
2318240,19
2318860,19
2319492,18
2320112,24
2320740,29
2321364,29
2321988,40
2322616,42
2323236,45
2323864,40
2324492,34
2325112,27
2325740,14
2326364,10
2326996,18
2327624,16
2328248,17
2328876,17
2329500,19
2330128,22
2330756,21
2331376,21
2332004,13
2332628,14
2333252,19
2333884,26
2334504,27
2335132,24
2335764,15
2336384,21
2337012,22
2337636,24
2338264,36
2338896,44
2339512,42
2340144,44
2340768,30
2341392,26
2342020,17
2342640,9
2343216,11
2343848,17
2344472,17
2345100,16
2345720,19
2346348,26
2346972,27
2347596,27
2348228,19
2348848,19
2349476,18
2350108,22
2350728,22
2351356,19
2351984,16
2352616,19
2353244,19
2353864,22
2354496,24
2355120,25
2355744,29
2356372,35
2356992,43
2357620,32
2358244,31
2358868,24
2359500,10
2360120,11
2360748,17
2361380,16
2362000,19
2362628,20
2363252,15
2363884,12
2364512,10
2365136,11
2365764,13
2366388,16
2367016,22
2367644,20
2368264,19
2368892,18
2369516,17
2370140,18
2370772,20
2371396,24
2372024,34
2372652,36
2373272,39
2373904,32
2374528,22
2375156,21
2375788,19
2376408,18
2377036,20
2377660,16
2378284,16
2378912,18
2379536,17
2380164,12
2380788,12
2381416,13
2382044,13
2382668,19
2383300,25
2383928,28
2384552,34
2385180,35
2385808,24
2386436,17
2387068,18
2387688,28
2388316,40
2388944,49
2389568,52
2390196,46
2390816,35
2391448,32
2392076,21
2392696,12
2393328,12
2393952,17
2394580,18
2395212,18
2395832,19
2396464,16
2397088,13
2397712,14
2398344,11
2398960,18
2399592,24
2400216,35
2400840,33
2401468,22
2402088,21
2402716,17
2403348,22
2403968,29
2404596,33
2405220,38
2405852,37
2406484,36
2407104,31
2407732,27
2408356,28
2408976,16
2409608,10
2410224,15
2410852,16
2411476,19
2412104,18
2412732,19
2413352,14
2413980,15
2414612,14
2415232,15
2415864,16
2416488,21
2417116,30
2417748,34
2418368,30
2418996,19
2419624,17
2420244,22
2420876,20
2421496,25
2422124,35
2422748,41
2423372,42
2424004,34
2424624,27
2425252,19
2425884,11
2426504,11
2427136,16
2427760,15
2428388,18
2429020,20
2429640,21
2430268,15
2430896,13
2431520,11
2432152,12
2432768,19
2433396,24
2434020,24
2434644,20
2435276,20
2435896,16
2436524,21
2437156,24
2437776,25
2438404,33
2439028,42
2439660,49
2440288,45
2440912,29
2441540,21
2442168,13
2442792,10
2443420,11
2444040,17
2444668,18
2445296,18
2445920,17
2446548,11
2447172,10
2447804,10
2448436,10
2449056,18
2449684,25
2450308,34
2450940,30
2451572,24
2452192,20
2452824,17
2453444,20
2454072,21
2454700,25
2455320,31
2455952,33
2456584,36
2457200,29
2457832,22
2458456,21
2459084,12
2459712,10
2460336,17
2460964,17
2461588,17
2462212,19
2462844,18
2463464,15
2464092,12
2464716,11
2465336,10
2465968,14
2466584,23
2467212,28
2467836,29
2468464,24
2469092,17
2469716,18
2470348,20
2470976,19
2471600,28
2472228,45
2472852,53
2473480,49
2474108,38
2474728,29
2475356,16
2475980,11
2476608,11
2477236,14
2477856,16
2478484,17
2479116,18
2479736,15
2480364,13
2480988,15
2481620,15
2482248,17
2482864,20
2483492,27
2484116,30
2484740,33
2485372,27
2485992,17
2486620,19
2487244,26
2487868,31
2488500,46
2489120,61
2489748,61
2490380,52
2491000,39
2491628,26
2492252,12
2492884,10
2493512,15
2494132,17
2494760,17
2495384,22
2496012,21
2496640,16
2497256,16
2497884,17
2498508,18
2499132,18
2499764,22
2500384,30
2501012,33
2501644,31
2502264,19
2502892,17
2503516,20
2504148,29
2504776,34
2505400,43
2506028,49
2506656,51
2507280,41
2507908,34
2508528,31
2509160,19
2509780,11
2510404,16
2511036,16
2511656,18
2512284,20
2512916,22
2513536,15
2514168,16
2514792,17
2515420,18
2516052,22
2516672,27
2517300,29
2517928,28
2518552,25
2519180,17
2519800,21
2520432,24
2521052,26
2521680,33
2522308,42
2522928,46
2523556,42
2524188,28
2524808,27
2525436,16
2526060,13
2526692,13
2527324,16
2527944,17
2528576,17
2529200,17
2529824,15
2530452,12
2531072,11
2531704,15
2532328,24
2532952,29
2533584,33
2534200,34
2534832,27
2535464,21
2536080,16
2536712,20
2537336,21
2537968,23
2538596,35
2539216,38
2539848,41
2540472,36
2541096,32
2541724,27
2542344,15
2542976,13
2543600,21
2544224,17
2544852,18
2545476,19
2546108,18
2546740,12
2547360,11
2547988,10
2548616,11
2549244,22
2549876,30
2550496,27
2551124,21
2551752,17
2552376,19
2553008,20
2553624,21
2554256,18
2554888,20
2555504,31
2556136,38
2556760,35
2557392,30
2558024,31
2558644,22
2559276,13
2559900,13
2560528,17
2561156,16
2561772,17
2562400,19
2563024,17
2563648,13
2564276,12
2564896,12
2565524,13
2566152,21
2566768,27
2567396,27
2568020,21
2568648,19
2569276,18
2569896,24
2570524,25
2571148,28
2571776,31
2572404,24
2573024,28
2573652,29
2574276,22
2574896,21
2575528,12
2576144,11
2576772,16
2577396,18
2578020,19
2578648,17
2579272,18
2579900,15
2580532,12
2581152,12
2581780,13
2582404,19
2583032,24
2583660,30
2584280,33
2584908,30
2585532,17
2586156,17
2586784,20
2587408,25
2588036,25
2588660,37
2589284,46
2589912,43
2590536,33
2591164,27
2591796,23
2592416,14
2593044,11
2593668,17
2594296,17
2594924,17
2595544,17
2596172,18
2596796,12
2597420,11
2598052,10
2598672,10
2599300,14
2599924,19
2600548,23
2601180,27
2601804,27
2602432,18
2603060,18
2603680,27
2604308,31
2604932,39
2605564,47
2606192,56
2606808,54
2607440,37
2608064,22
2608688,10
2609316,12
2609936,12
2610564,16
2611188,18
2611816,21
2612444,21
2613068,18
2613696,15
2614328,13
2614944,12
2615576,14
2616200,19
2616828,27
2617460,28
2618080,26
2618708,20
2619332,19
2619956,21
2620588,26
2621208,25
2621836,35
2622460,36
2623088,41
2623716,33
2624340,27
2624968,22
2625596,14
2626216,11
2626844,16
2627464,16
2628092,18
2628720,18
2629344,19
2629972,15
2630596,14
2631216,12
2631848,12
2632464,15
2633092,23
2633716,31
2634340,35
2634968,24
2635592,17
2636220,19
2636848,22
2637468,24
2638100,28
2638720,37
2639348,40
2639980,38
2640600,30
2641228,23
2641852,15
2642476,10
2643104,10
2643720,15
2644348,16
2644972,19
2645592,23
2646224,21
2646840,14
2647468,16
2648096,20
2648720,23
2649348,28
2649972,23
2650600,22
2651228,14
2651848,18
2652476,19
2653100,22
2653724,25
2654352,28
2654972,36
2655600,42
2656224,38
2656848,23
2657476,13
2658096,12
2658724,10
2659352,15
2659972,16
2660600,18
2661224,17
2661852,17
2662484,18
2663100,20
2663728,18
2664352,15
2664972,11
2665600,10
2666220,13
2666852,22
2667472,19
2668096,16
2668724,16
2669344,20
2669972,24
2670600,27
2671224,26
2671852,34
2672476,39
2673104,44
2673736,34
2674352,29
2674980,24
2675604,13
2676228,10
2676860,17
2677480,16
2678108,16
2678732,17
2679356,19
2679984,17
2680604,15
2681232,13
2681860,11
2682480,15
2683108,23
2683732,27
2684360,27
2684992,20
2685608,15
2686236,18
2686860,21
2687488,24
2688120,30
2688736,37
2689364,40
2689984,38
2690608,29
2691236,22
2691856,16
2692484,10
2693104,10
2693728,16
2694360,17
2694984,17
2695612,18
2696240,17
2696864,17
2697492,15
2698116,15
2698744,16
2699376,20
2699992,30
2700624,32
2701248,27
2701868,21
2702500,18
2703120,24
2703748,24
2704372,26
2704996,34
2705624,38
2706248,38
2706876,34
2707504,28
2708128,22
2708756,11
2709380,9
2709960,12
2710588,17
2711208,19
2711836,21
2712460,21
2713092,11
2713720,10
2714344,11
2714972,9
2715544,11
2716168,15
2716796,20
2717416,19
2718044,16
2718668,17
2719292,20
2719924,26
2720544,29
2721172,37
2721800,47
2722424,43
2723052,38
2723676,38
2724304,28
2724936,16
2725552,11
2726180,13
2726804,17
2727428,19
2728056,19
2728680,16
2729308,17
2729932,15
2730552,17
2731184,19
2731800,25
2732432,37
2733060,47
2733680,49
2734308,35
2734932,21
2735564,16
2736192,25
2736808,35
2737440,34
2738064,37
2738692,39
2739324,40
2739944,37
2740572,27
2741196,27
2741820,21
2742448,12
2743064,11
2743696,16
2744324,15
2744944,17
2745572,18
2746196,16
2746824,13
2747456,12
2748072,12
2748704,15
2749328,25
2749956,34
2750588,32
2751208,28
2751836,22
2752464,17
2753088,19
2753716,20
2754336,25
2754964,33
2755596,40
2756216,43
2756844,37
2757468,31
2758100,26
2758728,17
2759348,10
2759976,14
2760600,17
2761224,17
2761852,16
2762472,17
2763100,13
2763728,13
2764352,15
2764980,14
2765600,20
2766228,30
2766856,43
2767472,39
2768104,27
2768728,16
2769356,18
2769984,19
2770608,23
2771236,30
2771860,35
2772488,41
2773116,46
2773736,39
2774368,33
2774992,21
2775616,9
2776192,10
2776820,17
2777448,17
2778072,17
2778696,19
2779324,21
2779944,19
2780576,17
2781204,17
2781824,17
2782452,28
2783076,34
2783708,30
2784340,23
2784960,27
2785588,16
2786212,25
2786836,31
2787468,34
2788088,38
2788716,43
2789340,48
2789964,45
2790596,36
2791216,32
2791844,17
2792472,10
2793096,10
2793724,16
2794348,18
2794980,18
2795608,17
2796228,17
2796856,14
2797480,12
2798104,11
2798732,12
2799352,17
2799984,25
2800608,25
2801232,21
2801860,18
2802480,18
2803108,21
2803740,24
2804360,23
2804988,36
2805612,43
2806244,45
2806872,40
2807488,31
2808120,23
2808744,11
2809368,10
2809996,15
2810616,17
2811244,16
2811868,17
2812492,17
2813124,10
2813744,11
2814376,10
2815004,10
2815624,15
2816256,25
2816876,33
2817504,31
2818136,22
2818752,17
2819380,18
2820004,22
2820624,25
2821256,26
2821872,35
2822504,42
2823124,45
2823748,36
2824380,30
2825000,23
2825628,12
2826256,10
2826880,17
2827508,16
2828132,17
2828760,16
2829388,16
2830008,13
2830636,13
2831260,16
2831884,13
2832516,14
2833136,24
2833764,25
2834388,23
2835012,22
2835644,16
2836264,19
2836892,24
2837524,26
2838144,38
2838772,52
2839396,47
2840028,43
2840656,37
2841276,33
2841904,23
2842528,12
2843152,12
2843780,16
2844400,17
2845028,17
2845652,16
2846276,19
2846908,20
2847528,19
2848156,19
2848788,27
2849408,40
2850036,54
2850660,54
2851292,42
2851920,25
2852536,17
2853168,19
2853792,18
2854416,29
2855044,46
2855664,56
2856296,51
2856920,40
2857544,28
2858172,22
2858792,14
2859424,12
2860052,17
2860672,17
2861304,17
2861928,18
2862556,18
2863188,14
2863808,13
2864440,13
2865064,13
2865688,20
2866316,31
2866936,40
2867568,37
2868192,24
2868812,15
2869440,18
2870064,24
2870692,29
2871324,35
2871944,47
2872572,52
2873196,43
2873828,29
2874456,25
2875072,14
2875704,11
2876328,11
2876952,17
2877580,16
2878200,21
2878828,21
2879452,18
2880076,12
2880704,11
2881328,11
2881956,13
2882584,24
2883200,35
2883828,35
2884452,29
2885080,21
2885708,18
2886328,25
2886956,26
2887580,21
2888204,29
2888832,34
2889456,42
2890084,37
2890708,31
2891332,23
2891960,13
2892580,9
2893156,12
2893784,17
2894404,16
2895036,16
2895656,18
2896284,16
2896916,14
2897536,13
2898164,11
2898788,15
2899416,19
2900048,28
2900664,27
2901292,21
2901916,18
2902540,17
2903172,22
2903792,29
2904420,30
2905044,40
2905668,44
2906300,36
2906920,24
2907548,21
2908180,23
2908800,13
2909428,11
2910052,17
2910684,19
2911312,31
2911932,34
2912564,24
2913184,10
2913812,10
2914440,11
2915056,11
2915688,24
2916312,37
2916936,44
2917564,35
2918184,23
2918816,17
2919444,18
2920064,19
2920692,24
2921316,28
2921944,33
2922576,35
2923192,31
2923824,22
2924448,24
2925072,16
2925700,10
2926320,12
2926948,15
2927572,17
2928200,16
2928828,16
2929448,16
2930076,16
2930708,14
2931328,15
2931956,18
2932580,24
2933212,31
2933844,30
2934464,26
2935092,21
2935716,17
2936344,20
2936972,24
2937592,27
2938224,33
2938848,41
2939472,49
2940104,42
2940720,25
2941352,19
2941980,11
2942600,11
2943232,16
2943856,19
2944488,19
2945116,18
2945736,19
2946364,11
2946988,11
2947616,13
2948244,10
2948864,15
2949492,25
2950116,30
2950740,28
2951372,16
2951992,17
2952620,16
2953252,16
2953872,23
2954500,27
2955124,35
2955756,36
2956384,31
2957008,27
2957636,20
2958260,15
2958884,10
2959516,10
2960136,19
2960764,17
2961388,17
2962012,17
2962640,16
2963260,12
2963888,14
2964516,17
2965136,20
2965764,25
2966388,33
2967020,30
2967648,22
2968272,19
2968900,16
2969528,17
2970152,22
2970780,24
2971400,33
2972028,40
2972652,43
2973276,41
2973904,29
2974528,19
2975156,14
2975788,12
2976408,19
2977036,21
2977660,17
2978288,16
2978920,17
2979536,13
2980168,15
2980792,17
2981416,16
2982044,20
2982664,28
2983292,40
2983916,41
2984540,33
2985172,20
2985796,19
2986424,31
2987052,33
2987672,31
2988300,35
2988928,39
2989556,39
2990188,32
2990808,24
2991436,13
2992060,10
2992684,11
2993316,18
2993936,17
2994564,17
2995188,20
2995816,18
2996444,10
2997068,12
2997700,10
2998328,10
2998948,16
2999576,22
3000204,22
3000832,25
3001460,24
3002080,17
3002708,17
3003332,18
3003960,18
3004588,27
3005208,44
3005836,47
3006464,44
3007088,37
3007720,32
3008344,20
3008972,12
3009604,10
3010224,15
3010852,16
3011480,16
3012104,17
3012732,15
3013352,15
3013984,16
3014608,22
3015232,29
3015864,25
3016480,29
3017108,29
3017740,24
3018360,21
3018992,17
3019616,21
3020244,24
3020876,28
3021496,40
3022124,45
3022748,44
3023376,39
3024004,32
3024624,28
3025252,15
3025880,11
3026504,16
3027136,17
3027752,19
3028384,23
3029016,20
3029632,14
3030264,14
3030892,13
3031524,16
3032152,23
3032772,33
3033400,38
3034028,30
3034652,15
3035280,17
3035904,21
3036536,26
3037160,30
3037784,31
3038416,36
3039032,39
3039664,43
3040296,37
3040912,32
3041540,24
3042164,17
3042796,12
3043428,15
3044048,17
3044676,16
3045300,17
3045928,17
3046556,22
3047176,23
3047804,17
3048432,23
3049056,27
3049684,37
3050308,37
3050940,29
3051568,22
3052192,17
3052820,18
3053444,30
3054076,33
3054708,40
3055328,42
3055960,42
3056584,31
3057208,22
3057840,18
3058456,11
3059088,10
3059716,12
3060336,17
3060968,16
3061592,19
3062224,21
3062852,13
3063472,11
3064104,11
3064728,13
3065352,23
3065984,22
3066600,25
3067232,32
3067856,33
3068480,17
3069112,21
3069732,25
3070364,23
3070996,24
3071616,39
3072252,45
3072872,41
3073500,28
3074128,20
3074752,17
3075380,13
3076004,14
3076628,18
3077256,17
3077872,17
3078504,17
3079128,20
3079752,14
3080380,14
3081000,13
3081628,11
3082256,14
3082880,25
3083508,29
3084132,29
3084764,24
3085392,16
3086012,22
3086640,27
3087264,32
3087888,38
3088516,38
3089136,37
3089764,29
3090388,15
3091012,11
3091644,11
3092264,13
3092892,13
3093524,16
3094144,16
3094772,20
3095400,19
3096028,12
3096660,11
3097280,11
3097908,11
3098532,18
3099156,28
3099788,34
3100408,26
3101036,17
3101664,19
3102288,17
3102916,17
3103536,19
3104168,19
3104796,26
3105416,34
3106044,40
3106672,37
3107300,30
3107932,26
3108552,17
3109184,13
3109808,21
3110432,21
3111060,17
3111680,17
3112312,20
3112936,19
3113560,15
3114192,12
3114808,12
3115436,22
3116068,36
3116688,41
3117320,35
3117944,23
3118572,16
3119204,18
3119824,23
3120456,27
3121080,30
3121704,39
3122332,42
3122952,38
3123584,25
3124204,21
3124828,17
3125460,11
3126084,10
3126712,16
3127340,17
3127960,17
3128592,19
3129216,17
3129844,12
3130476,12
3131096,13
3131728,17
3132352,19
3132976,29
3133604,35
3134224,32
3134856,22
3135480,17
3136104,17
3136732,17
3137356,22
3137988,33
3138616,42
3139240,48
3139868,41
3140492,32
3141124,23
3141752,10
3142372,10
3143004,14
3143628,17
3144252,17
3144884,16
3145504,18
3146136,13
3146764,13
3147384,13
3148016,11
3148640,14
3149272,19
3149900,26
3150520,23
3151152,19
3151776,17
3152400,17
3153028,19
3153648,22
3154280,26
3154904,31
3155528,32
3156156,34
3156776,27
3157408,25
3158036,22
3158656,15
3159288,11
3159912,16
3160544,17
3161172,16
3161792,16
3162420,19
3163048,18
3163672,15
3164304,11
3164920,11
3165548,24
3166176,39
3166800,41
3167428,29
3168048,21
3168676,16
3169308,18
3169928,25
3170556,33
3171184,44
3171816,50
3172448,52
3173068,51
3173700,35
3174324,19
3174952,11
3175580,10
3176200,12
3176828,17
3177452,19
3178080,29
3178708,22
3179336,12
3179964,10
3180596,10
3181216,11
3181848,13
3182472,18
3183104,27
3183732,31
3184352,31
3184984,21
3185608,18
3186232,23
3186864,24
3187484,24
3188112,33
3188744,43
3189364,45
3189996,36
3190620,29
3191252,23
3191884,14
3192504,10
3193136,17
3193760,16
3194388,17
3195016,16
3195640,17
3196272,13
3196896,18
3197520,20
3198152,20
3198772,25
3199400,33
3200032,40
3200652,37
3201280,34
3201904,16
3202532,20
3203164,22
3203784,26
3204412,33
3205036,36
3205660,38
3206288,33
3206908,22
3207536,18
3208160,12
3208780,10
3209412,11
3210032,19
3210660,17
3211292,16
3211912,17
3212540,15
3213164,13
3213796,12
3214424,10
3215048,14
3215676,21
3216300,31
3216924,34
3217552,26
3218176,21
3218804,16
3219428,18
3220052,22
3220684,26
3221304,33
3221932,37
3222564,44
3223184,42
3223812,34
3224440,28
3225068,18
3225700,12
3226320,17
3226948,16
3227572,18
3228196,19
3228824,17
3229440,12
3230072,12
3230696,12
3231320,12
3231948,15
3232568,25
3233196,33
3233828,34
3234448,29
3235076,19
3235700,16
3236332,21
3236960,27
3237584,39
3238212,48
3238840,47
3239460,43
3240092,32
3240712,29
3241340,21
3241964,11
3242588,10
3243216,16
3243840,19
3244468,21
3245100,18
3245720,19
3246348,16
3246972,14
3247604,12
3248236,10
3248856,17
3249484,24
3250108,27
3250732,31
3251364,21
3251984,17
3252612,19
3253236,21
3253864,25
3254492,36
3255116,36
3255748,41
3256376,38
3257000,31
3257628,34
3258252,25
3258884,15
3259512,12
3260132,16
3260760,17
3261388,20
3262012,18
3262644,16
3263264,18
3263896,16
3264528,12
3265144,15
3265772,18
3266400,28
3267028,30
3267660,31
3268280,25
3268908,18
3269536,17
3270160,17
3270788,15
3271408,26
3272040,39
3272664,44
3273288,45
3273916,38
3274536,30
3275168,20
3275800,14
3276420,18
3277052,16
3277672,19
3278300,23
3278928,22
3279544,19
3280172,15
3280792,16
3281416,15
3282044,20
3282660,29
3283288,30
3283912,27
3284532,20
3285164,16
3285780,21
3286412,22
3287032,23
3287656,33
3288284,39
3288908,41
3289536,39
3290164,26
3290780,22
3291412,16
3292036,11
3292664,13
3293292,16
3293912,16
3294540,20
3295164,31
3295788,25
3296416,17
3297032,14
3297660,12
3298284,14
3298904,22
3299536,33
3300152,38
3300780,30
3301408,20
3302032,16
3302660,17
3303284,18
3303912,25
3304540,39
3305160,43
3305788,40
3306412,35
3307032,27
3307664,26
3308280,15
3308908,9
3309480,11
3310104,17
3310732,18
3311352,20
3311980,21
3312608,18
3313228,15
3313860,12
3314480,11
3315108,11
3315740,10
3316360,23
3316988,24
3317612,17
3318244,16
3318872,17
3319488,22
3320120,24
3320740,27
3321364,32
3321996,38
3322616,39
3323244,41
3323868,33
3324492,16
3325120,13
3325736,17
3326368,17
3326996,16
3327616,17
3328248,18
3328868,21
3329496,22
3330124,26
3330744,15
3331372,10
3331992,10
3332616,19
3333244,33
3333864,32
3334492,16
3335112,21
3335736,25
3336364,24
3336984,25
3337612,33
3338236,43
3338860,42
3339488,37
3340112,25
3340740,22
3341372,16
3341992,12
3342620,13
3343244,18
3343872,16
3344504,18
3345120,20
3345748,19
3346372,14
3346996,12
3347624,11
3348248,17
3348876,26
3349500,35
3350128,33
3350756,29
3351380,20
3352012,21
3352640,26
3353256,28
3353888,31
3354512,42
3355140,37
3355772,36
3356392,33
3357020,30
3357644,27
3358268,14
3358900,10
3359520,14
3360148,19
3360776,19
3361392,18
3362020,19
3362644,16
3363272,17
3363900,18
3364520,19
3365148,20
3365772,24
3366400,31
3367028,28
3367648,24
3368276,16
3368900,17
3369524,20
3370152,25
3370772,30
3371400,37
3372024,43
3372648,45
3373276,41
3373900,29
3374528,21
3375160,12
3375776,10
3376408,15
3377032,16
3377660,16
3378292,16
3378912,17
3379540,12
3380164,11
3380788,12
3381416,13
3382032,18
3382660,29
3383284,35
3383908,34
3384536,25
3385160,18
3385788,22
3386416,23
3387040,23
3387668,16
3388292,27
3388920,46
3389552,53
3390168,49
3390796,43
3391420,24
3392044,10
3392672,11
3393288,17
3393920,16
3394540,17
3395164,19
3395796,17
3396420,18
3397048,15
3397676,12
3398296,12
3398924,18
3399548,28
3400180,25
3400808,22
3401424,16
3402056,17
3402680,24
3403300,25
3403932,25
3404552,26
3405180,20
3405804,22
3406428,21
3407056,19
3407672,25
3408304,23
3408932,15
3409552,17
3410180,17
3410804,16
3411432,16
3412064,18
3412680,15
3413308,14
3413932,11
3414556,11
3415188,17
3415808,27
3416436,33
3417060,28
3417684,13
3418316,20
3418936,20
3419564,19
3420196,17
3420816,20
3421444,31
3422068,36
3422696,36
3423328,28
3423948,27
3424576,19
3425200,12
3425824,10
3426456,16
3427072,16
3427704,16
3428328,19
3428952,23
3429580,17
3430200,13
3430832,13
3431460,12
3432080,22
3432708,34
3433332,37
3433964,26
3434592,20
3435216,21
3435844,27
3436468,33
3437092,30
3437724,34
3438344,37
3438976,42
3439600,40
3440224,28
3440852,21
3441476,18
3442104,17
3442732,12
3443352,17
3443980,17
3444604,23
3445232,25
3445864,20
3446480,14
3447108,13
3447732,11
3448356,13
3448988,16
3449608,29
3450236,31
3450860,24
3451484,18
3452116,18
3452740,23
3453368,24
3454000,25
3454620,34
3455248,40
3455872,40
3456504,29
3457132,20
3457752,21
3458380,15
3459004,12
3459628,18
3460256,16
3460880,17
3461508,17
3462132,19
3462756,13
3463384,11
3464008,12
3464636,15
3465268,18
3465888,26
3466516,29
3467140,25
3467772,20
3468400,18
3469024,22
3469652,26
3470276,29
3470900,34
3471532,36
3472152,40
3472780,35
3473404,20
3474032,15
3474660,13
3475284,11
3475916,13
3476548,16
3477168,18
3477796,16
3478424,17
3479048,18
3479676,16
3480296,15
3480928,15
3481552,23
3482176,26
3482804,30
3483424,35
3484052,31
3484680,31
3485304,21
3485932,19
3486556,25
3487188,28
3487816,39
3488440,47
3489068,52
3489692,48
3490316,41
3490944,30
3491564,11
3492192,12
3492816,16
3493436,16
3494068,15
3494688,19
3495316,20
3495948,14
3496568,20
3497196,17
3497820,12
3498452,10
3499080,18
3499704,29
3500332,31
3500960,25
3501580,17
3502212,18
3502832,24
3503460,27
3504088,29
3504708,37
3505340,42
3505960,43
3506588,32
3507220,24
3507840,13
3508468,12
3509092,11
3509724,16
3510356,16
3510976,17
3511608,17
3512232,17
3512856,12
3513484,10
3514104,13
3514732,27
3515360,33
3515984,31
3516616,24
3517232,16
3517864,18
3518496,20
3519116,26
3519748,28
3520372,31
3521004,38
3521632,37
3522248,43
3522880,40
3523500,24
3524124,17
3524756,10
3525376,11
3526004,11
3526628,17
3527252,17
3527880,16
3528504,17
3529132,13
3529764,10
3530384,11
3531012,16
3531636,21
3532268,25
3532900,34
3533520,30
3534148,20
3534772,16
3535396,16
3536024,19
3536640,22
3537272,27
3537896,43
3538520,49
3539148,48
3539768,38
3540396,28
3541028,24
3541648,16
3542276,14
3542904,18
3543532,16
3544164,18
3544784,18
3545412,18
3546040,16
3546660,20
3547292,22
3547912,20
3548544,16
3549168,22
3549792,31
3550420,36
3551044,28
3551676,15
3552308,16
3552928,19
3553556,23
3554184,28
3554812,39
3555444,50
3556064,45
3556692,33
3557320,37
3557944,27
3558576,10
3559192,11
3559824,16
3560452,16
3561072,17
3561700,19
3562324,15
3562956,10
3563588,14
3564208,14
3564836,16
3565460,20
3566088,28
3566716,26
3567336,21
3567968,19
3568592,17
3569216,19
3569844,26
3570464,27
3571096,32
3571724,36
3572344,37
3572976,26
3573600,23
3574228,21
3574860,12
3575480,11
3576112,16
3576736,16
3577360,17
3577992,19
3578608,18
3579240,17
3579864,17
3580488,15
3581120,20
3581736,22
3582368,28
3583000,28
3583620,25
3584252,15
3584872,16
3585504,19
3586132,22
3586752,27
3587380,32
3588004,41
3588628,42
3589256,34
3589876,21
3590504,27
3591128,24
3591752,13
3592380,10
3593000,17
3593628,17
3594260,16
3594880,18
3595508,19
3596136,20
3596764,20
3597396,15
3598016,13
3598648,17
3599272,22
3599896,25
3600528,29
3601144,24
3601772,16
3602396,19
3603024,20
3603652,22
3604272,33
3604900,43
3605532,56
3606152,54
3606780,41
3607404,31
3608032,15
3608664,11
3609280,12
3609908,16
3610532,16
3611156,17
3611784,16
3612404,14
3613032,15
3613656,15
3614280,13
3614908,18
3615528,26
3616156,33
3616788,29
3617408,26
3618036,16
3618660,21
3619288,28
3619916,28
3620536,32
3621164,38
3621788,34
3622412,37
3623044,27
3623664,15
3624292,10
3624916,11
3625540,12
3626172,16
3626792,17
3627424,17
3628052,18
3628672,18
3629300,10
3629928,11
3630556,11
3631188,14
3631808,20
3632440,29
3633064,34
3633688,31
3634316,22
3634936,16
3635568,21
3636188,24
3636812,17
3637444,20
3638064,41
3638692,51
3639324,51
3639944,43
3640576,41
3641200,22
3641828,13
3642460,11
3643080,15
3643708,16
3644336,17
3644960,17
3645588,14
3646208,19
3646836,17
3647460,20
3648084,23
3648712,20
3649336,29
3649964,27
3650592,18
3651216,18
3651844,19
3652468,21
3653096,24
3653728,29
3654348,41
3654976,43
3655600,44
3656228,37
3656856,30
3657472,24
3658104,18
3658728,11
3659352,17
3659984,17
3660600,16
3661232,16
3661860,16
3662480,12
3663108,13
3663736,16
3664364,13
3664996,14
3665616,21
3666244,28
3666868,29
3667492,22
3668124,14
3668744,19
3669372,16
3670000,17
3670624,17
3671252,25
3671876,38
3672508,39
3673140,36
3673760,31
3674388,19
3675016,12
3675644,12
3676276,16
3676896,16
3677524,17
3678152,18
3678776,16
3679404,10
3680024,17
3680652,19
3681276,18
3681904,24
3682532,34
3683160,31
3683792,25
3684420,19
3685040,19
3685672,24
3686296,25
3686920,24
3687548,34
3688168,43
3688796,45
3689420,37
3690044,27
3690672,20
3691288,14
3691916,11
3692540,14
3693168,16
3693796,18
3694420,21
3695048,21
3695680,17
3696296,13
3696928,12
3697552,15
3698180,21
3698812,32
3699432,43
3700060,42
3700684,30
3701308,17
3701940,23
3702560,32
3703188,30
3703820,32
3704440,39
3705068,37
3705696,38
3706324,39
3706956,32
3707576,27
3708204,15
3708828,11
3709452,16
3710084,16
3710704,18
3711336,19
3711960,20
3712584,16
3713216,13
3713832,15
3714460,14
3715092,22
3715712,32
3716344,33
3716968,29
3717596,21
3718228,16
3718848,19
3719476,19
3720100,23
3720724,32
3721356,38
3721976,43
3722604,41
3723228,32
3723852,29
3724484,18
3725104,11
3725732,13
3726364,15
3726984,16
3727616,17
3728236,17
3728868,16
3729496,14
3730116,14
3730744,14
3731368,18
3731992,23
3732624,27
3733240,28
3733868,24
3734492,17
3735120,15
3735748,18
3736368,17
3736996,19
3737628,35
3738248,46
3738876,51
3739500,45
3740132,31
3740760,20
3741384,13
3742016,11
3742640,16
3743264,17
3743892,22
3744512,24
3745140,24
3745768,11
3746388,11
3747020,11
3747640,11
3748272,17
3748900,24
3749520,27
3750148,32
3750776,30
3751404,17
3752036,15
3752656,20
3753284,27
3753908,29
3754536,40
3755164,39
3755784,35
3756416,26
3757040,22
3757664,17
3758296,12
3758920,13
3759552,17
3760184,16
3760800,18
3761428,17
3762056,16
3762684,12
3763316,13
3763936,13
3764568,17
3765192,23
3765816,36
3766444,41
3767064,37
3767696,24
3768324,15
3768944,21
3769572,25
3770196,25
3770828,33
3771460,39
3772080,44
3772708,40
3773336,26
3773960,25
3774592,18
3775208,11
3775840,15
3776464,16
3777088,16
3777716,18
3778336,17
3778968,13
3779596,12
3780216,15
3780844,12
3781468,14
3782100,19
3782732,27
3783352,28
3783984,26
3784608,18
3785232,18
3785864,21
3786480,23
3787112,27
3787736,36
3788364,41
3788996,45
3789616,36
3790244,25
3790876,20
3791496,12
3792128,10
3792748,15
3793380,16
3794012,18
3794632,18
3795260,18
3795884,13
3796512,16
3797140,16
3797760,15
3798388,15
3799016,23
3799640,31
3800272,31
3800892,23
3801520,15
3802152,16
3802772,17
3803404,20
3804028,27
3804660,38
3805288,50
3805912,49
3806544,30
3807168,24
3807792,17
3808424,11
3809040,12
3809672,16
3810296,17
3810920,17
3811548,19
3812176,18
3812804,17
3813436,18
3814056,14
3814688,17
3815312,20
3815944,28
3816572,27
3817192,32
3817824,23
3818448,15
3819072,20
3819704,27
3820320,34
3820952,44
3821584,46
3822200,45
3822832,38
3823456,31
3824088,27
3824716,14
3825336,11
3825968,17
3826592,17
3827216,17
3827844,16
3828464,18
3829096,20
3829720,24
3830344,15
3830976,11
3831596,15
3832228,26
3832860,30
3833480,27
3834112,17
3834736,16
3835368,16
3836000,21
3836616,25
3837248,35
3837876,40
3838500,49
3839132,47
3839756,35
3840388,26
3841012,18
3841632,12
3842264,11
3842884,15
3843516,16
3844144,18
3844764,17
3845392,14
3846016,18
3846644,23
3847276,26
3847896,24
3848524,24
3849148,29
3849772,26
3850404,18
3851024,22
3851652,18
3852276,16
3852900,24
3853528,29
3854152,44
3854780,47
3855412,40
3856032,30
3856660,27
3857284,23
3857912,15
3858544,10
3859160,15
3859792,17
3860416,17
3861040,16
3861668,18
3862288,13
3862916,11
3863544,11
3864168,10
3864796,14
3865420,23
3866052,32
3866684,34
3867304,24
3867932,17
3868560,20
3869188,19
3869820,19
3870440,25
3871068,33
3871696,37
3872320,41
3872948,36
3873568,32
3874196,27
3874828,14
3875448,13
3876076,17
3876704,17
3877332,17
3877964,17
3878584,16
3879212,11
3879836,11
3880464,12
3881092,12
3881712,20
3882340,28
3882964,29
3883592,24
3884220,19
3884840,19
3885468,23
3886100,24
3886720,24
3887348,29
3887976,39
3888608,40
3889236,38
3889856,26
3890488,20
3891112,14
3891736,10
3892368,12
3892984,19
3893616,19
3894240,21
3894864,17
3895492,10
3896112,12
3896740,11
3897372,13
3897992,17
3898620,20
3899248,33
3899876,36
3900508,27
3901128,18
3901760,21
3902384,25
3903008,31
3903640,32
3904256,36
3904888,41
3905512,48
3906136,40
3906764,31
3907384,22
3908012,10
3908644,10
3909264,18
3909896,18
3910520,17
3911148,17
3911780,17
3912400,16
3913028,19
3913652,19
3914280,17
3914908,19
3915528,23
3916160,29
3916784,29
3917408,21
3918040,15
3918664,21
3919296,23
3919924,27
3920544,31
3921176,26
3921800,33
3922432,38
3923060,25
3923680,27
3924308,20
3924936,13
3925560,15
3926192,17
3926808,16
3927440,18
3928072,18
3928688,19
3929320,17
3929944,13
3930572,11
3931204,10
3931824,14
3932456,21
3933080,21
3933704,17
3934332,17
3934952,18
3935580,17
3936208,18
3936828,21
3937460,28
3938080,29
3938708,32
3939340,32
3939960,35
3940588,33
3941212,20
3941844,17
3942476,22
3943096,17
3943724,17
3944348,21
3944972,23
3945600,19
3946216,15
3946844,12
3947472,9
3948044,10
3948676,17
3949296,30
3949924,35
3950548,31
3951176,19
3951804,16
3952424,18
3953052,19
3953684,23
3954304,33
3954936,38
3955560,40
3956188,32
3956820,28
3957440,25
3958068,15
3958696,10
3959320,17
3959948,18
3960568,19
3961196,19
3961824,21
3962448,19
3963076,16
3963696,16
3964324,13
3964956,17
3965576,25
3966208,31
3966832,29
3967464,22
3968092,16
3968712,21
3969340,19
3969964,17
3970588,31
3971220,48
3971840,53
3972468,45
3973092,29
3973720,25
3974348,15
3974968,13
3975596,16
3976228,15
3976848,17
3977476,21
3978104,21
3978732,17
3979364,14
3979984,15
3980616,15
3981240,22
3981864,24
3982492,29
3983112,29
3983744,24
3984368,19
3984992,17
3985620,20
3986244,20
3986876,20
3987508,30
3988128,43
3988760,42
3989384,36
3990012,31
3990644,26
3991264,11
3991896,11
3992520,17
3993144,18
3993776,16
3994392,18
3995024,20
3995652,18
3996272,18
3996900,14
3997524,13
3998156,16
3998788,24
3999408,29
4000040,25
4000660,16
4001284,18
4001912,19
4002536,25
4003164,24
4003788,26
4004412,26
4005044,39
4005664,43
4006292,32
4006924,23
4007544,13
4008172,13
4008796,12
4009428,15
4010056,16
4010676,15
4011304,17
4011928,14
4012552,12
4013184,11
4013800,12
4014428,15
4015052,20
4015676,28
4016308,28
4016928,28
4017556,21
4018188,16
4018808,18
4019436,20
4020060,25
4020688,29
4021320,30
4021936,33
4022568,31
4023192,23
4023816,17
4024444,10
4025064,10
4025692,16
4026316,18
4026940,17
4027568,16
4028192,17
4028820,11
4029452,10
4030072,13
4030704,13
4031328,18
4031960,23
4032592,31
4033208,33
4033836,27
4034460,16
4035084,17
4035716,18
4036336,26
4036964,36
4037588,42
4038212,45
4038844,46
4039464,39
4040096,34
4040724,26
4041344,12
4041972,13
4042600,17
4043228,16
4043860,17
4044480,18
4045108,19
4045732,13
4046356,12
4046988,11
4047608,16
4048236,23
4048860,26
4049484,23
4050116,22
4050736,20
4051364,16
4051996,18
4052616,20
4053244,21
4053872,29
4054500,35
4055132,36
4055752,37
4056384,33
4057008,32
4057632,20
4058260,11
4058880,13
4059508,15
4060132,16
4060760,17
4061388,17
4062008,14
4062636,13
4063268,11
4063888,11
4064520,15
4065144,17
4065772,27
4066404,28
4067024,23
4067656,19
4068280,17
4068904,19
4069532,20
4070152,24
4070784,32
4071408,36
4072032,37
4072660,23
4073288,17
4073916,16
4074548,14
4075168,21
4075800,28
4076424,23
4077056,16
4077684,16
4078304,17
4078936,11
4079560,11
4080184,11
4080812,11
4081432,17
4082064,30
4082692,33
4083312,27
4083940,19
4084568,16
4085196,16
4085828,17
4086448,21
4087076,26
4087704,32
4088328,38
4088956,37
4089576,31
4090208,25
4090836,12
4091460,9
4092040,11
4092664,15
4093296,16
4093920,18
4094544,19
4095176,16
4095796,12
4096428,11
4097056,11
4097672,13
4098300,16
4098920,27
4099548,24
4100176,20
4100792,19
4101420,19
4102044,19
4102664,19
4103296,22
4103912,31
4104540,41
4105164,43
4105784,37
4106416,29
4107032,25
4107660,16
4108284,12
4108904,12
4109532,19
4110156,17
4110784,17
4111416,20
4112032,22
4112660,20
4113284,14
4113912,11
4114540,12
4115160,19
4115788,28
4116412,29
4117036,23
4117664,17
4118288,18
4118916,21
4119540,23
4120164,28
4120792,42
4121416,47
4122044,52
4122672,36
4123296,24
4123924,16
4124548,10
4125176,12
4125804,16
4126424,19
4127052,21
4127676,19
4128300,17
4128928,12
4129544,15
4130172,14
4130796,15
4131420,20
4132048,26
4132672,29
4133300,28
4133928,24
4134552,17
4135180,18
4135804,23
4136436,25
4137064,30
4137680,36
4138308,39
4138932,38
4139556,29
4140184,26
4140808,15
4141436,10
4142060,11
4142684,17
4143312,16
4143936,17
4144568,17
4145196,14
4145816,17
4146444,12
4147068,10
4147700,13
4148328,19
4148944,29
4149576,33
4150200,25
4150824,19
4151452,16
4152072,20
4152700,19
4153324,21
4153948,32
4154580,41
4155200,45
4155832,36
4156464,30
4157080,25
4157708,12
4158332,11
4158964,16
4159592,16
4160216,17
4160844,18
4161464,17
4162088,11
4162716,12
4163336,11
4163964,13
4164588,16
4165208,24
4165840,32
4166456,29
4167084,18
4167712,16
4168336,23
4168964,23
4169584,23
4170216,22
4170844,31
4171464,34
4172092,36
4172716,29
4173340,25
4173972,18
4174592,11
4175220,11
4175844,16
4176468,16
4177096,16
4177720,17
4178348,16
4178976,14
4179600,17
4180228,17
4180852,19
4181480,27
4182108,30
4182728,30
4183356,25
4183980,21
4184604,17
4185236,19
4185856,22
4186484,25
4187108,39
4187732,47
4188360,47
4188984,42
4189612,28
4190240,16
4190860,10
4191488,12
4192112,12
4192740,17
4193372,16
4193992,17
4194620,17
4195244,15
4195868,14
4196496,14
4197120,12
4197748,19
4198376,27
4199000,43
4199628,38
4200248,32
4200876,19
4201504,21
4202124,26
4202752,26
4203376,28
4204004,45
4204632,53
4205256,55
4205884,41
4206508,31
4207132,27
4207760,14
4208384,12
4209012,17
4209636,16
4210260,19
4210888,21
4211508,22
4212136,15
4212764,12
4213384,15
4214012,13
4214636,16
4215268,27
4215896,32
4216520,32
4217148,25
4217772,17
4218396,19
4219028,26
4219648,28
4220276,32
4220900,38
4221524,42
4222152,39
4222776,27
4223404,19
4224036,12
4224652,10
4225284,11
4225904,15
4226532,16
4227164,15
4227784,19
4228412,17
4229036,17
4229660,17
4230292,16
4230912,19
4231540,22
4232164,28
4232788,27
4233420,24
4234040,22
4234668,17
4235300,16
4235920,19
4236548,20
4237176,30
4237804,41
4238436,48
4239056,46
4239684,37
4240308,31
4240932,17
4241564,10
4242184,18
4242812,17
4243436,17
4244060,19
4244692,19
4245316,15
4245944,15
4246572,16
4247192,15
4247820,15
4248448,21
4249076,29
4249708,30
4250328,27
4250956,17
4251580,20
4252204,25
4252832,25
4253448,31
4254080,37
4254704,42
4255328,42
4255956,33
4256584,28
4257212,22
4257844,12
4258464,11
4259092,16
4259720,16
4260348,17
4260976,19
4261600,22
4262228,19
4262852,20
4263476,18
4264104,16
4264720,12
4265348,24
4265972,27
4266596,31
4267224,25
4267848,15
4268476,19
4269108,18
4269728,21
4270356,27
4270980,35
4271612,38
4272240,34
4272864,22
4273492,19
4274116,12
4274740,11
4275372,10
4275992,17
4276620,16
4277244,16
4277872,16
4278500,12
4279124,10
4279756,10
4280388,14
4281008,26
4281636,23
4282260,27
4282884,25
4283516,16
4284136,19
4284764,18
4285392,21
4286016,25
4286644,25
4287264,38
4287896,43
4288524,43
4289144,35
4289772,31
4290396,25
4291028,13
4291656,10
4292280,19
4292908,17
4293532,18
4294156,18
4294788,17
4295408,15
4296036,15
4296660,14
4297284,15
4297916,20
4298536,24
4299164,29
4299796,35
4300416,33
4301048,17
4301668,20
4302300,26
4302928,25
4303548,31
4304176,37
4304800,44
4305420,41
4306052,30
4306672,24
4307300,15
4307924,11
4308548,12
4309176,15
4309800,16
4310428,18
4311060,19
4311680,23
4312308,21
4312932,17
4313564,15
4314196,14
4314816,18
4315444,25
4316072,27
4316696,25
4317324,20
4317944,19
4318576,29
4319200,33
4319824,28
4320456,28
4321072,29
4321700,37
4322332,42
4322952,41
4323580,32
4324204,16
4324836,10
4325464,15
4326084,17
4326712,21
4327336,21
4327960,17
4328588,11
4329208,13
4329836,11
4330460,13
4331084,19
4331716,29
4332336,32
4332964,24
4333596,14
4334216,17
4334844,21
4335468,22
4336100,19
4336732,23
4337352,29
4337980,37
4338608,43
4339232,35
4339860,31
4340480,25
4341108,13
4341736,11
4342360,18
4342988,16
4343608,18
4344236,18
4344868,19
4345488,14
4346120,13
4346744,14
4347372,15
4348004,22
4348624,32
4349256,37
4349880,35
4350504,27
4351136,16
4351752,19
4352388,21
4353008,21
4353632,36
4354260,36
4354884,42
4355512,43
4356140,30
4356760,23
4357388,13
4358012,11
4358644,12
4359272,16
4359892,16
4360520,19
4361144,18
4361768,16
4362396,14
4363016,15
4363644,12
4364268,13
4364892,19
4365520,32
4366144,29
4366772,22
4367404,16
4368024,17
4368652,21
4369276,22
4369904,25
4370536,36
4371156,40
4371784,40
4372412,31
4373036,26
4373664,23
4374284,12
4374912,10
4375540,16
4376164,15
4376792,16
4377420,17
4378048,17
4378680,16
4379300,28
4379928,22
4380552,13
4381184,15
4381812,24
4382432,32
4383064,41
4383688,30
4384312,17
4384940,19
4385560,25
4386188,24
4386812,30
4387440,39
4388068,39
4388692,38
4389324,26
4389952,25
4390576,20
4391204,12
4391828,11
4392456,17
4393084,16
4393704,18
4394332,16
4394956,14
4395584,20
4396212,22
4396832,25
4397460,21
4398092,17
4398712,19
4399344,21
4399968,21
4400600,19
4401228,18
4401848,23
4402476,22
4403104,24
4403728,39
4404356,46
4404976,45
4405604,37
4406228,29
4406852,23
4407484,10
4408104,10
4408732,16
4409364,16
4409984,16
4410612,17
4411236,16
4411868,12
4412500,11
4413120,15
4413748,17
4414376,21
4415000,25
4415632,33
4416248,31
4416880,25
4417504,16
4418128,17
4418756,21
4419376,27
4420004,32
4420636,40
4421256,47
4421884,44
4422512,27
4423140,17
4423772,12
4424392,12
4425020,13
4425644,17
4426268,17
4426896,19
4427512,24
4428144,23
4428768,18
4429392,17
4430020,14
4430640,13
4431268,16
4431900,24
4432520,31
4433148,27
4433772,24
4434404,17
4435036,17
4435656,24
4436284,27
4436912,38
4437536,47
4438164,47
4438784,35
4439416,24
4440040,22
4440664,11
4441292,10
4441912,15
4442540,20
4443172,16
4443792,17
4444424,17
4445048,12
4445676,11
4446308,10
4446928,11
4447556,17
4448184,23
4448808,32
4449436,30
4450056,23
4450684,18
4451312,18
4451936,25
4452564,29
4453192,34
4453820,48
4454452,54
4455072,53
4455700,36
4456324,17
4456956,11
4457588,10
4458208,10
4458840,17
4459464,18
4460088,19
4460716,18
4461336,17
4461968,16
4462600,16
4463216,17
4463848,16
4464472,19
4465104,23
4465732,36
4466352,24
4466984,17
4467608,19
4468232,24
4468860,22
4469480,24
4470112,32
4470736,36
4471360,42
4471992,40
4472612,35
4473240,33
4473872,22
4474496,13
4475128,11
4475752,17
4476384,21
4477016,25
4477632,25
4478264,19
4478888,10
4479512,11
4480144,12
4480760,18
4481388,20
4482012,29
4482636,30
4483264,20
4483888,18
4484516,18
4485148,23
4485768,25
4486396,24
4487020,33
4487652,40
4488280,38
4488904,35
4489532,30
4490156,27
4490784,15
4491412,10
4492032,18
4492660,21
4493288,17
4493912,18
4494540,17
4495160,15
4495792,14
4496420,13
4497040,17
4497668,26
4498292,27
4498924,29
4499556,24
4500176,14
4500804,17
4501428,22
4502056,23
4502684,26
4503304,27
4503936,35
4504560,40
4505184,41
4505816,30
4506436,29
4507068,25
4507696,15
4508312,11
4508944,17
4509568,17
4510196,18
4510828,19
4511448,19
4512076,13
4512700,17
4513324,13
4513952,12
4514568,14
4515200,22
4515824,30
4516448,32
4517076,23
4517700,18
4518332,24
4518964,24
4519584,22
4520212,27
4520836,36
4521468,42
4522096,42
4522720,33
4523352,25
4523976,17
4524600,13
4525232,14
4525848,17
4526476,16
4527100,20
4527728,18
4528356,15
4528980,13
4529612,14
4530240,18
4530864,21
4531496,19
4532120,25
4532744,24
4533372,20
4533992,17
4534624,18
4535248,19
4535872,22
4536500,26
4537120,37
4537748,43
4538380,44
4539000,37
4539632,27
4540256,21
4540884,15
4541516,10
4542136,18
4542768,16
4543392,17
4544016,18
4544644,19
4545264,19
4545892,18
4546520,16
4547144,16
4547772,21
4548392,45
4549024,44
4549652,29
4550272,20
4550904,17
4551528,22
4552156,24
4552788,27
4553408,37
4554040,46
4554664,43
4555288,32
4555920,19
4556536,13
4557168,11
4557792,11
4558416,13
4559044,15
4559664,17
4560296,17
4560924,18
4561544,19
4562176,16
4562800,11
4563428,11
4564060,14
4564680,20
4565308,28
4565936,23
4566560,17
4567188,18
4567808,22
4568436,22
4569060,23
4569688,25
4570316,30
4570936,39
4571568,49
4572196,49
4572816,39
4573444,35
4574068,17
4574700,11
4575332,17
4575952,15
4576584,19
4577212,29
4577836,34
4578464,25
4579088,17
4579720,14
4580344,16
4580968,23
4581600,34
4582224,40
4582856,34
4583488,22
4584104,16
4584736,19
4585360,25
4585992,25
4586620,32
4587240,36
4587872,41
4588496,44
4589120,37
4589748,30
4590368,23
4591000,16
4591628,11
4592248,16
4592876,18
4593500,20
4594132,24
4594764,20
4595384,11
4596012,10
4596636,10
4597260,12
4597892,16
4598512,25
4599140,28
4599768,28
4600392,24
4601020,17
4601640,21
4602268,25
4602900,30
4603520,41
4604148,46
4604776,48
4605408,37
4606036,32
4606656,30
4607288,17
4607912,11
4608536,14
4609168,20
4609784,23
4610412,22
4611036,21
4611660,16
4612288,12
4612912,14
4613540,11
4614172,14
4614792,19
4615420,30
4616044,32
4616676,25
4617304,16
4617920,18
4618552,24
4619176,27
4619800,28
4620428,24
4621048,35
4621676,43
4622300,35
4622924,33
4623556,24
4624176,15
4624804,10
4625436,17
4626056,17
4626684,17
4627308,16
4627940,18
4628568,16
4629192,18
4629820,13
4630444,10
4631068,14
4631700,22
4632320,28
4632948,28
4633576,22
4634200,19
4634828,21
4635448,27
4636076,23
4636708,26
4637328,27
4637956,29
4638584,33
4639212,22
4639844,17
4640464,14
4641092,11
4641716,12
4642340,17
4642968,18
4643592,17
4644220,19
4644844,16
4645468,11
4646100,11
4646724,11
4647352,15
4647984,17
4648600,29
4649228,31
4649852,25
4650484,17
4651112,17
4651732,18
4652360,21
4652988,25
4653608,38
4654240,39
4654856,41
4655488,35
4656112,31
4656736,24
4657364,13
4657992,11
4658620,16
4659252,18
4659872,21
4660500,19
4661124,21
4661756,22
4662384,25
4663008,21
4663640,15
4664264,17
4664888,25
4665516,24
4666136,27
4666764,24
4667392,15
4668016,21
4668644,22
4669272,23
4669904,25
4670532,29
4671152,31
4671784,29
4672408,28
4673032,26
4673660,22
4674280,13
4674908,13
4675532,15
4676156,17
4676788,18
4677408,19
4678036,19
4678668,22
4679288,25
4679916,20
4680544,17
4681172,16
4681804,22
4682424,27
4683052,32
4683676,23
4684304,19
4684932,28
4685552,34
4686184,29
4686808,34
4687432,40
4688060,40
4688680,39
4689308,37
4689940,27
4690560,15
4691188,11
4691816,15
4692444,17
4693076,18
4693696,18
4694328,19
4694952,16
4695576,14
4696208,13
4696824,10
4697456,11
4698080,21
4698704,30
4699336,30
4699952,26
4700584,19
4701216,16
4701832,17
4702464,24
4703088,31
4703720,42
4704352,43
4704968,41
4705596,34
4706224,25
4706848,19
4707480,12
4708096,10
4708728,16
4709352,21
4709976,25
4710608,20
4711232,17
4711860,10
4712492,10
4713112,14
4713744,11
4714368,16
4714996,25
4715628,28
4716248,31
4716880,23
4717500,17
4718128,24
4718756,26
4719376,26
4720008,31
4720628,36
4721256,44
4721884,39
4722508,30
4723140,29
4723772,12
4724392,13
4725024,12
4725648,17
4726276,16
4726908,16
4727528,17
4728160,13
4728784,11
4729408,11
4730040,11
4730656,19
4731288,30
4731920,45
4732540,48
4733168,38
4733796,21
4734424,18
4735056,23
4735676,28
4736308,39
4736932,46
4737556,47
4738188,42
4738808,30
4739436,19
4740064,15
4740688,10
4741316,13
4741936,18
4742568,17
4743196,16
4743816,17
4744448,17
4745072,13
4745700,13
4746332,13
4746952,13
4747584,20
4748208,26
4748832,29
4749460,22
4750080,15
4750712,18
4751336,24
4751960,21
4752592,23
4753212,30
4753840,33
4754472,36
4755092,36
4755720,24
4756344,24
4756976,21
4757604,14
4758224,13
4758856,17
4759480,18
4760104,17
4760736,17
4761352,12
4761984,12
4762608,14
4763232,15
4763860,15
4764484,19
4765116,31
4765748,30
4766368,24
4767000,20
4767624,17
4768256,18
4768884,19
4769504,23
4770136,31
4770760,33
4771384,34
4772016,29
4772632,27
4773264,29
4773892,20
4774512,14
4775140,21
4775768,19
4776396,17
4777028,17
4777648,20
4778276,19
4778904,13
4779528,14
4780156,16
4780776,19
4781408,29
4782036,32
4782660,34
4783292,28
4783912,19
4784544,17
4785176,18
4785796,25
4786428,35
4787052,44
4787684,43
4788316,38
4788936,29
4789568,24
4790192,12
4790820,10
4791452,10
4792072,16
4792704,17
4793332,17
4793956,17
4794588,19
4795212,17
4795844,16
4796476,14
4797096,19
4797728,25
4798356,41
4798984,46
4799616,33
4800236,20
4800864,21
4801488,27
4802112,27
4802740,27
4803360,33
4803988,38
4804620,39
4805240,36
4805868,27
4806492,20
4807124,12
4807752,15
4808376,22
4809004,20
4809628,17
4810252,17
4810884,18
4811504,17
4812136,18
4812760,17
4813384,15
4814012,20
4814632,27
4815260,33
4815892,29
4816512,25
4817140,19
4817764,20
4818396,17
4819024,26
4819648,35
4820276,39
4820904,39
4821528,44
4822156,40
4822776,39
4823408,27
4824032,13
4824652,10
4825284,16
4825904,17
4826532,17
4827164,19
4827784,20
4828416,16
4829040,12
4829668,11
4830300,12
4830920,19
4831552,29
4832176,33
4832800,35
4833432,28
4834048,17
4834680,21
4835304,25
4835928,27
4836556,32
4837176,32
4837808,39
4838436,44
4839056,39
4839684,31
4840308,19
4840940,12
4841568,11
4842192,16
4842824,17
4843448,18
4844072,19
4844700,14
4845320,20
4845948,22
4846576,25
4847200,28
4847828,27
4848456,31
4849084,33
4849716,26
4850336,19
4850968,19
4851592,23
4852224,24
4852852,27
4853472,38
4854104,43
4854728,43
4855352,33
4855984,23
4856600,19
4857232,13
4857864,10
4858480,17
4859112,17
4859736,16
4860368,17
4860996,18
4861616,14
4862248,13
4862872,15
4863496,16
4864128,19
4864744,26
4865372,30
4865996,32
4866620,25
4867252,16
4867872,17
4868500,23
4869132,24
4869752,28
4870384,32
4871008,40
4871640,45
4872268,35
4872888,29
4873516,15
4874144,11
4874768,11
4875396,18
4876016,17
4876644,16
4877272,18
4877896,13
4878524,10
4879144,11
4879776,14
4880404,21
4881024,32
4881652,38
4882276,39
4882908,29
4883540,23
4884160,17
4884788,21
4885412,24
4886040,25
4886668,36
4887288,45
4887916,43
4888544,34
4889168,27
4889800,22
4890416,14
4891044,9
4891620,12
4892248,17
4892876,15
4893496,18
4894128,17
4894756,13
4895376,13
4896008,11
4896628,11
4897260,14
4897892,18
4898512,27
4899144,33
4899768,28
4900392,18
4901024,17
4901640,24
4902272,27
4902896,26
4903520,31
4904152,35
4904776,37
4905408,29
4906036,26
4906656,25
4907288,13
4907912,12
4908544,17
4909176,17
4909796,17
4910428,16
4911052,18
4911676,15
4912308,13
4912928,14
4913560,16
4914192,22
4914816,31
4915452,37
4916072,47
4916704,35
4917332,16
4917952,25
4918580,37
4919204,48
4919828,54
4920460,51
4921080,42
4921708,35
4922332,24
4922956,18
4923584,10
4924204,13
4924832,11
4925460,15
4926080,17
4926708,20
4927332,21
4927964,19
4928596,18
4929216,20
4929844,15
4930468,17
4931092,29
4931720,36
4932344,29
4932972,24
4933596,20
4934220,17
4934852,18
4935472,22
4936104,23
4936732,32
4937352,40
4937980,44
4938604,41
4939236,37
4939868,28
4940488,15
4941116,11
4941740,17
4942364,16
4942996,16
4943616,18
4944244,17
4944868,13
4945492,14
4946124,12
4946744,15
4947372,21
4948004,26
4948624,31
4949252,27
4949876,21
4950508,16
4951140,17
4951760,19
4952392,23
4953016,29
4953640,33
4954268,38
4954888,35
4955516,25
4956144,26
4956768,34
4957400,33
4958024,24
4958656,19
4959284,17
4959904,17
4960536,17
4961160,15
4961788,15
4962420,16
4963040,15
4963668,13
4964292,18
4964920,29
4965548,24
4966168,21
4966800,19
4967420,19
4968048,20
4968676,25
4969300,28
4969928,33
4970560,30
4971176,33
4971808,33
4972432,28
4973064,22
4973692,10
4974312,12
4974944,17
4975568,15
4976192,17
4976820,16
4977440,18
4978068,14
4978700,12
4979320,15
4979948,15
4980572,23
4981204,31
4981836,38
4982456,40
4983084,30
4983708,15
4984336,19
4984964,21
4985584,30
4986216,34
4986840,39
4987464,44
4988096,46
4988712,36
4989344,32
4989976,20
4990592,11
4991224,10
4991852,15
4992484,16
4993112,18
4993736,20
4994364,18
4994992,15
4995616,17
4996244,14
4996864,15
4997496,21
4998120,33
4998744,35
4999372,26
4999992,21
5000624,17
5001252,22
5001872,29
5002500,34
5003128,43
5003756,45
5004388,43
5005008,34
5005636,21
5006260,13
5006888,11
5007516,11
5008136,16
5008764,17
5009388,16
5010016,17
5010644,17
5011268,11
5011900,10
5012532,10
5013152,12
5013784,17
5014408,20
5015036,27
5015668,26
5016288,23
5016920,19
5017544,18
5018168,21
5018800,26
5019416,28
5020048,30
5020680,29
5021296,31
5021928,31
5022552,25
5023184,19
5023812,11
5024432,11
5025060,17
5025684,18
5026312,19
5026940,24
5027560,23
5028192,17
5028816,13
5029440,12
5030068,10
5030688,10
5031320,16
5031952,23
5032572,21
5033200,17
5033828,18
5034456,20
5035088,22
5035708,27
5036340,34
5036964,44
5037588,44
5038220,39
5038840,32
5039472,25
5040096,17
5040720,13
5041348,13
5041968,15
5042596,16
5043228,16
5043848,19
5044476,14
5045104,11
5045732,11
5046364,11
5046984,17
5047616,22
5048240,31
5048864,29
5049496,22
5050112,18
5050744,19
5051368,22
5051992,22
5052624,24
5053244,31
5053876,33
5054508,38
5055128,34
5055760,29
5056384,23
5057016,15
5057648,11
5058264,17
5058896,17
5059520,16
5060144,17
5060776,18
5061392,12
5062024,15
5062652,19
5063276,20
5063908,19
5064532,26
5065164,31
5065796,32
5066416,27
5067048,16
5067672,16
5068296,24
5068928,28
5069552,35
5070184,41
5070808,51
5071432,55
5072064,40
5072680,28
5073312,18
5073944,10
5074560,17
5075192,20
5075820,20
5076448,19
5077080,20
5077704,16
5078336,14
5078964,12
5079592,13
5080220,27
5080840,31
5081472,31
5082096,32
5082720,27
5083352,21
5083976,17
5084608,21
5085236,21
5085856,23
5086488,35
5087112,41
5087744,41
5088376,37
5088996,33
5089624,30
5090248,18
5090876,11
5091504,15
5092128,16
5092760,17
5093392,18
5094012,19
5094644,13
5095268,12
5095900,10
5096528,10
5097152,17
5097784,21
5098408,26
5099032,29
5099664,20
5100284,17
5100916,24
5101540,28
5102164,21
5102796,22
5103416,34
5104048,43
5104680,43
5105300,35
5105932,22
5106556,12
5107188,11
5107824,10
5108440,15
5109072,17
5109700,16
5110324,17
5110960,16
5111576,14
5112212,15
5112844,16
5113464,19
5114100,25
5114724,27
5115356,26
5115988,22
5116612,19
5117244,18
5117868,21
5118496,21
5119128,25
5119748,36
5120384,44
5121004,48
5121628,44
5122256,30
5122872,25
5123500,19
5124128,17
5124752,19
5125380,17
5126004,16
5126632,17
5127260,19
5127880,19
5128508,13
5129132,13
5129756,10
5130384,13
5131000,20
5131628,29
5132252,30
5132876,23
5133504,19
5134124,17
5134752,18
5135380,23
5136000,29
5136628,33
5137252,39
5137880,38
5138512,31
5139128,25
5139760,25
5140384,14
5141008,10
5141636,18
5142256,18
5142884,17
5143508,17
5144132,17
5144764,12
5145384,15
5146012,18
5146644,16
5147264,19
5147892,20
5148516,24
5149148,24
5149776,22
5150396,17
5151024,16
5151648,18
5152276,21
5152904,29
5153520,27
5154148,29
5154772,34
5155400,29
5156028,28
5156648,21
5157276,13
5157908,16
5158528,19
5159156,18
5159784,17
5160412,17
5161044,14
5161664,17
5162292,18
5162916,16
5163540,10
5164168,11
5164784,21
5165416,23
5166040,24
5166664,22
5167292,17
5167912,22
5168544,23
5169172,22
5169792,29
5170420,31
5171048,29
5171676,31
5172308,32
5172928,23
5173556,10
5174180,12
5174804,16
5175436,16
5176056,18
5176684,17
5177308,17
5177932,14
5178564,12
5179184,16
5179816,18
5180444,23
5181064,31
5181696,30
5182320,28
5182948,21
5183580,16
5184200,20
5184828,25
5185452,24
5186076,31
5186704,38
5187328,40
5187956,38
5188580,28
5189204,28
5189836,23
5190456,13
5191084,11
5191716,16
5192336,16
5192964,18
5193588,19
5194220,19
5194852,16
5195472,15
5196104,12
5196728,11
5197352,14
5197984,24
5198600,29
5199232,29
5199856,22
5200480,18
5201108,21
5201732,18
5202364,18
5202992,22
5203616,33
5204244,37
5204868,37
5205496,29
5206128,21
5206748,14
5207376,12
5208000,15
5208624,16
5209252,16
5209872,17
5210500,17
5211124,13
5211752,11
5212380,12
5213008,15
5213636,21
5214268,28
5214888,37
5215516,41
5216144,30
5216772,17
5217404,16
5218024,19
5218652,21
5219276,28
5219904,36
5220532,37
5221152,35
5221784,28
5222412,25
5223032,25
5223660,17
5224284,15
5224916,20
5225544,16
5226168,19
5226796,23
5227424,19
5228048,16
5228676,12
5229296,11
5229924,11
5230548,16
5231176,24
5231808,30
5232424,29
5233056,24
5233684,16
5234304,20
5234936,24
5235560,27
5236188,29
5236820,34
5237440,37
5238072,35
5238696,29
5239320,32
5239952,17
5240572,11
5241200,12
5241824,16
5242452,16
5243080,16
5243704,18
5244332,13
5244960,10
5245584,11
5246212,11
5246836,17
5247464,32
5248096,39
5248708,29
5249336,20
5249960,19
5250580,17
5251212,20
5251832,23
5252460,28
5253084,35
5253708,43
5254336,47
5254956,39
5255584,32
5256212,24
5256832,15
5257460,10
5258084,16
5258712,16
5259340,18
5259960,21
5260588,21
5261212,19
5261836,22
5262464,20
5263088,19
5263716,20
5264340,26
5264964,31
5265592,30
5266212,23
5266840,16
5267468,18
5268088,23
5268716,24
5269340,27
5269972,37
5270600,48
5271220,43
5271848,33
5272472,31
5273096,25
5273724,13
5274344,11
5274972,15
5275596,17
5276220,17
5276848,17
5277464,17
5278096,14
5278720,12
5279344,11
5279972,11
5280600,14
5281228,23
5281856,23
5282472,21
5283104,19
5283728,18
5284356,18
5284988,22
5285608,27
5286236,37
5286860,41
5287480,42
5288112,35
5288728,24
5289356,19
5289980,12
5290608,11
5291236,11
5291860,17
5292488,16
5293120,17
5293736,19
5294364,11
5294988,11
5295620,16
5296248,17
5296864,15
5297496,19
5298120,33
5298744,37
5299372,26
5299992,18
5300620,17
5301244,20
5301872,22
5302500,25
5303124,31
5303756,33
5304388,36
5305008,33
5305636,31
5306260,21
5306884,11
5307516,10
5308136,17
5308764,16
5309392,17
5310016,18
5310644,19
5311264,15
5311896,14
5312528,20
5313144,25
5313772,22
5314396,23
5315028,25
5315660,21
5316280,19
5316908,15
5317532,17
5318160,21
5318788,22
5319408,28
5320036,30
5320660,33
5321284,33
5321916,28
5322536,26
5323164,17
5323796,11
5324416,13
5325048,17
5325668,18
5326296,17
5326928,17
5327544,15
5328172,14
5328796,14
5329420,13
5330048,13
5330664,18
5331292,25
5331916,30
5332540,31
5333168,26
5333784,16
5334416,19
5335044,21
5335664,25
5336292,36
5336916,41
5337548,42
5338176,37
5338796,31
5339424,25
5340048,13
5340676,10
5341308,14
5341928,17
5342556,16
5343180,17
5343808,17
5344436,14
5345056,15
5345684,15
5346316,12
5346936,16
5347564,24
5348188,33
5348820,33
5349448,28
5350064,18
5350696,17
5351320,21
5351944,23
5352572,26
5353192,34
5353820,41
5354444,41
5355068,35
5355700,30
5356320,24
5356948,13
5357580,10
5358200,17
5358828,17
5359452,17
5360084,20
5360712,20
5361336,11
5361964,9
5362536,11
5363176,13
5363804,21
5364424,27
5365052,30
5365680,29
5366304,25
5366932,16
5367552,17
5368180,19
5368804,21
5369428,31
5370060,42
5370680,45
5371308,40
5371940,27
5372560,24
5373188,16
5373816,11
5374444,12
5375076,16
5375696,17
5376328,18
5376948,19
5377572,18
5378200,11
5378824,11
5379452,10
5380076,14
5380700,21
5381328,30
5381948,29
5382576,28
5383204,20
5383824,17
5384452,19
5385076,23
5385708,22
5386336,34
5386952,47
5387584,48
5388208,36
5388832,29
5389460,20
5390080,12
5390708,11
5391332,17
5391956,16
5392588,16
5393208,16
5393836,17
5394468,16
5395088,21
5395720,20
5396344,15
5396972,13
5397604,19
5398224,28
5398856,30
5399480,23
5400104,17
5400732,18
5401352,21
5401984,21
5402608,16
5403232,18
5403860,37
5404484,47
5405116,40
5405744,32
5406368,24
5407000,16
5407624,17
5408252,17
5408880,15
5409504,17
5410132,18
5410756,14
5411380,11
5412008,12
5412632,15
5413260,21
5413884,26
5414512,34
5415140,32
5415764,28
5416396,22
5417024,16
5417648,21
5418276,23
5418900,25
5419528,30
5420156,38
5420776,48
5421408,44
5422032,32
5422656,21
5423284,12
5423904,11
5424536,15
5425164,16
5425784,17
5426416,17
5427040,17
5427668,13
5428300,12
5428920,11
5429548,10
5430172,15
5430796,22
5431428,30
5432048,29
5432676,20
5433300,15
5433924,18
5434556,20
5435176,25
5435808,33
5436436,43
5437056,47
5437688,42
5438308,31
5438940,25
5439572,16
5440192,11
5440820,10
5441444,15
5442064,17
5442696,19
5443312,20
5443940,19
5444564,11
5445188,10
5445816,10
5446440,18
5447068,26
5447696,29
5448320,30
5448948,18
5449572,18
5450200,18
5450828,17
5451448,19
5452076,23
5452700,33
5453328,43
5453956,44
5454576,39
5455204,33
5455828,33
5456452,23
5457084,17
5457704,17
5458332,16
5458964,15
5459584,18
5460212,19
5460836,18
5461468,18
5462096,18
5462716,15
5463344,16
5463968,22
5464592,42
5465220,40
5465840,24
5466468,17
5467092,18
5467716,19
5468348,22
5468968,27
5469596,36
5470228,42
5470848,45
5471476,37
5472104,29
5472732,20
5473364,10
5473984,11
5474612,17
5475236,17
5475864,18
5476492,17
5477112,17
5477744,12
5478368,13
5478992,10
5479624,10
5480240,14
5480872,25
5481500,31
5482120,30
5482748,24
5483372,16
5484004,16
5484636,19
5485256,24
5485884,28
5486512,34
5487136,38
5487764,36
5488384,30
5489016,26
5489636,15
5490260,9
5490840,11
5491464,15
5492092,17
5492716,17
5493340,16
5493972,19
5494596,21
5495228,27
5495856,18
5496480,15
5497108,14
5497732,22
5498364,27
5498996,26
5499616,22
5500244,16
5500868,17
5501496,19
5502124,23
5502744,31
5503376,34
5504008,36
5504624,31
5505252,23
5505876,21
5506508,13
5507136,10
5507760,12
5508388,16
5509016,17
5509640,17
5510268,16
5510888,13
5511516,11
5512144,15
5512768,14
5513400,20
5514016,24
5514648,32
5515276,28
5515896,22
5516528,16
5517152,19
5517784,21
5518412,22
5519032,21
5519664,27
5520288,35
5520912,41
5521540,37
5522160,34
5522792,28
5523416,15
5524040,9
5524616,16
5525244,17
5525872,17
5526500,19
5527124,19
5527752,10
5528376,10
5529008,10
5529640,11
5530256,19
5530884,26
5531508,25
5532140,25
5532768,25
5533388,16
5534016,17
5534640,16
5535268,17
5535896,27
5536516,34
5537144,39
5537772,35
5538396,28
5539024,29
5539644,18
5540276,12
5540904,11
5541524,15
5542152,17
5542776,17
5543404,17
5544036,13
5544656,11
5545284,12
5545908,13
5546536,12
5547164,12
5547784,22
5548416,26
5549040,26
5549664,24
5550296,16
5550920,19
5551552,19
5552180,19
5552800,29
5553428,35
5554056,39
5554684,38
5555316,30
5555936,26
5556568,16
5557192,11
5557816,17
5558448,16
5559064,16
5559696,21
5560324,20
5560944,17
5561576,14
5562200,14
5562832,16
5563460,19
5564080,26
5564712,25
5565336,25
5565960,24
5566592,17
5567208,16
5567840,20
5568468,25
5569092,31
5569724,43
5570344,53
5570976,51
5571604,38
5572224,35
5572852,26
5573476,12
5574108,12
5574736,20
5575360,24
5575988,23
5576616,19
5577240,21
5577868,19
5578488,20
5579116,15
5579744,16
5580368,19
5581000,28
5581616,29
5582244,25
5582876,18
5583496,19
5584124,24
5584748,28
5585380,33
5586012,38
5586632,41
5587264,43
5587884,35
5588512,25
5589140,26
5589760,17
5590388,11
5591016,13
5591640,16
5592272,16
5592892,17
5593520,18
5594152,17
5594776,17
5595408,14
5596032,12
5596664,20
5597292,28
5597912,33
5598544,29
5599168,23
5599792,16
5600424,16
5601048,17
5601676,18
5602300,24
5602928,38
5603556,46
5604180,46
5604812,31
5605440,20
5606064,17
5606696,15
5607316,13
5607944,20
5608572,16
5609192,17
5609824,17
5610448,19
5611072,13
5611704,10
5612320,11
5612948,13
5613580,20
5614200,27
5614828,30
5615452,29
5616084,25
5616712,16
5617336,21
5617964,25
5618588,28
5619216,38
5619844,44
5620464,47
5621096,33
5621720,21
5622344,21
5622976,16
5623592,13
5624224,13
5624856,18
5625472,16
5626104,17
5626728,18
5627360,13
5627988,13
5628608,15
5629240,15
5629864,17
5630488,21
5631120,30
5631740,26
5632372,21
5632992,17
5633616,17
5634244,18
5634864,19
5635492,21
5636124,28
5636744,37
5637372,38
5637996,34
5638628,29
5639256,23
5639880,15
5640508,11
5641132,17
5641756,16
5642388,16
5643008,18
5643636,16
5644260,12
5644884,12
5645512,11
5646136,12
5646764,17
5647396,24
5648016,31
5648644,31
5649268,24
5649896,17
5650528,17
5651148,17
5651780,21
5652404,37
5653028,43
5653656,46
5654280,40
5654908,26
5655532,24
5656156,18
5656788,14
5657412,13
5658044,15
5658672,18
5659296,23
5659924,23
5660548,19
5661180,14
5661808,10
5662432,11
5663060,11
5663688,15
5664312,27
5664940,30
5665560,25
5666188,19
5666812,20
5667440,25
5668068,27
5668692,31
5669324,35
5669956,42
5670576,45
5671204,35
5671828,28
5672456,22
5673084,13
5673704,11
5674332,15
5674956,17
5675584,17
5676212,16
5676832,17
5677460,12
5678092,10
5678712,13
5679344,15
5679968,15
5680600,22
5681228,28
5681848,27
5682480,17
5683104,15
5683728,19
5684356,21
5684976,21
5685604,16
5686228,27
5686852,36
5687484,36
5688104,29
5688732,22
5689364,18
5689984,12
5690612,18
5691240,17
5691868,16
5692500,17
5693120,17
5693752,16
5694376,11
5695000,11
5695632,12
5696248,14
5696880,20
5697504,27
5698128,29
5698756,28
5699376,25
5700004,17
5700636,18
5701256,20
5701884,23
5702512,33
5703140,39
5703772,46
5704392,42
5705024,31
5705648,24
5706272,17
5706900,14
5707520,17
5708152,17
5708776,17
5709400,17
5710032,16
5710652,13
5711284,12
5711912,13
5712536,12
5713168,15
5713792,21
5714424,29
5715052,27
5715672,23
5716304,21
5716928,17
5717552,19
5718184,26
5718804,34
5719432,42
5720060,46
5720688,45
5721320,35
5721944,26
5722576,18
5723204,10
5723824,11
5724456,18
5725080,17
5725704,17
5726336,18
5726956,17
5727588,11
5728212,11
5728836,12
5729468,10
5730088,14
5730720,22
5731348,35
5731968,36
5732600,27
5733228,18
5733860,18
5734492,16
5735112,18
5735740,28
5736364,37
5736988,39
5737616,37
5738232,29
5738864,25
5739488,18
5740112,14
5740740,17
5741360,20
5741988,17
5742620,16
5743240,17
5743872,15
5744496,12
5745124,11
5745756,11
5746376,15
5747008,16
5747632,26
5748256,25
5748884,20
5749504,22
5750136,16
5750760,19
5751384,24
5752012,26
5752632,32
5753264,37
5753896,36
5754512,31
5755144,25
5755768,26
5756400,19
5757028,11
5757648,15
5758280,17
5758904,17
5759528,18
5760160,17
5760776,15
5761404,11
5762028,11
5762648,11
5763280,17
5763896,35
5764524,31
5765152,28
5765776,20
5766404,19
5767028,24
5767656,24
5768284,23
5768904,21
5769532,26
5770156,30
5770780,37
5771412,34
5772032,32
5772660,25
5773288,15
5773908,12
5774540,16
5775160,17
5775792,17
5776420,17
5777040,19
5777668,16
5778292,11
5778920,11
5779552,11
5780172,17
5780800,27
5781424,31
5782048,29
5782676,24
5783296,18
5783924,17
5784552,20
5785176,23
5785804,31
5786424,32
5787052,36
5787680,36
5788304,33
5788932,32
5789556,17
5790188,11
5790816,12
5791440,17
5792068,17
5792692,18
5793316,19
5793948,16
5794568,18
5795196,14
5795824,12
5796448,16
5797076,23
5797700,34
5798332,37
5798964,28
5799584,19
5800216,18
5800836,21
5801468,24
5802096,22
5802720,28
5803348,32
5803976,39
5804600,33
5805232,28
5805848,26
5806476,14
5807100,10
5807728,18
5808360,18
5808984,18
5809612,17
5810244,17
5810864,14
5811496,15
5812120,13
5812744,14
5813376,18
5813992,22
5814624,29
5815248,32
5815872,25
5816504,17
5817120,19
5817748,21
5818380,26
5819000,33
5819632,36
5820256,39
5820884,36
5821516,24
5822136,23
5822768,15
5823392,11
5824016,12
5824644,15
5825264,17
5825892,18
5826516,20
5827144,14
5827772,10
5828392,13
5829024,13
5829652,16
5830272,21
5830904,33
5831528,32
5832160,25
5832788,20
5833408,18
5834040,21
5834664,24
5835288,25
5835920,37
5836540,46
5837168,46
5837792,40
5838416,31
5839048,25
5839664,13
5840296,11
5840924,20
5841544,21
5842172,17
5842796,16
5843428,17
5844056,14
5844680,15
5845308,15
5845932,12
5846560,17
5847188,22
5847808,27
5848436,26
5849064,20
5849688,16
5850316,16
5850936,20
5851568,25
5852196,28
5852816,32
5853444,35
5854068,36
5854700,30
5855332,27
5855952,20
5856584,12
5857208,11
5857836,16
5858464,15
5859088,16
5859720,16
5860344,19
5860968,16
5861596,12
5862224,11
5862856,13
5863484,20
5864104,31
5864732,34
5865360,29
5865988,23
5866620,16
5867240,23
5867872,23
5868496,30
5869120,42
5869748,43
5870368,44
5871000,33
5871632,26
5872248,24
5872880,14
5873504,11
5874136,13
5874768,16
5875384,18
5876016,19
5876640,18
5877264,14
5877896,13
5878512,12
5879144,10
5879768,15
5880392,21
5881024,29
5881640,29
5882272,24
5882904,17
5883520,22
5884152,27
5884776,29
5885408,32
5886040,36
5886660,45
5887292,48
5887916,34
5888544,19
5889172,14
5889792,12
5890420,10
5891044,17
5891672,16
5892300,16
5892920,18
5893552,21
5894180,16
5894800,18
5895428,18
5896056,17
5896684,19
5897316,26
5897936,34
5898568,39
5899188,31
5899816,17
5900444,26
5901064,32
5901692,31
5902316,33
5902940,34
5903572,41
5904196,43
5904828,35
5905456,34
5906076,23
5906704,16
5907328,16
5907956,17
5908588,17
5909208,19
5909836,19
5910460,13
5911084,10
5911716,14
5912336,20
5912968,21
5913592,21
5914216,32
5914848,43
5915472,30
5916104,17
5916732,23
5917352,30
5917984,33
5918608,33
5919240,42
5919868,41
5920488,42
5921116,37
5921740,34
5922364,27
5922996,13
5923616,12
5924244,17
5924876,16
5925496,17
5926124,17
5926752,17
5927380,11
5928012,10
5928632,13
5929264,16
5929888,22
5930512,32
5931144,38
5931760,36
5932392,25
5933016,15
5933640,21
5934272,23
5934888,25
5935520,35
5936152,46
5936768,47
5937400,40
5938024,25
5938656,18
5939284,16
5939904,16
5940532,16
5941156,16
5941780,17
5942408,20
5943032,21
5943660,19
5944288,12
5944912,11
5945540,11
5946160,11
5946788,15
5947420,26
5948040,32
5948668,27
5949296,21
5949924,17
5950556,18
5951176,20
5951808,21
5952432,27
5953056,34
5953684,33
5954304,33
5954936,32
5955560,27
5956184,18
5956812,14
5957432,17
5958064,16
5958692,16
5959312,17
5959944,18
5960568,13
5961196,11
5961828,12
5962448,13
5963076,14
5963704,21
5964328,30
5964956,30
5965576,26
5966204,17
5966832,18
5967456,20
5968084,20
5968708,23
5969340,34
5969972,41
5970592,45
5971224,35
5971848,29
5972476,23
5973108,14
5973728,11
5974360,17
5974984,17
5975608,18
5976240,16
5976856,15
5977488,12
5978120,12
5978736,11
5979368,12
5979996,17
5980628,28
5981256,31
5981876,30
5982508,24
5983132,17
5983756,19
5984388,20
5985008,28
5985636,40
5986264,47
5986888,46
5987516,40
5988136,29
5988768,25
5989400,14
5990016,11
5990648,12
5991272,16
5991904,16
5992536,16
5993152,22
5993784,18
5994408,11
5995032,10
5995664,10
5996280,12
5996912,20
5997536,29
5998160,29
5998792,29
5999408,22
6000040,16
6000672,21
6001288,27
6001916,35
6002544,47
6003172,51
6003804,45
6004424,35
6005056,30
6005680,24
6006304,11
6006936,11
6007552,17
6008184,15
6008808,18
6009432,23
6010064,23
6010680,22
6011312,27
6011944,20
6012560,16
6013192,21
6013816,27
6014448,33
6015080,31
6015700,21
6016332,17
6016956,24
6017580,31
6018208,34
6018832,38
6019464,39
6020088,44
6020712,47
6021344,35
6021968,26
6022596,15
6023228,10
6023848,11
6024476,15
6025104,17
6025732,17
6026364,20
6026984,22
6027616,19
6028240,13
6028864,10
6029492,10
6030112,17
6030744,27
6031372,35
6031992,32
6032624,23
6033248,18
6033880,23
6034512,26
6035128,27
6035760,39
6036388,35
6037012,27
6037644,18
6038264,18
6038896,18
6039520,11
6040144,10
6040776,17
6041396,17
6042028,17
6042656,16
6043276,17
6043904,10
6044532,10
6045160,12
6045792,16
6046412,20
6047040,24
6047664,31
6048292,32
6048924,24
6049544,15
6050176,21
6050800,28
6051424,28
6052056,29
6052680,32
6053312,38
6053940,36
6054560,33
6055192,31
6055816,24
6056448,14
6057080,14
6057696,18
6058328,16
6058952,16
6059576,19
6060208,20
6060828,25
6061456,29
6062088,19
6062708,15
6063336,16
6063964,17
6064596,21
6065224,20
6065848,19
6066480,18
6067104,18
6067728,17
6068360,17
6068980,30
6069608,40
6070232,46
6070860,44
6071492,32
6072112,27
6072744,17
6073376,12
6073992,16
6074624,17
6075252,19
6075880,18
6076512,16
6077136,12
6077768,13
6078392,14
6079016,14
6079648,16
6080272,22
6080904,31
6081528,32
6082152,26
6082784,17
6083408,17
6084036,19
6084668,22
6085288,25
6085916,34
6086544,40
6087172,39
6087804,34
6088424,29
6089052,22
6089680,15
6090304,11
6090932,16
6091552,17
6092184,17
6092816,18
6093432,21
6094060,18
6094688,16
6095316,21
6095948,26
6096568,28
6097196,31
6097824,31
6098448,29
6099076,22
6099696,17
6100328,19
6100952,19
6101576,26
6102208,42
6102828,49
6103456,51
6104088,44
6104712,34
6105344,25
6105968,11
6106600,14
6107228,18
6107848,20
6108480,18
6109104,18
6109728,16
6110360,12
6110980,11
6111612,17
6112236,19
6112860,25
6113492,23
6114116,32
6114748,28
6115380,19
6116000,16
6116632,18
6117256,20
6117888,23
6118520,30
6119136,44
6119768,47
6120396,37
6121020,28
6121652,25
6122272,19
6122904,11
6123536,10
6124152,18
6124784,17
6125408,17
6126040,18
6126672,19
6127292,13
6127924,12
6128548,12
6129176,15
6129804,22
6130424,30
6131056,33
6131680,27
6132308,21
6132940,17
6133560,21
6134196,25
6134824,24
6135448,33
6136080,39
6136708,39
6137340,29
6137972,13
6138592,10
6139228,10
6139852,17
6140476,23
6141112,19
6141732,16
6142364,16
6142996,16
6143620,14
6144252,14
6144876,15
6145504,13
6146132,14
6146752,18
6147380,29
6148004,35
6148628,33
6149256,20
6149880,18
6150508,19
6151132,22
6151756,24
6152388,34
6153008,46
6153636,41
6154268,31
6154888,31
6155516,27
6156140,19
6156772,10
6157404,16
6158024,16
6158656,17
6159280,18
6159904,18
6160536,14
6161152,14
6161780,13
6162404,13
6163028,16
6163660,22
6164280,25
6164908,33
6165540,31
6166160,17
6166788,18
6167412,24
6168044,26
6168672,35
6169296,41
6169924,42
6170548,38
6171172,27
6171804,25
6172424,23
6173052,16
6173680,13
6174304,15
6174936,16
6175560,17
6176188,20
6176820,18
6177440,15
6178068,16
6178692,14
6179324,16
6179956,22
6180576,37
6181208,40
6181832,31
6182456,23
6183084,17
6183704,19
6184336,23
6184960,26
6185584,36
6186216,39
6186840,44
6187468,41
6188100,28
6188720,22
6189352,13
6189976,11
6190600,17
6191232,17
6191848,16
6192480,17
6193104,17
6193728,14
6194360,16
6194980,14
6195608,11
6196240,14
6196856,23
6197488,35
6198112,35
6198744,24
6199372,16
6199992,22
6200624,27
6201248,27
6201872,23
6202504,29
6203120,31
6203752,31
6204376,24
6205004,21
6205632,16
6206256,11
6206888,14
6207516,16
6208136,16
6208768,17
6209392,19
6210020,17
6210652,10
6211272,16
6211904,12
6212528,12
6213152,18
6213784,29
6214400,35
6215032,26
6215656,19
6216284,20
6216916,25
6217540,26
6218172,24
6218804,31
6219424,33
6220056,40
6220680,43
6221312,36
6221944,29
6222560,11
6223192,11
6223816,13
6224444,17
6225076,16
6225696,16
6226328,22
6226956,24
6227576,19
6228204,14
6228828,15
6229460,16
6230092,18
6230712,27
6231344,28
6231968,23
6232592,16
6233224,16
6233840,19
6234472,24
6235096,34
6235720,43
6236352,48
6236968,47
6237600,34
6238232,27
6238848,28
6239480,19
6240104,13
6240732,18
6241364,16
6241984,17
6242612,18
6243240,17
6243864,14
6244492,13
6245112,13
6245744,12
6246368,18
6246992,28
6247624,39
6248240,41
6248872,35
6249500,16
6250120,20
6250748,21
6251376,24
6252004,35
6252636,48
6253256,51
6253888,49
6254512,31
6255136,25
6255764,11
6256384,11
6257016,11
6257640,17
6258264,17
6258892,17
6259512,17
6260144,13
6260772,11
6261392,13
6262024,16
6262648,18
