tempo_arduino_micro_s,valor_ADC
500,16
1004,28
1504,38
2000,40
2504,35
3000,32
3508,33
4000,28
4504,19
5000,14
5500,12
6000,9
6500,12
7000,22
7500,28
8000,32
8500,30
9000,28
9500,27
10000,30
10508,30
11028,30
11556,25
12076,23
12604,23
13124,21
13652,20
14172,18
14700,14
15220,10
15748,10
16268,12
16796,14
17316,18
17836,24
18356,29
18876,29
19396,30
19916,29
20436,34
20956,31
21476,23
21996,16
22516,10
23036,14
23564,15
24084,19
24612,23
25132,27
25660,29
26180,31
26708,31
27228,30
27756,31
28276,34
28804,29
29324,24
29852,19
30372,14
30900,12
31420,13
31948,16
32468,15
32996,12
33516,11
34044,20
34564,29
35092,31
35612,30
36140,24
36660,23
37188,26
37708,24
38236,19
38760,16
39284,13
39804,10
40332,11
40852,18
41372,27
41892,29
42412,27
42932,28
43452,35
43972,34
44492,32
45012,30
45532,30
46052,28
46572,26
47092,22
47612,20
48140,19
48660,16
49188,12
49708,10
50236,17
50756,23
51284,30
51804,35
52332,35
52852,34
53380,32
53900,29
54428,26
54948,18
55476,11
55996,10
56524,11
57044,16
57572,23
58096,30
58620,29
59140,32
59668,33
60188,34
60716,33
61240,30
61764,28
62284,27
62812,23
63332,17
63860,14
64384,13
64908,12
65428,11
65948,11
66468,10
66988,12
67508,22
68028,30
68548,38
69068,39
69588,41
70108,37
70632,30
71148,23
71668,21
72192,16
72716,9
73180,13
73708,23
74228,36
74752,41
75280,37
75804,33
76328,30
76852,32
77372,33
77900,33
78424,28
78948,23
79468,19
79996,16
80520,14
81044,12
81564,12
82092,10
82612,10
83140,11
83660,12
84188,16
84708,22
85236,26
85756,28
86284,30
86804,32
87332,32
87852,28
88380,20
88900,14
89428,9
89892,14
90428,22
90948,25
91476,28
91996,33
92524,31
93044,30
93572,30
94092,32
94620,32
95144,36
95664,33
96184,25
96700,16
97220,13
97740,11
98260,10
98780,14
99300,14
99820,19
100344,23
100904,26
101488,32
102056,35
102640,38
103208,40
103784,34
104352,25
104928,17
105504,14
106072,11
106656,19
107224,31
107800,38
108368,40
108952,34
109520,32
110096,31
110680,32
111248,32
111832,31
112404,25
112984,18
113552,16
114128,12
114704,15
115272,13
115856,11
116424,11
117008,13
117576,18
118160,26
118728,33
119304,37
119888,33
120460,28
121040,23
121608,16
122192,11
122764,11
123344,15
123920,18
124488,22
125072,26
125640,26
126224,28
126792,34
127376,36
127948,35
128524,30
129104,29
129672,23
130248,20
130816,15
131392,12
131960,10
132544,10
133112,11
133692,13
134272,18
134840,27
135424,32
135992,33
136576,33
137144,32
137720,27
138304,21
138872,17
139456,10
140024,10
140608,15
141180,27
141760,35
142328,38
142908,38
143488,35
144056,33
144640,35
145208,32
145784,32
146352,27
146928,24
147512,22
148084,14
148664,11
149232,10
149816,12
150384,23
150968,21
151540,26
152116,29
152696,31
153268,35
153848,34
154424,24
155000,17
155568,13
156144,11
156728,11
157300,12
157880,22
158452,28
159032,29
159604,32
160184,32
160752,31
161320,31
161904,34
162472,34
163056,29
163624,26
164208,22
164776,23
165344,23
165928,15
166496,11
167068,19
167640,25
168216,33
168784,42
169368,43
169936,45
170504,37
171080,30
171648,19
172232,10
172800,10
173384,12
173952,18
174536,25
175112,33
175684,36
176264,35
176832,35
177416,34
177988,35
178568,33
179136,28
179716,21
180296,18
180864,21
181448,18
182016,13
182600,9
183116,12
183696,16
184264,24
184840,33
185424,37
185996,38
186576,37
187144,30
187728,24
188296,19
188880,13
189456,11
190024,15
190608,21
191176,24
191760,28
192332,30
192912,32
193480,32
194056,33
194640,35
195208,33
195792,30
196364,34
196944,31
197516,27
198096,20
198672,12
199240,11
199824,11
200396,16
200976,28
201544,35
202128,33
202700,39
203276,40
203856,37
204428,31
205008,25
205576,17
206152,10
206720,9
207244,16
207816,24
208392,33
208976,37
209544,36
210120,34
210688,31
211272,32
211840,33
212424,29
213000,24
213568,19
214152,16
214724,18
215304,16
215872,17
216456,11
217024,13
217600,19
218184,26
218752,33
219328,39
219896,41
220480,35
221048,22
221632,13
222200,11
222780,11
223360,10
223928,11
224512,17
225080,26
225664,28
226232,30
226808,31
227392,36
227964,38
228544,34
229112,32
229696,23
230268,18
230848,12
231416,13
231992,15
232576,15
233144,10
233728,13
234296,22
234880,33
235448,34
236028,30
236608,34
237180,33
237760,22
238328,15
238912,9
239432,11
240008,16
240576,21
241144,20
241728,21
242296,28
242880,32
243448,33
244032,34
244600,31
245184,33
245756,34
246332,25
246912,19
247480,16
248064,11
248632,10
249216,11
249784,15
250360,18
250944,23
251512,26
252096,26
252668,28
253248,31
253820,29
254400,25
254968,24
255548,18
256128,10
256700,14
257280,28
257848,36
258424,37
258992,34
259568,31
260152,30
260720,30
261304,28
261872,26
262456,21
263024,21
263600,17
264168,15
264744,15
265320,18
265888,14
266472,9
266988,13
267568,25
268136,32
268720,35
269292,34
269864,32
270448,29
271016,22
271600,16
272168,15
272752,12
273320,10
273896,15
274480,25
275048,32
275632,32
276204,33
276784,32
277356,29
277936,30
278508,32
279084,31
279664,32
280236,27
280816,21
281384,15
281968,11
282536,11
283112,12
283696,14
284264,24
284848,27
285416,34
286000,39
286572,39
287152,35
287724,27
288300,18
288880,11
289448,11
290032,17
290600,24
291184,27
291756,30
292332,34
292912,32
293484,30
294064,29
294636,32
295216,33
295788,30
296368,21
296936,17
297516,14
298096,12
298664,10
299248,11
299820,11
300400,13
300972,16
301548,26
302128,30
302700,35
303280,37
303852,34
304432,27
305012,19
305592,13
306164,10
306740,14
307320,14
307892,19
308472,20
309044,21
309624,26
310196,34
310772,35
311352,38
311924,34
312504,32
313076,28
313656,29
314224,26
314808,19
315380,14
315956,11
316536,13
317108,15
317688,22
318268,32
318848,35
319428,36
320004,30
320584,27
321152,21
321728,18
322296,14
322880,9
323396,10
323976,17
324544,26
325120,34
325704,38
326276,39
326856,33
327428,32
328008,32
328576,32
329152,34
329720,30
330296,27
330880,20
331448,18
332024,17
332592,14
333176,11
333744,19
334320,27
334904,34
335472,39
336056,42
336624,41
337200,43
337768,35
338352,29
338920,22
339496,11
340080,13
340648,19
341232,23
341800,30
342384,31
342956,36
343532,39
344112,38
344680,38
345264,35
345836,32
346416,29
346984,24
347568,20
348136,18
348716,12
349296,11
349864,12
350448,16
351020,23
351600,29
352172,36
352744,38
353328,35
353896,34
354480,30
355052,21
355632,16
356204,9
356732,11
357308,14
357884,19
358464,22
359032,26
359608,30
360180,34
360760,33
361328,32
361912,28
362484,28
363056,29
363640,32
364208,27
364792,19
365364,14
365944,11
366516,11
367092,14
367672,23
368244,27
368824,35
369392,35
369976,35
370544,34
371128,32
371700,20
372272,12
372856,10
373424,14
374008,23
374576,32
375160,31
375732,34
376308,34
376888,34
377460,32
378040,31
378612,35
379192,32
379764,26
380344,21
380916,19
381492,16
382072,12
382644,10
383224,13
383796,21
384380,27
384952,38
385532,35
386112,32
386684,27
387264,29
387832,24
388416,19
388988,11
389568,9
390088,11
390656,18
391240,30
391812,34
392392,33
392964,35
393544,31
394116,28
394696,30
395280,29
395852,27
396432,26
397004,25
397584,24
398156,19
398736,13
399308,10
399884,15
400464,21
401032,27
401616,33
402188,36
402768,37
403340,37
403920,35
404496,27
405064,19
405648,10
406220,13
406800,19
407372,24
407952,27
408524,26
409100,23
409680,23
410252,28
410832,28
411400,34
411984,37
412556,32
413136,25
413712,22
414280,22
414864,19
415432,14
416016,11
416584,12
417160,18
417728,27
418304,33
418888,35
419456,35
420040,33
420608,25
421184,21
421752,16
422336,13
422908,11
423480,22
424064,23
424632,25
425216,25
425784,24
426368,26
426936,36
427516,36
428096,30
428668,28
429248,27
429816,23
430400,17
430968,17
431552,12
432124,11
432696,11
433280,14
433848,16
434432,21
435004,29
435584,31
436156,36
436732,34
437312,31
437884,25
438464,19
439032,11
439616,11
440196,16
440776,17
441352,22
441924,26
442504,32
443076,38
443656,33
444228,32
444808,36
445376,34
445956,24
446536,19
447108,15
447688,15
448260,13
448840,11
449408,10
449992,12
450568,19
451136,29
451720,34
452292,37
452872,33
453444,27
454024,25
454596,18
455172,14
455752,10
456324,13
456904,16
457476,23
458056,32
458628,34
459208,33
459784,32
460356,29
460936,27
461508,29
462088,24
462656,19
463240,15
463812,17
464388,15
464968,14
465536,11
466120,10
466688,14
467272,15
467840,21
468424,25
469000,30
469572,33
470152,34
470724,28
471304,24
471876,15
472456,9
472976,14
473552,25
474128,31
474700,33
475280,33
475852,33
476432,32
477012,29
477592,29
478164,31
478740,28
479320,24
479892,23
480472,18
481048,17
481632,13
482200,11
482780,11
483360,15
483928,22
484512,25
485084,33
485664,35
486236,36
486816,33
487396,27
487972,21
488552,14
489124,11
489704,9
490224,10
490800,18
491380,27
491960,32
492540,33
493116,32
493696,30
494264,32
494848,32
495420,32
496000,23
496568,15
497148,11
497728,12
498296,16
498880,16
499452,16
500032,11
500604,16
501184,27
501756,37
502332,36
502912,38
503484,36
504064,27
504636,24
505216,19
505788,11
506364,10
506944,15
507516,21
508096,28
508668,33
509248,35
509828,30
510408,32
510992,39
511568,39
512148,30
512716,24
513296,23
513864,19
514440,15
515008,14
515584,10
516168,11
516736,13
517320,25
517888,34
518472,31
519040,25
519624,29
520200,29
520768,26
521352,23
521924,18
522504,10
523072,11
523656,17
524224,22
524800,29
525384,30
525952,28
526536,30
527108,36
527688,33
528256,30
528840,27
529416,28
529988,27
530568,25
531136,20
531720,15
532300,11
532880,11
533456,13
534032,20
534616,26
535188,32
535768,40
536340,39
536920,35
537492,27
538068,21
538648,14
539216,11
539800,10
540372,16
540952,22
541524,32
542104,31
542676,35
543252,35
543832,30
544404,34
544984,27
545552,21
546136,14
546708,19
547284,29
547864,32
548436,23
549016,14
549588,11
550168,21
550748,24
551328,25
551900,27
552476,27
553056,30
553628,32
554208,29
554780,18
555360,13
555940,12
556516,10
557096,16
557668,25
558248,27
558820,28
559400,29
559972,29
560552,30
561132,35
561708,32
562288,33
562860,28
563440,30
564016,26
564600,21
565168,13
565744,11
566328,13
566900,15
567480,15
568052,22
568632,35
569204,39
569784,41
570356,41
570932,30
571512,21
572084,14
572664,10
573244,12
573824,18
574404,24
574976,30
575560,34
576132,35
576712,32
577284,27
577864,28
578436,32
579016,24
579592,25
580164,26
580744,20
581316,17
581896,12
582468,10
583048,12
583620,16
584196,20
584776,24
585348,29
585928,34
586500,37
587080,36
587652,28
588232,21
588808,19
589380,12
589960,11
590532,16
591112,21
591684,23
592264,27
592836,30
593412,28
593992,30
594564,34
595144,38
595716,35
596296,33
596876,32
597456,25
598032,22
598604,16
599184,12
599756,10
600336,12
600916,17
601496,30
602076,36
602652,40
603232,39
603804,32
604384,29
604964,23
605544,17
606116,10
606692,12
607272,17
607848,24
608424,31
608996,41
609576,42
610148,40
610728,36
611308,30
611884,26
612464,17
613036,16
613616,17
614196,14
614780,13
615352,11
615932,11
616512,12
617084,17
617664,22
618232,26
618816,27
619396,29
619976,32
620552,33
621124,29
621704,26
622276,15
622856,13
623428,10
624008,15
624584,29
625164,37
625744,37
626316,38
626896,37
627476,38
628056,35
628628,33
629204,30
629784,26
630356,25
630936,25
631512,18
632092,13
632668,10
633248,12
633828,17
634404,22
634984,30
635556,35
636136,38
636716,34
637300,34
637876,31
638452,26
639032,18
639608,11
640188,10
640756,15
641336,31
641904,31
642488,29
643056,30
643636,27
644216,30
644788,33
645368,38
645944,40
646528,35
647096,29
647676,22
648256,14
648824,12
649408,10
649980,12
650560,17
651132,26
651712,33
652296,34
652868,38
653448,33
654020,32
654600,30
655180,31
655760,24
656336,12
656912,14
657496,26
658064,36
658648,39
659216,41
659800,36
660372,34
660948,39
661528,37
662100,32
662680,28
663252,27
663832,25
664404,22
664984,18
665556,15
666132,11
666712,11
667280,18
667864,25
668432,35
669016,39
669588,40
670164,42
670744,37
671316,27
671896,17
672468,11
673048,9
673568,10
674144,14
674716,22
675292,28
675872,32
676440,30
677024,34
677596,42
678176,40
678748,36
679328,33
679900,32
680476,23
681056,14
681624,14
682208,11
682780,12
683360,13
683932,20
684508,24
685088,34
685660,42
686240,40
686808,40
687392,29
687964,17
688544,11
689124,11
689700,15
690280,19
690852,20
691432,26
692012,29
692592,34
693164,32
693740,28
694320,30
694892,33
695472,34
696044,31
696624,29
697192,22
697776,16
698344,14
698924,11
699504,12
700076,11
700656,20
701236,32
701816,45
702396,49
702972,46
703552,41
704124,34
704704,28
705272,19
705856,11
706428,11
707008,17
707580,23
708156,24
708736,30
709308,34
709888,36
710460,38
711040,37
711612,38
712188,38
712768,34
713340,24
713920,18
714492,16
715072,13
715652,10
716232,11
716816,15
717388,21
717968,29
718540,34
719120,36
719692,42
720272,40
720840,33
721416,30
722000,21
722568,12
723152,11
723724,18
724304,28
724876,39
725456,38
726032,32
726604,33
727184,35
727756,37
728336,38
728916,35
729496,33
730076,29
730652,22
731232,13
731804,9
732332,11
732908,11
733488,13
734060,18
734640,30
735220,35
735796,38
736380,36
736952,30
737528,19
738108,18
738688,15
739256,10
739832,13
740416,18
740988,19
741568,18
742140,25
742720,29
743296,33
743880,32
744456,32
745028,32
745608,30
746176,28
746760,26
747332,25
747912,19
748492,15
749068,11
749648,12
750220,12
750800,18
751380,22
751960,28
752540,32
753116,35
753696,35
754268,29
754848,25
755424,17
756000,11
756572,9
757100,11
757676,20
758252,28
758832,33
759404,33
759984,33
760560,33
761136,37
761708,37
762288,37
762860,27
763436,24
764016,22
764588,22
765168,20
765748,14
766328,12
766908,17
767484,19
768068,27
768636,30
769216,33
769788,41
770368,48
770940,40
771520,25
772092,14
772668,10
773248,12
773820,21
774400,29
774968,34
775552,36
776124,36
776700,35
777280,37
777852,35
778432,30
779004,28
779584,25
780156,22
780736,22
781320,15
781892,13
782472,11
783044,11
783624,13
784196,22
784776,32
785348,33
785924,34
786504,32
787076,27
787656,21
788228,18
788808,17
789376,15
789960,11
790536,13
791108,20
791688,27
792260,33
792840,36
793420,34
794004,32
794580,31
795156,33
795736,31
796312,29
796888,25
797468,21
798048,19
798628,15
799204,12
799784,10
800360,12
800936,19
801508,27
802088,35
802656,37
803240,37
803812,37
804388,31
804968,27
805540,22
806120,16
806692,10
807272,15
807844,24
808420,30
809000,32
809568,36
810152,37
810724,33
811304,34
811884,33
812464,30
813044,25
813620,21
814200,18
814772,14
815352,14
815932,13
816512,11
817092,15
817668,20
818248,30
818820,39
819400,35
819972,36
820552,31
821120,30
821704,23
822280,18
822848,11
823432,13
824000,22
824584,27
825152,32
825736,36
826304,31
826884,32
827464,38
828036,39
828616,31
829188,30
829768,29
830336,24
830920,14
831496,11
832068,13
832648,12
833216,10
833792,13
834360,22
834944,28
835512,35
836092,38
836672,38
837244,34
837824,27
838396,21
838976,15
839556,10
840136,10
840712,12
841280,18
841864,24
842432,24
843016,29
843588,34
844168,37
844736,40
845316,42
845896,38
846468,30
847048,26
847616,23
848200,19
848768,16
849352,12
849928,10
850496,15
851080,27
851652,34
852232,40
852804,41
853384,39
853956,36
854532,28
855112,19
855684,11
856264,10
856836,11
857416,15
857988,22
858568,27
859144,32
859716,32
860296,33
860868,36
861448,38
862016,35
862600,29
863172,26
863748,25
864328,21
864900,15
865480,11
866048,10
866632,13
867204,19
867784,27
868360,32
868932,37
869512,34
870084,32
870664,24
871232,25
871816,19
872388,13
872964,11
873544,10
874116,11
874696,14
875268,23
875848,31
876420,38
877000,37
877576,32
878148,29
878728,29
879300,26
879880,26
880460,28
881040,25
881608,23
882184,19
882768,13
883340,11
883920,17
884492,27
885072,35
885644,49
886224,52
886800,39
887372,27
887952,20
888524,18
889104,12
889676,9
890204,13
890780,19
891356,25
891936,30
892508,35
893088,36
893660,32
894240,32
894820,34
895400,41
895980,39
896556,35
897136,29
897708,25
898288,19
898860,16
899440,12
900012,10
900588,14
901168,29
901736,38
902320,44
902892,48
903472,45
904044,40
904624,33
905196,27
905772,18
906352,13
906924,14
907504,25
908076,30
908656,37
909236,37
909812,36
910392,38
910964,32
911544,30
912116,29
912696,33
913268,32
913848,27
914428,25
915004,19
915584,13
916156,10
916736,14
917316,15
917896,26
918476,31
919052,38
919632,43
920208,42
920784,38
921364,34
921944,25
922520,15
923100,10
923680,16
924252,24
924832,28
925404,34
925984,38
926564,38
927144,39
927716,39
928292,36
928872,39
929444,41
930024,29
930596,22
931176,20
931748,17
932324,12
932904,11
933476,13
934056,20
934628,27
935208,34
935780,41
936360,42
936940,42
937516,35
938096,28
938668,19
939248,13
939828,10
940408,19
940988,29
941564,33
942144,37
942716,36
943296,35
943872,35
944448,37
945028,35
945608,33
946192,31
946764,25
947344,21
947916,19
948496,13
949068,14
949648,11
950228,14
950804,18
951384,30
951956,41
952540,45
953116,47
953696,50
954276,40
954852,26
955432,17
956008,12
956584,11
957160,19
957736,30
958316,31
958900,34
959476,34
960052,39
960632,43
961204,42
961784,43
962356,39
962936,35
963516,32
964092,27
964672,24
965244,15
965824,11
966396,10
966976,14
967556,23
968136,36
968720,40
969292,42
969872,40
970444,39
971024,37
971596,35
972176,24
972756,12
973332,11
973912,14
974484,19
975064,25
975636,35
976216,37
976796,37
977372,40
977952,39
978524,35
979104,35
979680,32
980256,28
980828,25
981408,17
981980,14
982556,12
983136,10
983708,13
984288,23
984860,35
985440,41
986012,42
986584,42
987168,35
987740,29
988320,20
988892,12
989472,10
990044,17
990624,18
991196,22
991772,27
992352,27
992924,31
993504,35
994076,38
994656,39
995228,38
995804,39
996384,35
996956,28
997536,25
998108,21
998688,15
999268,11
999848,12
1000420,19
1001040,25
1001668,33
1002288,47
1002916,48
1003544,49
1004160,40
1004788,32
1005412,16
1006044,10
1006672,17
1007288,27
1007920,29
1008544,33
1009168,39
1009796,40
1010416,41
1011044,41
1011668,39
1012292,35
1012920,31
1013544,25
1014172,20
1014804,14
1015424,12
1016052,11
1016676,18
1017304,28
1017936,33
1018552,34
1019184,37
1019808,41
1020432,36
1021060,34
1021680,30
1022308,15
1022932,10
1023556,15
1024188,24
1024804,25
1025432,32
1026060,38
1026676,39
1027304,43
1027928,38
1028556,33
1029184,28
1029800,27
1030428,24
1031048,20
1031676,17
1032304,15
1032928,12
1033556,10
1034180,19
1034800,30
1035432,35
1036048,40
1036676,44
1037300,36
1037920,35
1038552,27
1039172,20
1039804,11
1040432,14
1041048,27
1041676,33
1042296,33
1042928,34
1043556,32
1044176,40
1044804,46
1045424,43
1046048,38
1046676,31
1047296,27
1047924,21
1048548,16
1049168,12
1049796,10
1050412,15
1051040,26
1051672,34
1052288,44
1052916,43
1053540,44
1054168,38
1054796,32
1055416,24
1056044,14
1056664,11
1057284,22
1057912,30
1058536,31
1059164,33
1059788,34
1060412,37
1061040,38
1061656,32
1062284,28
1062908,29
1063536,29
1064164,23
1064788,17
1065416,15
1066044,10
1066660,12
1067292,16
1067912,23
1068544,32
1069172,40
1069792,41
1070420,44
1071040,43
1071664,34
1072292,15
1072912,11
1073540,11
1074164,21
1074788,36
1075416,41
1076036,44
1076664,41
1077296,36
1077912,41
1078540,39
1079164,34
1079792,24
1080420,16
1081036,19
1081668,17
1082288,14
1082912,11
1083540,16
1084160,23
1084788,33
1085412,43
1086036,49
1086664,47
1087280,36
1087912,28
1088540,21
1089156,13
1089788,9
1090356,14
1090988,26
1091616,31
1092240,35
1092868,37
1093492,39
1094120,43
1094748,40
1095368,36
1095996,33
1096620,31
1097244,24
1097872,20
1098488,15
1099116,11
1099740,11
1100364,21
1100996,33
1101616,40
1102244,41
1102872,40
1103492,39
1104120,34
1104744,27
1105372,17
1106000,11
1106620,11
1107252,18
1107872,25
1108496,35
1109124,38
1109744,39
1110372,39
1110996,38
1111620,35
1112252,26
1112872,23
1113500,23
1114132,24
1114752,21
1115380,18
1116004,13
1116636,11
1117264,22
1117888,33
1118516,35
1119140,41
1119768,40
1120396,34
1121016,29
1121644,20
1122268,14
1122892,10
1123520,14
1124136,22
1124764,29
1125396,32
1126016,35
1126644,37
1127268,41
1127896,42
1128524,38
1129144,32
1129772,27
1130392,26
1131016,25
1131644,15
1132264,11
1132892,11
1133516,15
1134140,18
1134768,31
1135384,47
1136012,57
1136636,52
1137264,35
1137892,19
1138516,13
1139148,11
1139776,10
1140400,11
1141028,21
1141652,37
1142280,40
1142908,40
1143528,44
1144156,41
1144780,37
1145404,36
1146036,32
1146656,28
1147284,24
1147912,19
1148536,15
1149164,11
1149788,14
1150416,22
1151048,29
1151664,32
1152296,33
1152916,35
1153540,33
1154172,30
1154792,28
1155420,16
1156044,10
1156664,15
1157296,19
1157912,25
1158540,27
1159164,26
1159792,27
1160420,27
1161044,34
1161672,36
1162300,27
1162920,26
1163548,23
1164172,23
1164800,19
1165428,12
1166048,10
1166676,16
1167300,24
1167924,32
1168556,38
1169176,43
1169804,46
1170428,44
1171056,35
1171684,20
1172308,12
1172940,10
1173568,14
1174184,27
1174816,37
1175440,43
1176068,43
1176700,40
1177320,38
1177948,38
1178572,38
1179196,34
1179824,31
1180448,27
1181076,21
1181708,14
1182328,12
1182956,11
1183580,17
1184212,27
1184840,35
1185460,39
1186088,41
1186712,43
1187336,39
1187964,30
1188584,23
1189212,14
1189836,11
1190460,20
1191088,26
1191704,33
1192336,39
1192964,38
1193584,39
1194212,36
1194836,35
1195468,32
1196100,30
1196720,28
1197348,25
1197976,19
1198600,12
1199228,10
1199848,15
1200476,21
1201100,28
1201724,33
1202356,42
1202976,45
1203604,35
1204236,25
1204856,22
1205484,15
1206108,11
1206736,14
1207368,25
1207984,28
1208616,35
1209236,35
1209864,33
1210492,34
1211112,36
1211740,35
1212364,35
1212988,34
1213620,27
1214240,21
1214868,13
1215500,10
1216120,11
1216748,13
1217372,23
1218000,34
1218632,40
1219248,41
1219876,40
1220500,35
1221124,25
1221756,19
1222376,16
1223008,10
1223632,17
1224256,24
1224884,31
1225504,43
1226132,46
1226764,48
1227384,52
1228016,46
1228640,36
1229268,24
1229896,20
1230520,21
1231148,15
1231772,11
1232396,11
1233024,12
1233640,21
1234268,31
1234892,39
1235516,46
1236144,41
1236760,40
1237388,39
1238012,32
1238640,21
1239268,11
1239892,13
1240520,24
1241152,30
1241768,37
1242396,39
1243020,38
1243652,38
1244280,36
1244904,32
1245532,31
1246156,31
1246780,28
1247408,21
1248028,16
1248656,13
1249280,10
1249900,12
1250532,18
1251156,31
1251784,38
1252416,37
1253032,39
1253664,39
1254288,35
1254916,27
1255548,16
1256168,10
1256796,14
1257420,21
1258044,23
1258672,30
1259296,37
1259924,43
1260556,46
1261176,48
1261804,44
1262428,37
1263060,33
1263688,30
1264308,21
1264936,15
1265560,11
1266184,12
1266812,16
1267432,28
1268060,35
1268684,43
1269308,46
1269940,42
1270560,35
1271188,29
1271820,20
1272440,11
1273068,12
1273692,19
1274324,23
1274952,32
1275576,40
1276204,40
1276828,36
1277452,30
1278084,30
1278704,32
1279336,34
1279960,27
1280584,22
1281212,17
1281828,15
1282456,11
1283084,10
1283700,14
1284332,29
1284952,38
1285580,45
1286208,43
1286824,37
1287452,31
1288076,25
1288704,17
1289332,10
1289952,13
1290580,22
1291200,26
1291824,32
1292452,36
1293072,40
1293700,34
1294324,40
1294944,41
1295576,35
1296200,29
1296828,25
1297456,23
1298072,18
1298700,12
1299324,11
1299952,14
1300580,17
1301200,25
1301828,34
1302452,37
1303072,39
1303704,33
1304320,30
1304948,22
1305572,13
1306196,10
1306828,12
1307448,21
1308076,27
1308708,31
1309328,32
1309956,32
1310580,34
1311212,31
1311840,31
1312456,32
1313084,29
1313708,29
1314328,24
1314956,17
1315576,12
1316204,10
1316824,14
1317448,24
1318076,32
1318696,35
1319324,36
1319952,33
1320568,29
1321196,24
1321820,23
1322448,17
1323076,12
1323696,21
1324324,26
1324944,33
1325572,37
1326200,39
1326824,43
1327452,46
1328076,44
1328696,40
1329324,38
1329944,35
1330572,27
1331196,13
1331820,10
1332448,15
1333068,22
1333700,31
1334328,36
1334944,41
1335572,42
1336196,42
1336824,40
1337452,30
1338072,24
1338700,14
1339324,10
1339944,17
1340576,28
1341192,29
1341820,27
1342444,35
1343068,36
1343696,38
1344312,38
1344940,37
1345568,35
1346192,33
1346820,29
1347440,26
1348072,21
1348700,14
1349320,11
1349948,18
1350572,27
1351192,35
1351824,43
1352440,46
1353068,43
1353692,35
1354312,30
1354940,25
1355560,17
1356188,10
1356816,18
1357432,27
1358060,33
1358684,40
1359312,38
1359944,41
1360560,40
1361188,41
1361812,35
1362436,29
1363064,23
1363688,24
1364316,25
1364936,20
1365560,11
1366188,12
1366808,21
1367436,30
1368060,39
1368688,43
1369316,39
1369940,38
1370568,35
1371196,30
1371816,23
1372444,11
1373068,15
1373696,24
1374324,31
1374944,42
1375572,41
1376196,41
1376820,39
1377448,37
1378064,37
1378692,37
1379316,34
1379940,26
1380568,22
1381192,16
1381820,12
1382452,14
1383068,15
1383700,17
1384320,26
1384948,33
1385580,40
1386200,43
1386828,38
1387452,31
1388076,26
1388704,16
1389328,11
1389956,13
1390580,23
1391204,29
1391836,39
1392460,43
1393088,44
1393720,42
1394336,41
1394964,39
1395588,33
1396216,29
1396844,22
1397464,22
1398092,17
1398716,11
1399340,15
1399968,19
1400588,23
1401216,32
1401840,37
1402464,41
1403092,43
1403716,41
1404344,35
1404972,23
1405592,15
1406220,12
1406844,20
1407476,28
1408104,30
1408724,39
1409356,39
1409976,35
1410600,27
1411228,26
1411848,27
1412476,28
1413100,27
1413724,31
1414352,31
1414972,26
1415600,19
1416228,11
1416848,15
1417476,27
1418100,32
1418728,40
1419356,43
1419976,43
1420604,35
1421228,29
1421852,22
1422484,12
1423104,12
1423732,18
1424356,25
1424980,31
1425608,36
1426232,41
1426860,41
1427492,40
1428112,37
1428740,34
1429364,28
1429996,25
1430624,23
1431248,23
1431876,19
1432504,12
1433128,14
1433756,26
1434376,35
1435004,41
1435624,44
1436248,47
1436876,48
1437496,35
1438124,20
1438752,10
1439376,10
1440004,11
1440624,16
1441252,31
1441884,42
1442504,49
1443132,44
1443756,39
1444380,37
1445008,33
1445624,34
1446252,32
1446876,28
1447500,22
1448128,12
1448744,10
1449372,11
1450000,13
1450624,21
1451252,29
1451876,38
1452504,44
1453132,40
1453752,32
1454380,23
1455004,15
1455628,11
1456256,10
1456880,16
1457508,19
1458132,27
1458756,37
1459384,36
1460008,32
1460636,31
1461264,29
1461880,34
1462512,33
1463132,26
1463764,23
1464392,18
1465012,11
1465640,11
1466260,12
1466884,13
1467516,20
1468136,32
1468764,41
1469388,45
1470012,42
1470644,30
1471264,24
1471892,17
1472524,16
1473144,10
1473772,19
1474396,28
1475028,36
1475656,40
1476272,47
1476900,53
1477524,50
1478148,39
1478780,24
1479400,11
1480028,11
1480652,19
1481272,25
1481904,17
1482520,10
1483148,16
1483772,22
1484400,32
1485028,38
1485652,46
1486280,47
1486908,40
1487528,34
1488156,24
1488780,14
1489408,11
1490036,18
1490656,31
1491284,36
1491908,42
1492532,44
1493160,44
1493776,39
1494404,32
1495028,34
1495652,29
1496284,23
1496904,21
1497536,19
1498164,14
1498784,11
1499412,12
1500036,18
1500668,27
1501296,31
1501916,38
1502544,41
1503168,40
1503792,38
1504424,30
1505040,21
1505668,12
1506292,10
1506916,15
1507548,25
1508172,31
1508800,38
1509428,39
1510048,42
1510680,42
1511300,41
1511932,37
1512564,34
1513184,27
1513812,16
1514436,13
1515064,11
1515692,11
1516312,13
1516940,16
1517564,24
1518192,34
1518820,39
1519444,37
1520076,33
1520704,29
1521328,24
1521956,14
1522580,9
1523156,17
1523792,23
1524408,25
1525036,25
1525660,25
1526288,29
1526916,32
1527536,29
1528164,31
1528788,31
1529416,27
1530044,28
1530664,27
1531296,20
1531924,14
1532544,11
1533176,12
1533800,21
1534428,29
1535060,38
1535680,41
1536312,39
1536932,30
1537556,27
1538184,18
1538808,15
1539436,10
1540060,13
1540680,20
1541312,25
1541928,32
1542556,39
1543184,38
1543808,36
1544436,37
1545060,36
1545688,33
1546320,28
1546936,24
1547564,21
1548188,21
1548812,14
1549440,10
1550056,15
1550684,27
1551308,36
1551936,45
1552564,48
1553184,47
1553812,39
1554444,28
1555064,16
1555696,10
1556320,12
1556948,15
1557576,22
1558200,31
1558828,37
1559452,42
1560076,44
1560704,40
1561328,35
1561956,31
1562580,29
1563204,27
1563832,22
1564452,18
1565080,14
1565708,11
1566328,12
1566956,18
1567580,29
1568212,37
1568840,43
1569456,41
1570084,40
1570708,31
1571336,19
1571964,10
1572584,14
1573212,17
1573836,17
1574460,21
1575092,27
1575712,29
1576340,33
1576972,32
1577592,31
1578220,35
1578844,37
1579476,33
1580108,26
1580728,20
1581360,14
1581984,12
1582608,11
1583236,16
1583856,24
1584488,35
1585112,41
1585736,46
1586364,42
1586984,34
1587616,30
1588244,16
1588864,11
1589492,12
1590116,19
1590748,25
1591376,27
1592000,31
1592628,33
1593252,39
1593880,45
1594508,40
1595128,34
1595760,27
1596384,26
1597008,24
1597640,20
1598256,16
1598884,11
1599516,11
1600136,18
1600764,27
1601384,33
1602016,42
1602644,44
1603260,46
1603892,35
1604512,25
1605136,17
1605764,12
1606384,10
1607012,15
1607636,24
1608260,38
1608888,50
1609504,50
1610136,45
1610764,39
1611384,33
1612012,34
1612636,34
1613268,26
1613896,19
1614512,15
1615140,11
1615764,10
1616388,11
1617020,20
1617640,37
1618268,44
1618892,40
1619512,36
1620144,33
1620760,30
1621392,23
1622012,14
1622640,11
1623268,17
1623892,25
1624520,32
1625152,35
1625768,39
1626400,41
1627020,43
1627652,42
1628280,35
1628900,28
1629528,21
1630152,17
1630776,13
1631404,13
1632024,12
1632652,11
1633276,23
1633904,32
1634532,33
1635160,37
1635788,38
1636420,36
1637040,31
1637672,26
1638296,19
1638920,11
1639548,12
1640164,20
1640792,28
1641416,34
1642036,36
1642664,39
1643284,40
1643912,35
1644536,29
1645156,30
1645784,30
1646408,29
1647036,24
1647664,17
1648280,14
1648908,11
1649528,12
1650156,20
1650788,30
1651408,39
1652036,45
1652656,46
1653276,39
1653908,34
1654528,27
1655156,16
1655776,10
1656400,15
1657028,27
1657648,30
1658276,30
1658904,37
1659520,38
1660148,40
1660772,43
1661400,37
1662028,26
1662648,23
1663276,23
1663900,20
1664524,16
1665152,11
1665768,11
1666396,11
1667016,16
1667640,35
1668268,45
1668884,45
1669516,50
1670136,43
1670760,35
1671388,24
1672012,12
1672640,12
1673268,22
1673888,29
1674516,35
1675140,39
1675768,41
1676396,38
1677016,38
1677644,38
1678268,33
1678892,31
1679520,25
1680136,21
1680764,17
1681384,16
1682004,11
1682632,11
1683256,25
1683880,37
1684512,38
1685128,39
1685756,35
1686376,33
1687008,29
1687636,22
1688256,15
1688884,11
1689508,10
1690132,14
1690760,23
1691376,29
1692004,33
1692628,33
1693248,37
1693876,33
1694496,32
1695124,31
1695752,33
1696372,28
1697000,26
1697620,19
1698248,11
1698880,12
1699496,13
1700124,16
1700748,26
1701376,35
1702004,39
1702624,39
1703252,36
1703876,30
1704496,22
1705128,16
1705744,10
1706372,14
1706996,22
1707620,29
1708248,33
1708872,33
1709500,36
1710128,38
1710744,38
1711376,38
1712000,33
1712628,31
1713256,29
1713876,25
1714504,17
1715128,11
1715752,11
1716380,18
1717000,27
1717628,34
1718252,37
1718876,37
1719504,44
1720128,47
1720756,35
1721388,20
1722008,11
1722636,12
1723260,19
1723888,21
1724516,22
1725136,23
1725764,33
1726388,35
1727012,38
1727640,38
1728264,35
1728892,35
1729516,31
1730136,27
1730768,19
1731384,15
1732012,11
1732640,11
1733256,15
1733888,27
1734512,35
1735140,41
1735768,40
1736392,40
1737020,34
1737644,30
1738268,19
1738896,11
1739512,14
1740144,20
1740768,26
1741392,33
1742020,42
1742640,47
1743268,40
1743896,35
1744520,35
1745148,35
1745772,31
1746400,29
1747028,26
1747648,23
1748276,15
1748900,10
1749524,14
1750152,28
1750772,35
1751400,39
1752024,41
1752648,39
1753276,30
1753896,24
1754524,22
1755156,16
1755776,11
1756404,17
1757028,25
1757660,27
1758288,39
1758908,31
1759536,33
1760160,35
1760784,36
1761412,36
1762032,35
1762660,32
1763280,28
1763904,20
1764532,14
1765152,12
1765780,10
1766408,15
1767024,24
1767652,34
1768276,45
1768904,49
1769532,44
1770152,37
1770780,28
1771404,22
1772036,14
1772664,10
1773280,14
1773912,18
1774536,26
1775160,37
1775788,42
1776408,42
1777036,43
1777660,40
1778288,43
1778916,37
1779540,30
1780172,25
1780800,23
1781416,17
1782044,11
1782668,15
1783300,22
1783928,31
1784548,37
1785176,43
1785800,44
1786424,40
1787052,28
1787672,25
1788300,19
1788924,10
1789552,11
1790180,19
1790808,29
1791436,37
1792068,38
1792684,35
1793312,33
1793936,37
1794564,36
1795192,32
1795812,29
1796440,24
1797064,22
1797688,18
1798316,14
1798936,11
1799564,12
1800188,22
1800816,33
1801444,39
1802068,42
1802696,42
1803328,37
1803944,30
1804572,21
1805196,14
1805824,10
1806452,14
1807072,28
1807700,36
1808324,44
1808944,38
1809576,32
1810192,25
1810820,25
1811444,26
1812068,27
1812696,26
1813320,27
1813948,23
1814576,16
1815200,15
1815828,11
1816452,11
1817080,19
1817712,26
1818328,35
1818956,45
1819580,51
1820204,43
1820832,32
1821448,24
1822080,13
1822700,14
1823328,19
1823956,26
1824580,33
1825208,37
1825840,37
1826456,39
1827084,36
1827708,30
1828340,32
1828968,37
1829584,35
1830212,27
1830840,17
1831460,15
1832092,10
1832712,12
1833340,17
1833964,28
1834588,35
1835220,38
1835844,43
1836472,40
1837104,32
1837720,27
1838348,15
1838976,11
1839604,16
1840236,24
1840856,32
1841484,33
1842108,33
1842732,35
1843364,39
1843980,37
1844612,34
1845232,31
1845856,31
1846484,23
1847108,21
1847736,21
1848364,12
1848980,11
1849612,16
1850232,25
1850864,38
1851492,43
1852112,41
1852740,35
1853364,32
1853988,27
1854620,18
1855240,15
1855868,10
1856492,15
1857116,24
1857744,30
1858368,37
1858996,39
1859624,38
1860248,38
1860876,37
1861500,31
1862128,28
1862760,26
1863376,24
1864004,19
1864628,17
1865252,11
1865880,10
1866496,19
1867124,25
1867748,35
1868372,42
1869004,42
1869624,41
1870252,37
1870880,34
1871504,29
1872132,18
1872756,11
1873388,21
1874016,28
1874632,33
1875264,37
1875888,36
1876512,34
1877140,36
1877760,39
1878388,37
1879016,33
1879640,29
1880268,25
1880888,21
1881516,15
1882148,11
1882768,12
1883396,17
1884020,30
1884652,36
1885280,38
1885904,39
1886532,35
1887156,29
1887780,21
1888412,14
1889032,11
1889660,12
1890284,23
1890908,28
1891536,33
1892156,38
1892784,37
1893416,38
1894032,37
1894664,35
1895284,33
1895916,31
1896544,28
1897164,21
1897792,15
1898416,11
1899036,11
1899668,16
1900288,23
1900916,33
1901540,41
1902164,42
1902796,40
1903416,35
1904048,29
1904676,22
1905296,13
1905924,13
1906548,23
1907180,27
1907812,32
1908432,36
1909060,35
1909688,39
1910312,40
1910940,36
1911560,33
1912192,27
1912816,27
1913440,25
1914072,21
1914696,15
1915328,10
1915956,12
1916576,18
1917208,26
1917832,35
1918464,36
1919092,40
1919712,39
1920344,33
1920968,24
1921588,12
1922220,10
1922840,14
1923468,19
1924092,20
1924720,28
1925348,35
1925972,37
1926600,36
1927232,38
1927848,39
1928476,31
1929100,27
1929728,24
1930360,20
1930976,17
1931604,13
1932228,11
1932852,15
1933480,24
1934100,31
1934728,37
1935352,43
1935976,43
1936604,41
1937228,36
1937860,19
1938488,10
1939112,13
1939744,19
1940368,24
1940996,27
1941628,35
1942248,40
1942876,43
1943504,42
1944128,38
1944756,36
1945376,34
1946008,28
1946636,24
1947256,21
1947884,15
1948508,12
1949136,10
1949768,13
1950384,23
1951016,30
1951640,37
1952264,41
1952892,40
1953512,36
1954140,29
1954764,21
1955388,12
1956020,10
1956640,17
1957268,26
1957900,31
1958520,36
1959148,35
1959772,35
1960404,31
1961032,31
1961648,33
1962280,33
1962904,29
1963528,25
1964156,23
1964776,16
1965408,11
1966032,13
1966656,21
1967284,30
1967904,39
1968532,43
1969164,44
1969784,41
1970412,35
1971036,26
1971668,15
1972296,11
1972912,12
1973540,24
1974164,27
1974788,33
1975420,36
1976040,38
1976668,39
1977292,38
1977916,39
1978544,37
1979164,34
1979792,30
1980420,24
1981040,17
1981668,16
1982292,11
1982924,14
1983552,22
1984176,27
1984804,32
1985428,41
1986052,47
1986684,44
1987304,42
1987932,33
1988556,21
1989180,10
1989808,19
1990424,29
1991052,33
1991676,35
1992304,36
1992932,37
1993556,41
1994188,39
1994820,37
1995440,31
1996072,21
1996696,17
1997320,14
1997948,12
1998568,11
1999196,11
1999820,15
2000444,26
2001076,37
2001696,41
2002324,42
2002952,41
2003576,37
2004204,28
2004828,15
2005456,11
2006084,15
2006704,23
2007332,29
2007956,31
2008584,31
2009212,32
2009832,36
2010460,36
2011084,41
2011708,37
2012336,32
2012960,30
2013588,25
2014216,20
2014840,13
2015468,11
2016092,14
2016724,28
2017352,35
2017968,42
2018600,48
2019220,46
2019844,41
2020476,36
2021096,27
2021724,15
2022352,11
2022976,19
2023604,28
2024224,40
2024852,42
2025484,43
2026104,42
2026732,46
2027356,44
2027988,39
2028620,34
2029240,25
2029868,15
2030492,13
2031116,15
2031748,11
2032368,12
2032996,19
2033620,28
2034244,31
2034876,36
2035496,45
2036124,43
2036756,38
2037376,32
2038008,25
2038632,16
2039260,11
2039892,16
2040512,27
2041140,35
2041768,37
2042388,43
2043020,43
2043640,47
2044268,43
2044896,35
2045520,34
2046148,30
2046768,27
2047400,22
2048028,11
2048644,11
2049272,15
2049892,16
2050520,26
2051148,33
2051768,41
2052396,43
2053016,43
2053640,37
2054268,29
2054888,18
2055516,10
2056136,12
2056760,20
2057388,23
2058008,31
2058636,34
2059260,38
2059880,40
2060508,43
2061132,39
2061760,37
2062388,31
2063008,27
2063636,21
2064260,15
2064888,12
2065516,10
2066136,15
2066764,23
2067388,38
2068008,44
2068636,45
2069256,42
2069884,36
2070508,32
2071128,25
2071756,13
2072376,11
2073004,15
2073632,24
2074252,29
2074884,37
2075504,39
2076132,35
2076764,32
2077384,34
2078012,34
2078636,35
2079260,27
2079888,24
2080512,16
2081140,15
2081764,10
2082384,11
2083012,14
2083632,25
2084260,29
2084888,35
2085504,41
2086132,43
2086756,39
2087384,30
2088012,21
2088628,13
2089260,11
2089880,23
2090504,32
2091132,37
2091752,41
2092380,39
2093004,38
2093628,37
2094256,39
2094872,36
2095500,34
2096124,27
2096752,19
2097380,14
2098004,11
2098632,11
2099260,13
2099876,21
2100504,30
2101128,43
2101756,47
2102384,41
2103008,37
2103636,29
2104260,22
2104884,15
2105512,10
2106136,20
2106764,25
2107388,31
2108016,30
2108644,33
2109268,39
2109896,39
2110528,39
2111144,40
2111772,34
2112400,28
2113028,25
2113656,19
2114272,15
2114900,12
2115524,11
2116148,14
2116776,24
2117396,34
2118024,42
2118648,41
2119268,34
2119900,25
2120524,19
2121152,15
2121784,12
2122400,11
2123028,10
2123652,11
2124280,15
2124912,25
2125528,31
2126156,33
2126780,37
2127404,38
2128032,34
2128648,31
2129280,26
2129900,22
2130524,17
2131156,14
2131780,10
2132408,12
2133036,16
2133656,28
2134284,37
2134908,40
2135536,40
2136168,37
2136784,33
2137412,24
2138036,15
2138660,9
2139240,13
2139864,19
2140492,25
2141116,32
2141740,36
2142368,40
2142992,39
2143620,39
2144244,38
2144868,35
2145496,33
2146120,26
2146748,19
2147380,14
2148000,15
2148628,11
2149252,12
2149884,20
2150512,25
2151128,31
2151760,39
2152380,43
2153004,39
2153632,33
2154256,25
2154884,16
2155508,10
2156132,18
2156760,20
2157384,25
2158012,31
2158644,36
2159264,39
2159892,40
2160516,41
2161148,39
2161776,38
2162400,30
2163028,25
2163652,22
2164276,16
2164904,12
2165520,10
2166152,15
2166776,24
2167400,33
2168028,40
2168652,40
2169280,39
2169908,33
2170528,27
2171156,17
2171780,10
2172412,10
2173040,16
2173660,25
2174288,30
2174912,38
2175536,37
2176168,34
2176780,37
2177412,37
2178032,31
2178656,29
2179284,21
2179908,21
2180536,20
2181164,17
2181784,13
2182412,10
2183032,17
2183664,37
2184292,48
2184912,51
2185540,49
2186164,41
2186788,34
2187420,30
2188040,22
2188668,10
2189292,19
2189916,26
2190548,34
2191172,37
2191800,40
2192432,43
2193048,42
2193676,39
2194300,40
2194932,37
2195560,28
2196184,21
2196812,19
2197436,20
2198060,16
2198692,10
2199312,21
2199940,31
2200568,38
2201192,38
2201824,40
2202444,38
2203076,31
2203704,26
2204320,20
2204952,17
2205576,12
2206204,12
2206836,17
2207456,27
2208084,35
2208708,40
2209332,40
2209960,42
2210584,43
2211212,38
2211836,32
2212464,27
2213092,19
2213716,17
2214348,13
2214976,12
2215600,12
2216228,17
2216852,28
2217476,36
2218108,38
2218728,40
2219356,38
2219984,29
2220608,27
2221236,20
2221856,13
2222484,11
2223116,22
2223736,30
2224368,33
2224988,34
2225620,37
2226248,37
2226872,39
2227504,41
2228128,34
2228752,27
2229380,19
2230000,18
2230628,17
2231252,15
2231880,11
2232508,12
2233128,25
2233756,42
2234388,39
2235008,40
2235636,38
2236264,40
2236892,32
2237524,20
2238144,11
2238776,10
2239400,13
2240024,21
2240652,30
2241272,41
2241900,42
2242524,42
2243148,37
2243780,30
2244400,23
2245028,17
2245660,18
2246280,20
2246908,17
2247532,15
2248164,11
2248792,10
2249412,15
2250040,25
2250664,31
2251292,39
2251920,39
2252544,39
2253176,36
2253796,29
2254420,22
2255048,13
2255672,11
2256300,18
2256928,26
2257552,33
2258180,39
2258804,40
2259432,37
2260064,37
2260680,36
2261308,33
2261932,29
2262556,25
2263188,22
2263808,20
2264436,16
2265060,11
2265684,12
2266312,19
2266936,28
2267564,35
2268196,41
2268816,44
2269444,36
2270068,25
2270696,23
2271328,16
2271948,10
2272580,12
2273204,17
2273828,22
2274456,29
2275076,36
2275704,43
2276328,43
2276952,43
2277580,39
2278200,35
2278832,29
2279460,22
2280080,21
2280708,17
2281332,11
2281964,10
2282592,16
2283208,27
2283840,39
2284464,40
2285088,41
2285716,40
2286336,38
2286968,37
2287592,33
2288216,21
2288844,10
2289464,17
2290092,25
2290724,24
2291344,30
2291972,35
2292600,39
2293228,40
2293860,41
2294480,40
2295108,35
2295732,31
2296356,28
2296984,22
2297600,18
2298232,12
2298856,15
2299480,22
2300108,28
2300728,33
2301360,35
2301988,36
2302608,37
2303240,30
2303864,24
2304496,19
2305124,11
2305744,13
2306372,23
2306996,29
2307620,31
2308248,35
2308864,37
2309492,39
2310116,40
2310740,38
2311368,32
2311992,28
2312620,25
2313252,24
2313872,20
2314500,11
2315124,13
2315756,17
2316384,21
2317004,28
2317632,35
2318256,37
2318880,37
2319508,36
2320128,32
2320756,25
2321380,18
2322004,12
2322632,12
2323248,19
2323880,28
2324508,30
2325128,31
2325756,34
2326380,41
2327012,37
2327640,36
2328264,32
2328892,30
2329516,28
2330140,22
2330772,18
2331392,13
2332020,10
2332644,15
2333268,26
2333900,34
2334520,39
2335152,40
2335780,39
2336400,37
2337028,33
2337652,23
2338280,12
2338912,11
2339528,20
2340160,28
2340784,33
2341408,39
2342036,37
2342656,37
2343284,35
2343908,33
2344532,32
2345164,30
2345784,28
2346412,24
2347044,16
2347664,14
2348292,11
2348920,21
2349548,28
2350180,23
2350800,25
2351428,29
2352056,32
2352680,36
2353308,30
2353928,23
2354556,17
2355184,11
2355808,12
2356440,21
2357064,27
2357692,36
2358324,40
2358944,42
2359572,34
2360200,29
2360828,28
2361460,26
2362080,25
2362708,25
2363332,22
2363956,15
2364588,10
2365208,11
2365836,14
2366460,20
2367088,33
2367720,43
2368344,48
2368972,38
2369604,25
2370224,22
2370852,17
2371476,11
2372104,13
2372732,20
2373352,29
2373984,27
2374608,31
2375232,34
2375864,37
2376480,41
2377108,38
2377740,32
2378360,33
2378988,33
2379612,27
2380244,21
2380872,16
2381496,13
2382124,10
2382748,16
2383372,27
2384004,34
2384624,36
2385252,37
2385876,40
2386504,35
2387132,28
2387752,19
2388384,11
2389012,12
2389632,17
2390264,17
2390888,21
2391516,27
2392148,36
2392768,42
2393400,47
2394024,48
2394648,40
2395280,35
2395896,33
2396528,21
2397152,16
2397776,11
2398404,11
2399024,11
2399656,19
2400284,32
2400904,38
2401532,44
2402156,44
2402788,40
2403416,28
2404036,23
2404664,15
2405288,11
2405912,11
2406544,23
2407160,27
2407788,27
2408412,35
2409036,41
2409664,40
2410280,42
2410912,45
2411540,42
2412160,35
2412788,29
2413412,26
2414044,18
2414676,12
2415296,12
2415928,17
2416552,28
2417176,35
2417804,36
2418424,41
2419052,43
2419680,38
2420300,31
2420932,23
2421552,13
2422184,10
2422812,15
2423432,24
2424060,32
2424688,37
2425316,38
2425948,40
2426568,44
2427196,40
2427824,36
2428448,31
2429076,24
2429696,19
2430324,18
2430952,16
2431576,12
2432208,11
2432824,23
2433452,34
2434084,37
2434704,39
2435332,35
2435960,35
2436588,30
2437220,22
2437840,15
2438468,11
2439092,11
2439716,15
2440348,24
2440968,33
2441596,36
2442220,39
2442848,37
2443476,37
2444100,34
2444732,31
2445364,30
2445984,26
2446616,22
2447240,19
2447868,12
2448500,10
2449120,15
2449748,21
2450376,28
2451000,37
2451632,38
2452248,40
2452876,40
2453504,34
2454128,26
2454760,15
2455384,10
2456016,15
2456644,24
2457264,32
2457896,39
2458516,43
2459140,42
2459772,40
2460392,33
2461020,31
2461644,27
2462268,28
2462896,24
2463512,18
2464144,14
2464768,10
2465392,13
2466020,25
2466644,34
2467272,37
2467900,41
2468520,42
2469148,37
2469772,31
2470400,25
2471028,14
2471648,10
2472276,13
2472900,22
2473524,28
2474156,34
2474776,34
2475408,32
2476032,34
2476656,39
2477284,38
2477908,38
2478540,36
2479172,32
2479792,29
2480420,25
2481044,17
2481668,11
2482300,14
2482920,22
2483548,27
2484172,32
2484796,39
2485424,46
2486048,46
2486676,34
2487308,22
2487928,14
2488556,10
2489180,15
2489812,22
2490440,27
2491056,33
2491688,35
2492312,35
2492936,36
2493564,34
2494184,31
2494816,28
2495436,28
2496064,26
2496692,18
2497312,12
2497940,12
2498572,10
2499192,13
2499820,19
2500444,33
2501076,41
2501704,42
2502328,40
2502960,32
2503584,26
2504208,18
2504836,10
2505456,11
2506084,19
2506708,26
2507332,31
2507964,37
2508584,37
2509216,37
2509844,38
2510464,37
2511092,31
2511716,25
2512348,24
2512976,23
2513600,25
2514228,19
2514852,11
2515476,13
2516108,19
2516728,33
2517360,42
2517984,43
2518608,42
2519240,38
2519856,33
2520488,27
2521116,17
2521736,11
2522364,15
2522988,21
2523620,22
2524248,31
2524872,36
2525500,37
2526128,34
2526752,35
2527380,36
2528000,37
2528628,41
2529252,34
2529876,25
2530508,16
2531128,11
2531760,11
2532388,16
2533008,21
2533640,30
2534264,35
2534896,40
2535524,38
2536144,33
2536776,27
2537400,21
2538024,13
2538656,10
2539272,15
2539904,23
2540528,30
2541152,36
2541784,37
2542408,37
2543036,39
2543668,38
2544288,37
2544916,36
2545544,29
2546172,19
2546804,14
2547424,12
2548052,14
2548680,11
2549304,17
2549932,25
2550552,37
2551184,41
2551812,40
2552432,39
2553064,33
2553688,27
2554316,19
2554948,10
2555568,14
2556200,22
2556824,28
2557448,33
2558080,38
2558696,43
2559328,44
2559952,43
2560580,41
2561208,35
2561824,24
2562452,18
2563080,17
2563696,15
2564324,13
2564948,11
2565576,13
2566204,18
2566824,28
2567452,33
2568076,37
2568704,44
2569332,48
2569952,45
2570580,28
2571204,18
2571824,10
2572456,15
2573072,22
2573700,25
2574324,30
2574948,34
2575576,35
2576200,41
2576828,43
2577456,39
2578076,38
2578704,33
2579328,26
2579956,19
2580588,11
2581208,11
2581836,11
2582460,15
2583080,23
2583712,32
2584328,40
2584956,41
2585580,37
2586204,34
2586832,27
2587456,21
2588084,15
2588712,10
2589336,17
2589964,25
2590588,28
2591220,28
2591848,30
2592468,33
2593096,39
2593720,40
2594340,39
2594972,34
2595592,32
2596220,27
2596844,21
2597468,17
2598096,10
2598720,12
2599348,18
2599980,26
2600600,37
2601228,47
2601852,46
2602480,44
2603112,35
2603728,28
2604356,16
2604980,10
2605604,16
2606232,21
2606856,25
2607484,28
2608108,32
2608732,37
2609364,36
2609984,39
2610616,39
2611244,38
2611864,32
2612492,25
2613116,23
2613744,19
2614376,14
2614996,11
2615624,12
2616248,19
2616872,31
2617500,35
2618120,37
2618748,41
2619372,40
2619996,31
2620628,21
2621252,14
2621884,10
2622512,19
2623136,28
2623764,32
2624388,35
2625016,39
2625644,36
2626260,37
2626892,36
2627512,36
2628136,31
2628764,24
2629384,23
2630012,18
2630636,14
2631256,10
2631888,14
2632504,21
2633132,29
2633760,36
2634384,40
2635012,41
2635636,40
2636264,32
2636892,26
2637508,17
2638140,10
2638760,11
2639384,19
2640012,28
2640628,37
2641260,39
2641884,42
2642504,43
2643136,44
2643752,45
2644380,42
2645008,32
2645632,19
2646260,17
2646884,17
2647512,13
2648140,10
2648760,11
2649388,15
2650012,27
2650636,37
2651264,39
2651880,46
2652512,47
2653136,40
2653756,29
2654388,16
2655008,11
2655636,14
2656268,22
2656888,29
2657516,33
2658140,39
2658768,45
2659396,45
2660016,46
2660644,45
2661268,42
2661892,35
2662524,24
2663140,22
2663768,18
2664392,11
2665012,15
2665644,26
2666260,34
2666892,41
2667512,49
2668136,48
2668764,47
2669388,41
2670016,33
2670644,24
2671264,14
2671892,10
2672516,16
2673144,26
2673776,30
2674392,38
2675020,38
2675644,37
2676268,35
2676896,38
2677512,39
2678144,37
2678768,37
2679388,31
2680020,24
2680640,18
2681272,12
2681900,12
2682520,25
2683148,30
2683772,38
2684400,47
2685032,47
2685648,39
2686276,30
2686900,25
2687524,21
2688152,13
2688772,11
2689404,17
2690024,23
2690644,33
2691276,34
2691896,37
2692524,37
2693152,38
2693768,37
2694400,37
2695020,34
2695652,30
2696280,23
2696896,14
2697528,9
2698100,12
2698732,16
2699364,24
2699984,29
2700612,33
2701236,39
2701860,44
2702492,40
2703112,32
2703744,25
2704364,15
2704988,10
2705616,15
2706232,23
2706864,26
2707492,31
2708112,37
2708740,38
2709364,41
2709992,40
2710624,38
2711240,35
2711868,32
2712492,27
2713116,22
2713748,14
2714368,11
2714996,11
2715620,14
2716244,22
2716872,36
2717488,47
2718116,46
2718748,43
2719368,40
2719996,30
2720620,21
2721252,14
2721880,10
2722496,13
2723124,21
2723748,27
2724372,35
2725000,38
2725624,41
2726252,36
2726876,34
2727500,34
2728128,39
2728744,36
2729372,31
2730004,24
2730624,15
2731252,11
2731876,10
2732508,16
2733136,23
2733752,31
2734384,39
2735008,43
2735632,45
2736260,38
2736880,29
2737508,19
2738132,12
2738756,10
2739384,14
2740008,24
2740636,31
2741264,34
2741888,33
2742516,35
2743140,37
2743772,35
2744400,33
2745024,31
2745652,28
2746276,25
2746896,19
2747528,14
2748144,12
2748772,12
2749396,23
2750024,29
2750652,30
2751272,35
2751904,39
2752532,38
2753152,32
2753780,28
2754404,18
2755032,11
2755664,11
2756280,20
2756912,28
2757536,32
2758160,37
2758788,39
2759408,40
2760036,41
2760660,37
2761284,29
2761912,25
2762536,23
2763164,20
2763796,18
2764416,15
2765044,11
2765668,20
2766296,26
2766928,36
2767544,42
2768176,42
2768796,34
2769420,29
2770052,22
2770672,19
2771300,13
2771924,10
2772548,16
2773176,26
2773800,29
2774428,35
2775060,38
2775680,37
2776308,34
2776932,34
2777564,35
2778196,36
2778816,31
2779444,25
2780068,18
2780696,13
2781324,10
2781944,12
2782576,21
2783200,32
2783824,39
2784456,45
2785072,43
2785704,43
2786332,32
2786952,26
2787580,16
2788204,10
2788832,14
2789464,19
2790080,27
2790712,33
2791336,37
2791960,40
2792588,38
2793208,38
2793836,36
2794460,32
2795084,29
2795716,26
2796336,22
2796964,17
2797596,14
2798216,11
2798844,14
2799468,25
2800100,34
2800728,41
2801344,43
2801976,42
2802600,37
2803224,33
2803852,26
2804472,17
2805100,11
2805724,17
2806348,27
2806980,31
2807600,37
2808228,43
2808860,46
2809480,47
2810108,43
2810732,35
2811364,26
2811992,22
2812616,21
2813248,21
2813872,16
2814496,11
2815124,12
2815744,21
2816376,28
2816996,34
2817620,39
2818248,40
2818864,43
2819496,38
2820124,31
2820744,23
2821372,12
2821996,12
2822624,23
2823256,28
2823872,32
2824500,38
2825124,38
2825748,37
2826380,33
2827000,31
2827628,36
2828252,33
2828876,31
2829504,31
2830120,24
2830748,13
2831380,10
2832000,13
2832628,21
2833252,28
2833880,31
2834512,38
2835128,38
2835760,35
2836384,28
2837008,25
2837636,20
2838256,16
2838884,11
2839508,24
2840132,30
2840764,32
2841384,38
2842016,41
2842644,38
2843264,37
2843892,34
2844516,30
2845148,24
2845776,21
2846400,24
2847028,21
2847652,19
2848280,11
2848908,12
2849528,23
2850156,33
2850780,41
2851404,42
2852036,40
2852656,38
2853284,34
2853916,28
2854536,20
2855164,11
2855788,16
2856420,23
2857052,29
2857672,31
2858300,33
2858924,38
2859548,41
2860180,46
2860800,44
2861428,39
2862052,35
2862680,25
2863308,16
2863928,12
2864560,11
2865188,12
2865808,20
2866440,29
2867064,37
2867696,42
2868324,39
2868944,37
2869572,29
2870196,23
2870820,15
2871448,10
2872068,12
2872696,18
2873320,24
2873944,33
2874572,36
2875192,37
2875824,35
2876452,34
2877072,36
2877704,35
2878324,33
2878956,28
2879588,22
2880208,20
2880836,13
2881456,11
2882080,14
2882708,24
2883328,38
2883956,41
2884580,45
2885200,48
2885828,47
2886448,40
2887076,27
2887704,16
2888328,10
2888956,15
2889576,25
2890208,33
2890836,36
2891456,39
2892084,35
2892708,39
2893332,42
2893960,36
2894584,33
2895212,30
2895836,25
2896460,21
2897088,13
2897712,11
2898340,10
2898972,11
2899592,23
2900220,34
2900844,40
2901472,42
2902104,41
2902720,37
2903352,30
2903976,20
2904600,13
2905228,10
2905848,18
2906476,27
2907100,32
2907724,38
2908356,38
2908976,38
2909604,37
2910236,38
2910856,38
2911484,32
2912112,30
2912740,24
2913368,18
2913992,14
2914620,11
2915244,15
2915868,24
2916500,30
2917120,39
2917748,43
2918376,44
2919000,41
2919628,34
2920248,27
2920876,17
2921508,10
2922128,11
2922756,19
2923380,28
2924012,28
2924640,32
2925264,41
2925892,40
2926516,41
2927140,40
2927772,35
2928392,33
2929024,28
2929644,26
2930268,22
2930900,16
2931524,10
2932152,17
2932784,26
2933400,33
2934032,43
2934656,45
2935284,43
2935916,34
2936536,29
2937164,21
2937792,14
2938416,11
2939044,19
2939664,30
2940296,37
2940920,40
2941544,36
2942172,34
2942800,34
2943428,37
2944060,36
2944680,31
2945308,20
2945932,16
2946560,17
2947188,17
2947808,15
2948440,12
2949064,19
2949688,29
2950316,32
2950936,40
2951564,41
2952188,40
2952816,32
2953444,27
2954068,17
2954696,10
2955328,12
2955944,18
2956576,26
2957200,29
2957828,36
2958460,40
2959080,36
2959708,32
2960332,31
2960956,33
2961588,33
2962208,31
2962836,26
2963468,18
2964088,13
2964716,11
2965340,11
2965972,16
2966600,23
2967220,30
2967848,36
2968472,41
2969096,40
2969728,43
2970344,38
2970972,25
2971596,14
2972220,11
2972848,21
2973464,30
2974092,36
2974716,40
2975344,40
2975972,38
2976600,35
2977228,33
2977860,31
2978480,31
2979108,31
2979732,30
2980360,21
2980988,15
2981608,11
2982236,15
2982860,25
2983484,33
2984116,42
2984736,47
2985364,41
2985996,34
2986616,27
2987244,18
2987868,13
2988500,10
2989132,18
2989752,27
2990384,32
2991008,35
2991632,38
2992260,41
2992880,43
2993508,40
2994132,36
2994756,31
2995388,26
2996008,21
2996636,15
2997268,13
2997888,11
2998516,12
2999140,20
2999772,32
3000404,37
3001024,43
3001652,46
3002276,41
3002900,34
3003532,24
3004152,19
3004784,11
3005408,13
3006032,18
3006664,24
3007280,31
3007912,40
3008544,42
3009160,44
3009788,42
3010412,40
3011044,36
3011676,33
3012296,28
3012924,21
3013552,15
3014176,11
3014804,11
3015424,14
3016056,21
3016680,27
3017304,34
3017932,41
3018552,45
3019184,39
3019816,33
3020432,31
3021064,22
3021688,11
3022320,22
3022948,31
3023568,38
3024200,39
3024824,38
3025448,38
3026076,39
3026696,40
3027328,35
3027952,35
3028576,35
3029208,30
3029832,24
3030460,15
3031092,10
3031712,10
3032344,19
3032968,27
3033596,31
3034228,38
3034848,37
3035480,38
3036104,39
3036728,35
3037360,26
3037976,13
3038608,12
3039240,20
3039856,27
3040488,31
3041112,35
3041744,33
3042372,39
3042992,43
3043624,45
3044248,36
3044872,29
3045500,24
3046120,26
3046752,23
3047376,14
3048000,11
3048628,11
3049248,18
3049876,33
3050508,46
3051128,54
3051760,53
3052384,45
3053016,31
3053644,22
3054264,13
3054896,10
3055520,11
3056144,19
3056772,25
3057392,32
3058024,35
3058648,40
3059272,42
3059900,43
3060520,41
3061152,35
3061780,29
3062400,27
3063028,22
3063656,15
3064288,11
3064916,11
3065536,18
3066168,27
3066792,33
3067416,43
3068048,49
3068668,48
3069300,38
3069924,30
3070548,21
3071180,10
3071804,15
3072436,25
3073064,31
3073680,37
3074308,38
3074932,39
3075564,39
3076192,43
3076808,41
3077436,35
3078060,33
3078684,30
3079312,26
3079936,19
3080564,12
3081188,12
3081812,12
3082444,18
3083064,28
3083692,36
3084324,40
3084944,40
3085572,36
3086196,35
3086828,29
3087456,24
3088072,17
3088704,10
3089328,19
3089952,31
3090580,39
3091200,43
3091828,41
3092452,43
3093080,45
3093708,44
3094328,37
3094960,34
3095588,31
3096208,26
3096836,18
3097464,11
3098092,12
3098724,18
3099344,29
3099972,36
3100600,46
3101224,47
3101852,44
3102472,40
3103104,33
3103728,24
3104352,14
3104980,11
3105604,19
3106236,30
3106864,34
3107488,40
3108120,40
3108744,39
3109372,43
3110004,37
3110624,32
3111256,28
3111880,27
3112504,25
3113136,21
3113752,19
3114380,12
3115004,11
3115632,19
3116260,29
3116888,37
3117516,40
3118148,41
3118768,41
3119396,39
3120024,33
3120648,19
3121276,10
3121896,13
3122528,18
3123152,25
3123776,25
3124404,31
3125024,38
3125652,42
3126284,43
3126904,37
3127532,31
3128160,27
3128788,22
3129420,20
3130040,19
3130668,14
3131296,10
3131920,13
3132548,20
3133168,29
3133800,38
3134424,43
3135048,42
3135676,36
3136296,31
3136928,22
3137556,13
3138176,10
3138804,17
3139428,26
3140060,26
3140688,32
3141312,44
3141944,44
3142568,38
3143192,34
3143824,35
3144440,38
3145068,36
3145692,31
3146316,25
3146948,16
3147568,11
3148200,11
3148828,14
3149448,23
3150076,31
3150704,41
3151332,45
3151964,43
3152584,40
3153216,32
3153840,20
3154464,14
3155092,12
3155712,23
3156344,32
3156968,32
3157592,34
3158224,31
3158844,27
3159472,30
3160104,39
3160724,34
3161352,30
3161980,31
3162612,25
3163240,19
3163860,14
3164488,11
3165112,16
3165740,21
3166372,28
3166992,34
3167624,36
3168248,41
3168872,43
3169504,38
3170128,28
3170756,16
3171388,10
3172008,13
3172636,21
3173264,31
3173896,33
3174528,35
3175144,37
3175776,38
3176400,40
3177024,40
3177652,34
3178272,33
3178904,31
3179532,27
3180152,18
3180784,11
3181408,13
3182040,18
3182668,27
3183288,33
3183920,38
3184544,41
3185168,42
3185800,39
3186416,35
3187048,22
3187672,9
3188244,12
3188880,18
3189496,28
3190128,32
3190752,38
3191376,38
3192008,40
3192624,40
3193256,38
3193888,35
3194512,33
3195144,31
3195772,24
3196400,18
3197032,14
3197652,11
3198284,11
3198908,18
3199536,28
3200168,36
3200784,39
3201412,44
3202032,49
3202656,44
3203284,37
3203908,22
3204536,14
3205164,12
3205784,22
3206412,28
3207032,33
3207664,33
3208292,37
3208912,40
3209540,41
3210164,39
3210788,32
3211416,34
3212040,32
3212668,25
3213292,17
3213916,14
3214548,10
3215172,11
3215800,21
3216432,29
3217048,37
3217676,44
3218300,42
3218932,39
3219560,32
3220176,26
3220808,18
3221428,11
3222056,13
3222684,21
3223304,27
3223932,35
3224560,38
3225184,38
3225812,41
3226436,39
3227068,37
3227696,35
3228312,31
3228944,29
3229568,26
3230196,17
3230828,12
3231448,11
3232076,18
3232700,28
3233324,34
3233956,39
3234576,44
3235204,41
3235828,36
3236456,28
3237084,21
3237708,12
3238340,11
3238968,18
3239588,26
3240216,30
3240840,32
3241468,34
3242100,38
3242720,41
3243348,39
3243972,37
3244600,33
3245228,29
3245848,24
3246476,18
3247100,10
3247728,12
3248356,15
3248980,20
3249612,27
3250240,31
3250860,38
3251488,40
3252112,38
3252744,31
3253372,23
3253992,16
3254624,11
3255248,13
3255872,19
3256504,25
3257120,30
3257748,33
3258380,36
3259000,37
3259632,36
3260256,33
3260884,33
3261516,34
3262136,25
3262768,20
3263392,17
3264016,13
3264644,10
3265264,14
3265892,17
3266520,27
3267144,37
3267776,44
3268392,44
3269024,33
3269652,28
3270272,29
3270904,13
3271528,11
3272160,20
3272788,32
3273408,33
3274040,36
3274664,33
3275288,37
3275920,32
3276540,29
3277168,34
3277792,37
3278412,34
3279044,22
3279660,16
3280292,12
3280920,11
3281536,12
3282164,18
3282784,29
3283412,35
3284040,41
3284656,43
3285284,42
3285904,35
3286532,29
3287160,16
3287784,11
3288412,12
3289032,17
3289656,25
3290284,32
3290900,36
3291532,35
3292152,36
3292776,37
3293408,37
3294032,38
3294660,37
3295288,30
3295912,23
3296540,18
3297164,12
3297792,12
3298420,14
3299036,21
3299668,31
3300292,38
3300912,47
3301544,48
3302160,43
3302788,32
3303412,22
3304036,13
3304664,10
3305288,11
3305916,16
3306544,27
3307164,37
3307792,40
3308416,41
3309044,38
3309672,31
3310296,31
3310924,31
3311548,31
3312172,29
3312800,25
3313416,18
3314048,13
3314672,11
3315296,17
3315924,23
3316548,32
3317176,40
3317808,43
3318424,39
3319052,34
3319676,30
3320304,21
3320936,11
3321552,9
3322132,14
3322760,25
3323388,30
3324020,34
3324640,36
3325268,41
3325892,40
3326516,39
3327148,35
3327768,32
3328400,27
3329020,27
3329644,25
3330272,20
3330896,14
3331524,10
3332152,16
3332772,27
3333400,39
3334024,46
3334652,40
3335280,38
3335904,34
3336532,32
3337156,21
3337780,11
3338408,11
3339024,20
3339652,32
3340276,39
3340900,40
3341528,37
3342152,34
3342780,37
3343408,34
3344032,33
3344660,29
3345284,29
3345912,27
3346540,20
3347160,17
3347788,11
3348412,15
3349036,24
3349668,32
3350288,40
3350916,45
3351540,48
3352164,49
3352796,40
3353420,27
3354052,14
3354680,10
3355296,16
3355928,24
3356552,27
3357180,35
3357812,38
3358432,41
3359060,40
3359684,40
3360308,38
3360936,34
3361560,29
3362188,25
3362808,16
3363432,16
3364060,13
3364684,11
3365312,16
3365940,24
3366560,31
3367188,35
3367812,40
3368440,43
3369068,37
3369688,30
3370316,19
3370940,11
3371560,12
3372192,21
3372808,28
3373436,32
3374060,37
3374684,41
3375312,43
3375936,47
3376568,41
3377196,34
3377816,29
3378444,23
3379068,18
3379700,11
3380328,10
3380944,11
3381576,14
3382196,19
3382820,30
3383448,39
3384072,43
3384700,49
3385324,47
3385948,40
3386576,27
3387192,16
3387820,9
3388392,13
3389024,19
3389652,27
3390276,33
3390908,37
3391536,43
3392156,43
3392784,45
3393408,36
3394036,34
3394664,32
3395288,30
3395916,25
3396540,20
3397164,13
3397792,10
3398412,11
3399040,20
3399664,31
3400288,41
3400916,43
3401540,41
3402168,40
3402796,35
3403416,27
3404044,15
3404668,10
3405300,19
3405928,28
3406544,30
3407172,38
3407796,40
3408420,41
3409052,36
3409672,29
3410300,26
3410924,31
3411548,31
3412176,25
3412800,19
3413428,15
3414060,11
3414680,12
3415308,17
3415932,27
3416564,32
3417192,38
3417816,39
3418444,41
3419068,37
3419692,33
3420324,26
3420944,14
3421572,11
3422196,21
3422820,27
3423452,34
3424076,38
3424704,43
3425332,41
3425952,41
3426580,39
3427204,39
3427836,34
3428464,26
3429088,24
3429716,22
3430344,17
3430968,11
3431596,11
3432216,24
3432844,36
3433468,44
3434096,49
3434724,50
3435348,46
3435980,38
3436612,22
3437232,15
3437860,11
3438488,11
3439112,19
3439740,30
3440360,38
3440988,41
3441612,41
3442236,38
3442864,40
3443484,38
3444112,37
3444740,32
3445360,28
3445988,21
3446612,16
3447244,11
3447872,11
3448488,15
3449120,26
3449744,36
3450372,41
3451004,42
3451624,43
3452252,37
3452876,29
3453500,24
3454132,14
3454752,9
3455328,16
3455960,25
3456584,29
3457212,36
3457832,36
3458460,32
3459092,32
3459712,37
3460340,37
3460964,37
3461596,35
3462224,26
3462848,19
3463476,13
3464100,10
3464724,11
3465352,19
3465976,26
3466604,31
3467228,35
3467852,39
3468484,40
3469104,35
3469732,29
3470364,20
3470984,12
3471612,11
3472240,21
3472868,31
3473496,36
3474120,39
3474748,40
3475372,37
3476000,39
3476628,38
3477248,35
3477876,29
3478504,21
3479128,20
3479756,16
3480376,15
3481004,11
3481636,12
3482252,20
3482884,31
3483504,39
3484136,43
3484764,40
3485384,39
3486012,34
3486636,30
3487260,19
3487892,10
3488512,13
3489140,20
3489764,26
3490388,29
3491016,31
3491640,35
3492268,38
3492900,39
3493520,40
3494148,39
3494772,35
3495404,30
3496032,24
3496652,19
3497280,14
3497904,11
3498528,14
3499156,24
3499776,32
3500404,39
3501032,42
3501656,40
3502284,35
3502904,33
3503532,27
3504164,16
3504784,11
3505412,18
3506036,27
3506668,34
3507300,38
3507920,38
3508548,37
3509172,38
3509796,40
3510428,36
3511048,31
3511676,25
3512304,20
3512928,18
3513556,15
3514184,12
3514816,11
3515444,16
3516064,26
3516696,33
3517320,43
3517952,47
3518580,43
3519200,36
3519832,27
3520456,16
3521080,11
3521708,14
3522328,22
3522956,24
3523580,26
3524208,33
3524836,36
3525460,39
3526088,40
3526716,34
3527336,34
3527964,36
3528588,31
3529220,25
3529848,16
3530464,12
3531096,11
3531720,17
3532344,25
3532976,32
3533592,33
3534220,37
3534844,40
3535472,40
3536100,36
3536724,26
3537352,16
3537984,10
3538600,16
3539232,25
3539856,30
3540484,34
3541112,36
3541736,37
3542368,42
3542992,42
3543616,41
3544244,35
3544864,29
3545492,27
3546124,25
3546744,22
3547372,15
3547996,11
3548628,21
3549260,30
3549880,36
3550508,43
3551136,45
3551760,45
3552392,37
3553008,31
3553636,23
3554260,12
3554884,10
3555516,18
3556136,27
3556764,32
3557396,34
3558016,35
3558648,40
3559272,43
3559900,43
3560532,42
3561152,38
3561784,32
3562408,22
3563032,15
3563660,11
3564280,12
3564908,14
3565532,23
3566156,29
3566788,37
3567408,41
3568036,35
3568668,28
3569288,27
3569916,24
3570544,17
3571172,10
3571804,23
3572424,26
3573056,27
3573680,28
3574304,24
3574936,22
3575552,26
3576184,28
3576808,32
3577432,34
3578064,36
3578684,35
3579312,29
3579944,24
3580564,17
3581196,12
3581820,16
3582452,25
3583084,34
3583704,43
3584336,45
3584960,48
3585584,43
3586212,38
3586832,23
3587460,11
3588084,12
3588708,16
3589336,25
3589960,35
3590592,43
3591220,43
3591840,43
3592468,47
3593092,45
3593724,36
3594356,29
3594976,22
3595604,17
3596228,14
3596852,11
3597484,12
3598104,13
3598732,20
3599356,30
3599984,39
3600616,43
3601240,43
3601868,35
3602500,32
3603120,26
3603752,19
3604376,15
3605000,11
3605628,26
3606248,39
3606876,42
3607500,46
3608124,41
3608752,38
3609372,37
3610000,36
3610628,27
3611248,25
3611876,23
3612500,18
3613128,15
3613760,11
3614376,11
3615008,14
3615628,22
3616260,33
3616888,37
3617504,42
3618136,42
3618760,39
3619384,34
3620012,30
3620632,20
3621260,11
3621884,12
3622512,22
3623140,28
3623764,39
3624396,42
3625024,39
3625640,39
3626272,37
3626896,36
3627524,37
3628152,30
3628772,26
3629400,20
3630024,19
3630652,16
3631280,11
3631900,11
3632532,19
3633160,21
3633780,31
3634408,34
3635032,33
3635664,25
3636296,18
3636912,14
3637540,9
3638116,12
3638748,14
3639380,10
3640000,20
3640628,27
3641252,29
3641876,30
3642508,22
3643128,26
3643756,28
3644384,34
3645008,39
3645636,35
3646256,28
3646884,20
3647516,16
3648136,14
3648764,11
3649388,21
3650016,34
3650648,47
3651264,54
3651892,54
3652516,49
3653140,38
3653772,24
3654392,17
3655024,11
3655648,15
3656272,24
3656900,34
3657520,40
3658152,36
3658780,38
3659400,41
3660028,38
3660656,32
3661284,28
3661916,31
3662536,30
3663164,23
3663792,20
3664416,15
3665044,11
3665664,15
3666292,22
3666916,29
3667540,35
3668172,30
3668792,25
3669420,27
3670052,21
3670672,12
3671304,11
3671928,14
3672560,17
3673188,13
3673808,22
3674436,29
3675064,34
3675688,38
3676316,38
3676936,39
3677568,36
3678192,37
3678816,27
3679448,23
3680072,16
3680700,20
3681332,21
3681952,23
3682580,33
3683204,44
3683836,57
3684468,62
3685088,49
3685720,25
3686344,12
3686968,12
3687596,22
3688216,27
3688844,27
3689468,28
3690096,33
3690724,28
3691348,30
3691976,23
3692608,18
3693224,23
3693852,27
3694476,32
3695108,30
3695736,34
3696356,35
3696984,32
3697608,22
3698228,15
3698860,12
3699480,23
3700108,22
3700732,18
3701360,25
3701988,27
3702612,30
3703244,14
3703872,11
3704496,13
3705124,12
3705748,11
3706376,24
3707004,28
3707624,18
3708252,29
3708876,37
3709500,40
3710132,40
3710752,34
3711384,41
3712012,50
3712632,52
3713260,42
3713884,16
3714512,17
3715144,31
3715764,45
3716392,70
3717016,76
3717640,47
3718268,34
3718888,24
3719516,23
3720140,21
3720764,24
3721396,12
3722016,17
3722644,37
3723276,42
3723896,52
3724528,75
3725152,91
3725780,87
3726412,88
3727032,89
3727664,76
3728288,33
3728912,13
3729540,59
3730160,73
3730788,53
3731412,66
3732036,92
3732668,84
3733288,71
3733916,71
3734548,53
3735168,36
3735800,19
3736424,9
3737000,20
3737640,46
3738256,72
3738884,77
3739508,67
3740140,63
3740768,60
3741392,61
3742024,52
3742648,30
3743272,25
3743904,20
3744520,13
3745152,12
3745776,37
3746400,41
3747028,14
3747656,14
3748284,13
3748916,27
3749536,43
3750168,55
3750792,59
3751424,46
3752052,33
3752672,29
3753304,20
3753928,31
3754552,87
3755184,135
3755852,133
3756532,130
3757212,120
3757884,68
3758512,30
3759144,88
3759760,97
3760392,70
3761016,46
3761648,19
3762276,10
3762896,12
3763528,14
3764152,16
3764776,16
3765404,12
3766024,26
3766656,37
3767280,40
3767904,30
3768536,30
3769160,29
3769788,20
3770420,12
3771040,11
3771668,11
3772296,22
3772924,33
3773556,48
3774176,59
3774808,58
3775432,54
3776056,57
3776684,40
3777304,33
3777932,35
3778556,29
3779184,22
3779816,12
3780440,11
3781068,15
3781700,26
3782320,37
3782952,49
3783576,48
3784200,46
3784828,46
3785448,31
3786080,23
3786704,25
3787328,11
3787960,32
3788580,44
3789208,40
3789840,50
3790456,45
3791084,37
3791712,33
3792340,34
3792972,40
3793592,27
3794224,12
3794848,27
3795472,17
3796100,27
3796720,38
3797352,37
3797976,21
3798600,14
3799232,24
3799848,18
3800480,24
3801108,28
3801728,37
3802356,51
3802984,53
3803612,23
3804244,11
3804864,39
3805492,62
3806120,63
3806744,48
3807372,26
3807992,13
3808624,17
3809248,17
3809872,15
3810500,18
3811120,35
3811752,41
3812380,31
3813000,15
3813632,17
3814256,28
3814888,32
3815516,28
3816136,31
3816768,33
3817392,33
3818016,37
3818648,30
3819264,30
3819896,24
3820520,21
3821144,17
3821776,10
3822392,27
3823024,37
3823656,45
3824276,45
3824904,41
3825528,37
3826160,36
3826792,37
3827412,39
3828044,37
3828668,36
3829292,34
3829924,38
3830544,29
3831176,14
3831800,21
3832424,46
3833056,60
3833680,49
3834312,35
3834944,23
3835560,11
3836192,16
3836820,21
3837448,15
3838080,19
3838696,36
3839332,15
3839956,32
3840584,28
3841212,24
3841832,24
3842460,37
3843092,62
3843712,64
3844340,57
3844964,42
3845596,33
3846224,27
3846848,20
3847476,10
3848100,15
3848724,21
3849356,15
3849976,39
3850608,38
3851228,30
3851852,37
3852484,59
3853104,59
3853732,74
3854364,79
3854984,32
3855612,12
3856236,33
3856868,22
3857496,16
3858116,19
3858744,39
3859368,42
3859992,62
3860620,77
3861240,77
3861868,61
3862492,31
3863116,11
3863748,12
3864368,30
3864996,18
3865628,18
3866248,39
3866876,51
3867500,44
3868132,42
3868764,29
3869384,18
3870016,17
3870640,17
3871264,13
3871896,45
3872512,45
3873144,45
3873768,37
3874392,22
3875020,14
3875640,33
3876272,38
3876904,30
3877520,37
3878152,44
3878776,38
3879404,28
3880036,18
3880656,25
3881284,59
3881908,13
3882536,14
3883164,22
3883784,18
3884416,28
3885040,39
3885664,29
3886296,34
3886920,20
3887548,14
3888180,35
3888800,14
3889428,50
3890056,71
3890684,51
3891316,34
3891936,39
3892564,33
3893188,19
3893812,15
3894440,22
3895064,16
3895692,11
3896316,11
3896944,12
3897572,16
3898200,18
3898828,16
3899460,14
3900080,29
3900712,53
3901336,61
3901960,63
3902592,58
3903208,31
3903840,14
3904464,10
3905088,17
3905716,32
3906336,63
3906968,81
3907596,82
3908216,61
3908844,26
3909472,15
3910100,12
3910732,14
3911352,11
3911984,31
3912608,34
3913232,21
3913864,16
3914480,29
3915108,29
3915736,37
3916360,44
3916992,46
3917608,46
3918236,44
3918868,30
3919488,19
3920120,12
3920744,16
3921372,17
3922004,16
3922624,18
3923252,22
3923876,37
3924504,66
3925132,84
3925752,97
3926384,89
3927008,48
3927632,13
3928264,14
3928880,14
3929512,16
3930144,23
3930764,38
3931396,27
3932020,20
3932652,26
3933280,34
3933900,24
3934528,18
3935152,14
3935776,11
3936408,17
3937024,15
3937652,10
3938276,21
3938900,30
3939532,17
3940152,36
3940780,33
3941412,20
3942032,20
3942664,25
3943284,31
3943916,36
3944544,36
3945168,31
3945796,26
3946420,20
3947044,16
3947672,10
3948296,19
3948924,36
3949548,39
3950172,37
3950804,34
3951428,29
3952060,32
3952688,46
3953312,39
3953940,35
3954564,13
3955196,24
3955828,52
3956448,58
3957076,42
3957704,34
3958328,45
3958956,68
3959576,94
3960208,126
3960888,124
3961556,96
3962184,46
3962808,13
3963432,61
3964064,88
3964680,69
3965312,77
3965936,68
3966560,50
3967192,27
3967816,53
3968448,76
3969076,66
3969696,44
3970324,25
3970948,17
3971580,11
3972212,14
3972832,25
3973460,40
3974084,59
3974708,73
3975340,93
3975960,116
3976640,120
3977320,96
3977944,81
3978572,47
3979196,16
3979824,57
3980452,78
3981072,87
3981700,63
3982328,37
3982952,42
3983580,53
3984208,49
3984836,36
3985468,48
3986088,51
3986716,30
3987344,13
3987972,11
3988604,18
3989224,30
3989856,44
3990480,53
3991104,71
3991736,67
3992352,54
3992984,37
3993616,23
3994232,10
3994860,11
3995488,19
3996116,14
3996748,10
3997368,11
3998000,13
3998624,20
3999248,33
3999880,40
4000496,45
4001128,46
4001748,39
4002372,32
4003004,22
4003624,14
4004252,11
4004884,16
4005504,16
4006132,18
4006756,56
4007388,81
4008016,90
4008632,81
4009260,61
4009884,32
4010508,12
4011140,12
4011760,15
4012388,36
4013016,22
4013640,11
4014268,11
4014888,14
4015516,37
4016148,29
4016768,25
4017396,27
4018020,27
4018648,36
4019280,38
4019896,20
4020524,10
4021148,18
4021772,43
4022400,28
4023016,16
4023648,11
4024272,13
4024896,19
4025524,37
4026144,43
4026772,47
4027404,33
4028024,25
4028652,23
4029276,23
4029908,13
4030540,10
4031160,11
4031792,17
4032416,25
4033040,29
4033668,30
4034288,29
4034916,28
4035540,29
4036164,35
4036796,39
4037416,25
4038044,11
4038676,18
4039296,41
4039924,44
4040552,39
4041180,39
4041812,39
4042432,45
4043060,48
4043684,39
4044308,24
4044940,10
4045560,13
4046188,15
4046812,19
4047436,18
4048068,11
4048688,12
4049316,22
4049948,32
4050568,19
4051196,35
4051824,50
4052452,31
4053084,16
4053704,58
4054336,74
4054960,51
4055584,42
4056212,20
4056832,17
4057460,15
4058088,47
4058708,61
4059340,50
4059960,37
4060592,27
4061220,26
4061840,19
4062468,11
4063096,10
4063724,11
4064356,10
4064976,11
4065604,14
4066228,17
4066852,21
4067484,28
4068104,41
4068732,49
4069360,33
4069984,19
4070616,11
4071240,25
4071868,33
4072500,30
4073120,15
4073748,23
4074376,27
4075008,45
4075636,61
4076256,64
4076888,38
4077512,24
4078136,11
4078764,10
4079384,11
4080016,12
4080636,10
4081264,11
4081896,11
4082520,14
4083148,21
4083780,38
4084400,40
4085028,30
4085656,33
4086280,47
4086912,35
4087528,11
4088160,19
4088784,38
4089408,53
4090040,52
4090656,46
4091288,92
4091920,99
4092536,86
4093168,80
4093796,35
4094428,11
4095056,39
4095680,117
4096364,80
4096980,28
4097604,15
4098228,24
4098844,42
4099476,40
4100104,33
4100720,30
4101348,30
4101968,30
4102600,29
4103228,20
4103848,16
4104476,15
4105096,13
4105724,28
4106352,37
4106976,42
4107604,46
4108224,50
4108848,46
4109476,39
4110096,35
4110724,30
4111348,23
4111968,18
4112600,14
4113224,16
4113852,14
4114480,22
4115096,23
4115728,16
4116352,19
4116980,25
4117608,56
4118232,55
4118860,55
4119484,56
4120108,41
4120736,11
4121352,25
4121984,25
4122604,15
4123228,12
4123856,46
4124480,65
4125108,76
4125736,78
4126360,78
4126988,65
4127612,39
4128244,13
4128868,27
4129488,19
4130116,13
4130740,18
4131360,28
4131992,65
4132608,67
4133240,53
4133860,35
4134484,17
4135116,10
4135736,11
4136364,10
4136996,10
4137616,11
4138244,20
4138864,40
4139496,24
4140124,42
4140744,51
4141372,33
4141996,14
4142620,21
4143252,18
4143872,15
4144500,24
4145124,48
4145748,41
4146380,16
4147000,13
4147628,16
4148260,40
4148880,28
4149508,31
4150132,22
4150760,15
4151388,17
4152008,18
4152636,10
4153260,35
4153884,63
4154512,34
4155136,21
4155764,17
4156392,11
4157016,30
4157644,48
4158264,56
4158892,52
4159524,48
4160144,40
4160772,34
4161396,25
4162024,20
4162652,26
4163272,25
4163900,16
4164524,11
4165144,15
4165772,22
4166392,24
4167020,30
4167644,30
4168268,29
4168896,50
4169520,43
4170148,21
4170776,20
4171400,15
4172028,11
4172652,15
4173284,22
4173912,31
4174528,46
4175160,52
4175784,49
4176408,49
4177036,38
4177656,25
4178284,25
4178908,26
4179532,15
4180160,13
4180776,13
4181404,17
4182036,17
4182656,14
4183284,19
4183908,42
4184536,65
4185168,68
4185784,55
4186412,26
4187036,14
4187660,9
4188236,11
4188860,15
4189492,19
4190112,26
4190736,31
4191368,48
4191984,52
4192616,53
4193240,60
4193864,55
4194492,42
4195112,31
4195744,11
4196372,18
4196992,29
4197620,30
4198244,12
4198876,24
4199504,75
4200128,104
4200808,100
4201480,91
4202104,29
4202732,10
4203356,10
4203984,14
4204616,13
4205232,12
4205860,24
4206484,38
4207108,47
4207740,38
4208360,49
4208988,49
4209612,30
4210236,28
4210864,24
4211488,26
4212116,27
4212748,28
4213368,21
4213996,11
4214620,14
4215252,24
4215880,38
4216504,42
4217132,44
4217756,44
4218380,36
4219012,32
4219632,32
4220260,13
4220884,26
4221508,44
4222136,51
4222760,49
4223388,33
4224020,25
4224636,30
4225268,25
4225888,28
4226520,26
4227148,26
4227768,23
4228396,26
4229020,27
4229644,27
4230276,18
4230896,11
4231524,17
4232148,26
4232772,27
4233400,27
4234024,42
4234652,62
4235284,60
4235904,27
4236536,14
4237160,18
4237788,35
4238420,44
4239040,31
4239668,50
4240292,34
4240916,38
4241548,24
4242168,15
4242796,17
4243420,11
4244044,25
4244672,16
4245296,12
4245924,20
4246556,18
4247176,13
4247804,11
4248432,17
4249060,32
4249692,44
4250312,51
4250940,51
4251564,45
4252188,29
4252816,22
4253440,15
4254068,11
4254692,13
4255316,16
4255948,36
4256568,47
4257196,48
4257828,34
4258448,29
4259076,40
4259704,43
4260332,46
4260964,43
4261584,41
4262212,47
4262836,37
4263460,25
4264088,16
4264704,12
4265332,31
4265956,55
4266580,72
4267208,72
4267832,52
4268460,32
4269092,35
4269712,40
4270340,40
4270964,24
4271596,21
4272224,26
4272848,31
4273476,34
4274100,38
4274724,38
4275356,39
4275976,44
4276604,42
4277228,42
4277852,36
4278484,33
4279108,28
4279736,21
4280364,10
4280984,13
4281612,17
4282236,22
4282864,27
4283496,35
4284112,43
4284744,51
4285368,51
4285992,40
4286624,23
4287240,13
4287868,10
4288496,17
4289116,22
4289748,38
4290372,59
4291004,71
4291632,71
4292252,81
4292880,65
4293504,38
4294132,35
4294764,17
4295384,24
4296012,11
4296636,10
4297260,14
4297892,16
4298512,27
4299140,42
4299768,43
4300392,42
4301024,37
4301644,34
4302276,33
4302904,26
4303520,19
4304152,17
4304776,11
4305404,16
4306032,20
4306656,17
4307284,23
4307908,26
4308532,38
4309160,43
4309776,42
4310408,41
4311032,36
4311656,33
4312288,32
4312912,31
4313540,19
4314172,16
4314792,12
4315424,25
4316048,26
4316676,36
4317308,40
4317928,46
4318556,56
4319184,49
4319808,19
4320440,16
4321056,10
4321684,19
4322316,24
4322936,30
4323564,32
4324188,36
4324820,29
4325448,27
4326064,37
4326696,48
4327320,61
4327944,77
4328572,86
4329192,85
4329820,86
4330444,49
4331068,14
4331700,42
4332320,103
4333000,104
4333680,95
4334304,99
4334936,82
4335560,62
4336184,45
4336812,16
4337432,12
4338060,21
4338684,34
4339312,42
4339940,42
4340564,34
4341196,35
4341828,40
4342448,34
4343076,33
4343700,32
4344328,37
4344956,36
4345576,37
4346208,30
4346832,23
4347456,16
4348084,21
4348704,66
4349336,68
4349964,50
4350584,42
4351216,31
4351840,30
4352472,25
4353100,20
4353720,13
4354348,13
4354972,24
4355596,30
4356224,37
4356848,38
4357476,38
4358100,40
4358724,42
4359352,41
4359976,43
4360604,40
4361236,36
4361856,27
4362484,23
4363108,24
4363740,13
4364368,11
4364988,17
4365616,35
4366240,43
4366860,47
4367492,44
4368112,43
4368740,31
4369364,23
4369988,24
4370616,17
4371240,11
4371868,13
4372500,31
4373120,54
4373748,76
4374372,89
4375004,92
4375636,56
4376256,25
4376888,17
4377512,19
4378136,23
4378764,19
4379384,39
4380016,61
4380640,70
4381264,43
4381892,16
4382512,48
4383144,90
4383772,110
4384444,84
4385068,78
4385692,30
4386316,12
4386948,17
4387568,10
4388196,15
4388820,11
4389444,19
4390076,28
4390696,35
4391324,34
4391956,34
4392576,36
4393208,44
4393832,55
4394460,56
4395092,57
4395712,43
4396344,27
4396968,20
4397592,15
4398224,11
4398840,27
4399472,77
4400096,107
4400772,86
4401400,64
4402024,50
4402652,33
4403284,18
4403904,13
4404532,25
4405156,44
4405780,49
4406408,41
4407024,36
4407656,35
4408280,45
4408904,44
4409532,47
4410152,59
4410784,61
4411412,53
4412032,28
4412664,11
4413288,11
4413916,27
4414548,38
4415168,27
4415800,33
4416424,30
4417048,30
4417676,22
4418296,27
4418924,40
4419548,47
4420172,29
4420804,13
4421424,14
4422056,24
4422684,30
4423304,27
4423936,33
4424560,40
4425188,44
4425816,47
4426440,45
4427068,40
4427692,35
4428316,36
4428948,32
4429568,26
4430196,22
4430820,16
4431444,13
4432076,35
4432696,51
4433324,54
4433956,52
4434576,50
4435204,44
4435828,45
4436460,29
4437088,18
4437712,15
4438344,9
4438916,13
4439552,32
4440180,35
4440800,47
4441428,57
4442056,55
4442680,41
4443308,27
4443928,26
4444560,22
4445184,27
4445808,24
4446436,17
4447064,11
4447692,15
4448324,25
4448944,34
4449572,39
4450200,41
4450824,41
4451452,37
4452072,37
4452704,35
4453328,23
4453952,10
4454584,17
4455200,31
4455828,37
4456460,38
4457080,40
4457708,37
4458336,50
4458964,57
4459596,46
4460216,30
4460848,26
4461468,25
4462092,24
4462724,18
4463344,13
4463976,11
4464600,25
4465228,36
4465856,37
4466476,31
4467104,21
4467736,25
4468356,36
4468984,33
4469612,16
4470240,11
4470872,16
4471488,28
4472120,16
4472744,11
4473368,11
4474000,18
4474616,34
4475248,39
4475872,37
4476500,28
4477128,36
4477752,49
4478384,47
4479016,36
4479636,27
4480268,15
4480892,37
4481520,23
4482148,23
4482768,45
4483396,56
4484020,52
4484644,53
4485272,38
4485896,18
4486524,13
4487148,14
4487772,22
4488400,10
4489024,12
4489652,28
4490284,32
4490904,31
4491532,40
4492156,44
4492788,50
4493420,46
4494040,38
4494672,28
4495296,21
4495920,21
4496552,11
4497168,17
4497796,18
4498424,21
4499048,32
4499676,34
4500304,37
4500932,44
4501564,44
4502184,38
4502816,26
4503440,11
4504072,23
4504700,48
4505320,63
4505952,57
4506576,35
4507196,21
4507828,14
4508448,18
4509076,21
4509708,42
4510328,51
4510956,41
4511580,27
4512212,28
4512840,27
4513464,16
4514092,11
4514716,21
4515340,32
4515972,34
4516592,35
4517220,37
4517844,38
4518468,45
4519096,38
4519720,23
4520348,15
4520980,10
4521600,20
4522228,27
4522852,41
4523484,51
4524112,47
4524736,49
4525368,45
4525992,19
4526616,25
4527244,15
4527864,21
4528496,23
4529116,29
4529744,33
4530372,17
4530992,10
4531624,13
4532252,28
4532872,50
4533500,59
4534128,50
4534756,42
4535388,26
4536008,15
4536636,11
4537264,13
4537888,21
4538516,20
4539136,28
4539768,31
4540392,45
4541016,47
4541648,41
4542264,31
4542896,23
4543524,23
4544144,26
4544772,28
4545396,37
4546028,38
4546660,30
4547280,20
4547908,11
4548532,35
4549156,47
4549788,38
4550408,27
4551036,18
4551664,19
4552288,23
4552916,62
4553544,76
4554176,33
4554804,11
4555424,22
4556056,35
4556680,36
4557312,45
4557940,42
4558560,23
4559188,25
4559816,27
4560440,32
4561068,33
4561688,38
4562316,44
4562940,38
4563568,35
4564196,21
4564820,12
4565452,42
4566084,52
4566704,59
4567336,62
4567960,47
4568584,36
4569216,26
4569832,18
4570460,10
4571088,16
4571712,30
4572340,41
4572960,37
4573588,30
4574220,27
4574840,28
4575472,34
4576096,31
4576724,24
4577356,30
4577976,31
4578608,21
4579232,18
4579856,20
4580484,15
4581104,12
4581736,25
4582360,35
4582984,37
4583616,37
4584236,40
4584864,45
4585496,52
4586116,43
4586748,29
4587372,13
4588004,11
4588632,20
4589256,33
4589884,49
4590508,61
4591132,64
4591764,58
4592384,54
4593016,45
4593640,38
4594260,36
4594892,32
4595512,23
4596144,11
4596772,18
4597392,17
4598024,35
4598648,37
4599276,41
4599908,41
4600528,31
4601156,26
4601784,24
4602408,21
4603036,20
4603656,19
4604288,10
4604912,15
4605536,25
4606168,29
4606792,28
4607424,29
4608056,44
4608668,55
4609300,51
4609920,47
4610548,36
4611180,22
4611800,15
4612428,14
4613052,14
4613676,13
4614308,10
4614928,21
4615556,41
4616180,57
4616804,58
4617436,53
4618060,44
4618688,34
4619320,26
4619936,19
4620564,11
4621188,14
4621820,27
4622448,39
4623072,39
4623704,37
4624328,36
4624948,33
4625580,32
4626200,38
4626828,45
4627452,40
4628080,38
4628708,31
4629332,20
4629964,11
4630592,10
4631216,13
4631844,15
4632468,13
4633096,15
4633724,17
4634344,37
4634972,60
4635596,53
4636220,51
4636852,59
4637472,36
4638100,12
4638732,18
4639352,25
4639984,24
4640608,33
4641236,45
4641868,52
4642488,57
4643116,57
4643740,55
4644368,45
4644996,36
4645616,25
4646244,11
4646872,33
4647496,42
4648124,28
4648744,32
4649372,37
4650004,36
4650624,38
4651252,27
4651876,19
4652508,15
4653140,19
4653760,16
4654388,9
4654964,10
4655596,10
4656228,18
4656848,34
4657476,53
4658104,56
4658728,42
4659356,38
4659976,33
4660604,28
4661228,27
4661852,34
4662484,36
4663108,34
4663736,24
4664368,10
4664984,36
4665616,58
4666240,55
4666868,52
4667500,50
4668120,45
4668752,38
4669376,24
4670000,11
4670628,16
4671248,26
4671876,32
4672504,32
4673128,27
4673756,25
4674380,28
4675012,40
4675640,41
4676264,40
4676892,30
4677516,27
4678148,29
4678780,26
4679400,27
4680032,31
4680652,28
4681276,24
4681908,16
4682528,25
4683156,59
4683788,66
4684408,71
4685040,63
4685660,49
4686292,31
4686924,18
4687544,11
4688172,12
4688796,22
4689424,31
4690052,35
4690672,35
4691304,31
4691928,32
4692552,35
4693180,32
4693800,31
4694432,35
4695060,42
4695680,49
4696308,68
4696936,79
4697568,65
4698196,32
4698816,33
4699448,93
4700072,88
4700696,61
4701328,55
4701944,54
4702576,51
4703200,39
4703824,28
4704456,10
4705072,17
4705704,25
4706336,18
4706956,20
4707588,30
4708212,39
4708844,41
4709472,42
4710096,36
4710728,29
4711352,24
4711976,13
4712608,10
4713224,11
4713852,12
4714480,13
4715104,14
4715732,16
4716360,30
4716988,38
4717620,49
4718240,49
4718868,38
4719496,23
4720128,12
4720756,14
4721376,25
4722004,31
4722632,31
4723256,30
4723884,35
4724504,40
4725132,42
4725756,44
4726384,45
4727016,43
4727640,37
4728272,28
4728900,17
4729520,11
4730152,25
4730776,40
4731400,27
4732032,28
4732648,28
4733280,41
4733904,49
4734528,47
4735160,31
4735780,15
4736412,10
4737040,14
4737660,21
4738288,35
4738912,40
4739540,45
4740172,45
4740792,47
4741424,41
4742048,40
4742672,32
4743304,15
4743920,10
4744552,11
4745176,13
4745800,12
4746432,10
4747048,15
4747680,23
4748308,32
4748928,35
4749560,32
4750184,27
4750816,27
4751444,18
4752064,15
4752692,10
4753316,16
4753940,25
4754572,24
4755192,25
4755824,25
4756448,33
4757072,43
4757704,58
4758320,52
4758952,20
4759584,21
4760204,10
4760832,11
4761456,12
4762088,13
4762720,10
4763336,11
4763968,17
4764592,32
4765216,35
4765848,34
4766464,26
4767096,21
4767720,18
4768344,15
4768972,16
4769592,13
4770224,11
4770852,10
4771472,24
4772104,32
4772728,37
4773360,40
4773988,43
4774608,42
4775236,34
4775864,31
4776488,30
4777120,30
4777736,25
4778368,15
4778992,13
4779616,20
4780248,24
4780872,23
4781500,25
4782132,26
4782752,29
4783384,32
4784008,35
4784636,21
4785268,16
4785888,14
4786520,10
4787144,12
4787772,17
4788404,20
4789024,27
4789656,34
4790288,33
4790904,28
4791536,31
4792164,29
4792796,23
4793428,18
4794048,20
4794680,32
4795304,32
4795928,22
4796560,17
4797180,18
4797812,13
4798436,16
4799060,23
4799692,58
4800312,83
4800944,50
4801572,30
4802192,21
4802820,10
4803444,9
4804024,15
4804652,22
4805272,29
4805900,35
4806528,34
4807156,32
4807788,32
4808408,27
4809036,25
4809660,24
4810284,19
4810916,15
4811536,16
4812168,12
4812792,10
4813416,12
4814044,16
4814668,21
4815300,29
4815932,31
4816552,31
4817180,25
4817804,22
4818436,27
4819068,20
4819688,12
4820316,11
4820940,15
4821568,22
4822196,25
4822816,33
4823448,37
4824076,44
4824696,48
4825324,41
4825952,33
4826580,23
4827212,17
4827832,11
4828464,10
4829088,10
4829712,12
4830344,11
4830960,17
4831592,25
4832216,29
4832840,33
4833472,36
4834092,35
4834720,26
4835348,19
4835968,13
4836596,10
4837224,13
4837852,19
4838484,51
4839104,93
4839732,108
4840408,110
4841084,82
4841708,23
4842332,26
4842964,26
4843596,52
4844216,48
4844844,19
4845468,11
4846092,11
4846724,10
4847344,13
4847976,18
4848600,27
4849224,32
4849856,30
4850472,25
4851104,23
4851736,22
4852352,18
4852984,11
4853608,26
4854240,35
4854868,36
4855488,29
4856120,17
4856744,14
4857368,15
4858000,24
4858616,28
4859248,28
4859872,23
4860496,13
4861128,11
4861744,11
4862376,15
4863008,13
4863628,10
4864260,18
4864884,31
4865512,41
4866140,41
4866760,31
4867388,24
4868012,15
4868636,10
4869268,11
4869888,17
4870516,21
4871144,22
4871768,25
4872396,27
4873016,25
4873648,26
4874276,26
4874896,27
4875524,26
4876148,22
4876780,21
4877412,18
4878032,16
4878664,15
4879288,11
4879912,11
4880544,13
4881160,19
4881792,32
4882416,41
4883040,40
4883672,36
4884296,21
4884924,12
4885556,32
4886176,54
4886808,63
4887432,48
4888060,11
4888692,23
4889312,25
4889944,29
4890568,15
4891192,32
4891824,44
4892440,40
4893072,25
4893704,17
4894320,17
4894952,16
4895576,11
4896208,13
4896836,18
4897456,22
4898084,24
4898712,25
4899336,29
4899968,29
4900584,35
4901216,21
4901840,12
4902464,11
4903092,20
4903712,34
4904344,39
4904972,39
4905592,37
4906224,33
4906848,17
4907480,14
4908112,14
4908732,19
4909364,19
4909988,17
4910612,17
4911244,15
4911864,14
4912496,13
4913124,11
4913748,17
4914380,25
4915004,33
4915636,33
4916264,31
4916880,27
4917508,24
4918132,17
4918764,10
4919392,11
4920016,17
4920644,17
4921268,20
4921892,26
4922520,28
4923144,24
4923772,19
4924396,25
4925024,28
4925652,29
4926276,29
4926908,23
4927536,17
4928156,14
4928784,11
4929408,11
4930036,19
4930668,25
4931288,25
4931916,23
4932540,15
4933164,24
4933796,28
4934416,20
4935044,16
4935668,10
4936292,10
4936924,14
4937548,27
4938176,17
4938808,10
4939424,35
4940056,43
4940680,34
4941312,18
4941940,14
4942560,16
4943188,17
4943812,11
4944440,11
4945068,10
4945688,19
4946316,25
4946940,22
4947568,19
4948196,17
4948820,23
4949452,29
4950084,31
4950704,34
4951336,27
4951960,14
4952584,13
4953216,26
4953832,29
4954464,25
4955088,23
4955712,24
4956344,27
4956960,36
4957588,36
4958220,34
4958840,31
4959472,27
4960096,24
4960724,20
4961352,16
4961976,12
4962604,10
4963228,11
4963852,16
4964484,22
4965104,30
4965736,30
4966360,34
4966984,29
4967612,25
4968232,20
4968860,11
4969492,11
4970112,17
4970740,24
4971368,29
4971996,29
4972628,29
4973248,31
4973876,31
4974504,29
4975128,27
4975756,22
4976376,19
4977008,17
4977632,17
4978256,17
4978884,14
4979504,13
4980132,11
4980764,10
4981384,14
4982016,15
4982640,16
4983268,18
4983900,22
4984520,28
4985148,43
4985776,41
4986400,37
4987028,31
4987648,16
4988276,20
4988904,29
4989528,27
4990156,32
4990776,37
4991408,39
4992040,39
4992656,37
4993284,45
4993908,39
4994540,30
4995172,10
4995792,12
4996424,11
4997048,12
4997672,22
4998300,34
4998920,42
4999548,43
5000176,43
5000796,39
5001428,31
5002052,22
5002684,13
5003312,10
5003936,16
5004568,25
5005192,30
5005820,31
5006452,32
5007072,35
5007704,30
5008328,30
5008952,28
5009580,24
5010200,23
5010832,15
5011460,11
5012080,13
5012712,14
5013336,13
5013964,11
5014596,11
5015216,18
5015848,21
5016472,27
5017096,31
5017728,36
5018344,31
5018976,18
5019600,12
5020224,11
5020852,14
5021472,21
5022104,25
5022732,31
5023352,33
5023984,29
5024608,29
5025236,46
5025868,70
5026488,81
5027120,77
5027744,61
5028368,14
5028996,42
5029616,55
5030248,69
5030872,54
5031496,33
5032128,24
5032744,27
5033376,31
5034008,28
5034628,19
5035260,12
5035884,11
5036516,13
5037148,14
5037768,14
5038400,20
5039024,19
5039648,24
5040280,25
5040896,27
5041524,31
5042152,38
5042776,41
5043408,27
5044024,19
5044652,11
5045284,10
5045904,11
5046536,11
5047160,12
5047792,16
5048420,23
5049040,32
5049672,33
5050296,33
5050920,27
5051548,25
5052168,25
5052800,23
5053424,16
5054048,10
5054680,23
5055304,31
5055936,34
5056568,40
5057188,54
5057816,73
5058444,73
5059072,48
5059704,19
5060324,16
5060956,13
5061580,10
5062204,10
5062836,11
5063456,25
5064088,33
5064716,23
5065336,27
5065968,30
5066592,33
5067224,33
5067856,32
5068472,26
5069104,13
5069732,10
5070356,13
5070988,18
5071608,25
5072240,33
5072864,36
5073488,34
5074120,32
5074740,34
5075368,31
5076000,30
5076620,28
5077252,23
5077876,20
5078508,19
5079140,16
5079760,11
5080392,12
5081016,13
5081640,15
5082268,19
5082888,22
5083516,29
5084144,34
5084768,34
5085400,30
5086024,21
5086656,12
5087288,15
5087904,24
5088536,24
5089164,24
5089792,30
5090424,35
5091044,38
5091676,38
5092300,33
5092928,34
5093556,31
5094176,26
5094812,22
5095440,16
5096064,12
5096696,11
5097320,17
5097952,27
5098584,34
5099200,44
5099832,49
5100456,45
5101080,29
5101712,23
5102332,16
5102964,10
5103588,11
5104216,17
5104848,23
5105464,27
5106096,29
5106728,30
5107348,30
5107980,33
5108608,35
5109236,37
5109868,33
5110488,26
5111120,16
5111744,12
5112372,11
5113004,10
5113624,11
5114256,16
5114888,26
5115512,32
5116144,41
5116772,38
5117404,36
5118036,32
5118660,28
5119292,21
5119920,11
5120548,16
5121176,30
5121792,43
5122420,47
5123044,45
5123664,44
5124296,47
5124912,37
5125540,30
5126168,30
5126792,18
5127420,16
5128044,17
5128672,11
5129300,11
5129920,13
5130548,21
5131172,27
5131796,31
5132428,35
5133048,37
5133676,36
5134300,33
5134924,29
5135556,24
5136176,16
5136804,10
5137432,15
5138056,21
5138684,23
5139308,27
5139940,35
5140568,42
5141192,51
5141820,46
5142444,38
5143068,34
5143696,29
5144320,19
5144948,13
5145572,11
5146196,13
5146828,10
5147448,14
5148076,16
5148708,14
5149328,17
5149956,43
5150584,63
5151212,59
5151844,52
5152464,42
5153092,19
5153716,10
5154340,10
5154972,12
5155592,22
5156224,28
5156848,36
5157472,41
5158100,46
5158724,44
5159356,37
5159988,26
5160608,26
5161236,30
5161860,28
5162492,31
5163120,29
5163740,16
5164368,12
5164992,23
5165616,37
5166244,45
5166864,63
5167492,64
5168116,43
5168740,26
5169372,12
5169996,9
5170576,10
5171204,17
5171824,22
5172452,33
5173076,37
5173708,33
5174336,29
5174960,30
5175588,29
5176216,30
5176840,36
5177468,33
5178088,35
5178716,28
5179344,15
5179968,16
5180596,20
5181216,24
5181848,36
5182476,43
5183096,45
5183728,44
5184352,35
5184980,23
5185608,16
5186232,13
5186860,11
5187484,17
5188108,17
5188740,24
5189360,35
5189988,36
5190616,35
5191240,35
5191868,30
5192488,28
5193116,30
5193748,34
5194368,28
5194996,18
5195624,16
5196252,11
5196884,11
5197504,12
5198132,19
5198760,26
5199384,39
5200012,46
5200632,47
5201260,47
5201888,49
5202512,36
5203140,24
5203760,15
5204388,12
5205020,31
5205640,40
5206268,41
5206896,48
5207524,50
5208156,44
5208776,41
5209404,44
5210032,44
5210656,37
5211284,27
5211904,21
5212536,11
5213160,19
5213784,27
5214412,35
5215032,51
5215664,45
5216296,35
5216912,32
5217544,25
5218168,27
5218796,23
5219428,12
5220048,11
5220676,17
5221304,25
5221928,35
5222560,35
5223176,39
5223804,45
5224428,54
5225052,53
5225684,61
5226308,44
5226936,25
5227564,18
5228184,16
5228812,10
5229436,10
5230068,11
5230700,23
5231320,43
5231952,54
5232576,53
5233200,50
5233828,45
5234448,36
5235080,30
5235704,26
5236328,19
5236956,10
5237584,12
5238216,23
5238844,35
5239464,43
5240096,50
5240720,53
5241348,56
5241980,45
5242600,40
5243232,29
5243852,21
5244476,10
5245104,14
5245728,11
5246356,14
5246988,10
5247608,12
5248236,26
5248860,35
5249488,44
5250116,44
5250736,45
5251364,35
5251988,22
5252612,11
5253244,10
5253864,13
5254492,16
5255112,22
5255736,33
5256368,39
5256984,43
5257612,34
5258236,30
5258864,32
5259492,32
5260116,35
5260748,35
5261376,30
5262000,26
5262628,31
5263252,23
5263880,11
5264508,14
5265128,22
5265756,33
5266380,40
5267004,45
5267632,56
5268256,53
5268884,40
5269512,31
5270136,13
5270764,17
5271388,22
5272020,27
5272648,30
5273272,34
5273904,32
5274524,40
5275148,38
5275780,30
5276400,25
5277028,32
5277652,27
5278276,25
5278908,26
5279528,17
5280156,10
5280788,17
5281408,34
5282036,41
5282660,45
5283288,47
5283916,46
5284536,41
5285164,29
5285788,18
5286408,12
5287036,10
5287656,17
5288284,22
5288908,28
5289532,41
5290160,51
5290776,50
5291408,50
5292036,56
5292656,63
5293284,60
5293908,41
5294540,23
5295168,13
5295788,11
5296416,13
5297040,12
5297668,13
5298296,33
5298920,53
5299548,58
5300172,56
5300796,49
5301428,47
5302048,41
5302676,26
5303308,14
5303928,18
5304560,30
5305180,35
5305812,41
5306440,40
5307060,31
5307688,35
5308312,40
5308936,36
5309564,40
5310184,42
5310812,34
5311440,29
5312064,21
5312692,10
5313312,17
5313940,24
5314572,26
5315192,27
5315824,32
5316448,31
5317076,28
5317708,24
5318328,30
5318960,27
5319584,24
5320208,16
5320836,10
5321456,30
5322088,37
5322712,34
5323336,31
5323968,30
5324584,43
5325216,53
5325844,49
5326464,46
5327092,37
5327716,24
5328344,14
5328972,12
5329592,12
5330220,13
5330844,11
5331468,29
5332096,53
5332712,56
5333344,49
5333968,34
5334592,20
5335220,13
5335840,21
5336468,15
5337096,11
5337720,11
5338348,16
5338972,26
5339600,36
5340232,39
5340848,39
5341480,32
5342104,25
5342728,26
5343356,31
5343976,38
5344608,36
5345232,39
5345856,47
5346484,46
5347104,32
5347732,12
5348364,43
5348984,73
5349612,63
5350236,59
5350868,54
5351500,43
5352120,41
5352748,27
5353372,11
5353996,15
5354628,22
5355248,28
5355876,31
5356504,36
5357128,35
5357756,38
5358376,44
5359008,41
5359636,28
5360256,24
5360884,23
5361508,26
5362140,25
5362768,16
5363392,12
5364020,12
5364644,25
5365268,42
5365900,52
5366520,47
5367148,45
5367772,40
5368396,33
5369028,26
5369648,17
5370276,11
5370908,18
5371528,28
5372156,38
5372784,47
5373412,55
5374044,67
5374664,72
5375296,72
5375920,77
5376544,59
5377172,16
5377792,17
5378420,24
5379044,25
5379668,17
5380296,14
5380912,17
5381544,24
5382172,34
5382792,35
5383420,38
5384044,36
5384676,40
5385304,41
5385920,45
5386552,21
5387176,14
5387800,31
5388428,36
5389048,38
5389676,40
5390300,46
5390924,48
5391556,46
5392176,37
5392804,25
5393436,23
5394056,26
5394684,20
5395308,20
5395940,11
5396572,12
5397192,21
5397820,30
5398444,32
5399068,27
5399700,21
5400320,18
5400948,13
5401572,17
5402200,33
5402828,28
5403448,17
5404076,11
5404708,10
5405328,29
5405956,39
5406584,39
5407216,39
5407844,34
5408464,38
5409092,34
5409716,30
5410340,28
5410968,27
5411588,23
5412216,23
5412840,18
5413464,10
5414092,22
5414712,32
5415340,33
5415972,39
5416592,45
5417220,41
5417844,41
5418476,29
5419104,16
5419728,11
5420356,24
5420984,40
5421604,43
5422236,43
5422856,42
5423484,24
5424112,21
5424736,36
5425364,43
5425988,32
5426620,26
5427252,18
5427872,21
5428500,18
5429124,15
5429752,11
5430380,22
5431000,35
5431632,35
5432256,38
5432880,48
5433508,56
5434128,48
5434756,32
5435384,25
5436008,16
5436636,10
5437260,12
5437892,21
5438524,34
5439144,43
5439776,47
5440400,47
5441028,45
5441656,51
5442280,59
5442908,55
5443532,48
5444156,37
5444784,23
5445404,16
5446032,13
5446660,12
5447280,28
5447908,34
5448532,49
5449164,61
5449792,66
5450408,67
5451040,54
5451660,37
5452292,20
5452924,16
5453544,12
5454172,16
5454796,30
5455420,38
5456048,40
5456672,42
5457300,44
5457928,47
5458552,50
5459180,61
5459804,66
5460436,64
5461064,54
5461688,32
5462316,13
5462944,15
5463568,17
5464196,28
5464816,37
5465444,40
5466068,34
5466692,39
5467324,37
5467944,32
5468576,27
5469204,30
5469824,27
5470452,19
5471076,11
5471708,12
5472340,22
5472960,37
5473588,49
5474212,61
5474840,60
5475468,62
5476088,46
5476716,17
5477344,11
5477968,11
5478600,10
5479216,11
5479844,12
5480476,12
5481096,18
5481724,26
5482348,35
5482980,36
5483608,37
5484232,33
5484860,29
5485484,21
5486108,10
5486740,20
5487360,33
5487992,40
5488616,47
5489240,49
5489868,52
5490488,31
5491116,24
5491748,30
5492368,24
5492996,11
5493620,10
5494252,17
5494884,19
5495504,15
5496136,18
5496760,12
5497384,17
5498012,18
5498632,18
5499264,23
5499888,31
5500512,39
5501140,55
5501768,64
5502396,53
5503028,26
5503648,10
5504280,20
5504904,25
5505532,30
5506164,38
5506784,41
5507412,43
5508036,45
5508664,45
5509292,40
5509912,37
5510544,44
5511168,39
5511792,36
5512424,24
5513048,13
5513676,13
5514308,30
5514928,36
5515560,46
5516184,46
5516808,49
5517436,39
5518056,43
5518688,43
5519312,41
5519936,20
5520568,15
5521188,31
5521816,39
5522448,39
5523068,45
5523696,52
5524320,48
5524952,43
5525584,35
5526200,29
5526832,24
5527456,27
5528080,25
5528708,19
5529328,12
5529960,10
5530584,17
5531208,34
5531836,42
5532456,42
5533084,43
5533716,40
5534336,39
5534968,34
5535592,27
5536220,15
5536852,10
5537472,14
5538100,25
5538724,39
5539348,43
5539980,42
5540600,43
5541228,54
5541856,57
5542480,58
5543108,54
5543728,40
5544356,22
5544988,18
5545608,11
5546236,11
5546860,11
5547492,26
5548124,18
5548744,15
5549376,27
5550000,71
5550624,104
5551308,95
5551928,65
5552560,40
5553188,13
5553808,17
5554440,30
5555064,37
5555696,31
5556324,23
5556944,38
5557576,49
5558200,49
5558824,40
5559456,34
5560072,39
5560704,38
5561328,25
5561952,25
5562584,24
5563208,27
5563836,20
5564468,14
5565088,24
5565720,38
5566344,48
5566976,44
5567608,45
5568228,45
5568856,41
5569480,29
5570104,17
5570736,13
5571352,14
5571980,18
5572608,31
5573232,40
5573860,44
5574484,42
5575116,33
5575748,30
5576368,33
5576996,32
5577620,27
5578248,17
5578876,12
5579496,13
5580128,11
5580752,13
5581376,14
5582008,16
5582624,19
5583256,19
5583888,16
5584504,33
5585136,61
5585760,68
5586392,52
5587020,29
5587640,13
5588268,21
5588896,30
5589520,34
5590148,33
5590768,27
5591400,28
5592024,36
5592648,41
5593276,38
5593896,34
5594528,28
5595160,18
5595776,11
5596408,10
5597032,14
5597664,24
5598292,32
5598912,38
5599544,41
5600168,41
5600792,44
5601420,33
5602040,21
5602668,11
5603292,14
5603916,20
5604548,27
5605168,37
5605796,34
5606428,34
5607048,45
5607676,51
5608300,63
5608932,64
5609564,58
5610184,42
5610816,24
5611440,13
5612064,11
5612692,19
5613312,29
5613940,34
5614568,37
5615192,43
5615820,40
5616440,41
5617068,36
5617700,34
5618320,31
5618952,23
5619576,17
5620204,11
5620836,26
5621456,43
5622088,49
5622708,55
5623336,50
5623964,33
5624584,28
5625216,28
5625840,23
5626464,30
5627096,38
5627720,33
5628352,25
5628980,15
5629600,12
5630228,11
5630856,18
5631488,32
5632120,47
5632736,48
5633364,48
5633988,37
5634612,21
5635240,14
5635856,10
5636484,9
5637056,12
5637680,11
5638308,15
5638928,15
5639556,28
5640180,37
5640804,50
5641436,55
5642060,50
5642688,49
5643316,42
5643936,28
5644564,11
5645188,11
5645820,11
5646448,11
5647072,18
5647700,29
5648324,34
5648948,39
5649580,38
5650200,44
5650828,42
5651456,36
5652080,24
5652708,14
5653332,11
5653964,31
5654592,45
5655216,49
5655844,37
5656468,31
5657096,30
5657724,39
5658344,40
5658972,37
5659596,34
5660220,29
5660852,25
5661472,24
5662100,18
5662732,14
5663352,10
5663984,22
5664608,34
5665236,43
5665868,47
5666488,41
5667116,24
5667744,11
5668368,14
5668996,19
5669616,27
5670244,23
5670872,10
5671496,12
5672128,28
5672744,25
5673376,18
5674004,21
5674624,19
5675256,20
5675880,25
5676508,31
5677140,23
5677760,15
5678388,13
5679016,11
5679640,13
5680272,23
5680888,30
5681520,36
5682144,42
5682768,39
5683400,30
5684016,31
5684644,29
5685276,26
5685896,18
5686524,11
5687148,11
5687780,20
5688412,34
5689032,41
5689660,39
5690284,46
5690908,44
5691540,39
5692160,37
5692792,41
5693416,40
5694040,38
5694672,29
5695292,18
5695920,11
5696552,14
5697172,16
5697800,25
5698424,34
5699056,33
5699684,37
5700304,35
5700936,36
5701560,37
5702184,29
5702816,11
5703432,19
5704064,37
5704688,46
5705312,57
5705944,43
5706568,34
5707196,39
5707828,33
5708448,25
5709080,18
5709704,20
5710336,19
5710964,16
5711584,17
5712216,15
5712840,13
5713464,15
5714096,26
5714712,31
5715344,17
5715976,14
5716592,14
5717224,14
5717848,19
5718480,44
5719108,38
5719728,30
5720360,25
5720984,11
5721608,16
5722236,24
5722856,25
5723488,34
5724112,30
5724740,30
5725372,27
5725992,25
5726624,25
5727256,23
5727876,19
5728508,17
5729132,15
5729764,12
5730392,10
5731016,20
5731648,33
5732276,41
5732900,41
5733532,43
5734152,39
5734788,28
5735408,17
5736032,11
5736664,11
5737288,17
5737916,29
5738548,36
5739168,37
5739800,38
5740424,41
5741052,43
5741680,40
5742304,40
5742932,37
5743560,34
5744184,30
5744812,20
5745432,15
5746060,12
5746684,10
5747312,18
5747940,31
5748564,41
5749196,44
5749828,42
5750448,39
5751076,33
5751704,27
5752328,19
5752956,12
5753576,11
5754208,21
5754832,29
5755456,35
5756088,40
5756704,46
5757336,45
5757964,45
5758584,41
5759216,34
5759840,24
5760472,20
5761100,27
5761720,30
5762348,35
5762972,40
5763596,41
5764224,37
5764840,27
5765472,19
5766096,77
5766716,109
5767400,98
5768016,66
5768644,50
5769272,26
5769896,20
5770524,11
5771148,14
5771780,30
5772412,42
5773032,45
5773660,51
5774284,55
5774908,51
5775540,44
5776160,32
5776788,20
5777416,26
5778040,26
5778668,13
5779292,11
5779924,16
5780552,21
5781168,33
5781800,47
5782424,57
5783048,53
5783676,38
5784296,20
5784924,12
5785552,11
5786176,13
5786804,12
5787424,14
5788052,16
5788684,24
5789304,31
5789932,36
5790560,35
5791188,35
5791820,34
5792440,36
5793068,33
5793692,25
5794316,25
5794948,22
5795568,15
5796196,11
5796820,15
5797444,27
5798076,38
5798696,47
5799324,41
5799956,36
5800576,32
5801204,26
5801828,19
5802460,10
5803088,15
5803712,27
5804340,32
5804968,41
5805592,44
5806220,41
5806840,36
5807468,34
5808096,30
5808716,24
5809348,19
5809968,20
5810596,18
5811228,18
5811848,28
5812476,23
5813100,14
5813732,13
5814364,25
5814984,36
5815616,38
5816240,37
5816864,34
5817492,29
5818112,24
5818740,17
5819368,10
5819992,14
5820620,25
5821240,31
5821872,39
5822500,38
5823120,35
5823752,37
5824376,31
5825004,25
5825636,22
5826256,26
5826884,25
5827508,27
5828132,21
5828764,14
5829384,10
5830012,19
5830640,23
5831264,25
5831896,29
5832520,32
5833152,35
5833780,31
5834400,26
5835028,17
5835656,11
5836288,17
5836920,31
5837536,41
5838164,45
5838788,37
5839416,34
5840044,20
5840664,15
5841292,14
5841916,20
5842544,25
5843172,18
5843800,11
5844428,11
5845060,11
5845680,13
5846312,11
5846936,12
5847560,15
5848188,18
5848808,26
5849436,25
5850064,33
5850688,32
5851320,20
5851936,10
5852568,20
5853196,46
5853816,54
5854448,44
5855072,34
5855704,13
5856332,22
5856952,15
5857584,19
5858208,22
5858832,16
5859460,13
5860080,13
5860708,15
5861336,17
5861960,11
5862592,13
5863208,20
5863836,22
5864468,24
5865088,30
5865720,30
5866344,25
5866972,26
5867604,30
5868224,18
5868856,10
5869476,12
5870104,17
5870732,28
5871352,33
5871984,31
5872608,21
5873236,18
5873868,14
5874488,19
5875120,32
5875752,32
5876372,31
5877000,27
5877628,24
5878260,17
5878892,12
5879512,12
5880144,16
5880768,22
5881392,30
5882024,38
5882644,40
5883272,36
5883900,31
5884524,27
5885156,15
5885780,9
5886360,15
5886992,25
5887612,29
5888244,29
5888868,31
5889496,39
5890128,42
5890744,40
5891372,33
5892000,25
5892624,27
5893252,22
5893872,15
5894504,10
5895128,10
5895752,11
5896384,12
5897000,18
5897632,26
5898264,30
5898880,30
5899508,21
5900132,17
5900764,18
5901392,16
5902016,27
5902644,19
5903268,21
5903896,34
5904524,40
5905144,49
5905772,42
5906400,32
5907024,29
5907652,28
5908272,29
5908904,37
5909532,40
5910152,28
5910784,16
5911408,11
5912040,20
5912668,12
5913288,13
5913920,20
5914544,33
5915168,50
5915796,55
5916416,47
5917048,37
5917672,29
5918296,19
5918928,11
5919544,11
5920176,19
5920804,23
5921424,24
5922052,28
5922676,41
5923308,52
5923936,52
5924556,52
5925184,50
5925808,45
5926432,40
5927064,32
5927684,26
5928312,15
5928936,11
5929560,26
5930192,38
5930808,47
5931440,43
5932072,38
5932688,36
5933320,33
5933944,28
5934576,23
5935204,18
5935824,10
5936456,14
5937080,27
5937704,36
5938336,31
5938956,27
5939584,31
5940208,32
5940832,36
5941464,37
5942088,34
5942716,37
5943348,35
5943968,28
5944600,21
5945224,13
5945852,11
5946484,18
5947104,28
5947736,33
5948360,32
5948984,28
5949612,28
5950232,23
5950864,27
5951492,22
5952112,11
5952740,12
5953364,11
5953996,15
5954624,18
5955248,21
5955876,22
5956500,25
5957128,38
5957756,42
5958376,44
5959008,36
5959632,20
5960256,12
5960884,10
5961504,10
5962136,13
5962764,12
5963384,11
5964016,14
5964640,24
5965268,37
5965900,40
5966520,41
5967148,40
5967776,34
5968400,17
5969028,10
5969648,11
5970276,12
5970904,25
5971528,26
5972156,30
5972776,38
5973408,42
5974040,38
5974656,35
5975288,21
5975912,24
5976544,25
5977176,23
5977792,21
5978424,17
5979048,13
5979672,12
5980304,12
5980920,21
5981552,28
5982176,34
5982800,44
5983428,45
5984048,36
5984676,18
5985308,9
5985876,11
5986512,13
5987128,16
5987760,26
5988388,25
5989008,21
5989640,19
5990264,21
5990896,30
5991524,40
5992144,37
5992776,32
5993400,27
5994024,25
5994656,20
5995272,11
5995904,12
5996528,17
5997152,21
5997784,32
5998408,33
5999040,34
5999668,23
6000288,19
6000920,11
6001544,11
6002176,13
6002804,10
6003424,11
6004052,12
6004676,12
6005304,16
6005932,21
6006552,29
6007184,25
6007812,32
6008432,35
6009064,40
6009688,40
6010316,41
6010948,36
6011568,25
6012200,18
6012824,11
6013448,15
6014080,22
6014696,31
6015328,37
6015952,38
6016580,43
6017212,40
6017832,33
6018464,21
6019092,10
6019712,15
6020344,21
6020968,34
6021600,41
6022228,46
6022848,52
6023476,43
6024104,28
6024728,23
6025356,12
6025976,11
6026608,11
6027232,19
6027856,30
6028488,27
6029104,25
6029736,13
6030368,11
6030988,18
6031616,36
6032244,41
6032872,44
6033504,42
6034120,35
6034752,30
6035376,19
6036000,10
6036632,12
6037252,19
6037884,29
6038508,34
6039132,33
6039764,32
6040388,30
6041020,34
6041652,40
6042272,41
6042900,39
6043524,29
6044156,24
6044788,18
6045408,11
6046040,19
6046664,35
6047288,29
6047920,28
6048540,27
6049168,35
6049800,46
6050416,43
6051048,32
6051672,22
6052304,11
6052936,13
6053552,20
6054184,26
6054808,34
6055436,30
6056064,31
6056688,40
6057320,35
6057944,32
6058568,38
6059200,42
6059816,47
6060448,49
6061080,39
6061700,18
6062332,22
6062956,41
6063588,39
6064220,38
6064840,48
6065468,45
6066096,36
6066720,21
6067352,14
6067968,10
6068600,13
6069224,10
6069848,11
6070476,12
6071096,20
6071728,33
6072360,31
6072976,36
6073608,41
6074232,27
6074864,25
6075496,29
6076116,23
6076744,19
6077372,12
6077996,10
6078628,10
6079248,11
6079880,14
6080508,22
6081136,30
6081768,39
6082392,41
6083020,33
6083652,26
6084272,21
6084900,15
6085528,10
6086152,11
6086780,13
6087400,17
6088032,29
6088652,35
6089280,33
6089908,36
6090528,41
6091160,32
6091792,35
6092408,39
6093040,37
6093664,33
6094296,40
6094924,34
6095544,17
6096176,11
6096800,26
6097424,45
6098052,57
6098672,60
6099304,54
6099928,43
6100552,31
6101184,18
6101804,10
6102432,19
6103064,25
6103684,34
6104316,36
6104940,31
6105572,21
6106204,26
6106824,35
6107456,23
6108080,14
6108704,17
6109336,25
6109956,33
6110588,29
6111212,18
6111836,13
6112468,11
6113096,13
6113728,27
6114356,34
6114976,37
6115608,40
6116232,40
6116864,36
6117496,31
6118116,27
6118748,11
6119372,16
6119996,16
6120628,16
6121248,30
6121880,29
6122512,33
6123128,42
6123760,49
6124388,51
6125020,47
6125648,34
6126272,29
6126904,25
6127528,15
6128152,14
6128784,11
6129404,11
6130036,13
6130660,27
6131288,41
6131916,46
6132536,47
6133168,53
6133800,47
6134424,31
6135056,15
6135680,13
6136312,24
6136944,29
6137564,31
6138196,21
6138824,21
6139448,30
6140084,28
6140704,28
6141340,31
6141972,37
6142596,49
6143228,43
6143856,40
6144488,32
6145116,22
6145736,16
6146364,13
6146988,27
6147612,38
6148240,45
6148864,53
6149492,50
6150116,39
6150740,35
6151372,31
6151992,23
6152624,12
6153252,14
6153872,23
6154504,29
6155128,32
6155756,34
6156388,40
6157008,49
6157636,51
6158260,48
6158884,41
6159516,34
6160136,29
6160764,25
6161388,19
6162012,13
6162644,14
6163268,20
6163896,28
6164524,29
6165144,26
6165772,30
6166396,33
6167028,37
6167660,26
6168280,11
6168908,12
6169536,13
6170160,10
6170788,14
6171408,13
6172036,12
6172664,32
6173288,40
6173916,41
6174544,36
6175172,32
6175804,28
6176424,23
6177052,22
6177676,23
6178308,17
6178940,10
6179560,13
6180192,27
6180816,32
6181440,35
6182068,37
6182688,37
6183316,32
6183948,28
6184568,21
6185200,12
6185824,10
6186452,14
6187084,22
6187704,27
6188336,30
6188960,33
6189584,36
6190212,42
6190832,45
6191464,50
6192088,50
6192712,42
6193344,27
6193960,12
6194592,11
6195224,12
6195840,10
6196468,19
6197096,31
6197724,40
6198356,43
6198976,46
6199608,47
6200232,41
6200856,35
6201488,28
6202104,15
6202736,11
6203360,20
6203984,37
6204616,58
6205236,61
6205868,50
6206496,38
6207120,33
6207752,25
6208376,29
6209004,27
6209636,20
6210256,19
6210888,19
6211512,13
6212136,12
6212768,11
6213384,20
6214016,31
6214640,38
6215264,37
6215896,35
6216520,32
6217152,28
6217780,27
6218400,24
6219028,17
6219656,11
6220288,19
6220920,30
6221536,39
6222168,39
6222792,42
6223416,44
6224048,34
6224664,28
6225296,26
6225928,32
6226544,33
6227176,30
6227800,31
6228428,21
6229060,11
6229680,17
6230312,27
6230936,36
6231560,42
6232192,46
6232808,47
6233440,44
6234064,35
6234688,23
6235320,13
6235936,10
6236568,18
6237200,26
6237816,35
6238448,41
6239072,39
6239704,38
6240336,37
6240952,33
6241584,32
6242208,30
6242832,26
6243464,21
6244080,19
6244708,20
6245336,18
6245960,16
6246592,10
6247208,19
6247836,42
6248468,36
6249088,33
6249716,34
6250340,11
6250972,23
6251604,34
6252224,19
6252852,10
6253476,12
6254104,27
6254732,14
6255352,12
6255984,15
6256608,29
6257232,30
6257864,28
6258484,24
6259116,13
6259748,12
6260368,13
6261000,11
6261624,11
6262256,11
6262884,10
