tempo_arduino_micro_s,valor_ADC
500,14
1004,13
1504,10
2000,10
2508,17
3000,16
3508,15
4000,16
4508,17
5000,18
5500,18
6000,18
6500,18
7004,20
7500,19
8000,14
8500,11
9000,10
9500,10
10000,11
10516,10
11036,10
11564,10
12084,12
12612,13
13132,18
13660,20
14180,17
14708,15
15228,16
15756,14
16276,10
16796,10
17316,12
17836,20
18356,20
18876,12
19396,10
19916,10
20436,16
20956,18
21476,22
21996,18
22516,16
23036,19
23564,22
24084,19
24612,14
25132,13
25660,10
26180,10
26708,11
27228,11
27756,13
28276,16
28804,21
29324,19
29852,23
30372,22
30900,18
31420,15
31948,14
32472,13
32996,10
33516,13
34044,16
34564,20
35092,24
35612,21
36140,18
36660,21
37188,20
37708,13
38236,14
38760,15
39284,19
39804,19
40332,14
40852,12
41372,11
41892,12
42412,12
42932,11
43452,11
43972,11
44492,11
45012,15
45532,16
46052,12
46572,14
47092,13
47612,15
48140,24
48660,23
49188,19
49708,16
50236,12
50756,11
51284,14
51804,20
52332,26
52852,25
53380,22
53900,20
54428,19
54948,19
55476,21
55996,21
56524,21
57044,19
57572,15
58096,10
58620,12
59140,12
59668,16
60188,15
60716,12
61240,14
61764,15
62284,12
62812,11
63332,14
63860,14
64384,14
64908,14
65428,14
65948,10
66468,11
66988,12
67508,12
68028,13
68548,17
69068,23
69588,25
70108,23
70628,20
71148,19
71668,17
72192,15
72716,15
73236,13
73764,13
74284,11
74812,12
75332,13
75860,12
76384,11
76908,10
77428,10
77956,12
78476,15
79004,15
79528,17
80052,20
80572,17
81100,15
81620,14
82148,14
82668,11
83196,10
83720,12
84244,18
84764,19
85292,20
85812,19
86340,17
86860,18
87388,19
87908,21
88436,20
88956,21
89484,22
90004,16
90524,14
91044,12
91564,10
92084,12
92604,14
93124,13
93644,10
94164,13
94684,20
95204,20
95724,15
96248,16
96764,17
97292,18
97812,17
98340,16
98860,16
99388,11
99908,10
100436,11
101000,16
101584,21
102156,26
102736,26
103304,26
103880,24
104456,26
105024,25
105600,24
106168,23
106744,13
107312,17
107896,22
108464,17
109040,11
109624,16
110192,17
110768,12
111336,12
111920,21
112492,29
113072,21
113640,14
114216,15
114792,18
115364,14
115944,12
116512,13
117096,12
117664,19
118240,22
118824,22
119392,19
119976,18
120548,16
121128,13
121696,14
122280,14
122848,14
123428,14
124008,17
124576,15
125160,14
125728,11
126312,11
126884,10
127456,11
128040,11
128608,13
129184,19
129752,19
130328,18
130896,18
131480,16
132048,18
132624,17
133200,16
133768,10
134344,15
134912,24
135496,23
136064,18
136648,15
137224,17
137792,19
138376,18
138944,16
139528,13
140096,15
140680,14
141252,16
141824,18
142408,18
142976,18
143560,12
144128,11
144712,14
145280,23
145864,25
146440,24
147008,22
147592,18
148160,15
148744,14
149312,12
149896,9
150416,12
150992,13
151568,17
152140,15
152720,21
153292,23
153872,21
154440,25
155024,25
155592,24
156168,18
156752,17
157324,15
157904,12
158476,14
159056,12
159628,10
160208,12
160784,12
161352,14
161928,19
162496,19
163072,21
163640,17
164224,15
164792,15
165360,14
165944,11
166512,16
167096,20
167664,23
168240,17
168808,15
169384,17
169952,13
170520,13
171096,11
171664,14
172248,13
172816,14
173400,14
173968,15
174544,15
175128,18
175696,19
176280,18
176848,14
177432,11
178004,14
178584,15
179152,18
179732,23
180312,19
180880,18
181464,19
182032,22
182616,13
183184,11
183764,18
184344,21
184912,23
185488,27
186056,30
186640,29
187208,23
187792,23
188360,23
188936,15
189520,14
190088,15
190672,25
191244,30
191824,19
192396,10
192976,12
193552,14
194124,14
194704,12
195272,14
195856,21
196424,26
197008,20
197576,15
198156,14
198736,13
199304,11
199888,9
200408,12
200984,11
201552,11
202136,15
202708,16
203284,20
203864,19
204436,19
205016,20
205584,19
206160,17
206728,15
207304,17
207880,13
208448,11
209032,10
209600,10
210176,10
210744,12
211328,16
211896,17
212472,13
213056,16
213624,18
214208,18
214780,18
215360,17
215928,11
216512,13
217080,15
217656,17
218240,20
218808,19
219392,15
219964,17
220544,15
221112,15
221692,17
222272,18
222844,14
223424,14
223996,13
224576,12
225152,11
225736,10
226312,10
226880,10
227464,11
228032,12
228616,13
229184,17
229768,17
230336,14
230916,14
231496,14
232068,15
232648,14
233216,11
233800,15
234368,16
234952,21
235528,26
236096,24
236680,21
237252,21
237832,19
238404,14
238984,14
239556,13
240132,16
240712,14
241280,11
241864,10
242436,13
243016,12
243588,10
244168,16
244744,18
245316,10
245896,13
246464,14
247048,13
247616,14
248200,13
248768,14
249344,11
249928,16
250496,11
251080,10
251648,12
252232,18
252804,24
253384,20
253960,17
254532,18
255112,16
255684,16
256264,19
256832,19
257408,14
257976,9
258492,10
259064,11
259640,11
260224,11
260792,12
261376,13
261944,17
262528,20
263096,27
263664,26
264248,20
264816,14
265400,13
265968,12
266552,11
267120,13
267704,17
268272,21
268848,20
269432,19
270000,18
270584,17
271152,19
271736,17
272308,15
272880,17
273464,16
274032,13
274616,11
275188,11
275768,11
276348,10
276928,10
277496,12
278076,15
278656,18
279228,22
279808,24
280380,19
280960,14
281528,15
282108,13
282688,11
283256,15
283840,16
284412,16
284992,17
285560,19
286144,13
286716,12
287292,22
287872,30
288444,31
289024,33
289592,30
290176,20
290744,15
291320,15
291904,15
292476,10
293056,12
293628,14
294208,13
294780,16
295360,19
295928,22
296508,25
297088,26
297656,24
298240,23
298808,14
299392,11
299964,11
300540,14
301120,15
301692,14
302272,10
302844,18
303424,25
303996,27
304576,27
305160,24
305732,27
306312,28
306884,24
307464,18
308040,12
308624,17
309192,17
309772,14
310352,11
310924,11
311504,11
312076,14
312656,17
313224,22
313808,17
314384,17
314956,14
315536,13
316108,12
316688,16
317268,17
317848,17
318428,14
319004,16
319584,23
320160,24
320736,20
321304,16
321888,17
322456,19
323032,17
323616,14
324184,12
324768,11
325340,10
325920,10
326492,11
327072,10
327644,11
328220,15
328800,19
329368,19
329944,20
330512,19
331096,16
331664,13
332240,14
332824,14
333392,13
333968,16
334536,16
335120,16
335688,15
336272,12
336840,15
337416,13
337992,14
338560,14
339144,14
339716,15
340296,15
340864,14
341448,13
342024,15
342592,11
343176,11
343748,11
344328,12
344896,15
345480,19
346052,23
346624,20
347208,16
347776,14
348360,15
348928,13
349512,10
350084,15
350664,16
351240,18
351812,19
352392,17
352964,17
353544,17
354116,14
354696,13
355264,14
355840,14
356424,13
356996,18
357576,22
358148,23
358728,21
359304,16
359888,14
360464,11
361032,18
361616,20
362184,30
362768,29
363340,24
363920,19
364492,16
365064,16
365648,11
366216,12
366800,15
367368,24
367952,29
368524,33
369104,28
369680,27
370248,22
370832,18
371404,13
371984,17
372556,17
373136,12
373708,14
374284,10
374864,10
375436,11
376016,15
376588,11
377168,17
377740,24
378320,35
378896,32
379464,19
380048,12
380620,15
381200,15
381772,14
382352,10
382924,15
383500,18
384080,16
384652,23
385232,22
385804,15
386384,13
386956,15
387536,17
388112,16
388684,19
389264,19
389832,18
390416,15
390984,14
391568,11
392140,12
392716,10
393296,11
393868,11
394448,13
395016,17
395600,17
396172,20
396752,17
397328,15
397900,13
398480,13
399052,11
399632,15
400212,13
400792,14
401364,13
401936,16
402520,19
403092,18
403672,12
404244,13
404824,13
405392,14
405972,14
406552,13
407124,13
407704,11
408276,16
408856,16
409428,14
410008,15
410584,11
411152,11
411728,15
412296,17
412880,16
413448,16
414024,18
414592,15
415176,14
415752,11
416324,15
416904,19
417472,15
418048,11
418616,10
419200,12
419768,14
420344,17
420928,19
421496,16
422080,17
422648,15
423232,13
423800,12
424384,10
424952,11
425532,11
426112,10
426684,11
427264,12
427832,18
428416,17
428988,19
429560,21
430144,18
430712,18
431296,15
431868,14
432448,15
433016,22
433600,27
434168,27
434748,26
435328,24
435896,25
436480,21
437048,22
437632,21
438204,20
438780,21
439360,21
439932,16
440512,12
441080,13
441664,11
442232,11
442816,11
443388,15
443964,19
444544,22
445116,22
445696,17
446264,20
446848,20
447420,18
447996,15
448580,14
449148,11
449728,11
450300,16
450880,15
451448,11
452032,10
452600,22
453176,31
453760,32
454328,30
454912,27
455484,24
456064,17
456632,15
457212,15
457792,13
458364,14
458944,14
459516,11
460096,16
460676,27
461256,25
461840,15
462408,11
462992,14
463564,14
464144,13
464712,14
465296,15
465864,15
466444,11
467024,14
467596,21
468176,26
468744,26
469328,26
469900,20
470480,13
471064,15
471632,14
472216,13
472788,14
473368,14
473948,11
474528,12
475100,10
475676,10
476256,10
476828,10
477408,12
477980,15
478560,18
479140,17
479716,18
480296,16
480868,15
481448,14
482016,19
482600,21
483168,20
483752,21
484324,17
484900,11
485480,11
486052,12
486632,11
487208,10
487792,13
488364,12
488936,14
489520,13
490092,14
490672,11
491244,12
491824,10
492396,10
492976,12
493544,14
494124,12
494704,15
495276,19
495856,19
496428,20
497008,21
497576,22
498156,18
498736,15
499308,10
499888,12
500456,19
501040,23
501612,27
502192,25
502764,28
503340,25
503920,24
504492,20
505072,17
505644,17
506224,13
506796,14
507372,12
507952,14
508524,13
509104,10
509676,10
510256,14
510836,20
511416,28
511996,40
512576,33
513152,25
513720,22
514304,17
514872,14
515456,12
516024,18
516600,25
517184,26
517752,19
518336,13
518908,15
519488,16
520060,19
520640,20
521208,17
521784,16
522368,16
522936,14
523520,13
524088,10
524672,10
525244,11
525816,11
526400,11
526968,11
527552,11
528124,11
528704,11
529272,18
529856,17
530428,19
531000,15
531584,14
532156,11
532736,12
533312,13
533896,13
534468,16
535040,19
535624,20
536196,21
536776,20
537348,18
537928,17
538496,17
539080,17
539656,15
540228,17
540808,15
541376,16
541960,12
542532,16
543112,29
543684,33
544260,30
544840,24
545408,16
545992,16
546564,14
547144,14
547716,14
548296,13
548872,11
549444,11
550024,10
550596,12
551176,13
551748,17
552328,22
552908,24
553484,21
554064,18
554636,16
555216,19
555796,17
556376,17
556956,12
557532,10
558112,10
558684,11
559264,11
559836,10
560416,11
560996,15
561576,19
562148,21
562724,24
563304,24
563876,17
564456,13
565028,13
565608,12
566180,17
566756,21
567336,20
567908,15
568488,17
569060,16
569640,13
570208,14
570792,18
571372,18
571948,19
572528,13
573100,14
573680,19
574260,19
574840,13
575412,11
575988,10
576568,11
577140,12
577720,18
578292,23
578872,28
579444,30
580024,21
580592,20
581172,16
581752,14
582324,15
582904,19
583484,18
584064,25
584632,28
585212,22
585792,18
586364,14
586944,15
587516,16
588096,16
588676,14
589256,14
589840,13
590412,11
590992,11
591564,17
592144,16
592724,11
593304,13
593876,16
594452,14
595032,13
595604,12
596184,14
596756,17
597336,18
597916,15
598492,18
599072,14
599644,11
600224,10
600796,19
601376,27
601956,26
602536,21
603108,16
603684,15
604264,16
604836,13
605416,15
605988,17
606568,16
607148,10
607724,11
608304,14
608876,15
609456,11
610028,10
610608,11
611180,14
611764,19
612340,18
612916,15
613496,19
614072,17
614652,15
615224,14
615808,12
616380,15
616956,21
617536,28
618108,28
618688,20
619260,13
619840,9
620360,10
620936,15
621508,16
622084,17
622664,19
623236,18
623816,17
624392,15
624968,11
625544,20
626128,39
626712,38
627284,20
627864,11
628436,11
629016,11
629596,13
630176,13
630756,13
631332,14
631912,14
632488,10
633064,10
633636,17
634216,28
634796,29
635372,25
635952,27
636528,25
637104,16
637680,14
638256,13
638836,14
639416,15
639996,15
640576,12
641152,13
641720,13
642304,11
642876,12
643456,10
644024,11
644600,11
645184,14
645752,22
646336,21
646908,18
647488,18
648060,16
648640,11
649208,10
649788,11
650368,26
650940,33
651520,31
652092,26
652672,19
653244,15
653820,16
654400,18
654968,14
655552,13
656120,14
656704,14
657272,11
657856,9
658372,10
658944,11
659528,10
660096,10
660680,11
661248,12
661832,16
662404,19
662984,20
663560,16
664132,14
664712,14
665284,12
665864,9
666380,11
666960,13
667528,17
668112,17
668688,22
669256,26
669840,19
670408,14
670992,13
671564,13
672144,13
672712,14
673288,14
673872,11
674444,10
675024,10
675596,14
676176,11
676744,11
677328,18
677904,20
678476,14
679056,16
679624,13
680208,13
680776,14
681360,13
681928,11
682504,11
683088,12
683660,13
684240,11
684808,12
685392,14
685964,19
686544,25
687120,24
687692,22
688272,22
688844,15
689424,13
689996,14
690576,9
691096,10
691668,20
692248,18
692816,15
693400,12
693972,11
694552,11
695124,10
695704,15
696276,17
696852,23
697432,32
698004,31
698584,14
699156,16
699736,25
700308,24
700884,26
701464,27
702036,23
702616,13
703188,11
703768,11
704348,14
704928,13
705500,15
706076,16
706656,15
707224,16
707808,17
708380,17
708960,15
709532,18
710108,19
710688,14
711260,11
711840,21
712412,23
712992,23
713564,24
714144,31
714724,33
715300,29
715880,18
716456,10
717032,11
717612,12
718192,20
718764,27
719340,30
719920,27
720492,29
721072,22
721644,17
722224,13
722796,13
723376,15
723944,13
724524,11
725104,11
725676,15
726256,11
726836,10
727416,11
727988,11
728564,11
729144,14
729716,16
730296,22
730868,22
731448,16
732028,12
732608,9
733128,10
733700,14
734280,16
734852,17
735432,15
736004,18
736584,15
737156,17
737736,17
738320,18
738892,18
739472,15
740044,14
740624,10
741196,11
741776,12
742348,14
742924,16
743504,13
744076,12
744656,12
745228,13
745808,17
746380,17
746960,16
747536,14
748108,13
748688,11
749260,12
749840,10
750412,11
750992,13
751564,10
752140,10
752720,14
753292,20
753872,20
754444,20
755024,25
755604,22
756180,17
756760,14
757332,10
757912,10
758488,11
759064,12
759636,11
760216,11
760796,13
761372,19
761952,23
762524,20
763104,18
763684,19
764264,17
764836,15
765412,10
765996,12
766568,13
767144,13
767720,12
768300,12
768872,16
769456,21
770024,16
770600,11
771184,22
771756,28
772336,19
772916,15
773496,20
774068,18
774644,16
775224,26
775796,26
776376,13
776948,11
777528,12
778108,13
778688,17
779272,24
779844,24
780424,19
780996,16
781576,15
782148,11
782728,12
783300,10
783876,11
784456,13
785028,15
785608,13
786180,17
786760,20
787332,24
787912,23
788488,20
789060,19
789640,18
790212,13
790792,10
791372,10
791952,15
792532,12
793108,10
793692,14
794260,16
794840,17
795412,19
795992,23
796572,24
797148,21
797728,18
798300,16
798884,10
799452,11
800032,10
800608,11
801192,13
801764,17
802336,19
802920,14
803492,13
804072,13
804644,14
805224,13
805796,13
806372,13
806952,11
807524,11
808104,11
808676,12
809256,11
809828,12
810408,11
810980,11
811556,11
812136,11
812708,14
813288,15
813868,18
814448,22
815028,18
815604,10
816184,11
816756,12
817336,11
817908,13
818488,11
819068,15
819648,18
820232,18
820800,19
821384,24
821952,21
822528,16
823096,13
823680,10
824248,13
824824,15
825408,11
825976,11
826560,11
827128,11
827712,11
828284,11
828864,15
829432,21
830012,24
830592,23
831164,19
831744,17
832316,10
832896,13
833464,15
834040,14
834624,15
835192,20
835776,18
836344,14
836928,11
837496,17
838080,20
838648,19
839224,21
839808,15
840376,11
840960,10
841528,11
842112,9
842632,13
843208,32
843784,36
844356,21
844936,12
845504,14
846088,17
846656,17
847240,13
847812,14
848388,14
848968,11
849536,11
850120,17
850688,17
851272,13
851840,13
852424,15
853000,17
853572,19
854152,19
854724,21
855304,16
855876,15
856456,13
857028,15
857604,19
858184,16
858756,11
859336,13
859908,14
860488,12
861064,13
861648,15
862224,19
862796,19
863376,15
863948,13
864528,14
865104,11
865688,9
866204,10
866780,10
867360,16
867928,16
868512,10
869084,13
869664,13
870236,17
870816,17
871392,15
871972,16
872552,19
873124,23
873704,19
874276,14
874856,10
875428,11
876004,11
876584,14
877156,18
877736,28
878308,28
878888,23
879460,20
880040,19
880616,29
881196,22
881776,11
882348,17
882928,27
883500,32
884080,25
884648,14
885228,15
885808,14
886376,10
886960,11
887532,13
888112,13
888684,15
889264,17
889836,18
890412,11
890992,10
891564,11
892144,9
892664,12
893240,16
893820,17
894400,19
894984,19
895556,21
896140,16
896708,15
897288,15
897856,15
898440,11
899012,10
899588,11
900168,14
900740,20
901320,22
901892,19
902472,19
903040,15
903624,15
904200,18
904772,20
905352,18
905924,16
906504,13
907076,11
907656,9
908176,11
908752,11
909328,14
909900,24
910480,30
911052,30
911632,24
912212,19
912792,12
913364,15
913940,15
914520,14
915092,11
915672,11
916252,10
916832,11
917412,11
917988,14
918568,21
919140,27
919720,23
920292,18
920872,17
921452,21
922032,24
922608,23
923184,17
923768,13
924340,19
924920,17
925492,21
926072,23
926644,18
927220,19
927800,19
928372,20
928952,19
929524,11
930104,15
930676,15
931256,13
931828,12
932404,14
932984,12
933556,18
934136,18
934716,15
935296,14
935876,15
936452,18
937032,21
937604,19
938184,17
938756,14
939336,14
939916,15
940496,12
941080,10
941652,10
942232,11
942804,11
943384,16
943956,22
944536,26
945116,27
945692,30
946272,32
946844,19
947424,15
948004,14
948584,10
949156,15
949732,28
950312,30
950888,27
951464,25
952036,21
952616,16
953196,12
953776,14
954356,14
954932,14
955512,15
956088,15
956664,12
957244,11
957824,11
958404,10
958980,10
959560,11
960136,13
960712,19
961284,24
961864,27
962436,23
963016,19
963592,16
964164,15
964744,14
965316,11
965896,16
966468,18
967048,14
967620,12
968196,15
968776,15
969348,12
969928,12
970500,14
971080,17
971660,17
972240,15
972824,13
973396,11
973976,13
974548,12
975128,9
975648,10
976224,11
976804,11
977380,14
977960,14
978532,15
979112,16
979688,13
980264,13
980836,15
981416,21
981988,15
982564,11
983144,14
983716,15
984296,12
984868,11
985448,11
986020,11
986592,10
987176,13
987748,13
988328,14
988900,15
989480,13
990052,11
990632,13
991212,13
991788,14
992368,17
992940,17
993520,13
994092,11
994672,11
995244,19
995820,19
996400,16
996972,14
997552,14
998124,14
998704,10
999284,10
999864,11
1000436,14
1001056,15
1001684,17
1002304,15
1002936,17
1003564,24
1004184,22
1004812,17
1005432,16
1006064,17
1006692,18
1007312,13
1007940,23
1008564,13
1009188,13
1009820,10
1010440,12
1011068,15
1011692,27
1012316,41
1012948,45
1013568,32
1014200,16
1014828,14
1015448,18
1016076,24
1016700,26
1017332,31
1017960,28
1018580,14
1019208,13
1019832,15
1020456,24
1021084,15
1021704,14
1022332,13
1022960,13
1023584,11
1024216,11
1024836,11
1025464,11
1026088,12
1026708,11
1027336,14
1027956,15
1028584,15
1029212,14
1029828,15
1030456,17
1031080,21
1031700,20
1032328,12
1032948,12
1033580,11
1034200,10
1034824,11
1035452,12
1036072,16
1036700,15
1037328,18
1037944,21
1038572,20
1039196,17
1039824,15
1040452,12
1041068,9
1041648,10
1042268,11
1042896,11
1043528,14
1044140,19
1044772,20
1045392,23
1046020,15
1046648,16
1047268,17
1047900,14
1048520,12
1049144,12
1049772,14
1050388,18
1051016,15
1051640,18
1052260,19
1052892,14
1053512,14
1054140,12
1054768,12
1055392,14
1056020,15
1056640,18
1057268,19
1057896,18
1058512,11
1059140,15
1059764,19
1060388,21
1061016,22
1061632,20
1062264,20
1062888,15
1063508,13
1064140,14
1064760,13
1065388,10
1066016,10
1066632,10
1067260,14
1067884,17
1068512,22
1069140,21
1069760,16
1070388,14
1071012,11
1071632,13
1072264,13
1072880,14
1073508,11
1074132,10
1074756,11
1075384,11
1076000,11
1076628,13
1077256,15
1077872,17
1078500,16
1079124,19
1079752,21
1080384,19
1081000,14
1081628,11
1082252,11
1082880,12
1083508,10
1084128,13
1084756,10
1085380,16
1086004,23
1086632,20
1087256,19
1087884,22
1088508,28
1089132,28
1089764,17
1090384,13
1091012,17
1091644,11
1092264,11
1092892,14
1093512,20
1094144,31
1094772,34
1095392,29
1096020,16
1096644,15
1097264,14
1097892,13
1098512,12
1099140,16
1099764,20
1100388,20
1101020,19
1101640,14
1102272,11
1102900,10
1103520,13
1104148,18
1104772,19
1105400,17
1106032,13
1106648,11
1107276,10
1107900,10
1108524,11
1109152,10
1109768,12
1110396,15
1111020,17
1111644,15
1112276,16
1112900,14
1113528,23
1114160,35
1114776,30
1115408,19
1116032,12
1116660,17
1117292,24
1117912,24
1118540,24
1119168,26
1119792,29
1120420,21
1121040,18
1121668,16
1122292,14
1122912,13
1123544,16
1124168,17
1124796,12
1125428,10
1126048,11
1126676,17
1127300,21
1127928,22
1128556,19
1129176,15
1129804,13
1130424,14
1131048,14
1131676,11
1132296,12
1132924,15
1133548,19
1134172,19
1134800,24
1135416,23
1136048,21
1136676,18
1137296,17
1137924,15
1138548,15
1139176,15
1139808,16
1140424,20
1141052,22
1141676,15
1142300,14
1142932,12
1143552,17
1144180,21
1144804,23
1145428,22
1146060,16
1146680,15
1147308,15
1147940,18
1148560,12
1149188,11
1149812,19
1150440,16
1151072,21
1151688,25
1152316,20
1152940,22
1153564,21
1154192,12
1154808,27
1155440,28
1156060,16
1156684,11
1157312,12
1157936,17
1158564,18
1159192,12
1159812,12
1160440,24
1161064,25
1161692,26
1162320,25
1162936,21
1163564,16
1164188,16
1164812,12
1165440,11
1166056,14
1166684,17
1167308,21
1167932,25
1168564,26
1169184,22
1169812,14
1170440,14
1171064,13
1171692,14
1172316,14
1172948,15
1173576,11
1174196,14
1174824,16
1175448,11
1176072,12
1176700,14
1177320,21
1177948,18
1178572,16
1179196,12
1179828,14
1180448,14
1181076,14
1181708,10
1182328,12
1182956,12
1183580,16
1184212,17
1184840,17
1185456,19
1186088,18
1186712,15
1187336,17
1187964,14
1188584,15
1189212,17
1189836,12
1190460,12
1191088,11
1191704,12
1192332,11
1192956,11
1193584,21
1194212,27
1194836,29
1195468,25
1196100,18
1196720,16
1197352,15
1197976,13
1198600,15
1199228,21
1199848,28
1200476,26
1201100,24
1201724,22
1202356,16
1202976,12
1203604,15
1204236,13
1204856,13
1205484,15
1206108,14
1206736,10
1207368,13
1207984,28
1208616,20
1209236,11
1209864,15
1210492,14
1211112,13
1211740,13
1212364,13
1212988,14
1213620,14
1214240,15
1214868,11
1215500,10
1216120,15
1216748,25
1217372,27
1218000,23
1218632,18
1219248,13
1219876,11
1220500,15
1221124,18
1221756,17
1222376,17
1223008,16
1223632,14
1224256,11
1224884,10
1225504,19
1226132,23
1226764,22
1227384,22
1228012,21
1228640,21
1229268,18
1229896,18
1230520,17
1231148,15
1231772,10
1232396,10
1233024,14
1233640,19
1234268,19
1234892,17
1235516,21
1236144,30
1236764,31
1237392,29
1238020,25
1238640,17
1239268,13
1239892,11
1240520,11
1241152,10
1241768,14
1242396,27
1243020,35
1243648,33
1244280,24
1244896,21
1245524,23
1246148,17
1246772,14
1247400,14
1248016,12
1248648,15
1249268,19
1249892,22
1250520,23
1251144,19
1251776,16
1252404,10
1253024,13
1253652,17
1254276,16
1254908,16
1255536,14
1256156,14
1256784,11
1257408,11
1258032,12
1258660,10
1259280,13
1259908,19
1260532,23
1261156,27
1261788,21
1262412,12
1263040,14
1263668,13
1264288,15
1264916,10
1265540,15
1266172,17
1266800,24
1267424,33
1268052,36
1268676,38
1269300,28
1269932,18
1270552,17
1271180,14
1271804,14
1272432,15
1273060,13
1273684,15
1274316,14
1274944,16
1275568,19
1276196,20
1276820,25
1277444,24
1278076,22
1278696,24
1279328,17
1279952,16
1280576,14
1281204,13
1281820,20
1282448,21
1283076,18
1283696,18
1284324,15
1284944,17
1285572,13
1286204,10
1286824,15
1287452,15
1288072,16
1288700,15
1289332,15
1289952,11
1290580,10
1291200,13
1291824,11
1292452,10
1293072,16
1293700,19
1294324,24
1294944,27
1295576,24
1296196,17
1296828,13
1297456,13
1298072,11
1298700,11
1299324,14
1299952,17
1300580,23
1301200,25
1301828,25
1302452,22
1303072,23
1303704,23
1304320,19
1304948,16
1305572,13
1306196,14
1306828,10
1307448,11
1308076,11
1308708,12
1309328,14
1309956,17
1310580,24
1311212,21
1311840,19
1312456,15
1313084,14
1313704,14
1314328,13
1314956,10
1315576,12
1316204,20
1316824,22
1317448,22
1318076,10
1318696,11
1319324,17
1319952,27
1320568,24
1321196,14
1321820,13
1322448,13
1323076,10
1323696,12
1324324,13
1324944,13
1325572,13
1326200,26
1326824,32
1327452,33
1328076,39
1328696,36
1329324,26
1329944,19
1330572,14
1331196,17
1331820,28
1332448,26
1333068,17
1333696,19
1334328,20
1334944,18
1335572,14
1336196,12
1336824,17
1337452,17
1338072,19
1338700,16
1339324,13
1339944,13
1340576,14
1341192,11
1341820,14
1342444,12
1343068,11
1343696,16
1344312,26
1344940,25
1345568,24
1346184,19
1346816,16
1347436,15
1348064,12
1348696,15
1349312,20
1349940,21
1350564,23
1351184,22
1351816,20
1352432,17
1353060,14
1353684,13
1354304,13
1354932,14
1355552,14
1356180,13
1356808,11
1357428,11
1358060,10
1358680,14
1359312,14
1359940,12
1360560,14
1361188,16
1361812,19
1362436,19
1363064,17
1363688,17
1364316,14
1364940,15
1365560,22
1366192,25
1366808,27
1367436,27
1368060,24
1368688,25
1369316,17
1369940,15
1370568,15
1371196,14
1371816,14
1372444,16
1373068,11
1373696,12
1374328,13
1374944,11
1375572,14
1376196,17
1376820,31
1377448,30
1378064,22
1378692,25
1379316,23
1379940,19
1380568,15
1381192,15
1381820,16
1382452,16
1383068,20
1383700,27
1384320,29
1384948,28
1385580,30
1386200,25
1386828,13
1387452,15
1388076,18
1388704,16
1389328,15
1389956,11
1390580,11
1391204,13
1391836,16
1392460,11
1393088,17
1393720,20
1394336,13
1394964,11
1395588,13
1396216,14
1396844,14
1397464,16
1398092,11
1398716,13
1399340,10
1399968,10
1400588,18
1401216,20
1401840,21
1402464,21
1403092,20
1403716,21
1404344,18
1404972,14
1405592,16
1406220,15
1406844,11
1407476,10
1408104,12
1408720,14
1409348,11
1409972,13
1410592,19
1411224,25
1411840,27
1412468,19
1413092,15
1413716,14
1414344,13
1414964,14
1415592,19
1416220,23
1416840,27
1417468,31
1418092,31
1418720,22
1419348,16
1419968,16
1420596,14
1421220,13
1421844,13
1422476,17
1423096,17
1423724,11
1424348,18
1424972,15
1425600,14
1426224,24
1426852,28
1427484,27
1428104,24
1428732,17
1429356,14
1429988,14
1430616,13
1431240,15
1431868,19
1432492,21
1433116,24
1433748,14
1434368,10
1434996,10
1435620,12
1436240,15
1436868,18
1437488,18
1438116,19
1438744,20
1439364,14
1439992,11
1440616,11
1441244,11
1441872,11
1442488,10
1443116,11
1443740,13
1444364,25
1444992,32
1445616,25
1446244,17
1446868,14
1447488,14
1448120,12
1448736,12
1449364,11
1449992,17
1450616,23
1451244,25
1451868,28
1452496,28
1453124,30
1453744,35
1454372,40
1454996,39
1455620,36
1456252,38
1456872,41
1457500,38
1458124,37
1458748,31
1459376,30
1459992,28
1460624,20
1461244,12
1461872,15
1462500,15
1463124,18
1463752,15
1464384,19
1465000,30
1465628,42
1466252,51
1466880,51
1467508,48
1468128,53
1468756,53
1469384,45
1470008,41
1470636,37
1471256,31
1471888,23
1472516,20
1473136,16
1473764,15
1474388,15
1475020,13
1475648,10
1476264,12
1476892,12
1477516,13
1478144,13
1478772,12
1479392,13
1480020,15
1480644,14
1481264,13
1481896,20
1482512,32
1483140,44
1483764,42
1484388,39
1485020,35
1485640,28
1486268,23
1486896,18
1487512,13
1488140,16
1488764,21
1489392,18
1490020,10
1490640,11
1491268,11
1491892,11
1492512,14
1493144,12
1493760,15
1494388,25
1495012,26
1495636,19
1496268,14
1496888,14
1497516,13
1498148,16
1498768,29
1499396,35
1500020,36
1500652,27
1501280,19
1501896,12
1502528,11
1503152,12
1503776,15
1504408,20
1505024,22
1505652,17
1506276,13
1506900,11
1507532,12
1508152,13
1508780,12
1509412,11
1510032,13
1510664,19
1511288,24
1511916,39
1512548,45
1513168,40
1513796,19
1514420,12
1515044,17
1515676,26
1516296,28
1516924,20
1517548,18
1518172,24
1518804,21
1519428,21
1520056,22
1520688,21
1521304,21
1521932,15
1522556,14
1523188,15
1523816,12
1524440,13
1525068,14
1525692,16
1526320,20
1526948,25
1527568,33
1528196,26
1528824,14
1529444,13
1530076,15
1530700,13
1531332,13
1531964,16
1532584,27
1533216,38
1533840,33
1534468,23
1535100,12
1535720,10
1536352,11
1536972,15
1537596,19
1538224,17
1538848,15
1539476,13
1540104,13
1540720,14
1541352,13
1541976,11
1542604,18
1543232,28
1543856,33
1544484,34
1545108,31
1545736,19
1546364,16
1546984,17
1547612,14
1548236,15
1548860,21
1549488,30
1550104,37
1550736,36
1551364,34
1551984,20
1552612,11
1553236,13
1553868,17
1554496,16
1555120,13
1555752,14
1556376,11
1557000,11
1557628,10
1558248,11
1558876,14
1559500,17
1560124,25
1560756,31
1561376,29
1562004,21
1562636,17
1563256,15
1563884,15
1564508,12
1565136,17
1565768,19
1566384,21
1567016,20
1567636,24
1568264,28
1568892,27
1569512,20
1570140,16
1570764,15
1571388,15
1572020,13
1572640,13
1573268,11
1573900,16
1574520,12
1575148,11
1575772,11
1576404,20
1577032,30
1577648,39
1578280,34
1578900,16
1579528,13
1580156,14
1580776,15
1581408,19
1582032,22
1582656,21
1583284,13
1583904,11
1584536,14
1585164,16
1585784,15
1586412,11
1587040,16
1587668,24
1588300,18
1588920,15
1589548,12
1590172,12
1590796,13
1591428,12
1592048,11
1592676,14
1593300,23
1593924,35
1594556,34
1595176,40
1595808,37
1596436,27
1597056,15
1597688,17
1598312,26
1598940,29
1599572,28
1600192,27
1600820,28
1601440,27
1602064,23
1602692,16
1603308,17
1603940,13
1604560,13
1605184,13
1605812,14
1606432,12
1607060,11
1607688,10
1608304,11
1608932,11
1609556,12
1610184,13
1610816,13
1611432,16
1612060,13
1612684,15
1613316,13
1613944,14
1614564,11
1615192,11
1615816,13
1616440,20
1617068,21
1617688,11
1618316,11
1618940,11
1619568,14
1620196,29
1620820,21
1621448,18
1622076,14
1622696,12
1623324,11
1623948,10
1624580,11
1625208,11
1625828,11
1626456,24
1627080,32
1627704,26
1628332,23
1628952,21
1629580,17
1630204,12
1630832,15
1631460,15
1632084,16
1632716,12
1633344,19
1633960,24
1634592,26
1635216,27
1635844,27
1636476,24
1637096,24
1637728,21
1638352,17
1638976,13
1639604,10
1640220,12
1640848,10
1641468,10
1642092,11
1642720,14
1643344,17
1643972,19
1644600,25
1645216,29
1645844,22
1646464,17
1647092,14
1647724,14
1648344,22
1648972,21
1649592,14
1650216,23
1650844,27
1651464,27
1652092,20
1652712,17
1653336,21
1653964,17
1654584,15
1655212,13
1655840,17
1656456,15
1657084,12
1657708,10
1658336,12
1658964,10
1659580,12
1660212,13
1660832,17
1661452,20
1662084,22
1662704,26
1663332,25
1663956,23
1664580,12
1665208,11
1665824,21
1666452,22
1667080,23
1667696,27
1668324,27
1668944,16
1669576,18
1670204,18
1670824,16
1671452,15
1672072,15
1672700,14
1673332,10
1673952,12
1674580,11
1675204,11
1675824,13
1676452,16
1677072,17
1677700,21
1678324,22
1678948,19
1679576,17
1680200,14
1680824,13
1681452,14
1682068,21
1682700,27
1683320,32
1683948,20
1684576,15
1685192,19
1685820,20
1686444,18
1687064,13
1687692,12
1688312,15
1688940,13
1689564,10
1690188,11
1690816,10
1691432,11
1692060,11
1692688,10
1693312,15
1693940,21
1694564,24
1695192,20
1695820,17
1696440,14
1697068,13
1697692,14
1698312,23
1698940,19
1699560,17
1700188,14
1700808,11
1701432,10
1702060,15
1702680,22
1703308,20
1703932,17
1704556,17
1705184,14
1705808,14
1706436,15
1707064,10
1707680,12
1708312,13
1708932,13
1709564,12
1710192,15
1710808,21
1711440,24
1712060,19
1712684,15
1713312,13
1713936,13
1714564,16
1715188,29
1715812,35
1716444,31
1717068,23
1717696,21
1718324,22
1718944,18
1719572,15
1720196,13
1720828,13
1721456,13
1722072,14
1722704,11
1723324,11
1723948,11
1724580,10
1725200,11
1725828,10
1726452,13
1727076,16
1727704,21
1728328,17
1728956,13
1729584,15
1730204,15
1730832,13
1731456,11
1732084,14
1732712,20
1733328,25
1733960,26
1734584,20
1735208,18
1735836,12
1736456,14
1737084,16
1737708,14
1738332,14
1738960,13
1739580,18
1740208,22
1740836,19
1741452,13
1742084,11
1742704,18
1743332,22
1743964,32
1744584,33
1745212,27
1745836,24
1746460,17
1747088,14
1747708,20
1748336,28
1748960,30
1749584,24
1750212,19
1750832,24
1751460,25
1752092,15
1752712,12
1753340,15
1753964,15
1754596,15
1755224,17
1755840,15
1756472,13
1757096,11
1757720,14
1758348,14
1758968,19
1759596,24
1760224,25
1760844,33
1761476,28
1762096,29
1762724,25
1763352,13
1763968,19
1764596,23
1765220,22
1765848,23
1766476,25
1767092,24
1767724,23
1768344,20
1768968,16
1769596,20
1770216,17
1770844,16
1771468,15
1772092,14
1772724,14
1773344,13
1773972,10
1774604,10
1775224,14
1775852,20
1776476,28
1777108,25
1777736,28
1778356,27
1778984,15
1779608,14
1780232,14
1780860,11
1781480,12
1782108,18
1782732,29
1783356,37
1783988,33
1784608,27
1785236,15
1785868,11
1786488,15
1787116,17
1787740,15
1788372,13
1789000,16
1789624,15
1790252,13
1790876,12
1791504,11
1792136,10
1792748,11
1793380,15
1794000,23
1794624,30
1795252,28
1795872,21
1796500,14
1797128,13
1797752,14
1798380,23
1799004,31
1799636,28
1800264,17
1800884,15
1801512,13
1802136,13
1802760,19
1803388,22
1804008,19
1804636,14
1805260,14
1805880,13
1806508,10
1807128,11
1807756,14
1808380,10
1809008,11
1809636,16
1810260,22
1810888,23
1811516,20
1812136,22
1812764,19
1813388,13
1814016,14
1814648,13
1815264,18
1815892,22
1816516,23
1817140,20
1817768,20
1818392,21
1819020,19
1819644,23
1820272,22
1820900,14
1821524,18
1822152,16
1822784,11
1823400,11
1824028,13
1824652,11
1825280,33
1825908,42
1826528,32
1827156,13
1827780,12
1828404,13
1829032,14
1829656,13
1830284,15
1830908,12
1831536,12
1832164,20
1832788,18
1833420,16
1834048,18
1834668,25
1835296,21
1835920,15
1836548,14
1837180,14
1837800,19
1838428,16
1839052,13
1839676,13
1840308,10
1840928,11
1841556,11
1842188,18
1842808,26
1843436,25
1844060,23
1844688,23
1845316,18
1845936,16
1846564,16
1847184,13
1847812,14
1848444,15
1849064,14
1849692,11
1850312,15
1850936,17
1851568,17
1852184,19
1852812,22
1853436,18
1854064,14
1854692,14
1855316,19
1855948,25
1856580,16
1857200,13
1857828,12
1858452,13
1859076,14
1859708,10
1860328,17
1860956,24
1861580,37
1862204,42
1862836,34
1863456,21
1864084,12
1864712,22
1865336,21
1865964,13
1866588,14
1867216,21
1867848,23
1868464,21
1869092,21
1869716,19
1870340,16
1870972,14
1871592,15
1872220,17
1872844,22
1873468,12
1874100,10
1874720,11
1875348,11
1875976,11
1876600,13
1877228,17
1877852,18
1878484,13
1879112,18
1879732,16
1880360,14
1880984,11
1881608,18
1882240,22
1882856,25
1883484,28
1884112,33
1884736,32
1885364,29
1885984,22
1886612,15
1887244,12
1887864,17
1888492,25
1889116,27
1889748,16
1890376,11
1890996,16
1891624,16
1892248,11
1892872,18
1893500,26
1894120,25
1894752,19
1895372,15
1895996,17
1896628,14
1897248,15
1897876,24
1898508,27
1899128,26
1899756,14
1900384,14
1901012,19
1901644,34
1902264,35
1902892,27
1903516,15
1904144,24
1904772,14
1905392,14
1906020,16
1906644,14
1907268,17
1907900,26
1908520,17
1909148,17
1909780,24
1910400,24
1911028,20
1911656,20
1912284,21
1912916,19
1913536,19
1914168,12
1914792,11
1915416,18
1916048,23
1916664,22
1917296,24
1917920,31
1918544,27
1919176,23
1919796,21
1920428,19
1921056,18
1921672,17
1922300,14
1922924,10
1923552,12
1924184,13
1924800,11
1925428,13
1926052,21
1926676,31
1927304,36
1927920,34
1928552,23
1929176,17
1929796,13
1930428,16
1931048,22
1931676,29
1932308,34
1932928,28
1933556,17
1934180,15
1934808,11
1935440,11
1936056,13
1936684,15
1937308,17
1937932,14
1938560,16
1939180,12
1939808,11
1940432,11
1941056,14
1941684,24
1942304,27
1942936,27
1943564,24
1944184,19
1944812,15
1945436,13
1946068,13
1946700,16
1947320,13
1947948,12
1948572,10
1949196,13
1949824,20
1950448,31
1951076,39
1951704,31
1952328,33
1952956,33
1953576,44
1954204,33
1954836,14
1955456,13
1956084,10
1956708,11
1957340,10
1957968,22
1958588,41
1959216,61
1959840,81
1960464,79
1961092,68
1961712,55
1962340,65
1962964,79
1963588,65
1964220,27
1964840,34
1965468,73
1966100,103
1966772,116
1967448,125
1968116,140
1968788,133
1969464,110
1970132,62
1970752,33
1971380,19
1972000,47
1972628,44
1973256,35
1973872,22
1974504,16
1975124,11
1975756,13
1976384,14
1977008,17
1977636,14
1978260,15
1978884,14
1979516,14
1980136,14
1980764,11
1981388,14
1982012,17
1982644,18
1983264,19
1983892,14
1984524,15
1985144,11
1985772,11
1986396,12
1987028,13
1987656,15
1988272,15
1988900,13
1989524,12
1990148,11
1990780,16
1991400,14
1992028,11
1992652,11
1993276,14
1993908,18
1994528,26
1995156,24
1995788,27
1996408,23
1997036,18
1997660,11
1998292,21
1998920,34
1999540,31
2000168,32
2000788,38
2001412,27
2002044,14
2002664,11
2003292,13
2003916,13
2004536,13
2005168,13
2005784,13
2006412,12
2007036,16
2007664,13
2008292,11
2008916,11
2009548,12
2010176,18
2010792,28
2011424,26
2012048,18
2012676,14
2013308,15
2013928,17
2014556,21
2015180,21
2015804,21
2016436,20
2017056,20
2017684,17
2018312,12
2018936,12
2019564,16
2020188,15
2020820,20
2021448,19
2022064,15
2022696,12
2023320,12
2023944,13
2024572,10
2025192,13
2025820,12
2026444,13
2027068,13
2027700,21
2028320,24
2028948,19
2029576,13
2030200,14
2030828,17
2031452,11
2032084,12
2032712,16
2033336,14
2033964,9
2034536,11
2035176,12
2035804,16
2036424,19
2037052,21
2037680,20
2038304,18
2038932,14
2039552,12
2040184,12
2040808,11
2041432,10
2042060,10
2042680,11
2043308,11
2043940,10
2044560,15
2045192,13
2045816,15
2046444,15
2047076,13
2047696,12
2048328,11
2048948,11
2049568,12
2050196,12
2050816,16
2051440,19
2052064,17
2052684,13
2053312,13
2053932,13
2054564,13
2055192,14
2055808,11
2056436,10
2057056,10
2057688,10
2058316,11
2058932,12
2059564,15
2060184,11
2060804,12
2061432,13
2062056,15
2062684,16
2063308,14
2063928,18
2064560,21
2065176,15
2065804,11
2066428,10
2067056,19
2067684,19
2068304,14
2068936,15
2069564,13
2070184,14
2070812,14
2071436,14
2072064,15
2072692,20
2073312,25
2073940,22
2074564,15
2075184,17
2075816,27
2076432,20
2077060,11
2077684,23
2078308,35
2078936,31
2079560,18
2080188,16
2080816,17
2081432,19
2082060,19
2082684,17
2083312,12
2083940,17
2084560,24
2085188,21
2085808,23
2086432,19
2087060,16
2087680,18
2088308,22
2088932,18
2089552,12
2090184,11
2090800,11
2091428,14
2092056,18
2092680,25
2093308,25
2093932,18
2094560,20
2095188,22
2095808,15
2096436,14
2097060,14
2097684,20
2098312,25
2098928,25
2099556,21
2100180,18
2100800,22
2101428,21
2102048,26
2102676,27
2103304,17
2103928,16
2104556,14
2105180,13
2105808,11
2106440,10
2107056,11
2107684,16
2108308,21
2108932,20
2109564,10
2110184,25
2110812,17
2111436,15
2112060,13
2112688,14
2113304,15
2113932,16
2114556,10
2115184,11
2115812,13
2116436,13
2117068,12
2117696,15
2118316,18
2118944,17
2119568,21
2120196,14
2120828,13
2121448,14
2122076,14
2122700,14
2123324,11
2123952,10
2124576,11
2125204,13
2125836,20
2126456,16
2127084,16
2127708,15
2128336,12
2128968,14
2129584,14
2130212,14
2130836,16
2131460,13
2132092,12
2132712,21
2133340,19
2133964,14
2134588,18
2135216,16
2135832,15
2136460,15
2137084,14
2137712,15
2138340,13
2138964,16
2139592,19
2140220,18
2140840,15
2141468,14
2142092,10
2142720,13
2143348,11
2143968,14
2144600,17
2145220,15
2145844,13
2146476,13
2147096,13
2147724,12
2148348,12
2148976,15
2149604,12
2150228,13
2150860,16
2151488,20
2152112,22
2152740,23
2153364,25
2153988,24
2154620,14
2155240,14
2155868,12
2156492,15
2157116,30
2157744,27
2158364,11
2158992,14
2159620,15
2160240,13
2160868,12
2161492,12
2162120,15
2162748,21
2163368,17
2163996,11
2164620,12
2165248,15
2165880,20
2166496,16
2167124,18
2167748,18
2168372,13
2169000,10
2169624,15
2170252,15
2170876,17
2171504,22
2172132,17
2172756,14
2173388,12
2174016,10
2174640,12
2175268,11
2175892,13
2176520,15
2177148,16
2177768,24
2178396,22
2179020,19
2179644,15
2180272,13
2180888,14
2181520,17
2182140,18
2182768,20
2183396,16
2184020,15
2184648,13
2185276,11
2185896,15
2186524,15
2187148,14
2187780,16
2188408,20
2189028,19
2189656,15
2190280,11
2190904,12
2191532,10
2192152,11
2192780,13
2193404,13
2194032,14
2194660,15
2195284,13
2195916,21
2196544,25
2197164,21
2197792,11
2198416,17
2199044,21
2199676,22
2200296,16
2200924,12
2201548,10
2202176,11
2202804,12
2203424,13
2204052,13
2204684,14
2205304,17
2205932,13
2206556,11
2207188,12
2207820,12
2208440,15
2209068,11
2209692,11
2210316,11
2210948,13
2211568,13
2212196,13
2212820,17
2213444,21
2214072,19
2214696,17
2215324,15
2215956,12
2216576,22
2217204,29
2217828,37
2218460,38
2219088,30
2219704,19
2220336,14
2220960,13
2221584,14
2222212,10
2222832,11
2223460,10
2224084,10
2224708,10
2225340,10
2225960,13
2226588,12
2227220,14
2227840,20
2228468,18
2229092,19
2229724,18
2230352,11
2230976,17
2231608,18
2232232,15
2232856,13
2233484,18
2234104,23
2234732,18
2235356,15
2235984,15
2236612,15
2237232,20
2237864,13
2238492,14
2239112,11
2239744,10
2240368,11
2240996,10
2241624,13
2242248,12
2242876,13
2243500,21
2244124,17
2244752,14
2245376,17
2246004,24
2246628,23
2247252,11
2247884,10
2248504,13
2249132,17
2249764,22
2250384,23
2251012,14
2251640,12
2252268,14
2252900,16
2253516,17
2254148,13
2254772,14
2255396,12
2256024,10
2256640,14
2257268,12
2257892,10
2258516,11
2259144,10
2259768,15
2260396,14
2261028,14
2261648,19
2262276,16
2262900,13
2263532,14
2264160,10
2264780,13
2265408,13
2266032,17
2266656,16
2267284,14
2267904,17
2268532,26
2269156,30
2269780,23
2270412,14
2271032,13
2271664,21
2272292,14
2272912,12
2273540,11
2274164,11
2274796,13
2275424,12
2276044,11
2276672,18
2277296,24
2277920,25
2278548,21
2279168,18
2279796,16
2280420,11
2281044,13
2281672,22
2282296,29
2282924,31
2283556,18
2284176,13
2284804,12
2285428,15
2286056,14
2286688,13
2287308,13
2287936,17
2288560,13
2289184,19
2289812,17
2290432,13
2291060,10
2291688,12
2292312,15
2292940,16
2293560,17
2294192,15
2294820,12
2295440,15
2296068,13
2296692,14
2297320,10
2297952,11
2298568,10
2299200,12
2299820,12
2300448,29
2301076,29
2301696,22
2302324,13
2302952,13
2303576,15
2304208,17
2304824,14
2305452,15
2306080,21
2306696,18
2307324,14
2307948,10
2308576,10
2309208,13
2309824,18
2310452,20
2311076,22
2311700,21
2312328,19
2312948,15
2313576,13
2314200,12
2314824,11
2315452,13
2316072,12
2316700,12
2317332,24
2317952,25
2318580,24
2319204,21
2319836,16
2320464,15
2321088,15
2321716,17
2322340,11
2322964,11
2323592,10
2324216,12
2324844,12
2325468,12
2326092,16
2326720,13
2327344,15
2327972,18
2328604,16
2329224,15
2329852,14
2330476,12
2331108,12
2331736,10
2332360,12
2332988,21
2333612,27
2334236,31
2334868,26
2335488,22
2336116,23
2336740,23
2337364,18
2337992,16
2338612,26
2339240,34
2339868,19
2340488,11
2341116,19
2341740,13
2342372,14
2343004,30
2343624,51
2344252,37
2344876,15
2345500,15
2346132,18
2346752,21
2347380,28
2348008,27
2348628,26
2349260,18
2349880,11
2350508,14
2351140,10
2351760,17
2352392,21
2353016,23
2353644,26
2354276,23
2354896,16
2355528,11
2356148,13
2356772,11
2357404,10
2358024,13
2358652,13
2359276,13
2359900,18
2360532,24
2361156,19
2361788,16
2362416,19
2363032,14
2363664,13
2364288,14
2364916,26
2365548,27
2366168,19
2366796,16
2367424,15
2368048,13
2368676,12
2369296,14
2369924,14
2370548,13
2371172,15
2371804,14
2372428,10
2373060,12
2373688,10
2374312,15
2374944,19
2375568,14
2376200,11
2376828,10
2377448,15
2378076,14
2378700,13
2379324,13
2379956,16
2380576,11
2381208,13
2381836,12
2382456,13
2383084,12
2383708,12
2384340,14
2384968,22
2385592,25
2386224,19
2386848,21
2387472,24
2388100,19
2388720,17
2389348,14
2389976,11
2390600,11
2391228,11
2391848,11
2392480,20
2393108,22
2393728,28
2394356,24
2394984,13
2395612,14
2396244,12
2396864,12
2397492,13
2398116,10
2398744,10
2399372,10
2399992,11
2400624,16
2401248,17
2401872,17
2402500,22
2403120,20
2403748,14
2404380,13
2405000,15
2405628,12
2406256,11
2406884,11
2407512,10
2408136,11
2408764,11
2409388,10
2410012,11
2410644,12
2411264,13
2411892,14
2412516,15
2413140,15
2413772,10
2414392,11
2415024,11
2415652,10
2416272,9
2416852,11
2417480,16
2418108,10
2418740,10
2419360,14
2419988,13
2420612,19
2421244,17
2421872,20
2422492,19
2423120,14
2423744,12
2424368,16
2424996,12
2425616,15
2426244,25
2426868,23
2427492,15
2428124,12
2428748,14
2429380,13
2430012,12
2430632,12
2431264,17
2431888,10
2432520,10
2433148,19
2433768,15
2434396,10
2435020,11
2435648,16
2436276,25
2436896,27
2437524,25
2438156,23
2438776,13
2439404,11
2440028,12
2440660,11
2441288,11
2441908,11
2442536,12
2443160,16
2443788,15
2444416,16
2445040,18
2445668,15
2446292,13
2446916,11
2447548,10
2448168,11
2448796,10
2449428,18
2450048,15
2450676,14
2451304,19
2451932,29
2452564,29
2453184,19
2453816,15
2454440,15
2455064,14
2455696,10
2456312,11
2456944,11
2457568,12
2458192,10
2458824,14
2459440,13
2460068,11
2460696,13
2461320,15
2461948,13
2462572,15
2463200,15
2463832,11
2464448,11
2465080,16
2465700,16
2466324,18
2466952,16
2467576,19
2468204,16
2468828,15
2469452,14
2470080,13
2470696,13
2471324,15
2471956,13
2472576,11
2473204,11
2473828,10
2474460,10
2475088,10
2475708,14
2476336,15
2476960,19
2477584,24
2478212,16
2478832,16
2479460,13
2480084,14
2480708,15
2481336,15
2481956,11
2482584,13
2483212,20
2483832,16
2484460,11
2485084,25
2485712,34
2486344,29
2486964,35
2487592,35
2488216,29
2488840,17
2489468,12
2490088,17
2490716,14
2491340,12
2491964,12
2492596,11
2493216,13
2493844,13
2494476,16
2495096,15
2495728,17
2496352,23
2496980,12
2497608,20
2498232,22
2498860,19
2499484,21
2500108,24
2500736,16
2501360,20
2501988,21
2502612,15
2503236,13
2503868,19
2504488,28
2505116,13
2505748,14
2506368,15
2506996,17
2507620,17
2508252,13
2508884,14
2509504,25
2510132,30
2510756,22
2511380,17
2512012,15
2512632,15
2513260,17
2513888,17
2514512,12
2515140,11
2515760,10
2516388,11
2517020,13
2517640,17
2518272,15
2518896,19
2519528,19
2520156,12
2520776,15
2521408,15
2522032,13
2522656,17
2523284,14
2523904,15
2524536,18
2525160,16
2525784,12
2526412,12
2527032,16
2527664,18
2528292,14
2528912,14
2529540,20
2530168,17
2530796,12
2531428,14
2532048,23
2532676,23
2533304,17
2533928,14
2534560,10
2535176,11
2535808,14
2536432,14
2537056,13
2537684,16
2538308,16
2538940,19
2539572,16
2540192,9
2540768,12
2541400,11
2542028,17
2542660,21
2543280,19
2543912,17
2544536,13
2545160,15
2545788,14
2546408,13
2547036,11
2547664,11
2548288,12
2548920,10
2549536,17
2550168,15
2550796,19
2551416,24
2552048,11
2552672,14
2553300,14
2553932,14
2554552,22
2555184,21
2555808,12
2556436,13
2557064,30
2557688,35
2558320,17
2558944,17
2559572,11
2560204,14
2560820,17
2561448,18
2562076,13
2562696,15
2563324,26
2563944,11
2564572,10
2565200,10
2565816,10
2566444,11
2567068,11
2567688,17
2568316,12
2568936,15
2569564,14
2570188,13
2570812,13
2571440,15
2572056,11
2572688,11
2573312,12
2573936,12
2574564,13
2575188,11
2575816,13
2576448,13
2577064,19
2577692,21
2578316,19
2578944,15
2579576,14
2580192,13
2580824,15
2581444,17
2582068,13
2582696,15
2583320,22
2583948,31
2584572,18
2585200,17
2585828,19
2586452,13
2587080,18
2587708,15
2588328,13
2588956,10
2589580,11
2590208,16
2590836,15
2591456,12
2592084,16
2592708,20
2593332,13
2593960,14
2594576,13
2595208,17
2595828,16
2596452,17
2597084,15
2597708,10
2598336,15
2598968,16
2599584,12
2600216,16
2600840,16
2601468,13
2602100,18
2602720,20
2603348,22
2603972,19
2604596,15
2605228,16
2605848,20
2606476,18
2607100,14
2607728,13
2608356,11
2608980,15
2609612,15
2610240,19
2610860,15
2611488,13
2612112,15
2612740,15
2613372,10
2613992,9
2614568,11
2615200,10
2615824,11
2616452,10
2617072,11
2617700,10
2618324,13
2618948,18
2619580,16
2620200,15
2620828,14
2621460,12
2622076,17
2622708,15
2623332,13
2623960,11
2624588,13
2625204,11
2625832,14
2626456,15
2627080,19
2627708,22
2628328,19
2628956,15
2629576,14
2630200,12
2630832,10
2631448,11
2632076,10
2632700,12
2633328,15
2633956,19
2634580,25
2635208,37
2635836,28
2636456,19
2637084,15
2637708,14
2638336,12
2638968,13
2639584,11
2640212,13
2640836,10
2641456,10
2642088,14
2642704,11
2643332,12
2643952,21
2644576,16
2645204,14
2645828,13
2646456,15
2647084,14
2647704,16
2648332,13
2648952,14
2649584,19
2650212,20
2650832,25
2651460,17
2652084,15
2652708,13
2653336,14
2653952,16
2654584,17
2655208,11
2655832,18
2656460,22
2657080,21
2657708,21
2658336,13
2658960,25
2659588,47
2660212,46
2660840,28
2661472,16
2662088,14
2662720,16
2663340,12
2663964,14
2664592,17
2665208,21
2665836,23
2666460,23
2667080,20
2667708,16
2668328,14
2668956,15
2669584,15
2670200,13
2670832,13
2671452,13
2672084,12
2672712,15
2673328,13
2673956,11
2674580,10
2675204,11
2675832,11
2676456,11
2677084,12
2677708,13
2678332,16
2678960,16
2679584,15
2680212,10
2680844,10
2681464,11
2682092,12
2682716,10
2683344,12
2683976,22
2684592,24
2685220,18
2685844,15
2686468,16
2687100,20
2687720,24
2688348,15
2688972,14
2689592,11
2690224,11
2690840,11
2691468,15
2692092,20
2692720,19
2693348,11
2693972,13
2694600,13
2695228,14
2695848,15
2696476,15
2697100,10
2697728,11
2698360,12
2698976,13
2699604,12
2700228,12
2700852,14
2701480,10
2702096,13
2702728,12
2703352,15
2703976,15
2704604,15
2705228,14
2705856,17
2706488,14
2707104,10
2707732,13
2708356,22
2708988,21
2709616,17
2710232,14
2710864,14
2711488,17
2712112,21
2712740,15
2713360,11
2713988,10
2714612,11
2715236,13
2715864,19
2716488,29
2717120,23
2717748,18
2718368,25
2718996,21
2719620,14
2720252,14
2720880,13
2721496,15
2722124,17
2722748,14
2723372,11
2724000,13
2724616,13
2725244,12
2725868,11
2726492,11
2727120,13
2727736,13
2728364,16
2728992,15
2729616,13
2730244,11
2730864,10
2731496,11
2732124,13
2732744,13
2733372,13
2733996,11
2734620,10
2735252,14
2735872,19
2736500,17
2737124,17
2737748,14
2738380,11
2739000,11
2739632,17
2740260,10
2740880,16
2741508,14
2742132,11
2742764,10
2743392,10
2744012,13
2744640,16
2745264,17
2745888,14
2746516,16
2747136,19
2747764,17
2748388,10
2749012,16
2749644,18
2750264,21
2750892,19
2751524,16
2752144,17
2752772,14
2753396,13
2754028,15
2754656,14
2755272,12
2755900,13
2756524,10
2757148,10
2757776,10
2758400,13
2759028,13
2759652,12
2760276,15
2760908,14
2761528,21
2762156,19
2762788,18
2763408,12
2764036,18
2764660,19
2765292,19
2765920,19
2766544,17
2767172,14
2767796,17
2768420,24
2769048,21
2769664,19
2770296,19
2770920,16
2771544,12
2772172,10
2772792,11
2773420,12
2774052,12
2774672,11
2775300,13
2775924,15
2776556,19
2777188,20
2777808,19
2778436,17
2779060,13
2779684,14
2780316,10
2780936,11
2781564,13
2782188,13
2782816,15
2783444,18
2784068,18
2784700,17
2785328,17
2785944,14
2786576,15
2787196,19
2787828,14
2788460,12
2789080,24
2789708,39
2790332,18
2790960,21
2791588,14
2792208,11
2792836,11
2793460,13
2794084,20
2794716,20
2795340,14
2795968,13
2796596,13
2797216,17
2797844,14
2798468,10
2799100,12
2799732,10
2800352,17
2800980,17
2801604,15
2802228,14
2802856,22
2803480,24
2804108,17
2804732,12
2805360,11
2805988,13
2806612,10
2807244,10
2807872,11
2808488,12
2809120,12
2809744,15
2810372,23
2811004,14
2811624,16
2812252,14
2812876,13
2813500,13
2814132,16
2814752,18
2815380,17
2816012,10
2816628,10
2817260,11
2817880,14
2818512,21
2819140,18
2819760,21
2820388,19
2821012,13
2821636,11
2822268,16
2822888,19
2823516,15
2824140,10
2824764,11
2825392,14
2826016,19
2826644,23
2827276,19
2827896,13
2828524,13
2829148,19
2829776,16
2830408,11
2831024,13
2831652,15
2832276,17
2832900,13
2833532,10
2834152,11
2834780,12
2835404,14
2836028,13
2836660,12
2837280,18
2837908,21
2838540,12
2839160,11
2839788,10
2840412,11
2841044,11
2841672,11
2842296,12
2842924,12
2843548,12
2844172,14
2844800,15
2845416,14
2846048,13
2846672,14
2847296,12
2847924,12
2848544,18
2849172,19
2849804,18
2850424,14
2851052,11
2851676,12
2852308,13
2852936,13
2853560,16
2854188,19
2854816,15
2855440,11
2856068,11
2856688,12
2857316,12
2857940,11
2858564,17
2859196,18
2859816,17
2860448,17
2861076,16
2861696,25
2862324,15
2862952,14
2863580,15
2864212,19
2864832,25
2865460,24
2866088,23
2866712,24
2867344,18
2867960,13
2868588,14
2869212,13
2869832,15
2870464,16
2871080,17
2871708,11
2872340,10
2872960,12
2873588,15
2874212,19
2874840,23
2875472,23
2876088,18
2876720,13
2877344,15
2877968,15
2878596,14
2879216,14
2879844,11
2880472,11
2881092,14
2881720,16
2882344,11
2882972,11
2883600,10
2884216,11
2884844,12
2885468,16
2886096,21
2886724,24
2887344,19
2887972,20
2888596,28
2889220,24
2889852,16
2890472,11
2891100,24
2891724,27
2892348,15
2892976,13
2893596,27
2894228,25
2894856,18
2895480,17
2896108,13
2896732,22
2897360,20
2897988,11
2898608,14
2899236,11
2899860,9
2900432,15
2901068,19
2901688,15
2902316,13
2902940,13
2903564,13
2904196,16
2904816,12
2905444,11
2906068,12
2906692,13
2907324,16
2907944,12
2908576,13
2909204,16
2909824,17
2910452,14
2911076,15
2911708,13
2912336,14
2912960,15
2913588,12
2914212,10
2914836,11
2915468,12
2916088,16
2916716,23
2917340,23
2917968,22
2918596,20
2919216,22
2919844,19
2920472,21
2921096,24
2921724,20
2922348,15
2922976,13
2923608,10
2924224,11
2924856,13
2925480,11
2926100,15
2926732,25
2927352,34
2927984,25
2928608,18
2929232,17
2929860,11
2930480,13
2931108,10
2931740,10
2932360,17
2932988,17
2933612,16
2934244,15
2934876,16
2935496,13
2936128,13
2936752,15
2937376,13
2938004,13
2938624,13
2939256,11
2939880,14
2940504,14
2941132,14
2941752,12
2942384,17
2943016,22
2943632,22
2944264,19
2944888,13
2945516,14
2946148,12
2946768,11
2947396,13
2948020,22
2948644,23
2949276,20
2949896,17
2950524,19
2951148,20
2951772,19
2952400,17
2953016,18
2953648,19
2954276,13
2954896,11
2955524,12
2956148,15
2956780,16
2957408,16
2958032,11
2958660,15
2959288,15
2959912,16
2960540,13
2961160,14
2961788,16
2962412,26
2963036,16
2963668,12
2964288,19
2964920,12
2965548,10
2966168,11
2966796,11
2967420,25
2968052,35
2968680,31
2969304,22
2969932,17
2970556,21
2971180,17
2971808,10
2972432,14
2973060,33
2973684,30
2974308,11
2974940,19
2975564,22
2976192,17
2976820,13
2977440,13
2978068,15
2978692,15
2979320,14
2979952,12
2980568,13
2981196,15
2981820,10
2982444,10
2983072,11
2983696,12
2984324,9
2984896,10
2985520,15
2986148,15
2986768,15
2987396,13
2988024,13
2988648,14
2989276,11
2989900,10
2990532,10
2991164,10
2991784,17
2992416,21
2993036,19
2993668,16
2994296,12
2994920,12
2995552,13
2996172,15
2996796,17
2997428,12
2998048,12
2998676,11
2999308,14
2999928,11
3000560,16
3001184,15
3001812,19
3002444,20
3003064,19
3003692,15
3004316,14
3004944,12
3005572,11
3006192,12
3006824,10
3007448,11
3008072,13
3008700,11
3009320,12
3009948,11
3010580,12
3011200,17
3011828,21
3012452,16
3013084,11
3013716,12
3014336,12
3014968,11
3015592,13
3016216,19
3016844,18
3017464,14
3018096,11
3018720,16
3019344,14
3019976,22
3020596,18
3021224,16
3021856,14
3022472,10
3023104,17
3023728,24
3024360,23
3024988,13
3025608,12
3026236,11
3026864,15
3027488,22
3028120,33
3028736,33
3029368,25
3029992,10
3030616,15
3031248,13
3031864,16
3032496,14
3033124,12
3033744,17
3034372,17
3035000,17
3035628,18
3036260,15
3036880,15
3037508,13
3038136,12
3038760,11
3039388,10
3040008,10
3040636,11
3041260,18
3041884,21
3042516,14
3043140,15
3043772,18
3044400,14
3045024,14
3045656,17
3046280,23
3046908,28
3047540,32
3048160,35
3048788,26
3049412,19
3050040,15
3050668,21
3051288,13
3051920,12
3052548,12
3053168,15
3053796,15
3054424,15
3055052,11
3055684,14
3056304,19
3056936,11
3057560,11
3058184,12
3058816,13
3059432,16
3060064,15
3060688,12
3061312,14
3061944,13
3062560,14
3063192,11
3063824,13
3064444,10
3065072,11
3065696,15
3066324,12
3066956,10
3067576,11
3068208,10
3068832,21
3069456,25
3070088,24
3070704,21
3071340,15
3071964,12
3072592,14
3073220,10
3073840,11
3074468,12
3075096,18
3075720,22
3076348,19
3076972,17
3077604,14
3078232,14
3078848,13
3079480,15
3080104,11
3080728,13
3081356,16
3081976,17
3082604,13
3083228,11
3083852,10
3084480,10
3085104,14
3085732,16
3086364,14
3086984,14
3087612,14
3088236,11
3088868,17
3089496,21
3090112,18
3090744,13
3091368,11
3091992,11
3092624,11
3093240,11
3093868,13
3094492,13
3095116,16
3095748,19
3096368,12
3096996,15
3097628,19
3098248,18
3098876,11
3099500,10
3100132,10
3100764,10
3101384,11
3102016,15
3102640,22
3103264,21
3103896,15
3104512,12
3105144,12
3105768,13
3106392,11
3107024,14
3107640,14
3108272,13
3108900,11
3109520,13
3110152,13
3110776,13
3111408,15
3112036,16
3112656,17
3113288,11
3113912,9
3114484,14
3115116,25
3115736,24
3116368,15
3116992,12
3117616,13
3118244,19
3118864,17
3119492,16
3120120,17
3120744,13
3121372,11
3121996,11
3122628,15
3123260,14
3123880,13
3124508,11
3125132,11
3125760,11
3126392,11
3127008,13
3127640,14
3128264,15
3128888,18
3129516,28
3130136,17
3130768,14
3131396,16
3132016,19
3132648,12
3133272,11
3133900,13
3134532,14
3135152,15
3135784,20
3136408,17
3137032,14
3137660,15
3138280,21
3138908,15
3139532,11
3140156,11
3140788,11
3141408,17
3142036,16
3142668,11
3143288,15
3143916,13
3144544,14
3145172,14
3145804,14
3146424,14
3147052,13
3147680,12
3148304,13
3148932,9
3149500,11
3150132,11
3150760,13
3151384,32
3152016,42
3152632,49
3153264,39
3153888,25
3154512,12
3155144,16
3155760,23
3156392,27
3157024,36
3157640,23
3158272,23
3158896,21
3159528,23
3160156,24
3160776,16
3161408,16
3162032,15
3162656,13
3163288,19
3163904,32
3164536,36
3165160,29
3165784,25
3166416,25
3167032,23
3167664,18
3168296,17
3168912,14
3169544,13
3170168,14
3170800,14
3171428,11
3172048,10
3172680,14
3173304,13
3173928,11
3174560,27
3175176,20
3175808,14
3176432,17
3177056,13
3177684,13
3178308,17
3178940,14
3179572,16
3180192,27
3180824,28
3181444,28
3182076,13
3182708,16
3183328,14
3183960,10
3184584,11
3185212,13
3185840,15
3186464,18
3187096,17
3187728,14
3188344,10
3188976,11
3189600,13
3190232,13
3190864,11
3191484,12
3192112,15
3192740,18
3193364,19
3193996,12
3194616,14
3195248,14
3195872,20
3196500,13
3197128,10
3197752,16
3198384,20
3199016,23
3199636,31
3200268,30
3200892,26
3201520,26
3202148,17
3202768,14
3203396,22
3204020,30
3204640,29
3205272,17
3205888,12
3206516,11
3207140,15
3207764,19
3208392,17
3209008,12
3209636,15
3210264,15
3210888,15
3211516,14
3212140,14
3212768,15
3213400,14
3214020,16
3214648,16
3215272,13
3215896,12
3216524,12
3217144,11
3217772,11
3218396,15
3219020,17
3219652,17
3220272,16
3220900,15
3221532,10
3222152,11
3222780,11
3223404,12
3224036,11
3224664,12
3225288,19
3225916,21
3226540,18
3227164,15
3227796,20
3228416,16
3229044,15
3229668,21
3230292,18
3230924,18
3231544,13
3232172,10
3232804,10
3233424,13
3234052,17
3234676,25
3235308,14
3235936,15
3236556,17
3237184,17
3237808,13
3238432,19
3239060,18
3239680,19
3240308,14
3240932,14
3241556,11
3242188,12
3242808,11
3243436,14
3244068,12
3244688,14
3245316,13
3245940,15
3246572,13
3247204,17
3247824,19
3248456,16
3249080,11
3249700,13
3250332,10
3250952,11
3251584,13
3252208,14
3252832,14
3253460,17
3254084,17
3254716,15
3255344,15
3255968,11
3256600,11
3257224,12
3257852,15
3258484,14
3259104,15
3259736,19
3260360,22
3260984,17
3261612,13
3262232,13
3262864,11
3263492,11
3264112,13
3264740,21
3265364,19
3265996,21
3266624,22
3267248,22
3267876,11
3268500,22
3269128,27
3269756,16
3270376,19
3271008,25
3271632,22
3272256,17
3272884,14
3273504,12
3274136,11
3274768,20
3275384,18
3276016,16
3276640,14
3277272,14
3277900,12
3278520,17
3279148,13
3279768,14
3280392,16
3281020,16
3281636,15
3282264,12
3282888,13
3283508,17
3284140,17
3284760,17
3285388,18
3286008,17
3286632,18
3287260,18
3287884,14
3288512,11
3289140,14
3289760,22
3290388,24
3291008,12
3291636,11
3292264,11
3292888,12
3293516,16
3294136,12
3294760,13
3295388,12
3296008,12
3296636,10
3297256,11
3297880,11
3298508,13
3299128,15
3299756,11
3300384,10
3301000,13
3301632,19
3302256,17
3302884,15
3303512,15
3304128,14
3304760,10
3305380,12
3306004,11
3306636,10
3307256,15
3307884,17
3308508,15
3309132,20
3309760,26
3310376,18
3311004,13
3311636,16
3312256,15
3312884,12
3313508,13
3314136,15
3314768,20
3315384,19
3316016,22
3316640,20
3317260,15
3317892,14
3318512,17
3319140,15
3319764,13
3320388,14
3321016,17
3321632,11
3322264,12
3322892,16
3323512,15
3324140,12
3324764,11
3325396,15
3326024,11
3326644,14
3327272,13
3327896,13
3328520,15
3329148,13
3329768,10
3330396,11
3331016,13
3331640,11
3332268,10
3332888,12
3333516,11
3334140,13
3334760,16
3335392,15
3336016,13
3336644,13
3337272,14
3337888,23
3338520,27
3339140,17
3339772,11
3340400,11
3341016,13
3341648,17
3342268,20
3342892,21
3343520,22
3344144,21
3344772,14
3345396,13
3346020,12
3346648,17
3347272,17
3347900,16
3348528,11
3349152,14
3349780,16
3350404,15
3351032,14
3351664,13
3352280,14
3352908,14
3353532,15
3354160,17
3354788,16
3355408,17
3356036,11
3356660,12
3357284,13
3357916,12
3358540,11
3359168,16
3359800,30
3360416,27
3361044,19
3361668,14
3362296,14
3362924,12
3363544,13
3364172,13
3364792,15
3365416,11
3366048,13
3366664,14
3367292,15
3367916,16
3368540,14
3369168,13
3369784,13
3370412,13
3371040,12
3371664,12
3372292,15
3372916,16
3373544,12
3374176,16
3374792,17
3375420,14
3376044,17
3376668,20
3377296,20
3377912,16
3378544,20
3379168,17
3379792,13
3380420,10
3381040,10
3381668,18
3382296,21
3382912,12
3383544,12
3384168,11
3384796,13
3385424,11
3386048,14
3386676,19
3387300,16
3387924,15
3388552,11
3389172,12
3389800,13
3390424,10
3391048,11
3391676,11
3392296,13
3392924,15
3393552,16
3394176,13
3394804,13
3395428,15
3396056,11
3396688,11
3397304,19
3397932,25
3398556,15
3399180,10
3399812,20
3400432,21
3401060,17
3401684,15
3402304,14
3402936,18
3403552,18
3404180,16
3404812,10
3405428,10
3406060,10
3406684,11
3407312,11
3407940,11
3408560,11
3409188,16
3409812,22
3410440,17
3411068,18
3411688,15
3412316,13
3412940,14
3413564,14
3414196,16
3414816,19
3415444,20
3416076,14
3416696,11
3417324,10
3417948,14
3418580,16
3419208,14
3419832,19
3420460,22
3421084,12
3421708,10
3422340,10
3422960,12
3423588,14
3424216,15
3424836,12
3425468,10
3426088,11
3426716,13
3427348,13
3427968,14
3428596,13
3429220,13
3429852,11
3430484,12
3431104,13
3431732,13
3432356,13
3432980,15
3433608,16
3434232,18
3434860,17
3435488,17
3436112,28
3436740,26
3437360,15
3437988,15
3438620,21
3439240,21
3439872,20
3440496,15
3441124,11
3441756,18
3442376,19
3443004,19
3443628,22
3444252,25
3444880,19
3445496,14
3446128,14
3446752,17
3447372,11
3448004,19
3448624,25
3449252,23
3449884,16
3450504,15
3451132,18
3451756,19
3452388,16
3453020,14
3453640,14
3454268,11
3454892,11
3455516,18
3456148,16
3456768,11
3457396,11
3458020,10
3458640,12
3459272,10
3459888,14
3460516,12
3461148,13
3461768,15
3462396,16
3463020,15
3463648,17
3464280,10
3464896,10
3465524,13
3466148,15
3466772,11
3467404,10
3468024,14
3468652,13
3469276,14
3469900,16
3470532,16
3471152,16
3471784,16
3472412,12
3473032,11
3473660,11
3474284,11
3474916,12
3475544,19
3476168,20
3476796,16
3477424,13
3478048,14
3478676,14
3479296,11
3479924,12
3480552,12
3481176,10
3481808,12
3482424,15
3483052,14
3483680,10
3484304,11
3484932,14
3485556,14
3486184,14
3486812,16
3487432,18
3488060,17
3488684,14
3489304,11
3489936,10
3490552,11
3491180,12
3491808,11
3492432,11
3493060,14
3493680,13
3494308,13
3494940,12
3495560,15
3496188,10
3496812,11
3497444,13
3498072,14
3498692,13
3499320,17
3499948,13
3500572,10
3501200,11
3501824,15
3502456,17
3503076,18
3503704,20
3504332,17
3504952,17
3505580,14
3506212,14
3506832,15
3507464,11
3508084,17
3508716,23
3509348,19
3509968,13
3510596,13
3511224,19
3511848,17
3512476,11
3513096,12
3513728,15
3514352,15
3514976,23
3515608,43
3516232,35
3516860,28
3517492,28
3518112,27
3518744,19
3519368,14
3520000,14
3520628,25
3521248,20
3521876,13
3522500,12
3523128,11
3523756,10
3524376,20
3525004,13
3525628,18
3526256,22
3526884,17
3527508,13
3528140,13
3528768,15
3529384,24
3530016,23
3530640,24
3531268,14
3531900,10
3532520,12
3533148,11
3533772,13
3534396,23
3535028,24
3535648,25
3536276,29
3536908,19
3537528,12
3538156,13
3538780,11
3539412,13
3540040,15
3540660,26
3541288,26
3541912,13
3542536,12
3543164,15
3543784,17
3544412,16
3545036,14
3545660,13
3546292,12
3546912,17
3547540,19
3548172,16
3548792,23
3549420,23
3550048,22
3550676,13
3551308,14
3551928,24
3552560,25
3553184,15
3553808,14
3554436,11
3555056,15
3555688,21
3556312,16
3556936,12
3557568,11
3558184,12
3558816,14
3559444,18
3560064,20
3560692,16
3561316,15
3561948,14
3562580,11
3563200,14
3563828,17
3564456,17
3565080,21
3565708,22
3566328,21
3566956,20
3567584,18
3568208,15
3568836,14
3569456,13
3570084,13
3570716,12
3571336,12
3571964,11
3572592,11
3573220,11
3573852,11
3574472,15
3575100,11
3575728,11
3576352,14
3576980,12
3577600,14
3578228,13
3578856,15
3579480,14
3580112,14
3580728,13
3581360,10
3581992,10
3582616,14
3583248,15
3583876,17
3584508,17
3585136,16
3585752,14
3586384,13
3587008,14
3587632,11
3588260,11
3588880,11
3589508,10
3590132,11
3590756,10
3591388,14
3592012,17
3592640,12
3593268,14
3593888,14
3594516,15
3595140,20
3595772,15
3596404,10
3597024,11
3597652,13
3598276,13
3598904,11
3599532,11
3600152,20
3600780,27
3601404,26
3602032,22
3602660,16
3603284,13
3603916,14
3604544,11
3605168,11
3605796,10
3606420,11
3607044,10
3607672,11
3608296,13
3608924,12
3609548,15
3610172,19
3610800,13
3611424,13
3612052,20
3612680,18
3613304,13
3613932,21
3614556,15
3615188,10
3615816,18
3616440,24
3617068,22
3617692,13
3618316,12
3618944,19
3619560,20
3620192,15
3620816,12
3621440,13
3622068,10
3622688,19
3623316,17
3623948,12
3624568,12
3625196,16
3625820,18
3626452,20
3627080,17
3627696,22
3628328,26
3628952,20
3629576,11
3630204,12
3630824,22
3631452,27
3632076,31
3632700,28
3633332,26
3633952,21
3634580,21
3635212,14
3635832,15
3636460,13
3637084,13
3637716,10
3638344,11
3638964,10
3639592,10
3640216,12
3640840,12
3641472,11
3642088,13
3642720,14
3643344,15
3643968,15
3644600,16
3645216,14
3645848,12
3646476,12
3647096,12
3647724,13
3648352,10
3648980,10
3649608,19
3650224,20
3650852,12
3651476,17
3652104,13
3652732,14
3653352,21
3653980,24
3654608,19
3655228,14
3655860,12
3656480,11
3657108,11
3657740,18
3658360,19
3658988,12
3659612,15
3660244,12
3660876,12
3661496,13
3662124,16
3662748,17
3663372,14
3664004,10
3664624,12
3665252,14
3665880,17
3666504,16
3667132,13
3667752,12
3668380,13
3669012,16
3669632,16
3670264,13
3670888,11
3671516,11
3672148,10
3672768,11
3673400,12
3674024,15
3674648,18
3675276,16
3675896,13
3676528,14
3677152,14
3677776,15
3678408,13
3679024,14
3679656,14
3680288,15
3680904,15
3681532,10
3682156,15
3682788,11
3683420,14
3684040,23
3684668,24
3685296,20
3685920,17
3686548,15
3687168,21
3687796,19
3688420,13
3689040,11
3689668,11
3690288,15
3690916,11
3691544,11
3692160,12
3692792,13
3693416,17
3694044,13
3694676,17
3695296,17
3695924,15
3696552,22
3697172,12
3697804,10
3698424,20
3699052,25
3699676,23
3700300,15
3700932,14
3701552,17
3702184,19
3702812,18
3703432,21
3704064,20
3704688,15
3705316,10
3705948,12
3706568,13
3707196,13
3707824,16
3708448,15
3709076,14
3709696,14
3710324,13
3710952,14
3711576,13
3712208,13
3712824,11
3713452,15
3714084,24
3714704,28
3715332,25
3715956,20
3716588,13
3717216,10
3717840,13
3718468,15
3719092,13
3719716,13
3720348,12
3720968,11
3721596,11
3722224,11
3722848,11
3723476,11
3724100,11
3724732,11
3725364,16
3725984,19
3726616,16
3727240,13
3727868,14
3728500,15
3729120,15
3729748,15
3730372,11
3731000,11
3731628,11
3732248,10
3732876,11
3733500,10
3734128,16
3734756,25
3735384,22
3736012,15
3736644,12
3737264,13
3737896,11
3738520,11
3739144,11
3739772,10
3740392,11
3741024,15
3741648,25
3742272,20
3742900,13
3743520,13
3744152,17
3744780,16
3745400,14
3746028,10
3746652,14
3747284,19
3747916,13
3748536,12
3749164,13
3749788,12
3750416,11
3751044,12
3751664,14
3752296,14
3752920,14
3753544,15
3754176,12
3754792,11
3755424,10
3756056,10
3756676,13
3757308,13
3757932,11
3758564,11
3759196,12
3759816,14
3760448,13
3761072,13
3761696,13
3762324,10
3762944,10
3763576,10
3764200,11
3764824,15
3765452,15
3766072,16
3766704,15
3767332,14
3767952,13
3768584,14
3769208,14
3769836,16
3770468,18
3771088,14
3771716,13
3772344,11
3772968,11
3773596,10
3774216,13
3774848,13
3775472,14
3776096,19
3776724,17
3777348,14
3777980,14
3778608,15
3779232,10
3779860,17
3780484,21
3781116,25
3781748,24
3782368,28
3783000,25
3783624,19
3784248,11
3784876,13
3785496,17
3786128,16
3786756,14
3787376,14
3788008,13
3788632,13
3789264,20
3789892,18
3790512,13
3791140,11
3791768,13
3792392,15
3793020,17
3793640,14
3794268,13
3794892,13
3795516,13
3796148,14
3796768,11
3797400,13
3798028,14
3798648,11
3799280,11
3799904,11
3800536,12
3801164,16
3801784,20
3802412,18
3803036,20
3803664,18
3804292,14
3804912,17
3805540,22
3806168,15
3806792,11
3807424,11
3808040,11
3808672,11
3809300,12
3809920,13
3810548,13
3811172,15
3811804,13
3812436,12
3813056,11
3813688,17
3814312,13
3814936,10
3815568,10
3816188,12
3816816,14
3817444,12
3818068,15
3818696,17
3819320,14
3819952,13
3820584,13
3821200,13
3821832,11
3822456,11
3823088,11
3823716,10
3824336,11
3824968,14
3825592,15
3826216,14
3826848,14
3827468,13
3828100,14
3828724,14
3829348,13
3829980,13
3830608,12
3831236,13
3831868,11
3832488,11
3833120,14
3833744,13
3834376,14
3835008,12
3835628,14
3836256,14
3836884,13
3837508,11
3838140,20
3838760,24
3839392,19
3840028,11
3840644,12
3841276,15
3841896,19
3842528,19
3843156,26
3843776,24
3844404,13
3845028,13
3845652,11
3846284,12
3846904,15
3847532,10
3848156,10
3848780,11
3849412,11
3850032,13
3850660,23
3851292,30
3851912,31
3852540,21
3853168,15
3853796,14
3854424,16
3855048,15
3855676,11
3856300,12
3856924,11
3857556,10
3858176,15
3858804,17
3859428,17
3860052,16
3860684,14
3861304,13
3861932,13
3862564,12
3863184,18
3863812,19
3864440,20
3865068,24
3865700,25
3866320,21
3866948,18
3867572,17
3868196,16
3868828,14
3869448,15
3870076,19
3870704,15
3871328,14
3871960,14
3872584,13
3873212,12
3873844,10
3874464,11
3875092,14
3875720,15
3876348,14
3876980,12
3877600,13
3878228,13
3878856,12
3879480,13
3880112,10
3880728,11
3881356,18
3881984,22
3882608,21
3883236,20
3883864,20
3884492,20
3885124,14
3885744,14
3886376,13
3887000,14
3887624,12
3888256,10
3888872,11
3889500,12
3890128,11
3890752,11
3891384,15
3892000,18
3892628,20
3893260,20
3893880,17
3894508,14
3895132,17
3895764,13
3896392,13
3897016,13
3897644,11
3898268,22
3898892,23
3899524,20
3900144,23
3900776,21
3901400,25
3902024,20
3902656,14
3903272,13
3903904,12
3904536,9
3905100,12
3905732,15
3906352,13
3906984,13
3907612,14
3908232,15
3908860,15
3909488,13
3910116,14
3910748,14
3911368,14
3912000,14
3912620,11
3913248,12
3913876,14
3914496,18
3915128,19
3915752,22
3916376,14
3917008,12
3917624,17
3918256,16
3918888,16
3919504,17
3920136,20
3920760,15
3921388,10
3922020,10
3922640,14
3923268,13
3923892,11
3924516,13
3925148,19
3925768,15
3926400,14
3927024,13
3927648,22
3928280,33
3928904,19
3929536,11
3930168,19
3930784,20
3931416,21
3932040,27
3932672,25
3933300,18
3933920,19
3934548,17
3935172,14
3935800,13
3936428,14
3937048,13
3937676,11
3938300,14
3938928,12
3939556,11
3940180,11
3940812,11
3941440,10
3942064,12
3942696,14
3943316,12
3943944,14
3944572,12
3945192,13
3945820,11
3946444,12
3947068,11
3947700,9
3948268,10
3948900,11
3949524,10
3950148,13
3950780,18
3951400,25
3952032,26
3952660,26
3953280,17
3953908,13
3954532,12
3955164,11
3955796,18
3956416,19
3957044,13
3957672,11
3958296,11
3958924,12
3959544,16
3960176,18
3960800,16
3961424,13
3962052,12
3962672,12
3963304,12
3963932,14
3964552,15
3965184,16
3965808,24
3966436,19
3967068,11
3967688,13
3968320,15
3968944,22
3969568,29
3970196,29
3970816,16
3971444,15
3972068,33
3972692,35
3973324,16
3973944,11
3974572,13
3975204,18
3975824,14
3976452,12
3977076,14
3977708,15
3978340,13
3978960,13
3979588,13
3980216,16
3980840,17
3981468,18
3982088,13
3982716,11
3983344,12
3983968,12
3984600,16
3985224,21
3985852,19
3986484,14
3987104,17
3987736,17
3988360,20
3988992,14
3989620,10
3990240,13
3990872,11
3991496,11
3992120,12
3992752,13
3993372,14
3994000,16
3994632,15
3995248,19
3995880,17
3996504,13
3997132,10
3997764,12
3998384,28
3999016,39
3999640,30
4000264,26
4000892,19
4001512,13
4002140,14
4002764,19
4003388,20
4004016,16
4004640,13
4005268,11
4005896,10
4006520,11
4007148,11
4007772,11
4008400,17
4009032,27
4009648,30
4010276,18
4010900,13
4011528,18
4012156,16
4012776,11
4013408,21
4014032,28
4014656,30
4015284,30
4015904,33
4016532,18
4017164,16
4017784,26
4018412,20
4019036,13
4019668,15
4020296,18
4020920,19
4021548,20
4022172,11
4022796,13
4023428,10
4024048,13
4024676,16
4025300,17
4025924,19
4026552,16
4027176,16
4027804,15
4028436,14
4029056,23
4029684,18
4030308,15
4030940,18
4031572,12
4032192,12
4032820,11
4033444,12
4034068,13
4034700,13
4035320,15
4035948,17
4036572,19
4037196,21
4037828,18
4038448,15
4039076,11
4039708,10
4040328,15
4040956,24
4041580,29
4042212,24
4042844,14
4043464,13
4044096,12
4044720,13
4045344,12
4045972,11
4046592,15
4047220,19
4047844,14
4048468,11
4049100,12
4049720,12
4050348,11
4050980,14
4051600,16
4052228,15
4052852,15
4053484,15
4054116,12
4054736,17
4055368,24
4055988,23
4056616,17
4057244,14
4057864,11
4058492,13
4059116,41
4059740,45
4060372,34
4060996,28
4061628,15
4062256,10
4062880,13
4063508,18
4064136,11
4064764,16
4065396,24
4066016,31
4066644,35
4067268,35
4067892,24
4068524,22
4069144,16
4069772,16
4070400,11
4071024,11
4071652,15
4072280,16
4072908,14
4073540,10
4074160,10
4074792,12
4075416,13
4076040,16
4076668,19
4077288,17
4077916,13
4078544,14
4079168,13
4079800,11
4080420,13
4081048,19
4081676,21
4082296,20
4082928,19
4083552,17
4084180,21
4084812,19
4085432,15
4086064,16
4086688,19
4087312,11
4087944,11
4088560,11
4089192,15
4089816,15
4090440,12
4091072,11
4091688,20
4092320,29
4092952,23
4093568,15
4094200,15
4094828,17
4095460,16
4096092,16
4096708,10
4097336,11
4097956,15
4098580,20
4099208,15
4099820,11
4100452,10
4101072,13
4101696,15
4102324,14
4102944,15
4103572,15
4104200,11
4104816,10
4105444,12
4106068,10
4106696,11
4107328,17
4107944,18
4108572,19
4109196,19
4109824,13
4110452,14
4111072,17
4111700,13
4112324,10
4112944,10
4113576,14
4114192,25
4114820,17
4115444,12
4116068,11
4116696,11
4117320,12
4117948,22
4118576,24
4119192,17
4119824,15
4120448,11
4121076,11
4121704,16
4122324,15
4122956,10
4123576,13
4124200,17
4124828,24
4125448,22
4126076,15
4126700,12
4127324,13
4127952,14
4128572,13
4129200,13
4129828,11
4130448,12
4131076,24
4131700,25
4132328,24
4132960,22
4133576,19
4134204,17
4134832,15
4135452,14
4136084,14
4136704,14
4137332,11
4137956,11
4138580,10
4139208,10
4139824,10
4140456,11
4141084,11
4141704,14
4142332,21
4142956,21
4143588,14
4144216,13
4144836,15
4145464,14
4146088,13
4146712,14
4147340,13
4147960,15
4148588,13
4149212,14
4149832,15
4150464,16
4151080,18
4151708,15
4152340,13
4152960,15
4153588,12
4154212,12
4154844,15
4155472,11
4156096,11
4156724,11
4157352,15
4157976,17
4158604,11
4159224,14
4159852,13
4160480,13
4161100,13
4161728,12
4162352,10
4162980,10
4163608,11
4164224,12
4164852,22
4165476,26
4166104,21
4166732,14
4167352,13
4167980,13
4168604,16
4169228,15
4169856,15
4170480,11
4171108,11
4171732,13
4172356,11
4172988,10
4173608,11
4174236,11
4174864,13
4175484,15
4176112,15
4176736,13
4177364,13
4177996,15
4178616,22
4179244,25
4179864,13
4180488,17
4181116,24
4181736,24
4182364,21
4182988,16
4183612,10
4184244,13
4184864,17
4185492,21
4186124,14
4186744,15
4187372,18
4187996,16
4188628,11
4189256,11
4189872,25
4190504,25
4191128,18
4191752,15
4192384,14
4193000,13
4193628,13
4194252,14
4194876,17
4195504,22
4196128,20
4196756,20
4197388,26
4198008,17
4198636,11
4199260,10
4199888,10
4200520,12
4201136,13
4201764,13
4202388,13
4203012,15
4203644,18
4204264,15
4204892,12
4205516,18
4206140,18
4206768,12
4207384,10
4208016,11
4208636,14
4209264,17
4209892,19
4210516,16
4211148,14
4211776,12
4212400,11
4213028,12
4213652,13
4214280,13
4214908,14
4215528,12
4216156,10
4216784,12
4217408,16
4218036,18
4218656,25
4219284,21
4219916,20
4220536,16
4221164,13
4221788,12
4222420,10
4223048,10
4223672,12
4224304,12
4224924,16
4225548,14
4226176,12
4226800,14
4227428,14
4228052,14
4228676,11
4229304,11
4229924,10
4230552,10
4231180,10
4231800,11
4232428,9
4233000,10
4233628,11
4234260,19
4234880,20
4235508,15
4236132,17
4236764,21
4237396,18
4238016,12
4238644,10
4239268,11
4239896,12
4240524,10
4241144,12
4241772,16
4242396,24
4243020,37
4243652,26
4244272,18
4244900,13
4245532,18
4246152,26
4246780,28
4247408,27
4248036,25
4248664,21
4249288,13
4249916,11
4250540,14
4251164,17
4251796,18
4252416,14
4253044,19
4253668,21
4254292,20
4254924,16
4255544,13
4256172,11
4256804,12
4257424,22
4258052,23
4258676,15
4259308,13
4259936,15
4260552,16
4261184,14
4261808,13
4262428,10
4263056,10
4263680,12
4264308,15
4264932,18
4265556,18
4266184,21
4266808,18
4267436,18
4268068,14
4268688,14
4269316,15
4269940,18
4270572,14
4271200,13
4271820,11
4272448,13
4273072,10
4273696,15
4274324,18
4274944,17
4275576,24
4276196,20
4276820,19
4277452,18
4278072,15
4278700,11
4279332,18
4279952,26
4280584,24
4281204,20
4281836,21
4282464,21
4283088,18
4283716,11
4284340,13
4284964,15
4285596,14
4286216,15
4286844,13
4287468,11
4288096,11
4288724,11
4289348,12
4289976,12
4290604,11
4291224,16
4291852,17
4292476,17
4293104,13
4293736,13
4294356,13
4294988,14
4295612,10
4296236,11
4296864,10
4297488,17
4298120,15
4298744,10
4299368,10
4299996,11
4300624,18
4301256,18
4301884,18
4302504,18
4303132,15
4303756,11
4304388,10
4305016,10
4305632,10
4306264,11
4306888,11
4307508,11
4308140,12
4308760,15
4309388,17
4310012,16
4310640,16
4311268,15
4311892,10
4312524,12
4313156,10
4313776,14
4314404,23
4315028,29
4315656,32
4316284,30
4316904,26
4317532,14
4318160,13
4318784,13
4319412,13
4320032,17
4320660,11
4321292,16
4321912,13
4322540,10
4323164,11
4323796,12
4324424,12
4325048,12
4325676,22
4326300,32
4326928,20
4327556,13
4328176,15
4328804,18
4329428,20
4330052,18
4330684,14
4331304,11
4331932,11
4332564,10
4333184,11
4333812,11
4334436,15
4335068,19
4335700,18
4336320,17
4336948,15
4337572,11
4338200,10
4338828,10
4339448,13
4340076,14
4340700,11
4341328,15
4341956,16
4342576,19
4343204,18
4343836,21
4344456,19
4345084,13
4345708,11
4346340,11
4346972,10
4347592,16
4348220,17
4348844,21
4349468,22
4350100,15
4350720,19
4351352,18
4351976,17
4352600,14
4353232,13
4353848,13
4354476,17
4355108,14
4355728,12
4356356,15
4356980,13
4357612,11
4358240,11
4358860,13
4359488,15
4360112,18
4360736,15
4361364,12
4361984,11
4362612,12
4363236,15
4363860,14
4364488,12
4365112,13
4365740,15
4366372,12
4366992,11
4367620,13
4368248,15
4368876,15
4369504,15
4370124,12
4370752,10
4371380,12
4372000,13
4372632,10
4373248,15
4373880,18
4374504,13
4375128,11
4375756,16
4376376,17
4377004,17
4377636,14
4378256,13
4378884,15
4379508,10
4380140,18
4380772,14
4381392,10
4382024,11
4382648,11
4383272,10
4383900,14
4384520,13
4385148,13
4385772,13
4386396,15
4387028,15
4387652,14
4388284,17
4388912,21
4389532,20
4390160,15
4390788,11
4391416,14
4392048,20
4392664,19
4393292,14
4393920,13
4394544,13
4395172,11
4395792,12
4396424,13
4397048,12
4397672,15
4398304,21
4398928,26
4399560,28
4400188,26
4400808,22
4401436,13
4402060,15
4402692,17
4403324,14
4403944,11
4404572,10
4405196,10
4405820,12
4406448,13
4407068,13
4407696,11
4408324,18
4408944,21
4409572,15
4410196,17
4410828,15
4411460,13
4412080,11
4412708,10
4413336,11
4413960,10
4414592,19
4415208,27
4415836,22
4416464,15
4417088,15
4417716,19
4418336,21
4418964,14
4419596,12
4420216,11
4420844,11
4421468,11
4422100,13
4422732,12
4423352,12
4423984,12
4424608,14
4425232,14
4425860,16
4426480,15
4427108,13
4427732,14
4428356,11
4428988,12
4429608,15
4430236,16
4430868,14
4431488,15
4432116,12
4432740,11
4433372,11
4434004,14
4434624,13
4435252,15
4435876,20
4436500,19
4437132,18
4437752,17
4438384,12
4439008,11
4439632,13
4440264,24
4440880,29
4441508,36
4442140,38
4442760,18
4443392,13
4444016,16
4444644,17
4445276,16
4445896,19
4446528,21
4447152,21
4447776,19
4448408,13
4449024,17
4449652,19
4450276,22
4450904,23
4451532,18
4452152,15
4452784,13
4453412,15
4454032,17
4454664,12
4455288,11
4455916,11
4456548,12
4457168,22
4457796,19
4458420,24
4459048,14
4459676,13
4460296,15
4460928,13
4461552,13
4462176,11
4462804,15
4463428,16
4464060,15
4464692,10
4465312,11
4465940,11
4466564,10
4467196,13
4467828,12
4468448,16
4469080,18
4469704,19
4470328,15
4470960,10
4471576,11
4472208,14
4472840,14
4473456,14
4474088,12
4474712,12
4475344,11
4475976,12
4476592,13
4477224,13
4477848,13
4478472,12
4479104,10
4479724,18
4480356,27
4480980,25
4481600,24
4482228,22
4482848,19
4483476,13
4484108,13
4484728,14
4485356,16
4485980,15
4486612,11
4487240,10
4487856,11
4488488,12
4489112,10
4489736,11
4490364,10
4490984,14
4491612,19
4492240,21
4492864,17
4493492,22
4494112,29
4494740,33
4495372,20
4495992,12
4496624,20
4497248,31
4497876,42
4498508,45
4499128,30
4499760,11
4500384,16
4501008,17
4501640,24
4502256,21
4502888,15
4503512,12
4504136,11
4504768,11
4505384,11
4506016,11
4506644,11
4507264,12
4507892,15
4508516,22
4509144,20
4509776,15
4510392,15
4511024,13
4511648,13
4512272,12
4512900,11
4513520,11
4514148,13
4514772,15
4515396,23
4516028,24
4516648,20
4517276,16
4517908,12
4518528,17
4519156,13
4519780,19
4520412,24
4521040,16
4521656,14
4522288,11
4522912,11
4523536,13
4524164,12
4524784,18
4525416,22
4526040,16
4526664,17
4527292,20
4527912,20
4528544,12
4529172,12
4529792,17
4530420,23
4531048,20
4531676,17
4532308,14
4532928,14
4533556,12
4534184,14
4534808,16
4535436,14
4536056,15
4536684,14
4537308,16
4537936,13
4538564,10
4539184,10
4539816,11
4540444,15
4541064,19
4541696,19
4542320,16
4542948,13
4543580,13
4544200,13
4544832,13
4545456,11
4546080,12
4546708,19
4547328,20
4547956,10
4548580,11
4549204,11
4549836,18
4550456,23
4551084,25
4551716,22
4552336,23
4552964,24
4553588,15
4554220,11
4554852,13
4555472,11
4556104,15
4556728,16
4557352,14
4557984,16
4558604,18
4559232,13
4559860,13
4560484,14
4561112,14
4561736,9
4562316,10
4562948,13
4563568,25
4564196,27
4564820,26
4565452,17
4566084,12
4566704,11
4567336,13
4567960,13
4568584,14
4569212,14
4569832,12
4570460,11
4571088,11
4571712,11
4572344,11
4572960,13
4573588,12
4574220,10
4574840,11
4575472,14
4576096,15
4576724,13
4577356,12
4577976,13
4578608,13
4579232,18
4579856,17
4580484,16
4581104,18
4581736,22
4582360,16
4582984,10
4583616,16
4584236,13
4584864,16
4585496,13
4586116,14
4586748,10
4587372,10
4588004,11
4588632,10
4589256,11
4589884,12
4590508,11
4591136,13
4591764,13
4592384,15
4593012,14
4593636,14
4594260,14
4594892,10
4595512,11
4596144,9
4596716,10
4597344,14
4597976,26
4598600,27
4599228,19
4599860,14
4600480,14
4601108,17
4601736,18
4602364,20
4602996,20
4603616,22
4604244,23
4604872,19
4605496,11
4606124,26
4606744,32
4607376,39
4608004,49
4608620,47
4609252,30
4609872,15
4610504,13
4611132,16
4611752,12
4612380,17
4613004,21
4613636,27
4614264,28
4614884,31
4615512,35
4616136,29
4616760,20
4617388,12
4618008,15
4618636,19
4619260,18
4619888,17
4620516,14
4621140,13
4621772,12
4622400,12
4623024,21
4623652,23
4624276,13
4624900,11
4625532,14
4626152,14
4626780,14
4627408,13
4628032,14
4628660,14
4629280,13
4629908,14
4630540,16
4631160,15
4631788,10
4632416,11
4633044,17
4633676,15
4634296,12
4634924,14
4635548,13
4636172,14
4636804,12
4637424,11
4638052,11
4638680,11
4639304,10
4639936,10
4640552,12
4641184,12
4641812,11
4642432,13
4643060,14
4643684,14
4644316,14
4644944,15
4645568,14
4646196,13
4646824,13
4647444,11
4648076,12
4648696,16
4649324,15
4649948,13
4650572,13
4651204,12
4651824,19
4652452,13
4653084,19
4653704,30
4654336,23
4654960,12
4655588,10
4656220,10
4656840,17
4657468,17
4658092,11
4658716,13
4659348,17
4659968,28
4660596,38
4661220,18
4661844,19
4662476,22
4663096,21
4663724,21
4664356,16
4664976,24
4665604,21
4666228,12
4666860,13
4667492,16
4668112,19
4668744,21
4669368,19
4669992,15
4670620,14
4671240,11
4671872,17
4672496,17
4673120,19
4673748,16
4674372,11
4675004,11
4675632,13
4676256,13
4676884,13
4677508,13
4678140,11
4678772,10
4679392,11
4680024,13
4680644,12
4681268,10
4681900,8
4682468,10
4683100,16
4683728,20
4684352,20
4684980,23
4685600,21
4686228,15
4686860,12
4687480,13
4688108,12
4688732,10
4689364,11
4689996,11
4690616,13
4691244,13
4691868,14
4692492,11
4693124,14
4693744,23
4694376,29
4695000,18
4695624,13
4696256,27
4696872,34
4697504,29
4698136,22
4698752,11
4699384,11
4700008,14
4700640,14
4701268,13
4701888,14
4702520,14
4703144,14
4703768,12
4704400,10
4705020,11
4705652,13
4706276,15
4706900,13
4707532,10
4708152,14
4708784,15
4709416,13
4710036,14
4710668,15
4711292,12
4711920,11
4712548,16
4713168,23
4713796,12
4714420,17
4715048,22
4715676,16
4716296,26
4716928,30
4717552,23
4718176,17
4718808,13
4719432,14
4720060,12
4720692,11
4721312,12
4721940,11
4722564,11
4723196,11
4723828,11
4724448,14
4725080,15
4725704,16
4726328,18
4726960,13
4727576,15
4728208,15
4728836,11
4729456,10
4730088,12
4730712,13
4731344,13
4731976,11
4732592,10
4733224,13
4733848,15
4734472,14
4735104,14
4735724,13
4736356,12
4736976,10
4737600,11
4738232,11
4738848,10
4739480,11
4740112,11
4740728,11
4741360,11
4741984,15
4742612,21
4743244,21
4743864,15
4744496,15
4745120,17
4745744,19
4746376,17
4746992,14
4747624,14
4748248,17
4748872,14
4749500,14
4750120,21
4750752,22
4751384,23
4752000,19
4752628,13
4753252,17
4753884,11
4754516,13
4755136,16
4755768,13
4756392,11
4757016,13
4757648,18
4758264,19
4758896,17
4759520,19
4760144,21
4760776,16
4761392,11
4762024,12
4762656,20
4763272,25
4763900,25
4764528,23
4765156,18
4765788,11
4766408,10
4767036,14
4767664,18
4768288,15
4768916,14
4769536,17
4770168,11
4770792,11
4771416,14
4772048,23
4772664,23
4773296,17
4773924,11
4774544,12
4775172,31
4775800,23
4776428,14
4777060,14
4777680,25
4778308,24
4778936,14
4779560,10
4780192,11
4780808,12
4781440,14
4782064,19
4782688,15
4783320,12
4783944,15
4784576,15
4785208,14
4785824,16
4786456,14
4787084,17
4787716,20
4788344,17
4788968,12
4789600,11
4790224,21
4790848,23
4791480,22
4792100,29
4792732,21
4793360,14
4793984,16
4794616,17
4795240,21
4795872,11
4796500,9
4797068,14
4797704,17
4798328,22
4798960,20
4799592,11
4800212,13
4800840,12
4801464,16
4802088,17
4802716,18
4803336,18
4803964,15
4804588,10
4805212,10
4805844,12
4806468,15
4807096,15
4807724,14
4808344,18
4808972,19
4809596,18
4810228,17
4810860,14
4811480,11
4812112,17
4812736,24
4813360,20
4813988,16
4814608,10
4815236,10
4815860,11
4816484,15
4817116,17
4817740,16
4818368,15
4819000,13
4819620,12
4820248,11
4820872,11
4821500,12
4822132,14
4822752,21
4823384,15
4824008,11
4824632,11
4825260,14
4825880,17
4826508,16
4827132,16
4827760,15
4828392,10
4829016,11
4829644,13
4830276,14
4830896,16
4831528,14
4832152,15
4832776,12
4833408,16
4834024,14
4834652,14
4835276,13
4835900,14
4836532,12
4837152,16
4837780,14
4838412,10
4839032,15
4839660,12
4840284,13
4840916,14
4841548,11
4842168,15
4842796,15
4843424,13
4844048,13
4844676,10
4845296,10
4845924,10
4846548,11
4847176,10
4847804,10
4848424,13
4849052,11
4849684,16
4850304,25
4850936,24
4851560,34
4852192,29
4852820,18
4853440,13
4854072,17
4854696,17
4855320,11
4855952,10
4856572,11
4857200,26
4857824,37
4858448,21
4859080,12
4859696,14
4860328,13
4860956,21
4861576,24
4862208,11
4862832,19
4863464,28
4864096,30
4864712,24
4865340,17
4865964,15
4866588,16
4867220,12
4867840,14
4868468,16
4869092,15
4869720,12
4870348,14
4870968,20
4871596,15
4872228,10
4872848,11
4873480,15
4874104,17
4874736,15
4875364,14
4875984,14
4876616,14
4877240,15
4877864,17
4878492,18
4879112,19
4879744,17
4880368,19
4880992,18
4881620,19
4882244,18
4882876,16
4883504,14
4884128,14
4884760,14
4885384,16
4886012,14
4886644,18
4887264,16
4887892,11
4888520,15
4889144,12
4889776,12
4890392,16
4891024,24
4891652,15
4892272,13
4892904,13
4893528,16
4894156,14
4894788,10
4895408,11
4896040,12
4896660,17
4897284,21
4897916,22
4898536,22
4899168,15
4899792,16
4900416,13
4901048,13
4901664,13
4902296,16
4902928,13
4903548,13
4904176,10
4904804,10
4905432,12
4906064,11
4906688,11
4907320,11
4907944,11
4908568,13
4909200,13
4909820,14
4910452,13
4911076,13
4911704,13
4912336,18
4912956,14
4913588,9
4914160,11
4914784,10
4915416,13
4916040,18
4916668,15
4917296,12
4917920,14
4918548,15
4919172,16
4919804,11
4920432,13
4921048,18
4921680,19
4922300,18
4922924,16
4923556,14
4924176,12
4924804,11
4925428,19
4926052,22
4926684,28
4927308,26
4927936,11
4928568,11
4929192,13
4929820,16
4930444,16
4931072,17
4931704,16
4932320,12
4932952,12
4933576,13
4934200,12
4934828,14
4935448,17
4936076,19
4936700,16
4937328,12
4937956,11
4938580,11
4939212,10
4939844,11
4940464,13
4941096,13
4941716,16
4942344,13
4942972,12
4943592,15
4944224,13
4944844,11
4945468,10
4946100,10
4946720,9
4947296,11
4947928,16
4948552,27
4949180,35
4949800,28
4950428,14
4951060,16
4951680,20
4952308,13
4952936,14
4953564,11
4954196,15
4954816,24
4955448,14
4956072,11
4956696,11
4957324,12
4957944,14
4958576,13
4959200,13
4959824,14
4960456,14
4961072,14
4961700,13
4962332,13
4962952,19
4963580,23
4964208,24
4964836,14
4965468,10
4966088,11
4966716,14
4967340,15
4967964,15
4968596,16
4969216,14
4969844,11
4970468,10
4971092,13
4971724,12
4972344,11
4972972,11
4973604,10
4974224,13
4974856,15
4975480,15
4976108,16
4976740,14
4977360,13
4977988,11
4978612,15
4979236,20
4979868,16
4980488,11
4981116,11
4981744,16
4982368,19
4983000,20
4983624,19
4984252,13
4984884,13
4985504,14
4986136,12
4986760,13
4987392,15
4988020,15
4988640,14
4989272,13
4989896,13
4990520,14
4991152,11
4991772,16
4992404,29
4993032,33
4993652,20
4994280,15
4994904,21
4995532,24
4996164,14
4996784,13
4997416,11
4998040,12
4998664,17
4999292,16
4999912,17
5000544,12
5001168,15
5001792,15
5002420,13
5003040,11
5003668,13
5004300,11
5004920,13
5005548,12
5006172,11
5006804,18
5007436,18
5008056,15
5008684,13
5009308,14
5009932,14
5010564,16
5011184,14
5011816,13
5012440,20
5013064,15
5013696,12
5014312,14
5014944,9
5015516,15
5016144,23
5016776,27
5017396,21
5018028,13
5018656,14
5019280,15
5019908,16
5020536,14
5021164,11
5021796,10
5022416,12
5023044,12
5023672,27
5024296,21
5024924,14
5025544,13
5026176,14
5026800,13
5027424,13
5028056,13
5028680,13
5029308,14
5029940,14
5030560,19
5031188,20
5031816,13
5032448,12
5033076,14
5033696,18
5034328,20
5034952,15
5035576,13
5036208,13
5036824,11
5037456,15
5038088,12
5038704,12
5039336,15
5039960,15
5040592,12
5041224,11
5041840,14
5042472,13
5043096,15
5043720,17
5044352,14
5044972,17
5045600,15
5046224,14
5046848,13
5047480,10
5048096,11
5048728,11
5049356,12
5049976,22
5050608,29
5051232,23
5051864,21
5052492,14
5053112,10
5053744,11
5054368,10
5054992,10
5055624,10
5056248,11
5056880,11
5057504,11
5058128,11
5058760,12
5059376,14
5060008,15
5060636,14
5061256,21
5061888,15
5062512,13
5063144,12
5063776,10
5064392,13
5065024,21
5065648,19
5066272,23
5066904,22
5067524,23
5068152,27
5068780,26
5069404,15
5070036,14
5070664,19
5071296,14
5071924,10
5072544,11
5073176,11
5073804,11
5074436,14
5075064,21
5075688,21
5076320,20
5076944,20
5077568,15
5078200,12
5078820,19
5079452,23
5080084,24
5080704,23
5081336,20
5081960,18
5082588,17
5083220,18
5083840,17
5084472,13
5085096,20
5085720,17
5086352,11
5086972,10
5087600,11
5088228,11
5088852,16
5089480,12
5090104,13
5090736,19
5091364,21
5091984,14
5092616,13
5093240,14
5093872,13
5094504,11
5095120,11
5095752,18
5096376,21
5097000,20
5097632,20
5098248,16
5098880,17
5099504,16
5100128,16
5100760,13
5101388,13
5102020,14
5102652,11
5103272,10
5103904,11
5104532,11
5105160,11
5105792,13
5106412,15
5107044,11
5107668,11
5108296,14
5108928,15
5109548,15
5110180,16
5110812,19
5111432,22
5112064,26
5112692,13
5113324,13
5113956,12
5114576,13
5115208,26
5115836,32
5116464,31
5117096,29
5117716,26
5118348,21
5118980,16
5119604,10
5120236,11
5120856,10
5121488,15
5122116,15
5122736,13
5123364,23
5123984,22
5124612,15
5125244,14
5125864,13
5126492,14
5127112,13
5127736,11
5128364,10
5128984,10
5129612,11
5130236,10
5130860,11
5131488,17
5132112,21
5132740,20
5133372,18
5133992,17
5134620,16
5135244,16
5135876,15
5136504,13
5137128,14
5137756,14
5138380,10
5139004,12
5139636,10
5140256,12
5140884,13
5141516,16
5142136,13
5142764,15
5143388,13
5144020,13
5144648,11
5145268,10
5145896,22
5146520,23
5147144,11
5147772,24
5148392,38
5149020,34
5149644,21
5150268,13
5150900,14
5151520,15
5152148,21
5152780,14
5153400,11
5154028,13
5154652,15
5155284,10
5155912,19
5156532,30
5157160,31
5157784,32
5158412,26
5159040,17
5159656,15
5160288,17
5160912,17
5161536,15
5162164,15
5162784,21
5163412,18
5164044,14
5164664,17
5165292,17
5165916,17
5166548,17
5167180,18
5167800,19
5168432,17
5169056,14
5169676,10
5170308,11
5170928,12
5171560,11
5172180,11
5172804,11
5173432,12
5174056,14
5174684,17
5175316,16
5175936,15
5176568,13
5177188,14
5177820,11
5178452,11
5179072,13
5179700,14
5180328,13
5180952,13
5181580,11
5182200,11
5182828,15
5183452,16
5184080,13
5184708,14
5185328,14
5185956,11
5186588,10
5187208,17
5187836,20
5188460,11
5189092,13
5189724,14
5190344,12
5190976,14
5191600,13
5192224,18
5192852,28
5193472,24
5194104,18
5194728,15
5195352,29
5195984,34
5196604,27
5197232,13
5197864,11
5198484,10
5199112,18
5199736,20
5200368,13
5200996,14
5201616,14
5202244,13
5202868,10
5203492,10
5204124,10
5204744,11
5205372,11
5205996,11
5206624,13
5207252,11
5207876,16
5208508,29
5209136,23
5209756,16
5210384,13
5211008,16
5211640,24
5212268,18
5212888,13
5213516,12
5214140,13
5214768,17
5215396,20
5216016,17
5216644,16
5217268,15
5217892,14
5218524,14
5219148,14
5219780,11
5220412,10
5221032,11
5221664,13
5222288,11
5222920,14
5223548,16
5224168,22
5224796,20
5225420,15
5226044,13
5226676,12
5227296,15
5227924,16
5228556,17
5229176,15
5229804,13
5230432,13
5231060,14
5231692,15
5232312,14
5232944,14
5233568,14
5234192,14
5234824,13
5235440,13
5236072,13
5236696,12
5237320,13
5237952,10
5238568,11
5239200,12
5239828,11
5240448,11
5241080,13
5241704,14
5242332,14
5242964,13
5243584,16
5244212,24
5244836,26
5245460,16
5246088,21
5246704,27
5247332,34
5247960,36
5248584,35
5249212,34
5249832,23
5250460,13
5251088,22
5251704,32
5252332,27
5252956,23
5253584,14
5254216,13
5254832,20
5255460,20
5256084,17
5256708,12
5257340,10
5257960,14
5258588,16
5259212,18
5259836,22
5260464,27
5261088,19
5261716,11
5262348,28
5262968,34
5263596,26
5264220,11
5264848,10
5265480,10
5266096,13
5266724,18
5267348,20
5267972,29
5268604,24
5269224,19
5269852,10
5270476,21
5271100,17
5271728,14
5272352,12
5272980,13
5273612,12
5274232,11
5274860,14
5275484,13
5276116,13
5276744,13
5277364,13
5277992,13
5278616,13
5279240,11
5279868,10
5280488,10
5281116,9
5281688,11
5282312,10
5282940,14
5283560,18
5284188,18
5284812,19
5285432,17
5286064,13
5286680,10
5287312,11
5287936,10
5288560,11
5289188,11
5289812,11
5290440,13
5291068,16
5291688,17
5292316,15
5292940,13
5293572,13
5294200,11
5294816,12
5295448,13
5296072,13
5296696,14
5297324,18
5297944,22
5298572,14
5299196,10
5299824,14
5300452,19
5301076,20
5301708,16
5302336,12
5302960,13
5303588,17
5304216,21
5304840,21
5305468,16
5306088,14
5306716,11
5307340,12
5307964,15
5308596,16
5309216,19
5309844,16
5310476,16
5311096,11
5311728,13
5312352,21
5312980,19
5313612,14
5314232,16
5314860,11
5315484,10
5316108,11
5316740,14
5317360,15
5317988,15
5318616,14
5319240,13
5319868,12
5320488,14
5321116,10
5321748,10
5322368,12
5322996,11
5323624,11
5324252,11
5324884,12
5325500,13
5326132,18
5326752,12
5327376,17
5328004,18
5328620,18
5329252,11
5329876,10
5330496,21
5331128,27
5331744,24
5332372,22
5333004,19
5333624,17
5334252,20
5334876,19
5335508,17
5336136,14
5336756,11
5337384,11
5338008,13
5338632,19
5339260,25
5339880,23
5340508,24
5341132,15
5341756,14
5342388,16
5343008,17
5343636,13
5344268,10
5344888,15
5345516,26
5346140,27
5346768,27
5347400,24
5348016,22
5348644,18
5349268,21
5349896,16
5350524,17
5351144,19
5351772,19
5352396,16
5353020,12
5353652,10
5354272,12
5354900,10
5355532,10
5356152,17
5356780,29
5357408,29
5358036,27
5358668,21
5359288,18
5359920,14
5360544,16
5361168,32
5361796,31
5362416,27
5363044,17
5363668,13
5364292,13
5364924,14
5365544,14
5366176,15
5366804,18
5367424,14
5368052,15
5368676,14
5369308,10
5369936,14
5370556,12
5371184,11
5371808,14
5372436,13
5373064,11
5373688,11
5374316,12
5374944,15
5375568,14
5376200,14
5376816,13
5377444,12
5378072,10
5378688,14
5379320,19
5379940,21
5380572,23
5381200,22
5381824,13
5382452,12
5383076,14
5383700,12
5384328,15
5384948,14
5385576,14
5386200,12
5386824,11
5387452,10
5388072,11
5388700,10
5389332,12
5389952,15
5390580,13
5391204,17
5391836,16
5392464,16
5393088,16
5393716,14
5394340,22
5394964,24
5395596,14
5396216,11
5396844,12
5397468,18
5398092,21
5398724,14
5399344,14
5399976,14
5400604,15
5401224,15
5401856,14
5402476,13
5403108,12
5403736,12
5404360,19
5404988,20
5405612,11
5406236,15
5406868,12
5407488,11
5408116,13
5408740,12
5409364,13
5409992,14
5410608,13
5411240,11
5411868,10
5412488,16
5413116,17
5413740,10
5414372,25
5415004,20
5415624,18
5416252,33
5416876,39
5417500,38
5418132,26
5418752,18
5419380,11
5420008,16
5420628,11
5421260,10
5421880,11
5422508,11
5423140,12
5423760,16
5424392,20
5425016,20
5425644,13
5426276,14
5426896,14
5427528,10
5428148,12
5428772,17
5429404,14
5430024,11
5430652,11
5431276,24
5431900,29
5432532,23
5433156,18
5433788,17
5434416,14
5435036,17
5435664,15
5436288,13
5436920,14
5437548,11
5438168,11
5438796,10
5439424,13
5440048,20
5440676,20
5441296,14
5441924,13
5442548,13
5443172,13
5443800,21
5444424,12
5445052,11
5445684,12
5446304,15
5446932,16
5447556,17
5448188,25
5448816,31
5449432,26
5450064,20
5450688,14
5451312,13
5451940,13
5452560,11
5453188,13
5453812,11
5454436,10
5455068,10
5455692,10
5456320,11
5456948,10
5457568,11
5458196,16
5458820,17
5459452,13
5460080,12
5460704,11
5461332,19
5461956,15
5462580,11
5463212,8
5463780,10
5464412,15
5465036,22
5465660,24
5466292,16
5466912,13
5467540,15
5468172,14
5468792,13
5469420,11
5470048,11
5470676,18
5471308,22
5471928,12
5472560,14
5473184,13
5473808,11
5474436,13
5475056,15
5475688,20
5476312,27
5476936,21
5477568,11
5478184,19
5478816,26
5479444,24
5480064,23
5480692,15
5481316,12
5481948,11
5482576,19
5483196,18
5483824,14
5484452,13
5485076,13
5485704,11
5486324,13
5486952,14
5487580,10
5488204,14
5488832,11
5489456,15
5490084,21
5490716,12
5491336,22
5491964,21
5492588,14
5493220,18
5493848,20
5494472,18
5495100,10
5495728,17
5496352,22
5496980,16
5497600,15
5498228,11
5498852,11
5499480,13
5500108,14
5500728,15
5501360,13
5501988,16
5502608,14
5503240,15
5503864,14
5504496,10
5505124,10
5505744,16
5506372,11
5507000,12
5507624,16
5508252,13
5508872,13
5509500,15
5510128,16
5510752,11
5511380,10
5512004,12
5512636,17
5513268,16
5513888,15
5514520,12
5515144,10
5515772,11
5516404,15
5517024,19
5517652,13
5518280,13
5518904,13
5519536,10
5520152,10
5520780,11
5521408,12
5522032,16
5522660,11
5523288,12
5523916,11
5524548,15
5525168,15
5525800,14
5526424,15
5527048,15
5527676,17
5528296,15
5528928,11
5529552,13
5530176,11
5530808,14
5531424,11
5532056,18
5532684,18
5533304,16
5533932,14
5534560,13
5535188,13
5535820,11
5536440,11
5537068,10
5537692,10
5538316,12
5538948,11
5539568,12
5540200,13
5540824,19
5541444,23
5542076,12
5542696,14
5543324,13
5543956,12
5544576,11
5545208,13
5545832,17
5546460,15
5547092,10
5547712,12
5548344,17
5548968,17
5549592,17
5550224,18
5550840,18
5551472,19
5552096,14
5552720,11
5553348,10
5553968,15
5554600,13
5555228,11
5555848,11
5556476,12
5557104,11
5557732,14
5558364,15
5558984,31
5559616,25
5560240,14
5560864,20
5561492,20
5562112,17
5562744,17
5563368,15
5563992,17
5564624,16
5565244,13
5565876,12
5566504,12
5567128,14
5567760,13
5568384,17
5569012,22
5569644,19
5570264,18
5570896,17
5571516,11
5572144,15
5572772,14
5573392,12
5574020,12
5574648,13
5575272,15
5575900,14
5576524,14
5577156,12
5577788,12
5578408,14
5579036,21
5579664,21
5580292,23
5580924,20
5581544,11
5582172,15
5582796,16
5583420,13
5584052,13
5584672,13
5585300,16
5585932,12
5586552,14
5587184,13
5587808,10
5588440,14
5589068,17
5589688,13
5590320,15
5590944,13
5591568,14
5592200,15
5592816,14
5593448,15
5594072,21
5594696,13
5595328,11
5595944,10
5596576,11
5597208,10
5597824,14
5598456,19
5599080,23
5599712,22
5600344,21
5600960,16
5601588,13
5602212,11
5602836,11
5603468,11
5604088,11
5604716,11
5605340,12
5605964,12
5606596,10
5607216,12
5607844,13
5608476,12
5609096,14
5609724,14
5610348,13
5610980,10
5611612,10
5612232,13
5612860,15
5613484,17
5614108,20
5614740,16
5615360,13
5615988,13
5616616,13
5617240,14
5617868,16
5618488,15
5619116,12
5619748,11
5620368,15
5620996,16
5621624,16
5622252,11
5622884,13
5623504,15
5624136,13
5624760,14
5625384,15
5626016,13
5626632,13
5627264,12
5627888,11
5628512,12
5629144,11
5629768,15
5630400,13
5631028,11
5631648,22
5632280,23
5632904,14
5633532,12
5634160,15
5634784,15
5635412,13
5636036,11
5636660,10
5637288,19
5637908,28
5638536,32
5639160,15
5639784,23
5640412,33
5641036,34
5641668,31
5642296,21
5642912,14
5643540,17
5644164,21
5644796,18
5645424,14
5646048,14
5646676,16
5647304,21
5647928,24
5648556,16
5649176,15
5649804,14
5650428,14
5651056,12
5651688,13
5652312,13
5652940,13
5653572,10
5654192,11
5654820,11
5655444,11
5656072,21
5656700,19
5657320,19
5657948,15
5658572,12
5659196,17
5659828,22
5660448,17
5661076,10
5661708,10
5662328,13
5662960,20
5663584,19
5664212,16
5664844,14
5665464,11
5666092,13
5666716,13
5667340,13
5667972,12
5668592,13
5669220,11
5669844,10
5670472,13
5671100,10
5671720,11
5672352,12
5672980,10
5673600,10
5674228,11
5674852,14
5675484,17
5676116,18
5676736,19
5677368,15
5677992,10
5678616,20
5679248,31
5679864,33
5680496,35
5681120,18
5681744,13
5682376,12
5682992,14
5683624,13
5684252,13
5684872,13
5685500,12
5686124,15
5686756,10
5687384,12
5688008,14
5688636,11
5689260,16
5689884,13
5690516,12
5691136,18
5691768,13
5692392,14
5693016,15
5693648,18
5694264,12
5694892,13
5695524,23
5696144,30
5696772,26
5697396,19
5698028,16
5698656,10
5699276,13
5699904,12
5700528,15
5701152,15
5701784,14
5702400,13
5703028,12
5703656,10
5704280,14
5704908,14
5705528,14
5706160,11
5706788,10
5707408,12
5708040,15
5708664,16
5709296,14
5709924,14
5710544,18
5711176,22
5711800,11
5712424,11
5713056,11
5713672,13
5714304,13
5714928,17
5715552,14
5716184,13
5716808,14
5717436,14
5718068,12
5718688,12
5719320,12
5719944,12
5720576,11
5721208,21
5721824,14
5722456,11
5723080,11
5723704,11
5724336,15
5724952,13
5725584,14
5726216,14
5726836,13
5727464,14
5728092,16
5728720,13
5729352,15
5729972,13
5730604,10
5731228,14
5731852,16
5732484,11
5733104,16
5733736,15
5734360,19
5734988,20
5735620,11
5736240,15
5736868,15
5737500,13
5738120,12
5738748,11
5739372,20
5740004,31
5740636,31
5741256,22
5741884,15
5742508,19
5743132,16
5743764,17
5744384,17
5745012,16
5745636,18
5746260,21
5746892,12
5747512,11
5748144,13
5748772,11
5749392,21
5750024,29
5750648,26
5751276,18
5751908,14
5752528,10
5753160,10
5753784,12
5754408,13
5755040,14
5755656,11
5756288,14
5756912,18
5757536,21
5758168,21
5758792,20
5759424,17
5760056,16
5760672,10
5761300,10
5761920,12
5762552,13
5763180,12
5763800,13
5764428,15
5765052,21
5765676,22
5766304,15
5766928,13
5767556,13
5768180,13
5768804,14
5769432,24
5770060,15
5770688,11
5771316,14
5771936,17
5772564,13
5773192,14
5773820,11
5774452,16
5775072,17
5775704,17
5776328,17
5776948,14
5777580,18
5778200,22
5778828,21
5779452,23
5780080,25
5780708,16
5781332,10
5781964,12
5782592,14
5783216,19
5783844,17
5784472,14
5785096,13
5785724,10
5786344,12
5786972,14
5787596,14
5788220,11
5788848,11
5789472,17
5790100,19
5790732,16
5791352,13
5791984,13
5792608,14
5793236,14
5793868,10
5794488,12
5795116,10
5795744,9
5796316,10
5796948,15
5797568,25
5798196,26
5798824,24
5799448,22
5800076,14
5800696,14
5801324,16
5801948,15
5802572,11
5803204,10
5803824,15
5804456,10
5805084,10
5805704,12
5806336,13
5806960,15
5807588,15
5808220,12
5808840,14
5809468,13
5810092,14
5810720,11
5811348,14
5811968,18
5812600,18
5813224,15
5813848,16
5814476,18
5815096,16
5815728,21
5816356,23
5816976,21
5817604,14
5818228,15
5818860,12
5819488,16
5820112,31
5820744,17
5821368,22
5821992,25
5822624,16
5823240,12
5823872,13
5824496,21
5825120,25
5825748,28
5826372,31
5827004,19
5827636,12
5828256,12
5828884,11
5829508,18
5830140,21
5830772,23
5831392,15
5832024,12
5832648,14
5833272,13
5833904,13
5834520,23
5835152,22
5835780,14
5836400,13
5837032,12
5837656,11
5838284,15
5838916,15
5839536,11
5840168,11
5840788,12
5841416,13
5842044,14
5842664,14
5843292,14
5843916,10
5844540,15
5845172,10
5845792,13
5846424,12
5847052,20
5847672,18
5848304,15
5848928,13
5849560,16
5850188,16
5850808,17
5851436,14
5852064,12
5852688,11
5853320,10
5853936,10
5854568,11
5855192,11
5855816,11
5856448,11
5857068,11
5857696,16
5858328,16
5858948,14
5859576,13
5860200,14
5860828,10
5861460,10
5862080,11
5862712,13
5863336,15
5863960,11
5864592,11
5865208,11
5865836,15
5866464,17
5867088,19
5867716,18
5868336,18
5868968,13
5869596,14
5870216,13
5870848,12
5871472,10
5872104,12
5872732,14
5873352,12
5873984,13
5874608,15
5875232,16
5875860,15
5876480,13
5877112,11
5877736,10
5878364,11
5878996,10
5879620,10
5880252,11
5880884,14
5881504,14
5882136,14
5882760,15
5883392,17
5884024,15
5884640,15
5885272,13
5885896,11
5886520,20
5887152,11
5887772,13
5888404,12
5889036,16
5889656,22
5890284,16
5890908,13
5891540,17
5892172,16
5892792,15
5893424,14
5894048,11
5894672,11
5895304,9
5895868,9
5896452,11
5897080,16
5897712,22
5898340,19
5898960,11
5899588,27
5900212,24
5900836,13
5901464,19
5902088,27
5902716,25
5903340,19
5903968,12
5904596,13
5905220,12
5905852,11
5906484,11
5907104,11
5907736,15
5908360,15
5908992,15
5909620,23
5910240,23
5910872,12
5911496,12
5912120,19
5912752,18
5913368,12
5914000,14
5914628,16
5915248,13
5915876,13
5916504,13
5917132,13
5917764,13
5918384,17
5919016,16
5919640,13
5920264,15
5920892,15
5921512,15
5922140,12
5922768,12
5923392,13
5924020,11
5924640,13
5925268,16
5925900,16
5926520,14
5927148,10
5927772,10
5928404,10
5929036,14
5929656,17
5930284,14
5930908,16
5931532,16
5932164,11
5932784,17
5933416,23
5934040,20
5934664,15
5935296,15
5935912,15
5936544,17
5937176,16
5937800,14
5938432,12
5939056,15
5939688,15
5940316,13
5940936,18
5941564,13
5942188,15
5942812,15
5943444,12
5944064,11
5944692,16
5945316,11
5945940,13
5946572,24
5947192,25
5947824,23
5948452,12
5949072,13
5949704,13
5950328,17
5950956,19
5951588,19
5952208,16
5952840,21
5953464,12
5954088,14
5954716,12
5955336,12
5955964,19
5956592,20
5957216,20
5957844,18
5958472,14
5959100,13
5959732,12
5960352,12
5960980,10
5961604,10
5962236,10
5962868,13
5963488,16
5964120,17
5964744,21
5965368,24
5965996,24
5966616,19
5967244,13
5967876,23
5968496,14
5969124,20
5969748,25
5970380,18
5971012,10
5971632,19
5972264,20
5972888,13
5973512,12
5974144,14
5974760,13
5975392,13
5976020,15
5976644,17
5977272,11
5977896,10
5978528,12
5979160,20
5979780,22
5980408,25
5981032,20
5981664,17
5982292,17
5982912,13
5983544,17
5984168,37
5984792,30
5985424,12
5986040,19
5986668,22
5987296,24
5987920,21
5988548,10
5989168,16
5989800,17
5990428,16
5991048,17
5991676,13
5992304,15
5992932,17
5993564,12
5994184,14
5994816,13
5995440,12
5996064,11
5996696,11
5997312,15
5997944,16
5998572,14
5999196,14
5999828,13
6000456,13
6001084,13
6001716,13
6002336,12
6002968,11
6003592,11
6004220,11
6004852,13
6005472,13
6006104,11
6006728,11
6007352,16
6007984,17
6008604,16
6009232,20
6009864,22
6010480,11
6011112,13
6011736,17
6012368,22
6012996,16
6013616,26
6014248,19
6014872,12
6015496,11
6016128,13
6016744,13
6017372,13
6018000,15
6018624,21
6019252,23
6019872,20
6020504,11
6021132,10
6021752,19
6022384,27
6023008,21
6023640,13
6024268,12
6024888,14
6025516,13
6026144,13
6026768,13
6027400,10
6028016,14
6028648,15
6029272,15
6029896,13
6030528,16
6031144,14
6031776,13
6032408,18
6033028,21
6033660,18
6034284,16
6034912,18
6035544,14
6036168,11
6036800,11
6037424,17
6038048,26
6038680,17
6039300,11
6039932,11
6040556,17
6041180,23
6041812,23
6042436,23
6043068,13
6043700,10
6044320,12
6044948,15
6045576,21
6046204,24
6046836,24
6047456,27
6048088,23
6048712,17
6049336,16
6049964,14
6050584,15
6051216,14
6051844,11
6052464,14
6053096,11
6053720,12
6054352,13
6054984,11
6055600,12
6056232,13
6056860,16
6057484,16
6058116,14
6058736,15
6059368,13
6059996,14
6060620,15
6061252,18
6061872,17
6062504,15
6063136,10
6063756,10
6064388,10
6065012,11
6065644,17
6066272,21
6066892,21
6067524,19
6068148,21
6068772,17
6069404,10
6070024,19
6070656,29
6071280,32
6071904,15
6072536,10
6073160,12
6073792,12
6074420,13
6075040,15
6075672,15
6076296,15
6076928,13
6077560,11
6078176,10
6078808,14
6079436,15
6080060,15
6080692,10
6081312,20
6081940,33
6082572,29
6083192,25
6083824,22
6084448,21
6085076,15
6085708,10
6086328,14
6086960,23
6087584,17
6088208,11
6088836,10
6089456,12
6090088,13
6090712,23
6091336,20
6091968,15
6092588,14
6093216,13
6093848,11
6094468,14
6095096,20
6095720,22
6096352,15
6096980,14
6097600,17
6098228,14
6098856,13
6099480,14
6100112,14
6100728,16
6101360,13
6101984,11
6102608,11
6103240,11
6103856,11
6104488,11
6105116,12
6105736,22
6106368,25
6106992,16
6107624,13
6108252,13
6108872,15
6109504,15
6110128,13
6110752,15
6111384,13
6112004,10
6112632,11
6113256,18
6113880,30
6114512,32
6115132,24
6115764,17
6116396,12
6117016,12
6117648,13
6118276,15
6118908,12
6119536,10
6120160,11
6120792,11
6121416,11
6122044,11
6122672,14
6123296,23
6123928,27
6124560,19
6125176,14
6125808,19
6126432,19
6127064,13
6127696,11
6128312,13
6128944,10
6129572,10
6130196,10
6130828,11
6131448,13
6132080,16
6132704,16
6133328,16
6133960,13
6134584,16
6135216,14
6135848,12
6136468,11
6137100,11
6137724,11
6138356,12
6138988,14
6139608,14
6140240,17
6140868,19
6141492,18
6142124,18
6142744,14
6143380,14
6144012,20
6144628,20
6145260,24
6145884,23
6146512,15
6147140,10
6147760,13
6148388,15
6149012,17
6149640,16
6150268,23
6150888,21
6151516,19
6152140,21
6152764,18
6153396,12
6154016,10
6154644,11
6155276,11
6155896,12
6156524,17
6157152,21
6157780,13
6158412,14
6159032,17
6159664,16
6160288,12
6160912,11
6161540,10
6162160,16
6162788,21
6163416,22
6164040,23
6164668,14
6165288,11
6165916,13
6166548,14
6167168,14
6167796,14
6168424,13
6169052,10
6169684,12
6170304,17
6170932,17
6171556,14
6172180,12
6172812,11
6173432,13
6174064,13
6174688,14
6175312,13
6175944,16
6176560,15
6177192,17
6177824,11
6178440,11
6179068,13
6179696,16
6180324,19
6180956,17
6181576,11
6182208,13
6182832,16
6183456,22
6184088,20
6184704,17
6185336,15
6185960,11
6186584,13
6187212,12
6187832,15
6188464,15
6189092,12
6189712,12
6190344,11
6190968,17
6191600,22
6192228,19
6192848,13
6193476,11
6194104,12
6194728,14
6195360,11
6195976,14
6196608,11
6197232,15
6197856,26
6198484,19
6199112,15
6199740,13
6200372,13
6200992,14
6201624,13
6202248,11
6202876,11
6203508,11
6204128,11
6204760,11
6205384,11
6206012,12
6206640,12
6207264,14
6207896,14
6208528,14
6209144,17
6209772,17
6210400,11
6211028,9
6211608,9
6212180,10
6212812,19
6213432,24
6214064,20
6214696,14
6215312,13
6215944,13
6216568,17
6217200,18
6217828,16
6218448,15
6219080,11
6219704,13
6220328,14
6220960,10
6221576,13
6222208,17
6222832,18
6223456,17
6224088,22
6224712,18
6225344,13
6225972,12
6226592,13
6227220,11
6227844,16
6228476,14
6229104,10
6229728,17
6230360,11
6230984,15
6231608,14
6232240,22
6232856,27
6233488,24
6234120,16
6234736,13
6235368,11
6235992,11
6236624,13
6237256,11
6237872,11
6238504,15
6239128,11
6239752,12
6240384,11
6241000,12
6241632,13
6242256,15
6242880,14
6243508,10
6244128,14
6244760,19
6245388,19
6246008,17
6246640,17
6247260,18
6247892,18
6248524,16
6249144,13
6249772,13
6250396,13
6251024,13
6251652,11
6252272,11
6252900,10
6253528,12
6254152,13
6254780,10
6255400,13
6256032,21
6256660,23
6257280,16
6257908,13
6258536,16
6259164,14
6259796,18
6260416,11
6261048,27
6261672,29
6262296,16
