tempo_arduino_micro_s,valor_ADC
500,9
1000,13
1500,23
2000,21
2504,13
3000,12
3508,16
4000,18
4504,12
5000,26
5500,33
6000,30
6500,20
7000,16
7500,12
8000,10
8500,10
9000,12
9500,10
10000,10
10508,17
11028,26
11556,22
12076,17
12604,10
13124,14
13652,14
14172,10
14700,10
15220,10
15748,11
16268,11
16796,12
17316,12
17836,15
18356,16
18876,15
19396,18
19916,13
20436,12
20956,13
21476,13
21996,30
22516,37
23036,23
23564,12
24084,10
24612,15
25132,23
25660,27
26180,19
26708,12
27228,25
27756,30
28276,22
28804,14
29324,14
29852,11
30372,21
30900,23
31420,20
31948,22
32468,19
32996,11
33516,11
34044,12
34564,15
35092,12
35612,11
36140,13
36660,18
37188,15
37708,10
38236,15
38760,22
39284,23
39804,17
40332,16
40852,18
41372,17
41892,11
42412,23
42932,28
43452,30
43972,31
44492,23
45012,18
45532,17
46052,16
46572,14
47092,15
47612,12
48140,11
48660,10
49188,10
49708,10
50236,14
50756,16
51284,12
51804,15
52332,24
52852,20
53380,14
53900,11
54428,10
54948,12
55476,12
55996,14
56524,11
57044,10
57572,12
58096,15
58620,13
59140,12
59668,10
60188,10
60716,13
61240,10
61764,10
62284,12
62812,9
63272,10
63812,11
64336,21
64860,24
65380,21
65908,18
66428,14
66956,11
67476,10
67996,10
68516,10
69036,11
69556,12
70076,10
70600,10
71116,10
71640,10
72160,10
72676,11
73196,11
73716,11
74236,11
74764,12
75284,10
75812,11
76336,12
76860,10
77380,10
77908,11
78428,10
78956,10
79480,10
80004,10
80524,11
81052,12
81572,14
82100,12
82620,10
83148,10
83668,12
84196,18
84716,25
85244,23
85764,19
86292,13
86812,11
87340,10
87860,10
88388,12
88908,12
89436,10
89960,12
90484,12
91004,14
91532,16
92052,11
92572,12
93092,23
93612,23
94132,24
94652,23
95172,17
95696,12
96216,18
96732,16
97252,16
97776,12
98292,14
98812,14
99340,11
99860,10
100388,11
100952,12
101536,16
102108,13
102688,9
103204,10
103784,10
104352,10
104920,9
105436,10
106008,11
106592,18
107160,13
107736,11
108304,12
108888,16
109456,15
110032,11
110608,11
111176,13
111760,11
112328,12
112912,10
113480,11
114064,13
114632,14
115208,11
115792,14
116360,14
116944,12
117512,11
118096,13
118664,17
119248,18
119824,17
120396,14
120976,11
121544,10
122128,9
122644,12
123224,13
123792,15
124368,12
124944,11
125512,14
126096,11
126664,14
127248,22
127816,18
128400,9
128916,11
129488,10
130064,10
130632,10
131208,11
131776,9
132300,12
132872,11
133456,11
134024,10
134600,12
135176,11
135744,12
136328,11
136896,11
137472,9
137992,11
138568,12
139136,14
139712,12
140280,10
140856,10
141440,13
142008,9
142532,11
143104,15
143688,12
144256,11
144840,15
145416,24
145984,24
146568,17
147136,16
147720,13
148288,10
148872,11
149440,15
150016,15
150600,14
151168,11
151752,11
152324,13
152904,13
153476,10
154056,11
154640,13
155208,11
155792,11
156364,10
156944,9
157460,12
158040,12
158612,11
159188,13
159768,11
160340,10
160920,10
161488,12
162064,11
162632,12
163216,12
163784,10
164364,12
164944,13
165512,11
166088,16
166656,17
167232,16
167800,13
168376,10
168944,11
169512,11
170096,13
170664,11
171248,11
171816,12
172400,9
172916,10
173496,11
174064,14
174644,10
175224,12
175792,11
176376,9
176892,9
177420,10
177992,11
178576,15
179144,20
179724,20
180304,13
180872,13
181456,13
182024,13
182608,12
183176,11
183760,9
184280,10
184848,13
185432,11
186000,11
186584,13
187152,16
187736,19
188304,17
188880,11
189464,14
190032,16
190616,13
191188,11
191768,9
192288,11
192864,10
193432,10
194008,11
194592,12
195160,14
195744,18
196312,20
196896,17
197464,17
198048,17
198620,14
199192,11
199776,10
200344,12
200928,9
201448,10
202024,9
202544,10
203120,11
203692,11
204268,14
204848,12
205416,12
205992,12
206560,11
207144,10
207712,11
208296,11
208864,10
209432,9
209956,10
210528,15
211104,11
211676,19
212256,22
212824,16
213408,12
213976,10
214556,13
215136,12
215704,11
216288,20
216856,15
217440,10
218008,10
218584,14
219168,15
219740,11
220320,12
220888,12
221472,10
222040,14
222624,15
223196,12
223772,11
224352,11
224920,15
225504,15
226072,13
226656,11
227224,10
227800,12
228384,15
228952,14
229536,9
230056,13
230632,13
231200,16
231784,15
232352,14
232928,19
233512,25
234084,27
234664,24
235232,15
235816,11
236388,11
236968,9
237484,11
238056,11
238640,11
239208,11
239792,10
240364,11
240944,15
241512,19
242096,15
242664,10
243240,13
243824,22
244396,27
244976,21
245544,16
246128,17
246696,18
247272,11
247856,10
248424,11
249008,11
249576,11
250160,12
250728,15
251312,13
251884,11
252460,10
253040,12
253612,12
254192,12
254764,11
255344,17
255916,15
256492,12
257072,10
257640,12
258216,11
258784,11
259360,13
259928,9
260452,13
261024,16
261600,15
262184,12
262752,11
263336,12
263904,11
264488,13
265056,11
265640,10
266208,11
266784,11
267368,12
267936,11
268520,11
269088,10
269672,9
270188,11
270768,10
271336,11
271916,11
272496,10
273064,10
273648,12
274216,19
274800,24
275372,19
275944,16
276528,10
277096,10
277680,11
278248,10
278832,9
279352,10
279928,11
280500,10
281076,10
281656,10
282224,12
282800,10
283368,14
283952,12
284524,11
285104,9
285624,10
286196,10
286776,11
287344,14
287928,13
288500,14
289080,16
289648,18
290232,14
290804,15
291376,17
291960,20
292528,19
293112,10
293684,10
294264,13
294836,16
295408,11
295992,11
296564,11
297144,11
297712,12
298296,12
298864,11
299448,9
299968,10
300540,11
301120,11
301692,10
302272,10
302844,12
303424,14
303996,17
304580,19
305160,21
305732,17
306312,15
306884,15
307464,10
308032,16
308616,17
309184,13
309764,12
310344,18
310916,14
311496,10
312068,11
312648,12
313216,11
313800,13
314376,16
314948,11
315528,10
316100,10
316680,11
317260,13
317840,11
318420,10
318996,13
319576,18
320152,15
320728,12
321296,13
321880,12
322448,11
323024,11
323608,11
324176,12
324760,12
325332,17
325912,19
326484,15
327064,11
327636,11
328212,11
328792,11
329360,15
329944,15
330512,14
331096,9
331616,9
332140,10
332712,11
333292,14
333872,12
334440,14
335024,18
335592,21
336176,19
336744,18
337328,13
337896,12
338476,11
339056,11
339624,12
340208,10
340776,12
341360,12
341928,11
342504,15
343088,15
343656,14
344240,10
344808,10
345392,9
345912,9
346436,11
347008,11
347592,10
348168,11
348736,9
349260,10
349832,11
350416,13
350984,19
351568,13
352140,10
352720,12
353296,15
353864,16
354448,12
355016,11
355600,11
356168,10
356752,10
357324,11
357900,11
358480,13
359052,11
359632,9
360152,10
360728,11
361296,12
361880,10
362448,11
363024,10
363608,11
364176,12
364760,13
365332,15
365912,20
366484,25
367056,17
367640,11
368212,9
368740,10
369312,11
369896,9
370416,11
370992,11
371564,11
372144,11
372712,11
373292,14
373872,16
374444,22
375024,21
375596,12
376176,16
376756,26
377332,24
377912,22
378484,19
379064,14
379636,17
380216,16
380788,12
381368,11
381948,12
382524,11
383104,11
383676,10
384260,10
384832,11
385416,12
385984,22
386560,25
387144,18
387716,12
388296,10
388868,10
389448,10
390016,11
390600,9
391116,10
391692,11
392272,13
392844,10
393424,11
393996,17
394576,18
395156,15
395732,11
396312,10
396884,11
397464,10
398036,11
398616,15
399196,18
399776,19
400356,15
400928,11
401512,17
402084,13
402664,10
403236,13
403816,13
404388,10
404964,10
405544,11
406116,12
406696,11
407268,10
407848,10
408420,12
409000,17
409572,19
410148,14
410728,16
411296,18
411880,17
412448,17
413032,15
413600,11
414176,11
414752,12
415320,11
415904,10
416476,11
417056,10
417624,11
418208,9
418724,10
419296,12
419880,14
420448,11
421032,11
421600,12
422184,11
422752,16
423336,16
423904,14
424484,10
425064,11
425632,11
426216,10
426788,12
427368,9
427888,10
428464,11
429036,16
429612,23
430192,20
430760,18
431344,11
431916,11
432496,11
433072,11
433648,11
434232,11
434804,13
435384,14
435952,11
436536,9
437056,10
437632,11
438204,11
438780,11
439360,10
439928,11
440512,12
441080,15
441664,13
442232,10
442816,11
443388,12
443964,14
444544,13
445116,11
445696,11
446264,11
446848,10
447420,10
447996,10
448580,12
449148,13
449728,11
450300,11
450880,12
451448,10
452032,15
452600,22
453176,23
453760,13
454328,25
454912,20
455484,11
456064,10
456632,17
457212,22
457792,19
458364,18
458944,14
459516,20
460096,19
460676,10
461256,11
461840,11
462408,12
462992,13
463564,14
464144,14
464712,11
465296,9
465816,16
466388,15
466968,12
467540,11
468120,11
468692,10
469272,11
469844,13
470424,13
470996,11
471572,12
472152,14
472724,13
473304,9
473824,10
474400,9
474920,10
475496,12
476068,13
476644,14
477224,15
477796,24
478376,32
478948,29
479528,24
480108,20
480688,15
481256,14
481836,14
482416,11
482984,12
483568,9
484088,10
484664,12
485236,13
485816,13
486388,11
486964,11
487544,11
488116,13
488696,13
489268,12
489848,9
490368,10
490944,12
491516,11
492092,11
492672,11
493244,11
493824,13
494396,12
494976,12
495548,12
496124,11
496704,11
497272,11
497856,14
498428,10
499008,9
499528,10
500104,12
500676,11
501252,11
501832,11
502404,10
502984,11
503556,12
504136,12
504708,11
505288,16
505864,19
506436,15
507016,12
507588,11
508168,11
508740,15
509320,19
509900,14
510476,10
511056,11
511632,10
512212,11
512784,15
513360,14
513928,11
514512,10
515088,12
515656,14
516240,12
516808,10
517392,10
517964,10
518544,11
519112,10
519692,11
520272,11
520840,10
521424,10
521996,10
522576,12
523144,10
523728,15
524304,22
524876,22
525456,21
526024,21
526608,13
527176,11
527760,12
528332,11
528904,11
529488,10
530060,12
530640,14
531208,18
531792,13
532364,10
532944,9
533464,11
534032,11
534616,10
535188,11
535768,19
536340,18
536920,11
537492,10
538068,10
538648,10
539216,11
539800,13
540372,10
540952,13
541524,15
542104,17
542676,22
543252,19
543832,17
544404,15
544984,13
545552,11
546136,11
546708,10
547284,11
547864,10
548432,10
549016,10
549588,12
550168,11
550748,11
551328,11
551900,11
552476,12
553056,13
553628,14
554208,15
554780,15
555360,15
555940,14
556516,10
557096,12
557668,18
558248,16
558820,12
559400,9
559920,11
560496,11
561076,10
561652,10
562232,11
562804,11
563384,11
563952,11
564536,11
565104,12
565688,17
566260,15
566836,13
567416,11
567988,10
568568,11
569148,11
569728,13
570300,14
570876,15
571456,19
572028,17
572608,12
573180,12
573760,15
574336,11
574920,9
575440,11
576012,10
576592,11
577160,11
577744,11
578316,11
578896,10
579464,12
580048,10
580624,18
581196,17
581776,11
582348,10
582928,11
583508,13
584088,16
584664,17
585244,16
585824,12
586396,10
586976,10
587548,11
588128,9
588648,10
589224,11
589804,10
590380,10
590960,11
591532,10
592112,12
592684,10
593264,11
593836,11
594412,10
594992,10
595564,13
596144,11
596716,10
597296,14
597876,16
598456,13
599036,16
599612,19
600192,19
600764,18
601344,19
601924,20
602504,11
603076,10
603652,10
604232,13
604804,11
605384,11
605956,10
606536,11
607116,17
607696,16
608280,13
608852,13
609432,10
610004,15
610584,15
611156,10
611740,10
612316,19
612892,32
613472,21
614048,13
614628,11
615200,13
615784,12
616356,19
616932,15
617512,11
618084,10
618664,11
619236,14
619816,19
620388,16
620968,12
621536,10
622116,10
622696,11
623268,11
623848,10
624428,11
625008,9
625528,10
626104,17
626676,19
627252,12
627832,11
628404,11
628984,20
629556,23
630136,24
630716,18
631292,14
631872,13
632448,9
632972,11
633548,11
634132,11
634708,10
635292,11
635868,12
636444,10
637024,10
637596,9
638124,10
638700,10
639284,14
639860,15
640444,12
641016,16
641592,18
642176,15
642744,13
643328,13
643896,15
644480,17
645048,11
645628,12
646208,11
646780,11
647360,11
647928,14
648512,14
649084,13
649664,10
650232,14
650812,14
651392,11
651964,11
652544,9
653064,10
653640,9
654160,11
654736,18
655308,14
655884,11
656464,14
657032,12
657616,16
658184,17
658768,19
659336,23
659920,23
660496,18
661064,16
661640,14
662208,11
662792,10
663364,11
663944,13
664516,11
665092,22
665672,27
666240,17
666816,14
667384,34
667968,37
668540,20
669120,13
669688,26
670264,36
670848,27
671416,14
672000,12
672568,11
673144,13
673716,21
674292,14
674872,11
675444,11
676024,12
676592,13
677176,15
677744,14
678328,11
678900,11
679472,11
680056,11
680624,16
681208,15
681776,17
682360,13
682932,11
683508,14
684088,12
684660,12
685240,14
685812,11
686392,10
686964,11
687544,11
688116,13
688692,14
689272,11
689844,11
690424,10
690996,13
691576,19
692156,19
692732,14
693312,11
693884,12
694464,11
695036,14
695616,10
696196,10
696776,11
697352,10
697924,11
698504,17
699076,14
699656,10
700228,16
700808,21
701380,22
701956,13
702536,10
703108,10
703688,13
704260,16
704840,13
705408,14
705992,12
706568,12
707136,10
707720,11
708292,13
708872,13
709444,15
710024,14
710596,18
711172,32
711752,20
712324,11
712904,20
713476,19
714056,13
714636,10
715216,11
715800,12
716372,11
716952,11
717524,15
718104,17
718676,19
719256,15
719828,12
720404,10
720984,15
721552,15
722136,9
722656,10
723232,9
723748,10
724328,10
724900,10
725472,11
726056,10
726628,10
727208,11
727776,11
728360,12
728928,14
729512,12
730084,11
730660,17
731240,15
731812,11
732392,11
732972,11
733552,10
734124,12
734700,10
735280,11
735856,10
736432,11
737004,12
737584,19
738156,26
738736,25
739308,21
739884,10
740464,17
741036,14
741616,11
742188,10
742768,10
743344,10
743924,11
744504,10
745076,10
745656,10
746228,14
746808,17
747380,19
747960,23
748540,20
749116,16
749696,13
750268,12
750848,27
751420,24
752000,14
752576,11
753156,14
753736,17
754308,15
754888,14
755460,17
756040,14
756620,11
757200,11
757784,10
758356,11
758936,10
759512,11
760088,18
760668,21
761248,16
761820,13
762396,13
762976,22
763548,20
764128,16
764708,10
765288,11
765868,18
766444,21
767024,14
767600,14
768180,10
768748,14
769328,11
769896,13
770480,11
771052,12
771628,13
772208,12
772780,14
773360,18
773940,12
774520,9
775040,10
775616,11
776188,11
776764,10
777344,12
777916,10
778496,11
779076,10
779656,11
780228,15
780804,21
781384,24
781956,18
782536,15
783108,11
783688,12
784268,11
784848,9
785368,10
785940,11
786520,14
787092,15
787672,13
788252,10
788832,11
789404,10
789980,11
790560,10
791132,13
791712,15
792284,11
792864,16
793444,13
794024,10
794604,11
795180,16
795760,23
796336,18
796912,14
797492,11
798072,10
798652,11
799228,12
799808,10
800384,10
800960,12
801528,14
802112,13
802684,15
803264,13
803832,13
804412,13
804992,14
805564,12
806144,9
806664,12
807240,13
807812,14
808392,9
808912,12
809484,12
810064,12
810636,11
811216,11
811796,10
812376,11
812956,10
813532,10
814112,13
814684,12
815264,10
815836,10
816420,11
816996,10
817576,9
818096,12
818668,16
819248,19
819820,18
820400,14
820968,13
821544,10
822112,11
822696,11
823264,11
823840,11
824424,11
824992,12
825568,13
826140,16
826720,19
827288,14
827864,11
828448,11
829020,13
829600,17
830168,17
830752,13
831324,11
831904,10
832476,10
833048,10
833632,11
834200,13
834784,20
835352,24
835936,19
836504,17
837080,14
837664,11
838236,11
838816,10
839384,10
839968,9
840488,12
841064,13
841632,14
842208,16
842792,11
843364,11
843944,10
844516,11
845096,12
845664,11
846248,11
846816,11
847392,15
847976,12
848548,11
849128,11
849696,11
850280,12
850848,17
851428,19
852008,11
852576,11
853160,10
853732,11
854312,11
854892,10
855472,15
856044,19
856616,14
857200,12
857772,15
858352,17
858924,13
859504,16
860076,12
860652,13
861232,13
861804,10
862384,11
862956,10
863536,11
864108,15
864688,11
865256,11
865836,11
866416,12
866988,11
867568,12
868140,14
868720,13
869292,14
869868,12
870448,12
871020,14
871600,16
872172,15
872752,13
873324,12
873904,10
874476,10
875052,12
875632,11
876204,13
876784,14
877356,10
877936,11
878516,11
879092,15
879672,12
880244,10
880824,16
881392,23
881976,20
882544,11
883128,13
883700,12
884276,11
884856,13
885424,14
886008,9
886528,10
887104,12
887676,13
888256,16
888840,14
889412,13
889992,10
890564,14
891144,13
891716,11
892296,11
892876,11
893452,11
894032,11
894604,10
895184,11
895764,12
896348,11
896920,10
897496,12
898080,11
898648,10
899232,11
899800,10
900384,19
900956,22
901536,18
902116,13
902692,17
903272,15
903844,15
904424,10
904996,10
905576,10
906148,10
906724,10
907304,10
907876,12
908456,14
909028,17
909608,10
910176,22
910760,24
911332,21
911908,17
912488,14
913060,11
913640,13
914212,14
914792,11
915372,12
915948,13
916528,11
917100,11
917680,10
918252,11
918832,15
919412,13
919992,10
920572,13
921152,17
921728,17
922300,14
922880,15
923448,11
924032,10
924604,13
925180,11
925760,10
926332,13
926912,10
927484,15
928064,13
928632,15
929216,17
929788,15
930364,11
930944,10
931516,13
932096,11
932676,15
933256,20
933828,18
934404,15
934984,15
935556,13
936136,11
936708,12
937288,11
937868,15
938448,16
939024,16
939596,10
940176,10
940748,11
941332,14
941908,14
942492,12
943068,13
943644,18
944224,15
944796,15
945376,15
945956,14
946536,14
947116,12
947692,11
948272,11
948844,13
949424,12
949996,10
950576,11
951156,10
951736,10
952316,11
952896,9
953420,10
953996,11
954576,18
955156,15
955740,11
956316,10
956892,11
957472,11
958044,16
958624,22
959200,20
959776,18
960356,15
960936,11
961508,10
962084,11
962664,14
963232,14
963816,11
964388,11
964968,10
965540,12
966116,13
966696,11
967268,10
967848,10
968420,11
969000,9
969520,11
970096,11
970676,10
971252,10
971832,11
972408,12
972984,11
973556,15
974136,16
974708,14
975288,12
975868,10
976444,9
976972,10
977548,13
978128,11
978708,11
979288,10
979868,11
980444,10
981024,11
981596,11
982180,12
982752,10
983328,11
983908,10
984488,9
985004,10
985580,13
986160,14
986732,14
987312,20
987884,25
988464,19
989036,11
989616,12
990188,11
990764,10
991344,19
991916,20
992500,14
993076,12
993656,11
994232,11
994812,10
995392,11
995964,14
996544,13
997116,15
997696,15
998276,15
998856,16
999440,13
1000012,11
1000636,11
1001256,12
1001884,10
1002512,10
1003136,14
1003764,11
1004388,10
1005016,13
1005648,20
1006264,14
1006892,10
1007516,10
1008140,10
1008768,11
1009384,18
1010012,13
1010636,11
1011260,10
1011888,12
1012504,12
1013136,14
1013760,16
1014384,13
1015012,11
1015636,10
1016268,10
1016896,11
1017516,10
1018144,11
1018768,11
1019396,11
1020028,11
1020648,16
1021276,17
1021900,12
1022528,11
1023156,10
1023776,11
1024408,11
1025032,10
1025652,12
1026280,17
1026900,14
1027528,11
1028156,10
1028772,12
1029404,11
1030024,10
1030652,10
1031280,10
1031896,11
1032524,11
1033148,13
1033768,21
1034396,18
1035016,11
1035644,11
1036264,10
1036888,10
1037516,10
1038136,13
1038764,12
1039392,10
1040008,10
1040636,10
1041256,10
1041888,9
1042464,11
1043084,10
1043716,11
1044336,10
1044968,12
1045592,11
1046216,11
1046844,15
1047464,12
1048088,14
1048716,12
1049336,11
1049964,11
1050584,10
1051208,11
1051836,14
1052456,21
1053084,19
1053712,14
1054328,10
1054960,12
1055584,11
1056212,10
1056840,11
1057456,11
1058084,10
1058708,10
1059332,10
1059964,8
1060532,15
1061164,14
1061788,10
1062412,15
1063040,18
1063656,15
1064284,12
1064908,10
1065532,12
1066160,19
1066776,21
1067404,21
1068028,22
1068656,20
1069284,16
1069904,10
1070536,24
1071164,32
1071784,19
1072412,15
1073036,15
1073664,13
1074292,10
1074912,13
1075540,25
1076164,27
1076784,17
1077412,11
1078032,9
1078608,10
1079228,11
1079852,15
1080484,13
1081100,11
1081732,11
1082352,11
1082976,11
1083604,11
1084228,11
1084856,13
1085484,14
1086104,12
1086732,10
1087352,13
1087984,24
1088612,14
1089232,11
1089860,17
1090480,17
1091104,17
1091732,12
1092352,13
1092980,12
1093604,12
1094228,16
1094856,17
1095472,11
1096104,12
1096732,10
1097352,10
1097980,11
1098604,11
1099232,17
1099860,19
1100480,15
1101108,10
1101732,10
1102356,10
1102984,10
1103608,11
1104236,11
1104860,10
1105484,13
1106112,15
1106736,15
1107364,12
1107992,10
1108612,12
1109240,15
1109864,12
1110492,11
1111120,10
1111744,11
1112372,13
1112996,13
1113620,11
1114248,10
1114872,10
1115500,11
1116124,10
1116748,12
1117380,11
1118000,11
1118628,13
1119260,16
1119880,15
1120512,15
1121132,13
1121764,11
1122392,10
1123008,10
1123640,13
1124264,11
1124888,10
1125516,10
1126136,11
1126764,11
1127388,11
1128012,11
1128640,10
1129256,11
1129884,10
1130512,10
1131128,11
1131760,11
1132384,13
1133012,10
1133640,10
1134264,11
1134892,17
1135516,14
1136140,13
1136768,12
1137392,17
1138020,21
1138644,17
1139268,13
1139896,12
1140512,11
1141140,10
1141772,11
1142392,11
1143020,11
1143644,10
1144276,10
1144904,10
1145528,11
1146160,10
1146780,11
1147408,12
1148036,12
1148656,13
1149284,11
1149908,11
1150532,10
1151160,10
1151780,11
1152408,12
1153036,10
1153656,12
1154284,13
1154904,12
1155536,11
1156164,12
1156784,11
1157412,10
1158036,10
1158660,13
1159292,10
1159912,15
1160540,11
1161164,21
1161788,21
1162416,15
1163032,11
1163664,12
1164288,10
1164912,15
1165540,11
1166164,10
1166792,12
1167420,14
1168040,12
1168668,11
1169288,14
1169920,17
1170548,12
1171168,11
1171796,11
1172420,11
1173044,13
1173676,16
1174296,21
1174924,15
1175548,10
1176176,13
1176804,12
1177428,21
1178060,17
1178688,11
1179308,14
1179936,11
1180560,13
1181188,16
1181820,10
1182440,10
1183068,16
1183692,21
1184316,25
1184948,19
1185568,11
1186196,11
1186828,10
1187448,13
1188076,10
1188700,10
1189332,10
1189960,11
1190576,11
1191208,10
1191828,12
1192456,11
1193084,10
1193704,11
1194332,14
1194956,13
1195580,12
1196212,10
1196832,19
1197460,21
1198092,14
1198712,11
1199340,10
1199968,13
1200596,19
1201228,10
1201848,11
1202476,11
1203100,12
1203724,12
1204356,11
1204976,12
1205604,13
1206228,11
1206852,10
1207480,10
1208104,11
1208732,14
1209364,10
1209984,11
1210612,11
1211236,11
1211868,10
1212496,12
1213112,11
1213744,12
1214368,16
1214992,11
1215624,11
1216240,24
1216868,19
1217492,11
1218116,11
1218744,14
1219368,11
1219996,11
1220628,12
1221248,11
1221876,10
1222500,13
1223132,11
1223760,10
1224380,13
1225008,12
1225632,11
1226256,16
1226884,22
1227504,22
1228136,18
1228760,10
1229384,11
1230012,20
1230632,19
1231260,10
1231888,16
1232512,24
1233140,23
1233764,17
1234392,16
1235020,16
1235640,15
1236268,13
1236892,11
1237516,10
1238144,14
1238760,12
1239392,11
1240016,16
1240636,12
1241268,10
1241888,11
1242516,11
1243144,11
1243768,10
1244396,14
1245020,14
1245648,11
1246280,23
1246896,17
1247524,14
1248148,11
1248772,11
1249404,14
1250024,19
1250652,17
1251276,17
1251900,14
1252528,12
1253144,15
1253776,10
1254404,10
1255020,21
1255652,26
1256276,24
1256904,20
1257536,11
1258152,11
1258784,17
1259408,25
1260036,12
1260668,11
1261288,12
1261916,15
1262540,13
1263164,13
1263796,10
1264416,11
1265044,11
1265676,11
1266296,14
1266924,13
1267548,12
1268180,10
1268808,14
1269432,10
1270064,11
1270688,15
1271308,17
1271940,16
1272560,15
1273188,11
1273812,18
1274436,22
1275068,18
1275688,15
1276316,22
1276948,20
1277568,14
1278200,14
1278824,15
1279452,16
1280084,16
1280700,13
1281328,12
1281948,10
1282572,10
1283200,10
1283812,10
1284444,13
1285064,22
1285688,23
1286316,12
1286936,19
1287564,31
1288188,24
1288812,16
1289444,10
1290064,10
1290696,11
1291324,10
1291944,10
1292572,11
1293196,11
1293824,11
1294452,14
1295072,15
1295700,16
1296324,13
1296944,11
1297572,10
1298192,10
1298820,11
1299444,11
1300068,10
1300696,13
1301320,17
1301948,13
1302576,10
1303200,14
1303828,12
1304452,10
1305080,11
1305708,10
1306328,11
1306956,11
1307580,17
1308204,17
1308832,12
1309448,15
1310076,13
1310700,12
1311324,15
1311956,13
1312580,11
1313208,11
1313836,12
1314456,16
1315084,11
1315704,12
1316336,11
1316964,10
1317580,11
1318212,10
1318836,9
1319404,10
1320036,10
1320652,12
1321280,10
1321904,10
1322524,9
1323104,11
1323728,11
1324356,10
1324980,12
1325600,14
1326228,14
1326848,12
1327476,11
1328100,10
1328720,10
1329348,10
1329968,13
1330596,14
1331224,12
1331844,17
1332472,17
1333096,12
1333724,10
1334352,10
1334968,12
1335596,19
1336220,27
1336844,18
1337472,10
1338088,13
1338716,15
1339340,10
1339964,10
1340592,10
1341208,11
1341836,11
1342460,12
1343088,13
1343716,14
1344340,15
1344968,13
1345596,10
1346216,11
1346844,12
1347464,10
1348096,10
1348724,12
1349344,13
1349972,10
1350596,10
1351216,10
1351848,10
1352464,11
1353092,13
1353716,15
1354336,15
1354968,12
1355588,15
1356220,11
1356848,10
1357464,12
1358092,16
1358716,16
1359344,18
1359972,18
1360592,15
1361220,15
1361844,11
1362464,13
1363096,11
1363712,10
1364340,13
1364964,11
1365584,11
1366212,10
1366832,11
1367460,16
1368088,14
1368712,11
1369340,10
1369964,15
1370592,16
1371220,13
1371840,9
1372416,9
1372988,10
1373620,10
1374248,10
1374868,11
1375496,12
1376120,10
1376748,12
1377376,10
1377992,10
1378624,11
1379248,11
1379868,10
1380500,17
1381120,20
1381748,10
1382372,11
1382996,10
1383628,12
1384248,17
1384876,18
1385504,21
1386124,14
1386752,10
1387376,11
1388004,11
1388632,10
1389256,13
1389884,15
1390508,10
1391132,15
1391760,15
1392384,12
1393012,15
1393636,16
1394260,11
1394888,10
1395504,11
1396132,11
1396760,10
1397384,12
1398012,14
1398636,15
1399264,13
1399896,10
1400512,12
1401140,11
1401764,10
1402388,11
1403016,15
1403636,23
1404264,24
1404888,19
1405508,10
1406140,14
1406760,15
1407388,11
1408020,12
1408636,14
1409264,14
1409888,11
1410516,10
1411144,16
1411768,17
1412396,11
1413020,13
1413644,12
1414272,12
1414896,12
1415524,10
1416148,10
1416772,10
1417400,13
1418016,15
1418648,12
1419276,10
1419896,15
1420524,12
1421148,10
1421780,10
1422408,10
1423024,12
1423652,13
1424276,11
1424900,10
1425532,10
1426152,15
1426780,12
1427404,10
1428028,12
1428656,13
1429280,17
1429908,17
1430540,11
1431160,11
1431788,12
1432416,17
1433044,11
1433676,14
1434292,10
1434924,22
1435544,21
1436168,18
1436796,14
1437416,11
1438044,11
1438668,11
1439292,11
1439924,11
1440544,10
1441172,10
1441800,11
1442416,13
1443048,17
1443668,15
1444300,10
1444928,14
1445544,15
1446172,11
1446796,11
1447424,13
1448052,12
1448668,13
1449300,14
1449920,11
1450544,11
1451172,10
1451792,15
1452420,16
1453044,17
1453668,12
1454296,17
1454920,19
1455548,12
1456180,10
1456800,11
1457428,11
1458052,10
1458680,9
1459256,11
1459880,14
1460508,19
1461132,19
1461760,15
1462388,10
1463008,11
1463636,12
1464260,11
1464884,11
1465516,11
1466136,15
1466764,13
1467388,16
1468016,18
1468644,12
1469268,11
1469900,14
1470528,12
1471148,11
1471776,16
1472400,17
1473028,13
1473660,10
1474280,12
1474908,11
1475532,14
1476156,13
1476784,11
1477400,11
1478032,13
1478656,12
1479280,11
1479908,10
1480532,14
1481160,25
1481788,21
1482408,20
1483036,15
1483660,10
1484288,10
1484916,12
1485532,11
1486164,10
1486784,10
1487408,11
1488036,10
1488652,12
1489284,10
1489904,11
1490528,12
1491156,11
1491780,11
1492412,12
1493040,10
1493656,11
1494288,11
1494912,15
1495540,20
1496172,22
1496792,21
1497420,17
1498044,15
1498668,12
1499296,10
1499912,16
1500544,19
1501168,14
1501792,13
1502420,10
1503044,10
1503676,11
1504304,10
1504928,13
1505556,11
1506180,13
1506812,16
1507440,15
1508060,11
1508688,9
1509260,10
1509892,11
1510524,10
1511144,12
1511772,12
1512396,11
1513020,13
1513652,16
1514272,17
1514900,15
1515532,12
1516152,13
1516780,13
1517408,13
1518036,11
1518668,10
1519288,15
1519916,12
1520544,10
1521168,11
1521796,9
1522364,9
1522944,11
1523576,15
1524204,12
1524836,11
1525456,11
1526084,15
1526708,11
1527332,11
1527964,11
1528584,15
1529212,13
1529836,11
1530460,11
1531092,10
1531716,10
1532348,11
1532980,10
1533600,16
1534228,15
1534856,13
1535484,11
1536116,12
1536732,15
1537364,14
1537984,10
1538608,21
1539236,19
1539856,13
1540484,15
1541104,12
1541728,10
1542360,14
1542984,17
1543612,23
1544244,20
1544864,15
1545492,11
1546116,10
1546744,11
1547376,10
1547992,11
1548620,11
1549244,12
1549868,12
1550500,10
1551120,11
1551748,11
1552372,11
1552996,10
1553628,12
1554252,21
1554880,24
1555508,22
1556128,17
1556756,12
1557380,12
1558012,10
1558640,10
1559256,10
1559888,12
1560512,11
1561136,11
1561764,10
1562380,11
1563012,11
1563636,14
1564260,13
1564888,11
1565512,13
1566140,14
1566772,14
1567392,19
1568020,19
1568644,15
1569272,14
1569900,10
1570520,11
1571148,10
1571772,12
1572396,13
1573028,16
1573648,12
1574276,16
1574904,25
1575528,15
1576156,11
1576780,14
1577412,19
1578040,18
1578660,14
1579288,12
1579912,14
1580540,13
1581172,18
1581792,19
1582420,16
1583044,11
1583668,13
1584300,15
1584920,12
1585548,28
1586176,34
1586800,31
1587432,19
1588056,11
1588684,11
1589312,11
1589936,13
1590564,18
1591188,15
1591816,15
1592444,13
1593064,10
1593692,12
1594316,13
1594940,13
1595572,14
1596192,11
1596824,11
1597452,10
1598072,12
1598700,11
1599328,14
1599956,17
1600588,14
1601204,13
1601836,10
1602456,10
1603080,10
1603708,11
1604328,13
1604956,13
1605580,10
1606204,10
1606832,10
1607448,12
1608076,11
1608700,11
1609320,11
1609952,11
1610572,11
1611204,12
1611832,13
1612452,16
1613080,15
1613704,11
1614332,11
1614960,10
1615584,11
1616212,12
1616836,11
1617460,11
1618088,10
1618712,14
1619340,13
1619964,12
1620584,20
1621216,14
1621836,10
1622468,11
1623096,10
1623720,13
1624348,12
1624972,10
1625600,12
1626228,10
1626848,12
1627476,10
1628100,11
1628728,11
1629356,10
1629976,18
1630604,16
1631228,12
1631856,15
1632488,27
1633108,15
1633740,10
1634368,10
1634992,12
1635620,15
1636248,15
1636872,15
1637500,11
1638120,10
1638752,12
1639372,14
1639992,15
1640620,11
1641236,11
1641864,11
1642488,11
1643108,15
1643736,15
1644360,13
1644988,10
1645616,10
1646232,11
1646860,12
1647480,11
1648112,11
1648740,14
1649356,12
1649984,13
1650608,15
1651228,15
1651856,12
1652476,10
1653108,13
1653728,11
1654352,10
1654980,11
1655600,15
1656228,11
1656856,11
1657472,12
1658100,13
1658724,19
1659352,22
1659980,16
1660600,11
1661228,10
1661852,10
1662472,10
1663104,10
1663720,19
1664348,16
1664972,12
1665592,9
1666168,10
1666788,11
1667416,12
1668040,11
1668660,10
1669288,10
1669908,11
1670536,13
1671160,17
1671784,15
1672412,13
1673032,10
1673664,11
1674292,13
1674912,13
1675540,11
1676160,11
1676792,15
1677420,18
1678040,19
1678668,11
1679292,19
1679916,20
1680544,19
1681160,13
1681788,10
1682408,11
1683032,12
1683660,10
1684280,13
1684908,14
1685536,12
1686152,15
1686780,18
1687404,11
1688032,22
1688660,24
1689280,30
1689908,25
1690528,24
1691152,23
1691780,14
1692400,13
1693028,16
1693648,12
1694272,12
1694900,14
1695520,15
1696148,17
1696776,13
1697392,11
1698020,10
1698644,10
1699272,11
1699900,10
1700520,11
1701148,19
1701768,20
1702396,15
1703028,10
1703648,11
1704276,10
1704900,10
1705524,10
1706152,10
1706768,11
1707400,13
1708020,12
1708644,11
1709276,11
1709900,12
1710528,11
1711156,10
1711776,11
1712404,10
1713028,11
1713656,11
1714288,11
1714904,11
1715532,11
1716156,11
1716780,11
1717408,10
1718032,13
1718660,10
1719284,10
1719908,11
1720540,17
1721160,11
1721792,11
1722420,14
1723040,19
1723668,24
1724292,14
1724920,11
1725548,11
1726168,10
1726796,10
1727420,11
1728044,12
1728672,17
1729288,17
1729916,13
1730540,11
1731164,9
1731740,16
1732364,16
1732996,13
1733616,11
1734240,10
1734872,17
1735496,12
1736124,10
1736752,10
1737372,10
1738000,15
1738624,15
1739252,13
1739884,16
1740504,13
1741132,11
1741756,20
1742380,12
1743008,10
1743624,10
1744256,17
1744876,22
1745500,23
1746128,16
1746752,16
1747380,11
1748008,10
1748632,12
1749260,11
1749884,10
1750512,10
1751140,13
1751760,19
1752388,11
1753012,16
1753636,17
1754264,16
1754884,10
1755512,10
1756136,15
1756760,20
1757388,13
1758008,11
1758636,11
1759268,10
1759888,19
1760520,31
1761140,28
1761772,17
1762400,11
1763016,13
1763644,11
1764268,11
1764892,10
1765520,13
1766136,15
1766764,12
1767388,11
1768012,10
1768640,11
1769256,10
1769884,12
1770512,10
1771136,11
1771764,11
1772388,11
1773016,16
1773648,13
1774264,11
1774892,15
1775516,15
1776140,14
1776768,14
1777392,14
1778020,17
1778644,15
1779268,10
1779896,15
1780512,20
1781144,17
1781772,10
1782392,12
1783020,14
1783644,19
1784276,13
1784904,9
1785476,10
1786108,12
1786732,10
1787364,11
1787992,10
1788616,15
1789244,19
1789868,14
1790492,14
1791124,13
1791744,11
1792376,13
1792996,15
1793620,11
1794248,17
1794864,17
1795496,15
1796124,15
1796744,13
1797372,11
1797996,11
1798628,11
1799256,10
1799872,11
1800500,12
1801124,17
1801748,17
1802376,12
1803000,11
1803628,10
1804248,10
1804872,11
1805500,10
1806120,11
1806748,11
1807376,11
1807992,11
1808620,10
1809244,10
1809872,12
1810504,17
1811120,25
1811748,15
1812372,11
1812996,11
1813628,14
1814248,15
1814876,11
1815500,11
1816124,15
1816752,22
1817376,16
1818004,9
1818576,11
1819200,10
1819828,12
1820448,17
1821076,17
1821708,12
1822328,10
1822956,10
1823580,9
1824160,11
1824788,10
1825408,16
1826036,14
1826660,10
1827288,11
1827916,10
1828536,11
1829164,11
1829788,11
1830412,10
1831040,10
1831656,12
1832288,15
1832912,17
1833536,13
1834164,10
1834784,11
1835412,11
1836044,11
1836664,11
1837292,10
1837916,11
1838548,11
1839180,10
1839800,11
1840432,11
1841052,12
1841676,16
1842308,22
1842928,19
1843556,17
1844180,17
1844804,12
1845432,11
1846048,16
1846676,14
1847304,15
1847928,14
1848556,11
1849180,12
1849808,11
1850436,11
1851056,10
1851684,10
1852308,11
1852932,15
1853564,12
1854184,11
1854812,11
1855436,10
1856060,11
1856688,13
1857304,15
1857932,12
1858556,10
1859184,11
1859812,10
1860436,10
1861068,11
1861696,11
1862316,11
1862944,11
1863568,11
1864196,14
1864828,13
1865448,16
1866076,14
1866700,15
1867324,10
1867952,12
1868576,15
1869204,12
1869836,10
1870456,11
1871084,12
1871708,10
1872340,10
1872968,10
1873584,14
1874216,12
1874836,10
1875464,12
1876092,12
1876712,13
1877340,11
1877964,11
1878588,12
1879220,10
1879840,19
1880468,16
1881100,20
1881720,20
1882348,18
1882972,13
1883604,12
1884232,12
1884848,15
1885476,11
1886100,11
1886724,13
1887356,13
1887976,10
1888608,10
1889228,11
1889852,10
1890484,10
1891104,11
1891732,10
1892364,11
1892984,12
1893612,13
1894236,16
1894868,17
1895500,10
1896120,11
1896748,10
1897372,10
1897996,10
1898628,14
1899248,11
1899876,10
1900500,11
1901124,12
1901756,12
1902376,15
1903008,13
1903636,12
1904256,12
1904884,11
1905508,10
1906140,11
1906768,10
1907392,17
1908020,14
1908644,11
1909268,10
1909900,12
1910520,15
1911148,14
1911776,11
1912400,12
1913028,15
1913648,15
1914276,11
1914908,14
1915528,18
1916156,26
1916784,20
1917416,16
1918048,14
1918664,11
1919296,14
1919920,12
1920544,10
1921176,12
1921792,18
1922420,12
1923044,11
1923668,14
1924296,10
1924912,10
1925544,13
1926172,20
1926792,18
1927420,12
1928044,11
1928672,12
1929300,19
1929920,18
1930548,11
1931172,10
1931796,11
1932428,11
1933048,17
1933676,23
1934300,21
1934924,15
1935556,10
1936176,11
1936804,10
1937432,10
1938056,13
1938684,13
1939308,16
1939940,16
1940568,15
1941188,11
1941816,14
1942440,15
1943064,15
1943692,12
1944312,11
1944944,9
1945516,10
1946144,11
1946772,10
1947392,14
1948020,12
1948644,10
1949268,11
1949896,10
1950520,11
1951148,12
1951780,10
1952400,11
1953028,11
1953652,11
1954280,15
1954912,17
1955528,15
1956160,14
1956784,11
1957408,10
1958036,10
1958656,11
1959284,11
1959908,11
1960532,11
1961164,11
1961784,12
1962412,14
1963044,10
1963664,14
1964292,15
1964916,13
1965548,11
1966180,12
1966800,11
1967428,12
1968052,12
1968672,9
1969248,10
1969872,11
1970500,10
1971124,13
1971748,15
1972376,18
1973000,12
1973628,11
1974252,11
1974876,10
1975504,10
1976128,11
1976756,11
1977388,12
1978008,13
1978636,17
1979260,15
1979888,14
1980520,10
1981136,11
1981764,10
1982388,10
1983012,11
1983644,10
1984264,16
1984892,17
1985516,12
1986140,10
1986768,15
1987392,20
1988020,12
1988648,10
1989264,11
1989896,12
1990520,11
1991148,11
1991780,16
1992400,15
1993028,11
1993652,10
1994276,11
1994908,10
1995528,13
1996156,18
1996784,13
1997408,13
1998036,15
1998660,14
1999292,11
1999920,10
2000540,10
2001168,11
2001792,11
2002420,23
2003048,14
2003672,11
2004300,15
2004924,20
2005548,20
2006180,15
2006800,12
2007428,14
2008052,16
2008676,11
2009304,11
2009928,11
2010556,10
2011184,14
2011808,11
2012436,13
2013060,15
2013692,13
2014320,11
2014940,10
2015568,11
2016192,11
2016816,11
2017444,14
2018064,18
2018692,15
2019316,10
2019940,14
2020568,14
2021192,11
2021820,14
2022452,18
2023072,15
2023700,11
2024324,10
2024952,11
2025580,10
2026200,11
2026828,13
2027452,16
2028076,16
2028708,24
2029328,22
2029956,13
2030580,10
2031204,10
2031836,10
2032460,11
2033092,10
2033720,10
2034340,10
2034968,9
2035540,10
2036172,9
2036752,14
2037376,15
2038008,11
2038628,10
2039260,11
2039892,10
2040512,11
2041140,10
2041768,11
2042388,11
2043020,11
2043640,12
2044268,12
2044896,11
2045520,10
2046148,10
2046768,17
2047400,18
2048028,13
2048644,10
2049272,13
2049892,15
2050520,10
2051148,11
2051768,12
2052396,11
2053016,11
2053640,11
2054268,10
2054888,12
2055516,12
2056136,11
2056760,11
2057388,12
2058008,14
2058636,17
2059256,14
2059880,11
2060508,11
2061132,10
2061760,12
2062388,12
2063008,11
2063636,10
2064260,11
2064888,11
2065516,10
2066136,11
2066764,11
2067388,10
2068008,12
2068636,12
2069256,13
2069884,10
2070504,11
2071128,11
2071756,10
2072376,11
2073004,11
2073632,14
2074252,17
2074884,12
2075504,11
2076132,10
2076764,10
2077384,10
2078012,11
2078636,10
2079260,11
2079888,12
2080512,13
2081140,11
2081760,17
2082384,11
2083012,14
2083632,15
2084260,11
2084888,10
2085504,11
2086132,10
2086756,10
2087384,10
2088012,10
2088628,16
2089260,24
2089880,21
2090504,13
2091132,10
2091752,10
2092380,11
2093004,11
2093628,10
2094256,11
2094872,11
2095500,11
2096124,12
2096752,11
2097380,12
2098004,17
2098632,21
2099260,15
2099876,15
2100504,16
2101128,11
2101756,13
2102388,14
2103008,16
2103636,14
2104260,10
2104884,10
2105512,10
2106136,11
2106764,11
2107388,10
2108016,11
2108644,13
2109268,14
2109900,14
2110528,10
2111144,10
2111776,11
2112400,11
2113028,13
2113656,16
2114272,16
2114904,11
2115524,11
2116148,11
2116780,16
2117400,17
2118028,11
2118652,10
2119280,11
2119908,10
2120532,11
2121160,18
2121792,15
2122408,12
2123036,10
2123660,13
2124288,15
2124920,11
2125536,10
2126164,12
2126788,11
2127412,10
2128040,10
2128656,11
2129288,11
2129908,11
2130536,15
2131164,19
2131788,16
2132416,11
2133044,10
2133664,11
2134292,10
2134916,11
2135548,10
2136176,11
2136792,11
2137424,12
2138048,14
2138672,21
2139300,18
2139920,19
2140548,15
2141172,13
2141796,10
2142424,14
2143048,17
2143676,11
2144308,10
2144928,10
2145556,10
2146180,10
2146808,11
2147440,11
2148056,10
2148688,10
2149312,10
2149936,11
2150564,12
2151180,11
2151812,10
2152436,11
2153056,11
2153688,10
2154308,10
2154940,10
2155568,10
2156184,10
2156816,11
2157436,11
2158068,11
2158700,10
2159320,11
2159948,21
2160576,19
2161200,12
2161828,10
2162448,11
2163076,11
2163700,13
2164324,13
2164952,13
2165576,14
2166208,12
2166836,10
2167456,11
2168084,10
2168708,10
2169340,10
2169968,10
2170588,10
2171216,11
2171840,13
2172460,14
2173092,11
2173712,11
2174340,12
2174964,13
2175588,16
2176220,14
2176844,13
2177472,11
2178100,11
2178720,12
2179348,11
2179972,12
2180600,15
2181228,10
2181848,10
2182476,10
2183100,11
2183720,10
2184352,10
2184968,10
2185596,11
2186220,12
2186844,10
2187476,18
2188100,21
2188728,14
2189356,10
2189976,13
2190604,11
2191228,12
2191860,15
2192492,14
2193112,17
2193740,17
2194364,16
2194988,16
2195620,14
2196240,16
2196868,15
2197492,10
2198116,23
2198748,16
2199372,11
2200004,10
2200632,11
2201248,10
2201880,10
2202504,11
2203132,10
2203764,12
2204384,17
2205012,12
2205636,12
2206260,12
2206892,11
2207512,12
2208144,11
2208764,9
2209340,10
2209972,11
2210592,11
2211220,13
2211852,12
2212472,11
2213100,10
2213724,10
2214356,10
2214984,11
2215608,13
2216236,16
2216860,17
2217484,17
2218116,10
2218736,15
2219364,14
2219988,12
2220612,11
2221244,11
2221864,11
2222492,13
2223124,10
2223744,11
2224376,14
2224996,15
2225628,12
2226256,10
2226880,14
2227508,15
2228132,14
2228756,15
2229388,10
2230008,11
2230636,11
2231264,11
2231888,11
2232516,12
2233136,11
2233764,11
2234396,11
2235016,11
2235644,12
2236272,13
2236900,13
2237532,14
2238152,13
2238784,11
2239408,11
2240032,11
2240660,11
2241280,15
2241908,11
2242532,11
2243156,11
2243784,10
2244408,11
2245036,10
2245668,10
2246288,13
2246916,15
2247540,15
2248172,16
2248800,16
2249424,11
2250052,10
2250676,10
2251300,9
2251880,10
2252504,11
2253136,10
2253756,10
2254380,10
2255008,10
2255632,13
2256260,10
2256884,13
2257508,11
2258136,11
2258760,12
2259388,13
2260016,12
2260632,13
2261264,15
2261888,16
2262516,12
2263148,10
2263768,11
2264396,10
2265020,11
2265644,16
2266272,15
2266888,10
2267520,11
2268144,15
2268768,17
2269396,18
2270020,12
2270652,13
2271284,22
2271904,22
2272536,17
2273160,11
2273788,12
2274420,16
2275040,15
2275668,11
2276292,12
2276916,11
2277548,11
2278168,15
2278796,14
2279420,16
2280048,19
2280676,12
2281300,9
2281876,9
2282452,10
2283080,12
2283708,11
2284328,13
2284956,12
2285588,10
2286208,12
2286836,10
2287460,10
2288092,11
2288720,10
2289344,11
2289972,13
2290596,15
2291224,12
2291852,10
2292472,12
2293104,11
2293728,12
2294352,10
2294980,10
2295600,11
2296228,10
2296860,12
2297480,12
2298108,12
2298732,11
2299364,14
2299992,14
2300612,12
2301240,11
2301864,11
2302492,13
2303120,16
2303740,11
2304372,10
2304992,14
2305616,13
2306244,10
2306864,11
2307492,10
2308120,12
2308744,13
2309372,13
2309996,12
2310624,10
2311256,10
2311872,10
2312500,14
2313124,11
2313748,11
2314380,10
2315000,16
2315628,13
2316252,13
2316876,11
2317504,12
2318128,18
2318756,19
2319388,18
2320008,15
2320636,11
2321260,10
2321888,12
2322520,11
2323136,11
2323768,10
2324388,11
2325012,11
2325644,13
2326264,11
2326892,11
2327516,11
2328140,11
2328772,10
2329392,11
2330024,11
2330652,12
2331272,13
2331900,12
2332524,10
2333156,10
2333788,10
2334408,11
2335036,11
2335660,15
2336284,13
2336916,10
2337536,13
2338164,17
2338788,25
2339412,22
2340044,16
2340664,17
2341292,13
2341924,10
2342544,11
2343172,12
2343796,10
2344428,13
2345060,12
2345680,11
2346308,11
2346932,10
2347556,10
2348188,10
2348808,11
2349436,10
2350060,11
2350688,11
2351316,14
2351944,13
2352572,11
2353204,10
2353824,16
2354456,15
2355080,13
2355712,11
2356340,11
2356960,16
2357588,19
2358212,16
2358836,11
2359468,11
2360088,14
2360716,19
2361340,18
2361968,19
2362596,15
2363220,15
2363852,13
2364480,14
2365104,13
2365736,11
2366360,11
2366984,11
2367616,10
2368232,10
2368864,11
2369488,10
2370108,11
2370740,12
2371360,12
2371988,13
2372620,14
2373240,12
2373868,11
2374492,10
2375124,10
2375756,10
2376376,11
2377004,10
2377628,10
2378252,10
2378880,10
2379500,11
2380128,12
2380752,13
2381376,11
2382004,11
2382624,13
2383252,10
2383884,10
2384504,11
2385132,13
2385756,10
2386388,17
2387020,24
2387640,25
2388268,17
2388892,12
2389516,11
2390148,13
2390768,16
2391400,14
2392024,13
2392648,11
2393276,10
2393896,17
2394524,15
2395156,12
2395776,10
2396408,12
2397032,11
2397664,12
2398292,14
2398912,17
2399544,17
2400168,15
2400792,11
2401420,10
2402040,13
2402668,14
2403292,13
2403916,15
2404544,12
2405168,11
2405796,10
2406428,10
2407048,11
2407676,11
2408300,11
2408928,11
2409560,12
2410176,20
2410808,17
2411432,11
2412056,11
2412684,14
2413304,16
2413932,15
2414556,11
2415184,9
2415760,11
2416388,15
2417016,15
2417640,11
2418264,10
2418892,10
2419512,13
2420140,11
2420772,10
2421392,15
2422020,16
2422644,15
2423276,13
2423908,10
2424528,11
2425156,11
2425784,13
2426408,11
2427036,14
2427656,15
2428284,12
2428908,11
2429536,12
2430164,21
2430788,22
2431420,22
2432052,20
2432672,16
2433300,12
2433924,13
2434552,15
2435184,12
2435800,11
2436432,10
2437056,13
2437680,16
2438308,17
2438928,11
2439556,11
2440184,12
2440804,11
2441436,10
2442060,11
2442692,10
2443320,12
2443940,10
2444568,10
2445196,10
2445824,12
2446452,14
2447072,17
2447704,13
2448328,11
2448948,11
2449580,12
2450200,13
2450828,11
2451460,10
2452080,11
2452708,11
2453336,13
2453964,9
2454544,10
2455172,10
2455804,12
2456428,12
2457060,11
2457688,10
2458308,11
2458940,11
2459560,11
2460184,11
2460812,10
2461432,13
2462060,15
2462684,15
2463308,11
2463936,9
2464508,10
2465140,11
2465764,10
2466388,11
2467016,10
2467632,11
2468264,13
2468892,13
2469512,13
2470140,14
2470764,13
2471392,11
2472024,12
2472640,13
2473268,13
2473892,11
2474516,10
2475148,10
2475768,11
2476396,10
2477020,13
2477644,16
2478276,13
2478896,12
2479524,11
2480156,10
2480776,12
2481404,12
2482028,12
2482656,11
2483288,10
2483904,12
2484532,11
2485156,9
2485728,12
2486356,12
2486976,12
2487604,10
2488228,12
2488852,11
2489484,10
2490104,12
2490732,11
2491356,11
2491984,13
2492612,14
2493232,17
2493860,14
2494492,11
2495112,11
2495744,11
2496368,11
2496996,10
2497628,10
2498248,11
2498876,13
2499500,19
2500124,15
2500752,10
2501376,12
2502004,12
2502628,10
2503252,10
2503884,10
2504504,11
2505132,11
2505764,10
2506384,11
2507012,16
2507640,12
2508268,13
2508900,14
2509520,11
2510148,11
2510772,10
2511396,11
2512024,10
2512648,11
2513276,11
2513900,11
2514524,10
2515156,11
2515780,12
2516412,10
2517044,11
2517664,11
2518296,10
2518920,11
2519552,12
2520180,10
2520800,15
2521428,16
2522056,19
2522680,12
2523308,10
2523928,11
2524560,12
2525184,12
2525808,14
2526436,11
2527064,11
2527692,11
2528324,10
2528944,14
2529572,14
2530200,10
2530824,11
2531452,13
2532072,16
2532704,13
2533328,10
2533952,12
2534584,11
2535200,11
2535828,9
2536404,10
2537032,11
2537664,10
2538280,11
2538912,11
2539540,10
2540160,10
2540788,10
2541416,12
2542044,12
2542676,10
2543296,19
2543928,21
2544552,18
2545176,13
2545808,11
2546424,11
2547056,12
2547680,13
2548304,11
2548936,10
2549552,10
2550184,10
2550816,10
2551432,11
2552064,17
2552688,16
2553320,13
2553948,11
2554568,12
2555200,11
2555824,11
2556448,11
2557080,12
2557700,11
2558328,17
2558956,19
2559584,15
2560216,14
2560836,15
2561464,16
2562092,12
2562708,10
2563340,10
2563960,11
2564588,11
2565216,15
2565832,15
2566460,11
2567084,12
2567704,10
2568336,10
2568952,12
2569580,12
2570204,13
2570828,11
2571456,10
2572076,11
2572704,12
2573332,10
2573952,12
2574580,11
2575204,10
2575832,10
2576460,11
2577080,11
2577708,10
2578332,14
2578956,17
2579584,14
2580200,12
2580832,11
2581452,10
2582076,13
2582708,12
2583328,11
2583956,10
2584588,10
2585208,11
2585836,11
2586460,10
2587088,10
2587716,10
2588336,11
2588964,10
2589588,11
2590212,11
2590844,10
2591464,16
2592092,12
2592716,13
2593340,15
2593968,15
2594584,11
2595216,10
2595836,11
2596464,11
2597092,11
2597716,11
2598348,10
2598980,10
2599600,12
2600228,13
2600852,14
2601480,13
2602108,10
2602728,11
2603356,10
2603980,11
2604604,15
2605236,20
2605856,17
2606484,12
2607116,11
2607736,13
2608364,10
2608988,11
2609620,11
2610248,10
2610864,11
2611496,11
2612120,13
2612740,11
2613372,12
2613992,12
2614620,11
2615244,11
2615868,10
2616500,10
2617120,9
2617696,12
2618328,11
2618952,13
2619580,11
2620200,11
2620828,12
2621460,14
2622076,13
2622708,13
2623332,10
2623960,13
2624588,20
2625204,11
2625836,20
2626456,20
2627076,15
2627708,12
2628328,11
2628956,11
2629576,10
2630200,11
2630832,10
2631448,11
2632076,10
2632700,11
2633328,12
2633956,11
2634580,11
2635208,11
2635836,12
2636456,15
2637084,19
2637708,17
2638336,12
2638964,10
2639584,10
2640212,10
2640836,10
2641456,12
2642084,10
2642700,10
2643332,11
2643952,11
2644576,11
2645204,11
2645824,10
2646456,11
2647084,12
2647704,11
2648332,13
2648952,12
2649584,13
2650212,11
2650832,12
2651460,13
2652084,14
2652708,17
2653336,15
2653960,15
2654588,11
2655212,11
2655836,14
2656468,13
2657088,14
2657720,17
2658348,20
2658968,23
2659596,18
2660220,14
2660848,11
2661480,17
2662096,15
2662724,14
2663348,13
2663968,15
2664600,16
2665216,15
2665844,11
2666464,11
2667088,9
2667664,11
2668288,10
2668916,11
2669536,14
2670160,13
2670788,12
2671408,13
2672036,12
2672664,11
2673280,12
2673908,11
2674532,11
2675160,11
2675792,10
2676408,10
2677036,11
2677660,16
2678284,23
2678912,16
2679536,13
2680164,10
2680788,11
2681412,12
2682044,10
2682664,16
2683292,11
2683920,10
2684544,11
2685172,11
2685796,12
2686424,11
2687052,10
2687672,12
2688304,13
2688924,13
2689548,15
2690176,13
2690792,11
2691420,10
2692044,12
2692668,12
2693296,11
2693912,9
2694488,11
2695116,14
2695740,19
2696372,16
2696992,14
2697620,12
2698248,11
2698864,10
2699496,10
2700120,10
2700748,17
2701380,14
2702000,11
2702628,10
2703252,11
2703880,17
2704508,10
2705128,12
2705756,12
2706380,12
2707004,10
2707632,11
2708248,11
2708880,14
2709500,11
2710128,13
2710756,11
2711380,11
2712012,11
2712640,10
2713256,11
2713888,11
2714512,12
2715140,11
2715768,10
2716392,13
2717020,11
2717644,11
2718268,14
2718900,16
2719520,17
2720148,13
2720780,10
2721400,10
2722028,11
2722648,16
2723280,17
2723908,10
2724528,10
2725156,10
2725780,11
2726404,11
2727032,10
2727656,11
2728284,12
2728908,12
2729532,14
2730160,15
2730776,16
2731408,18
2732036,12
2732656,11
2733284,10
2733908,11
2734540,11
2735168,11
2735788,11
2736416,11
2737040,10
2737668,11
2738300,12
2738920,11
2739548,11
2740172,11
2740796,11
2741428,10
2742048,10
2742676,11
2743308,10
2743928,11
2744556,13
2745180,15
2745812,13
2746440,17
2747056,12
2747688,13
2748312,19
2748936,18
2749564,14
2750184,14
2750812,12
2751436,11
2752060,12
2752692,10
2753312,11
2753940,13
2754568,18
2755192,17
2755820,15
2756444,11
2757076,10
2757704,10
2758328,10
2758960,11
2759584,10
2760208,11
2760836,9
2761404,9
2761984,12
2762616,11
2763244,11
2763876,10
2764496,15
2765124,15
2765748,14
2766372,14
2767000,10
2767624,11
2768252,10
2768876,11
2769500,11
2770128,13
2770752,14
2771380,13
2772012,12
2772632,14
2773260,12
2773884,10
2774516,11
2775144,12
2775764,10
2776392,10
2777016,10
2777640,11
2778268,11
2778888,11
2779516,10
2780140,11
2780768,12
2781396,14
2782020,11
2782652,10
2783284,12
2783904,18
2784536,14
2785160,12
2785788,15
2786420,18
2787040,15
2787668,12
2788292,14
2788916,16
2789544,16
2790168,15
2790796,13
2791420,10
2792048,11
2792676,13
2793300,14
2793932,12
2794560,11
2795176,12
2795808,14
2796432,15
2797060,11
2797692,12
2798312,17
2798944,12
2799568,10
2800192,11
2800820,10
2801440,11
2802068,10
2802696,11
2803320,11
2803948,10
2804572,11
2805204,10
2805832,10
2806448,11
2807076,10
2807700,9
2808276,11
2808908,13
2809528,17
2810156,13
2810784,13
2811408,13
2812036,10
2812656,9
2813236,10
2813864,11
2814488,10
2815116,10
2815736,10
2816368,11
2816988,11
2817612,11
2818240,10
2818856,10
2819488,11
2820116,10
2820736,12
2821364,15
2821988,11
2822620,10
2823248,10
2823864,10
2824496,13
2825116,15
2825740,14
2826372,12
2826992,10
2827620,10
2828244,13
2828868,14
2829496,10
2830112,11
2830740,11
2831372,10
2831992,11
2832620,13
2833244,15
2833876,15
2834504,14
2835128,13
2835760,11
2836380,11
2837008,9
2837584,11
2838208,11
2838836,10
2839460,11
2840084,10
2840716,12
2841336,13
2841964,14
2842588,12
2843212,10
2843840,12
2844464,13
2845092,12
2845724,13
2846344,13
2846976,12
2847596,24
2848228,27
2848856,28
2849480,24
2850108,16
2850732,15
2851356,17
2851984,13
2852608,11
2853236,10
2853860,10
2854488,11
2855116,11
2855736,18
2856364,17
2856996,12
2857616,12
2858244,13
2858868,12
2859500,10
2860132,10
2860752,13
2861384,13
2862008,13
2862632,11
2863264,10
2863880,10
2864512,11
2865136,12
2865760,17
2866388,18
2867016,21
2867648,16
2868276,14
2868896,15
2869524,13
2870148,13
2870776,11
2871404,10
2872024,11
2872652,13
2873276,13
2873900,11
2874532,10
2875152,13
2875780,12
2876408,11
2877028,15
2877660,11
2878284,11
2878912,11
2879544,13
2880160,18
2880788,16
2881412,11
2882040,10
2882668,10
2883288,11
2883916,11
2884536,11
2885160,10
2885792,10
2886408,11
2887036,11
2887660,12
2888284,11
2888912,11
2889528,12
2890156,10
2890788,10
2891408,11
2892036,11
2892660,11
2893292,12
2893920,13
2894536,15
2895164,14
2895788,11
2896412,10
2897040,12
2897664,13
2898292,11
2898916,16
2899540,12
2900168,10
2900784,9
2901364,10
2901992,10
2902616,11
2903244,10
2903864,11
2904492,10
2905124,10
2905744,14
2906372,13
2906996,12
2907628,11
2908256,10
2908880,11
2909508,10
2910132,14
2910756,18
2911388,18
2912008,17
2912636,13
2913260,13
2913884,15
2914516,18
2915140,16
2915768,12
2916400,10
2917020,14
2917648,17
2918272,21
2918904,15
2919532,10
2920152,11
2920780,10
2921404,10
2922028,11
2922660,11
2923280,12
2923908,11
2924532,11
2925156,13
2925788,11
2926412,13
2927040,18
2927672,20
2928292,15
2928920,11
2929544,11
2930172,10
2930804,10
2931424,15
2932052,17
2932676,14
2933300,10
2933932,12
2934552,19
2935180,16
2935812,11
2936432,9
2937008,10
2937640,10
2938268,10
2938900,10
2939520,11
2940148,10
2940776,11
2941404,13
2942036,16
2942656,18
2943288,19
2943912,18
2944536,14
2945168,12
2945784,13
2946412,12
2947036,9
2947612,11
2948244,10
2948864,17
2949492,13
2950116,11
2950740,13
2951368,14
2951992,16
2952620,15
2953252,16
2953872,19
2954500,15
2955124,10
2955756,14
2956384,16
2957008,11
2957636,11
2958260,12
2958884,12
2959516,10
2960136,11
2960764,13
2961388,12
2962012,11
2962640,10
2963260,10
2963888,13
2964516,12
2965136,11
2965764,11
2966388,17
2967020,25
2967648,22
2968272,11
2968900,11
2969528,11
2970152,11
2970780,11
2971400,15
2972028,14
2972652,12
2973276,9
2973852,12
2974480,12
2975108,10
2975732,14
2976356,15
2976984,15
2977608,16
2978240,15
2978868,13
2979488,11
2980116,11
2980740,11
2981372,11
2982000,12
2982620,12
2983248,13
2983872,12
2984496,11
2985124,12
2985744,11
2986372,11
2986996,12
2987624,14
2988252,10
2988876,10
2989508,9
2990084,10
2990708,11
2991340,10
2991964,11
2992596,14
2993228,12
2993848,12
2994476,13
2995100,9
2995676,9
2996256,10
2996884,9
2997460,10
2998088,11
2998716,10
2999348,10
2999968,12
3000600,11
3001224,10
3001852,11
3002484,11
3003104,11
3003736,13
3004360,13
3004984,12
3005612,10
3006232,11
3006864,11
3007492,10
3008112,10
3008740,13
3009364,13
3009996,12
3010624,10
3011248,12
3011876,11
3012500,13
3013128,13
3013756,10
3014376,11
3015008,11
3015632,11
3016256,13
3016884,10
3017504,11
3018136,15
3018764,18
3019384,19
3020016,19
3020640,16
3021272,11
3021900,10
3022520,11
3023148,11
3023776,11
3024400,11
3025028,10
3025648,11
3026276,10
3026904,11
3027528,11
3028156,10
3028776,11
3029408,12
3030036,14
3030656,17
3031288,13
3031912,10
3032544,9
3033120,10
3033748,11
3034376,10
3035000,10
3035632,11
3036264,10
3036880,10
3037508,10
3038136,11
3038760,11
3039388,10
3040008,11
3040636,16
3041260,20
3041884,18
3042516,16
3043140,12
3043772,10
3044400,10
3045024,10
3045656,11
3046280,10
3046908,11
3047540,14
3048160,15
3048788,14
3049416,11
3050040,11
3050668,12
3051288,17
3051920,22
3052548,13
3053168,11
3053796,11
3054424,13
3055052,30
3055684,29
3056304,17
3056936,10
3057560,11
3058184,15
3058816,14
3059432,10
3060064,11
3060688,12
3061312,12
3061944,10
3062560,10
3063192,10
3063824,11
3064444,10
3065072,10
3065696,10
3066324,11
3066956,10
3067576,12
3068208,11
3068832,11
3069456,11
3070088,10
3070704,11
3071336,10
3071964,10
3072592,11
3073220,10
3073840,11
3074468,13
3075096,13
3075720,11
3076348,11
3076972,11
3077600,11
3078232,10
3078848,10
3079480,14
3080104,18
3080728,19
3081356,16
3081976,14
3082604,10
3083228,10
3083852,11
3084480,13
3085104,16
3085732,15
3086364,10
3086984,13
3087612,18
3088236,17
3088868,16
3089496,12
3090112,12
3090744,13
3091368,11
3091992,11
3092624,10
3093240,11
3093868,11
3094492,11
3095116,14
3095748,12
3096368,12
3096996,10
3097628,10
3098248,10
3098876,12
3099500,13
3100132,12
3100764,10
3101384,11
3102016,11
3102640,13
3103264,13
3103896,11
3104512,18
3105144,17
3105768,14
3106392,12
3107024,11
3107640,11
3108272,14
3108900,11
3109520,13
3110152,12
3110776,12
3111408,10
3112036,10
3112656,11
3113288,10
3113908,10
3114532,11
3115164,12
3115784,13
3116412,11
3117040,11
3117664,14
3118292,11
3118916,11
3119548,12
3120180,12
3120800,14
3121428,14
3122052,12
3122684,12
3123316,11
3123936,11
3124564,10
3125188,11
3125812,11
3126440,10
3127064,11
3127692,12
3128316,11
3128944,10
3129572,11
3130200,12
3130828,11
3131460,10
3132080,11
3132712,11
3133336,11
3133960,14
3134588,13
3135208,12
3135840,10
3136464,11
3137088,13
3137716,12
3138336,11
3138964,11
3139596,10
3140216,12
3140844,11
3141468,10
3142100,11
3142732,10
3143352,12
3143984,13
3144608,15
3145232,15
3145864,14
3146480,14
3147108,12
3147736,15
3148360,11
3148992,10
3149608,17
3150236,18
3150868,16
3151488,13
3152120,10
3152744,13
3153372,19
3154004,20
3154624,18
3155252,11
3155876,10
3156500,11
3157132,12
3157752,14
3158384,13
3159008,11
3159632,14
3160264,13
3160880,12
3161512,12
3162144,10
3162760,11
3163392,13
3164016,13
3164648,18
3165276,10
3165896,17
3166528,21
3167152,19
3167776,18
3168408,15
3169024,11
3169656,11
3170280,11
3170904,10
3171536,11
3172156,14
3172784,17
3173416,14
3174040,13
3174672,12
3175296,12
3175928,11
3176560,10
3177176,11
3177808,9
3178380,10
3179016,11
3179644,11
3180264,13
3180896,11
3181520,10
3182144,11
3182776,11
3183392,10
3184024,11
3184652,10
3185272,11
3185904,11
3186528,11
3187160,11
3187792,10
3188412,10
3189040,10
3189668,11
3190292,10
3190924,10
3191544,13
3192176,14
3192800,15
3193424,12
3194056,10
3194676,10
3195308,10
3195940,10
3196560,11
3197192,11
3197816,11
3198448,12
3199076,11
3199696,11
3200328,11
3200952,11
3201576,11
3202204,10
3202824,10
3203452,10
3204076,10
3204696,10
3205328,10
3205944,11
3206572,10
3207200,10
3207824,11
3208452,10
3209076,10
3209704,11
3210332,10
3210952,11
3211580,11
3212204,10
3212828,10
3213456,11
3214076,10
3214704,11
3215328,11
3215952,11
3216580,10
3217200,11
3217828,10
3218460,11
3219080,19
3219708,23
3220332,27
3220964,21
3221592,15
3222212,13
3222840,10
3223464,11
3224088,12
3224716,11
3225336,11
3225968,12
3226588,11
3227212,12
3227844,14
3228464,14
3229092,17
3229724,15
3230344,12
3230976,11
3231600,11
3232228,11
3232860,11
3233480,13
3234108,16
3234732,12
3235356,10
3235988,10
3236608,13
3237236,11
3237860,10
3238484,11
3239112,12
3239736,14
3240364,14
3240996,18
3241616,27
3242244,27
3242868,25
3243496,25
3244128,17
3244748,10
3245376,11
3246000,13
3246624,14
3247256,18
3247872,19
3248504,17
3249128,15
3249752,12
3250380,11
3251000,12
3251632,15
3252260,14
3252880,19
3253508,23
3254132,19
3254764,20
3255396,19
3256016,17
3256644,11
3257268,11
3257892,12
3258524,10
3259144,11
3259776,10
3260400,11
3261024,11
3261652,15
3262280,17
3262908,24
3263540,21
3264160,19
3264788,25
3265412,26
3266044,29
3266672,18
3267296,16
3267924,11
3268548,11
3269172,11
3269804,14
3270424,14
3271052,11
3271680,10
3272304,11
3272936,11
3273560,13
3274192,16
3274824,11
3275440,10
3276072,11
3276696,12
3277320,10
3277948,11
3278564,11
3279192,10
3279816,14
3280440,21
3281068,18
3281684,18
3282312,11
3282936,11
3283556,9
3284136,10
3284756,11
3285388,11
3286008,12
3286632,13
3287260,11
3287884,15
3288512,14
3289140,14
3289760,12
3290388,10
3291008,10
3291636,10
3292264,10
3292888,13
3293516,11
3294136,10
3294760,12
3295388,10
3296008,14
3296636,13
3297256,13
3297880,20
3298508,26
3299128,22
3299756,10
3300384,65
3301000,83
3301632,81
3302256,88
3302884,70
3303512,30
3304132,10
3304760,17
3305384,32
3306004,60
3306636,70
3307256,77
3307884,74
3308508,78
3309132,73
3309760,52
3310376,29
3311008,23
3311636,10
3312256,15
3312884,13
3313508,11
3314136,21
3314768,38
3315384,38
3316016,41
3316636,37
3317260,41
3317892,44
3318512,64
3319140,62
3319764,56
3320388,52
3321016,42
3321632,25
3322260,19
3322892,18
3323512,28
3324140,25
3324764,15
3325396,13
3326024,11
3326644,11
3327272,15
3327896,13
3328520,12
3329148,10
3329768,10
3330396,10
3331016,11
3331640,10
3332268,11
3332888,14
3333516,14
3334140,12
3334760,11
3335392,11
3336016,11
3336644,10
3337272,10
3337888,11
3338516,10
3339140,12
3339768,12
3340400,10
3341016,12
3341644,12
3342268,11
3342892,19
3343520,14
3344136,12
3344764,19
3345388,17
3346012,14
3346640,31
3347256,27
3347888,11
3348516,20
3349136,43
3349764,51
3350388,56
3351016,46
3351648,36
3352268,31
3352896,21
3353520,12
3354144,11
3354772,15
3355392,36
3356020,43
3356644,33
3357268,27
3357900,16
3358520,13
3359148,15
3359780,11
3360400,11
3361028,11
3361648,19
3362276,21
3362908,11
3363528,11
3364156,10
3364780,10
3365400,17
3366032,23
3366648,25
3367276,23
3367900,33
3368524,51
3369152,64
3369768,51
3370396,43
3371024,14
3371648,15
3372276,31
3372900,49
3373528,52
3374156,34
3374776,13
3375404,13
3376028,10
3376652,12
3377280,11
3377896,17
3378528,27
3379152,22
3379776,34
3380404,61
3381024,61
3381652,60
3382280,60
3382904,43
3383532,42
3384156,36
3384784,34
3385416,17
3386032,10
3386660,17
3387284,33
3387908,38
3388540,32
3389160,23
3389788,23
3390412,37
3391036,35
3391668,24
3392288,14
3392916,21
3393544,23
3394168,17
3394796,20
3395420,25
3396052,13
3396680,45
3397296,39
3397924,17
3398548,23
3399172,26
3399804,32
3400424,32
3401052,29
3401676,33
3402300,31
3402928,26
3403544,21
3404172,22
3404796,16
3405424,15
3406052,10
3406676,35
3407308,42
3407936,37
3408556,19
3409184,16
3409808,35
3410436,47
3411064,43
3411688,18
3412316,11
3412940,12
3413564,11
3414196,10
3414816,12
3415444,11
3416076,10
3416696,22
3417324,18
3417948,11
3418580,10
3419208,11
3419832,12
3420464,15
3421088,21
3421712,28
3422340,19
3422960,45
3423588,35
3424216,30
3424836,23
3425468,10
3426088,21
3426716,23
3427348,30
3427968,39
3428596,43
3429220,57
3429852,69
3430484,78
3431104,56
3431732,35
3432356,12
3432980,34
3433608,52
3434232,42
3434860,29
3435488,21
3436112,17
3436740,18
3437360,34
3437988,52
3438620,60
3439240,59
3439872,39
3440496,29
3441124,23
3441756,22
3442376,23
3443004,33
3443628,50
3444252,51
3444880,43
3445504,33
3446132,29
3446756,15
3447380,12
3448008,10
3448632,12
3449260,10
3449892,10
3450512,12
3451140,15
3451768,25
3452396,27
3453028,27
3453648,28
3454276,15
3454900,12
3455524,11
3456156,12
3456776,12
3457404,11
3458028,11
3458652,11
3459280,10
3459896,10
3460524,9
3461096,10
3461720,14
3462348,15
3462968,13
3463596,10
3464228,16
3464848,23
3465476,22
3466100,34
3466732,36
3467360,31
3467980,26
3468608,15
3469232,12
3469856,13
3470484,24
3471104,19
3471736,34
3472360,51
3472984,61
3473612,86
3474232,76
3474864,47
3475492,26
3476112,12
3476740,25
3477368,32
3477996,31
3478628,31
3479248,45
3479876,56
3480504,84
3481128,79
3481760,22
3482372,12
3483004,14
3483628,15
3484248,14
3484880,12
3485496,15
3486124,37
3486756,68
3487376,75
3488004,55
3488628,25
3489256,23
3489884,45
3490504,45
3491132,46
3491756,45
3492380,51
3493012,55
3493632,81
3494260,89
3494884,80
3495508,64
3496140,68
3496760,73
3497392,76
3498020,50
3498640,12
3499268,45
3499892,73
3500524,79
3501156,72
3501776,66
3502408,21
3503028,41
3503652,78
3504284,101
3504956,118
3505636,96
3506264,37
3506880,15
3507508,21
3508136,23
3508760,12
3509388,11
3510008,19
3510636,12
3511264,13
3511888,21
3512520,43
3513136,37
3513768,11
3514396,10
3515016,10
3515648,11
3516272,11
3516904,12
3517532,17
3518152,19
3518784,17
3519408,19
3520032,11
3520660,13
3521280,26
3521908,33
3522532,26
3523156,21
3523788,12
3524408,13
3525036,19
3525668,18
3526288,16
3526916,13
3527540,11
3528172,13
3528800,12
3529416,13
3530048,17
3530672,14
3531296,20
3531924,26
3532544,33
3533176,40
3533796,15
3534420,26
3535048,30
3535672,30
3536300,13
3536932,16
3537552,27
3538180,36
3538808,13
3539436,10
3540064,16
3540688,27
3541316,15
3541940,19
3542564,11
3543196,10
3543816,13
3544444,12
3545068,17
3545696,36
3546324,42
3546948,28
3547576,24
3548208,22
3548824,18
3549456,19
3550080,29
3550708,27
3551340,18
3551960,15
3552592,27
3553216,31
3553840,19
3554468,12
3555088,11
3555720,11
3556344,16
3556968,11
3557596,13
3558224,13
3558856,24
3559484,38
3560104,39
3560732,21
3561360,23
3561988,13
3562620,10
3563240,14
3563868,17
3564492,17
3565116,11
3565748,10
3566368,15
3566996,28
3567628,38
3568248,28
3568876,11
3569500,19
3570132,19
3570764,17
3571384,19
3572012,21
3572636,12
3573264,13
3573892,20
3574512,26
3575140,30
3575768,25
3576392,11
3577024,11
3577640,10
3578272,26
3578904,54
3579520,56
3580152,50
3580776,53
3581408,42
3582040,31
3582660,36
3583292,42
3583916,31
3584544,24
3585172,26
3585792,36
3586420,24
3587044,10
3587668,11
3588296,16
3588920,23
3589548,22
3590180,22
3590800,17
3591428,14
3592052,16
3592684,14
3593312,18
3593936,15
3594564,14
3595188,15
3595816,13
3596444,14
3597064,33
3597692,28
3598316,15
3598944,15
3599572,15
3600196,15
3600828,20
3601456,35
3602076,15
3602704,17
3603328,12
3603956,11
3604588,23
3605208,37
3605836,17
3606460,14
3607080,25
3607708,41
3608328,47
3608956,30
3609580,21
3610204,13
3610832,10
3611456,11
3612084,10
3612716,12
3613336,33
3613964,37
3614588,29
3615220,27
3615848,28
3616468,18
3617096,11
3617720,15
3618344,27
3618972,30
3619592,25
3620220,19
3620844,11
3621468,18
3622096,23
3622720,35
3623348,19
3623980,11
3624600,11
3625228,16
3625852,18
3626484,15
3627112,13
3627728,31
3628360,48
3628984,49
3629608,35
3630236,28
3630856,20
3631484,30
3632112,49
3632732,53
3633364,43
3633988,27
3634620,30
3635248,12
3635872,18
3636500,44
3637124,83
3637752,78
3638384,75
3639000,85
3639632,77
3640256,49
3640880,27
3641508,15
3642128,12
3642756,49
3643380,68
3644008,51
3644636,35
3645260,37
3645892,23
3646520,13
3647144,11
3647776,16
3648400,29
3649028,33
3649656,24
3650280,17
3650908,11
3651532,11
3652156,18
3652788,34
3653408,56
3654036,72
3654668,64
3655288,35
3655916,18
3656544,15
3657172,19
3657804,12
3658424,11
3659052,11
3659676,10
3660304,10
3660932,12
3661552,14
3662180,11
3662804,10
3663428,12
3664060,22
3664680,18
3665308,21
3665940,26
3666560,27
3667188,13
3667812,10
3668444,26
3669076,42
3669696,45
3670328,37
3670952,35
3671576,40
3672208,35
3672824,26
3673456,22
3674080,19
3674704,14
3675336,13
3675952,14
3676584,11
3677216,18
3677836,35
3678464,47
3679092,49
3679720,39
3680352,30
3680976,26
3681604,25
3682228,15
3682852,12
3683484,16
3684104,13
3684732,24
3685360,14
3685984,21
3686616,28
3687236,23
3687868,17
3688496,11
3689112,17
3689740,21
3690364,37
3690992,41
3691624,38
3692240,30
3692868,30
3693492,27
3694116,31
3694744,38
3695364,47
3695992,54
3696616,37
3697240,30
3697868,40
3698488,33
3699116,13
3699748,38
3700368,42
3700996,11
3701620,12
3702252,42
3702880,50
3703504,13
3704136,28
3704760,45
3705384,47
3706012,30
3706632,17
3707264,11
3707888,15
3708512,49
3709140,69
3709764,45
3710396,15
3711028,18
3711648,15
3712280,19
3712904,12
3713532,16
3714160,46
3714784,58
3715412,45
3716036,41
3716660,42
3717292,20
3717912,10
3718540,17
3719164,20
3719792,19
3720420,12
3721044,9
3721624,10
3722252,12
3722872,13
3723500,14
3724128,38
3724756,33
3725388,16
3726008,31
3726640,42
3727264,41
3727888,38
3728516,30
3729136,42
3729764,28
3730388,21
3731012,44
3731644,63
3732264,53
3732892,43
3733524,58
3734144,47
3734776,19
3735400,15
3736028,27
3736660,42
3737280,39
3737912,29
3738536,27
3739156,39
3739788,28
3740408,12
3741036,13
3741660,19
3742288,29
3742916,40
3743536,38
3744168,13
3744796,11
3745416,13
3746044,15
3746672,22
3747300,16
3747932,10
3748552,9
3749132,11
3749760,12
3750388,11
3751020,29
3751640,55
3752272,49
3752896,60
3753520,72
3754152,37
3754768,13
3755400,14
3756024,40
3756648,77
3757280,103
3757956,159
3758636,138
3759316,84
3759936,67
3760568,30
3761200,18
3761816,21
3762448,34
3763072,74
3763704,116
3764384,121
3765060,85
3765688,85
3766316,95
3766936,68
3767568,47
3768192,40
3768824,13
3769452,21
3770072,42
3770700,74
3771328,112
3772004,120
3772680,91
3773304,45
3773936,15
3774564,18
3775184,14
3775816,36
3776440,46
3777064,30
3777692,34
3778312,67
3778944,89
3779568,139
3780244,171
3780920,159
3781596,142
3782268,87
3782896,77
3783520,68
3784148,19
3784780,64
3785400,157
3786084,202
3786764,204
3787436,174
3788116,120
3788788,102
3789460,65
3790084,35
3790708,25
3791340,17
3791972,10
3792592,43
3793224,60
3793848,47
3794472,88
3795100,91
3795720,71
3796352,50
3796976,49
3797600,91
3798232,81
3798856,36
3799488,21
3800116,18
3800736,14
3801368,11
3801992,12
3802620,83
3803252,62
3803872,53
3804504,95
3805128,127
3805804,100
3806484,67
3807104,31
3807736,25
3808368,55
3808984,98
3809616,55
3810240,15
3810864,11
3811492,14
3812112,24
3812744,23
3813368,42
3813992,70
3814624,73
3815248,82
3815876,42
3816508,11
3817128,19
3817756,12
3818384,13
3819016,50
3819644,58
3820264,56
3820896,27
3821520,21
3822144,13
3822776,22
3823392,19
3824024,23
3824652,107
3825324,140
3826004,124
3826676,72
3827296,85
3827928,73
3828552,52
3829184,64
3829816,47
3830432,13
3831064,51
3831688,67
3832320,100
3833000,149
3833676,100
3834356,76
3834984,50
3835604,48
3836236,35
3836860,12
3837484,41
3838116,92
3838736,116
3839420,90
3840048,61
3840664,34
3841292,30
3841916,29
3842544,98
3843172,118
3843844,142
3844520,231
3845196,246
3845868,233
3846544,153
3847224,113
3847900,52
3848528,17
3849152,115
3849828,146
3850504,96
3851128,74
3851756,77
3852388,73
3853008,74
3853636,72
3854260,79
3854884,95
3855516,96
3856136,76
3856764,56
3857388,61
3858012,68
3858644,70
3859268,24
3859896,25
3860524,49
3861144,122
3861824,190
3862496,213
3863164,202
3863844,122
3864516,24
3865136,101
3865820,97
3866440,97
3867068,104
3867752,119
3868420,87
3869044,68
3869672,58
3870296,53
3870924,70
3871544,27
3872176,12
3872804,16
3873424,64
3874052,132
3874728,164
3875404,182
3876080,130
3876756,104
3877432,59
3878056,36
3878676,35
3879304,17
3879928,31
3880556,19
3881184,65
3881808,63
3882440,43
3883068,45
3883688,17
3884316,21
3884944,29
3885572,44
3886204,14
3886824,11
3887452,23
3888080,29
3888704,16
3889332,14
3889952,10
3890584,35
3891212,34
3891832,14
3892460,37
3893084,88
3893716,111
3894396,37
3895016,30
3895648,65
3896272,115
3896948,73
3897576,55
3898200,25
3898828,11
3899460,26
3900080,92
3900712,171
3901388,185
3902060,169
3902740,128
3903412,85
3904032,45
3904660,48
3905280,36
3905908,36
3906532,27
3907156,14
3907788,16
3908408,86
3909036,102
3909720,116
3910388,141
3911068,148
3911748,128
3912420,64
3913044,43
3913668,64
3914296,101
3914976,45
3915592,50
3916224,76
3916856,76
3917472,60
3918100,63
3918728,23
3919356,39
3919988,30
3920608,11
3921240,21
3921864,23
3922488,35
3923116,31
3923736,34
3924368,41
3925000,55
3925616,15
3926248,97
3926872,138
3927556,160
3928236,160
3928908,139
3929588,113
3930268,21
3930888,91
3931520,209
3932200,181
3932876,66
3933500,35
3934124,87
3934748,53
3935380,48
3936000,27
3936628,20
3937252,15
3937876,36
3938508,28
3939128,42
3939756,18
3940388,11
3941008,11
3941636,25
3942264,19
3942892,40
3943524,70
3944144,83
3944772,72
3945396,113
3946072,135
3946752,65
3947376,31
3948004,154
3948688,233
3949356,172
3950036,168
3950716,131
3951388,59
3952016,22
3952640,10
3953264,35
3953892,40
3954516,24
3955148,12
3955780,48
3956400,70
3957028,72
3957656,57
3958280,39
3958908,31
3959528,11
3960160,26
3960784,16
3961408,11
3962040,14
3962656,15
3963288,11
3963916,10
3964536,14
3965168,29
3965792,82
3966420,93
3967052,90
3967672,58
3968304,12
3968928,40
3969552,72
3970180,115
3970852,106
3971528,87
3972156,80
3972776,68
3973408,53
3974032,31
3974660,13
3975292,34
3975912,28
3976544,23
3977168,27
3977792,64
3978420,88
3979040,76
3979672,27
3980300,22
3980920,64
3981548,86
3982172,78
3982804,30
3983436,40
3984056,60
3984684,24
3985308,31
3985932,22
3986564,18
3987184,30
3987816,11
3988440,15
3989064,13
3989696,13
3990312,12
3990944,16
3991576,10
3992196,10
3992824,12
3993452,12
3994084,33
3994712,46
3995332,28
3995960,26
3996588,65
3997212,67
3997840,28
3998464,15
3999096,40
3999720,19
4000344,36
4000972,97
4001592,39
4002220,53
4002852,62
4003472,13
4004100,29
4004724,45
4005356,25
4005984,26
4006600,54
4007232,89
4007856,104
4008532,104
4009208,156
4009884,100
4010556,22
4011184,27
4011800,67
4012428,87
4013056,134
4013732,136
4014412,39
4015032,13
4015656,12
4016284,16
4016904,34
4017532,37
4018156,21
4018780,34
4019412,59
4020036,65
4020664,52
4021292,29
4021912,17
4022540,33
4023164,43
4023796,55
4024424,26
4025048,20
4025676,40
4026300,12
4026924,25
4027552,12
4028172,35
4028800,37
4029424,30
4030048,31
4030680,61
4031304,59
4031932,32
4032564,27
4033184,11
4033812,35
4034436,72
4035068,84
4035700,50
4036320,17
4036948,25
4037572,26
4038196,17
4038828,10
4039448,15
4040076,26
4040700,36
4041328,33
4041956,23
4042580,30
4043212,16
4043844,10
4044464,13
4045096,36
4045716,36
4046344,30
4046972,24
4047592,20
4048220,11
4048844,13
4049468,30
4050100,36
4050720,20
4051348,14
4051980,12
4052600,30
4053228,31
4053852,29
4054484,15
4055116,20
4055736,37
4056364,48
4056988,19
4057612,75
4058244,96
4058864,98
4059496,94
4060120,87
4060744,77
4061376,72
4061992,21
4062624,11
4063256,10
4063872,10
4064504,17
4065128,11
4065760,21
4066388,35
4067008,59
4067640,57
4068264,29
4068888,21
4069516,16
4070136,25
4070768,21
4071392,13
4072016,11
4072644,15
4073264,31
4073896,21
4074524,10
4075144,15
4075776,11
4076400,11
4077028,21
4077660,30
4078280,49
4078912,40
4079536,29
4080160,18
4080788,13
4081408,18
4082036,11
4082664,13
4083288,59
4083916,44
4084536,11
4085164,37
4085796,64
4086416,67
4087044,57
4087668,86
4088300,90
4088932,26
4089552,19
4090184,63
4090808,99
4091432,117
4092116,117
4092788,96
4093416,73
4094048,24
4094668,49
4095300,73
4095924,25
4096552,11
4097180,19
4097796,12
4098424,47
4099048,66
4099668,56
4100296,24
4100920,12
4101548,12
4102176,11
4102792,11
4103420,41
4104044,38
4104672,23
4105300,12
4105920,25
4106548,31
4107172,15
4107792,40
4108424,65
4109040,69
4109668,60
4110292,44
4110912,25
4111544,10
4112160,18
4112788,23
4113416,12
4114032,29
4114664,36
4115284,26
4115916,10
4116544,11
4117160,11
4117788,25
4118412,42
4119040,31
4119668,24
4120288,15
4120916,12
4121540,25
4122164,26
4122792,61
4123412,70
4124040,49
4124664,37
4125284,42
4125916,25
4126540,12
4127168,37
4127796,45
4128416,33
4129044,14
4129668,17
4130296,30
4130924,12
4131544,34
4132172,54
4132796,54
4133420,50
4134048,40
4134672,41
4135300,26
4135924,10
4136548,24
4137180,59
4137804,75
4138432,67
4139060,16
4139680,56
4140308,55
4140932,21
4141560,13
4142188,32
4142808,86
4143436,104
4144112,104
4144780,28
4145404,13
4146028,26
4146660,58
4147288,98
4147904,96
4148532,57
4149156,43
4149780,63
4150408,85
4151024,72
4151656,57
4152280,56
4152904,44
4153532,24
4154152,13
4154780,14
4155412,22
4156032,25
4156660,28
4157284,27
4157916,31
4158548,24
4159168,27
4159800,49
4160424,35
4161044,11
4161672,16
4162296,25
4162924,26
4163544,24
4164168,20
4164796,24
4165416,13
4166044,10
4166676,10
4167296,11
4167924,12
4168548,13
4169176,15
4169804,13
4170424,11
4171052,10
4171676,11
4172300,11
4172928,16
4173552,20
4174180,25
4174804,26
4175428,14
4176056,11
4176672,11
4177304,13
4177932,10
4178552,27
4179180,23
4179804,20
4180432,34
4181060,53
4181680,45
4182308,26
4182932,11
4183556,13
4184188,14
4184808,17
4185436,17
4186060,12
4186684,11
4187312,12
4187936,11
4188564,21
4189196,50
4189816,67
4190444,60
4191068,72
4191700,75
4192328,52
4192952,26
4193580,12
4194204,24
4194828,29
4195456,25
4196080,47
4196708,24
4197332,14
4197956,33
4198588,64
4199208,94
4199836,134
4200516,126
4201188,96
4201812,42
4202436,15
4203060,27
4203688,34
4204304,47
4204936,55
4205556,104
4206232,181
4206912,126
4207588,68
4208208,55
4208836,46
4209456,13
4210084,61
4210712,108
4211388,68
4212012,11
4212636,12
4213260,14
4213888,17
4214512,37
4215140,45
4215764,38
4216388,43
4217020,12
4217640,45
4218268,63
4218900,44
4219520,48
4220148,37
4220772,24
4221404,30
4222036,42
4222656,49
4223284,43
4223912,15
4224536,11
4225164,10
4225784,17
4226412,28
4227036,15
4227660,10
4228288,11
4228904,12
4229536,14
4230164,35
4230784,50
4231412,55
4232036,44
4232668,33
4233296,11
4233912,40
4234544,58
4235168,57
4235792,45
4236420,31
4237040,15
4237668,13
4238292,11
4238916,13
4239548,11
4240168,22
4240796,11
4241424,16
4242048,30
4242676,36
4243300,32
4243932,25
4244560,19
4245176,11
4245808,9
4246380,14
4247016,17
4247644,37
4248264,74
4248892,75
4249516,65
4250144,61
4250772,45
4251392,17
4252020,28
4252644,17
4253268,18
4253900,16
4254520,16
4255148,13
4255780,22
4256400,75
4257028,94
4257652,38
4258280,15
4258912,12
4259528,26
4260160,21
4260780,24
4261404,23
4262036,20
4262656,14
4263284,39
4263908,36
4264532,23
4265160,17
4265776,56
4266404,71
4267036,43
4267656,30
4268284,27
4268908,34
4269540,27
4270168,13
4270784,36
4271416,82
4272040,104
4272716,114
4273392,82
4274016,84
4274644,96
4275276,90
4275896,69
4276524,38
4277148,20
4277772,12
4278400,22
4279024,11
4279652,31
4280280,19
4280904,19
4281532,28
4282152,22
4282780,15
4283412,10
4284032,13
4284660,22
4285284,25
4285916,19
4286548,20
4287168,23
4287800,23
4288424,21
4289048,23
4289676,18
4290296,17
4290924,17
4291548,22
4292172,22
4292804,16
4293424,27
4294052,47
4294684,40
4295304,30
4295936,18
4296560,17
4297188,35
4297820,50
4298440,81
4299068,81
4299696,67
4300320,53
4300948,34
4301568,29
4302196,29
4302820,31
4303444,19
4304072,11
4304688,19
4305320,39
4305948,46
4306568,47
4307196,44
4307820,25
4308452,25
4309080,50
4309704,65
4310336,58
4310960,30
4311584,15
4312212,17
4312832,17
4313460,13
4314088,18
4314708,38
4315340,34
4315960,15
4316592,24
4317220,37
4317840,28
4318468,43
4319096,58
4319724,26
4320356,12
4320976,11
4321604,10
4322228,39
4322852,71
4323480,86
4324104,68
4324732,58
4325356,27
4325980,18
4326612,31
4327236,32
4327864,15
4328492,13
4329112,44
4329740,73
4330364,85
4330996,69
4331624,34
4332248,38
4332876,85
4333500,88
4334124,53
4334756,28
4335376,15
4336004,17
4336628,18
4337256,18
4337884,11
4338508,10
4339140,12
4339772,22
4340392,56
4341024,43
4341648,14
4342276,23
4342908,38
4343528,46
4344156,42
4344780,35
4345408,25
4346036,49
4346656,69
4347288,73
4347916,54
4348536,28
4349164,23
4349792,30
4350420,12
4351052,50
4351672,76
4352304,76
4352928,98
4353552,92
4354180,81
4354800,75
4355428,68
4356052,71
4356676,50
4357304,18
4357924,16
4358552,25
4359180,38
4359800,34
4360428,23
4361052,11
4361684,11
4362312,11
4362928,11
4363560,16
4364184,29
4364804,33
4365436,26
4366056,23
4366684,17
4367308,18
4367932,25
4368564,16
4369184,10
4369812,14
4370444,26
4371064,22
4371696,11
4372320,17
4372948,19
4373580,11
4374200,16
4374828,19
4375456,16
4376080,13
4376708,19
4377328,42
4377960,47
4378580,33
4379204,13
4379836,16
4380456,35
4381088,30
4381716,10
4382336,17
4382968,32
4383592,45
4384220,47
4384852,34
4385472,28
4386100,21
4386724,11
4387348,32
4387980,53
4388600,48
4389228,49
4389852,37
4390480,27
4391108,22
4391728,12
4392360,48
4392988,58
4393608,36
4394236,13
4394860,35
4395492,55
4396124,63
4396744,56
4397376,35
4398000,11
4398624,14
4399256,11
4399872,29
4400504,27
4401132,11
4401756,24
4402384,36
4403008,48
4403640,45
4404268,22
4404888,27
4405516,41
4406140,41
4406772,37
4407400,14
4408020,13
4408648,14
4409272,11
4409896,12
4410524,18
4411144,42
4411776,51
4412400,69
4413024,69
4413656,43
4414280,49
4414908,36
4415540,11
4416160,14
4416788,17
4417412,31
4418044,43
4418672,39
4419292,33
4419920,44
4420544,57
4421168,19
4421796,14
4422416,12
4423044,13
4423668,19
4424296,11
4424924,16
4425548,16
4426180,10
4426808,12
4427428,41
4428056,61
4428680,49
4429308,47
4429940,30
4430560,19
4431188,36
4431816,24
4432440,25
4433068,25
4433688,39
4434316,32
4434944,25
4435568,26
4436196,14
4436820,28
4437452,10
4438080,34
4438704,21
4439336,14
4439960,18
4440584,11
4441212,18
4441832,42
4442460,85
4443084,91
4443712,57
4444340,33
4444960,15
4445588,12
4446220,12
4446840,10
4447468,13
4448096,29
4448724,37
4449352,52
4449976,41
4450604,13
4451228,35
4451852,30
4452484,10
4453104,25
4453736,42
4454360,45
4454984,48
4455616,49
4456232,44
4456864,35
4457492,31
4458112,16
4458744,25
4459368,30
4459996,23
4460628,22
4461248,22
4461880,42
4462504,54
4463128,36
4463760,16
4464376,10
4465008,15
4465632,21
4466256,15
4466884,17
4467504,23
4468136,24
4468764,19
4469384,18
4470016,13
4470640,16
4471268,20
4471900,20
4472520,29
4473152,21
4473776,16
4474400,30
4475032,36
4475648,36
4476280,31
4476904,28
4477528,18
4478160,11
4478776,13
4479408,10
4480040,10
4480656,13
4481284,11
4481908,11
4482536,11
4483164,10
4483784,12
4484412,15
4485036,16
4485664,21
4486292,18
4486912,11
4487540,13
4488164,15
4488788,22
4489420,16
4490040,11
4490668,13
4491300,17
4491920,21
4492548,21
4493176,27
4493804,21
4494436,10
4495056,22
4495688,28
4496308,29
4496932,25
4497564,30
4498184,37
4498812,35
4499440,36
4500064,17
4500692,12
4501316,26
4501948,27
4502580,15
4503200,13
4503828,17
4504456,35
4505088,81
4505716,110
4506388,95
4507012,71
4507636,57
4508260,35
4508888,12
4509512,16
4510140,55
4510772,50
4511392,39
4512020,18
4512644,21
4513272,39
4513904,39
4514520,26
4515152,18
4515776,12
4516400,13
4517028,33
4517648,57
4518276,88
4518904,73
4519528,31
4520156,17
4520780,9
4521360,9
4521932,10
4522560,11
4523188,10
4523808,13
4524436,11
4525068,11
4525688,13
4526316,18
4526944,11
4527572,13
4528204,14
4528824,15
4529452,10
4530076,10
4530700,16
4531332,10
4531952,11
4532580,11
4533204,16
4533828,23
4534460,16
4535080,27
4535708,29
4536340,22
4536960,11
4537588,11
4538216,13
4538844,21
4539476,24
4540096,31
4540728,18
4541352,13
4541976,21
4542608,23
4543224,15
4543856,21
4544480,30
4545104,29
4545736,20
4546352,21
4546984,17
4547612,10
4548232,17
4548860,33
4549484,47
4550116,15
4550748,27
4551368,47
4551996,48
4552624,33
4553248,16
4553880,28
4554496,49
4555128,41
4555752,18
4556376,17
4557008,28
4557624,43
4558256,62
4558884,57
4559504,47
4560136,19
4560760,15
4561388,19
4562020,10
4562640,12
4563268,16
4563892,29
4564516,29
4565148,10
4565768,23
4566396,34
4567024,51
4567648,45
4568276,30
4568904,13
4569532,32
4570164,78
4570784,113
4571468,99
4572088,49
4572712,12
4573344,15
4573960,10
4574592,17
4575216,39
4575840,12
4576472,44
4577096,77
4577728,57
4578356,20
4578976,95
4579608,120
4580284,79
4580904,64
4581536,65
4582156,50
4582784,32
4583412,28
4584036,17
4584664,13
4585292,26
4585920,17
4586552,16
4587172,31
4587804,22
4588428,14
4589056,11
4589688,11
4590304,14
4590932,22
4591560,13
4592184,11
4592812,14
4593432,33
4594064,30
4594688,22
4595312,13
4595940,12
4596564,21
4597196,15
4597828,10
4598448,11
4599076,22
4599700,48
4600328,71
4600956,63
4601576,53
4602208,35
4602832,23
4603456,25
4604088,24
4604704,13
4605336,15
4605964,29
4606584,28
4607216,32
4607840,34
4608472,26
4609100,32
4609720,41
4610348,33
4610972,19
4611596,23
4612224,25
4612840,27
4613472,15
4614096,12
4614716,11
4615348,14
4615968,18
4616596,22
4617228,30
4617848,47
4618476,47
4619100,35
4619732,24
4620360,21
4620984,11
4621612,11
4622236,10
4622860,16
4623492,10
4624112,10
4624740,11
4625364,11
4625988,17
4626620,19
4627240,12
4627868,13
4628500,11
4629120,15
4629748,18
4630372,18
4631004,11
4631636,38
4632256,77
4632888,65
4633512,27
4634136,13
4634764,14
4635384,11
4636012,25
4636636,33
4637264,29
4637892,31
4638512,37
4639144,13
4639772,12
4640392,17
4641020,11
4641644,11
4642272,13
4642904,24
4643520,27
4644148,11
4644772,22
4645396,23
4646028,28
4646648,18
4647276,13
4647900,15
4648524,37
4649156,30
4649776,15
4650404,10
4651036,11
4651656,11
4652284,33
4652908,35
4653540,11
4654168,30
4654792,48
4655420,39
4656048,28
4656668,34
4657300,37
4657920,20
4658548,20
4659176,29
4659800,20
4660428,11
4661048,26
4661676,21
4662308,10
4662928,17
4663556,25
4664184,28
4664812,18
4665444,14
4666064,14
4666692,14
4667320,25
4667944,41
4668572,52
4669192,37
4669824,12
4670448,32
4671072,29
4671700,21
4672324,11
4672956,10
4673584,17
4674208,42
4674836,79
4675460,80
4676092,54
4676720,13
4677344,17
4677972,24
4678600,20
4679224,19
4679852,13
4680472,25
4681100,28
4681728,10
4682352,11
4682980,10
4683608,11
4684236,15
4684868,16
4685488,15
4686116,11
4686740,10
4687368,17
4687996,22
4688616,23
4689248,19
4689872,29
4690496,40
4691124,48
4691744,58
4692376,39
4693004,11
4693624,40
4694256,71
4694880,88
4695508,72
4696140,51
4696760,41
4697392,20
4698016,11
4698640,23
4699268,32
4699888,36
4700520,13
4701144,28
4701768,50
4702400,36
4703016,25
4703648,22
4704280,22
4704896,10
4705528,26
4706152,22
4706784,15
4707412,10
4708032,15
4708664,19
4709288,11
4709912,15
4710544,11
4711160,14
4711792,13
4712416,12
4713040,10
4713668,13
4714288,11
4714916,11
4715548,10
4716168,10
4716796,12
4717424,11
4718056,12
4718684,14
4719304,16
4719936,11
4720560,12
4721184,15
4721812,28
4722432,37
4723064,25
4723688,13
4724312,18
4724940,11
4725560,34
4726192,33
4726820,28
4727440,11
4728072,33
4728696,51
4729328,66
4729956,70
4730576,65
4731208,57
4731832,29
4732456,11
4733088,22
4733704,22
4734336,11
4734960,10
4735584,12
4736216,11
4736840,11
4737468,17
4738100,22
4738720,20
4739348,16
4739976,11
4740604,11
4741236,14
4741856,12
4742484,12
4743108,10
4743736,15
4744364,13
4744984,14
4745612,11
4746236,10
4746864,20
4747496,29
4748120,14
4748752,38
4749384,33
4750000,57
4750632,62
4751260,22
4751884,17
4752516,48
4753136,80
4753764,37
4754392,22
4755016,62
4755648,67
4756264,50
4756896,32
4757524,14
4758144,15
4758776,17
4759400,24
4760032,41
4760660,40
4761280,27
4761912,18
4762536,12
4763160,12
4763788,22
4764408,12
4765036,29
4765664,41
4766288,43
4766916,28
4767536,21
4768168,14
4768796,10
4769416,10
4770044,15
4770672,19
4771300,11
4771932,10
4772552,13
4773184,13
4773808,13
4774432,15
4775060,19
4775680,15
4776308,11
4776936,11
4777560,11
4778192,10
4778808,16
4779440,31
4780072,31
4780692,24
4781324,12
4781948,12
4782580,10
4783212,10
4783832,19
4784464,22
4785088,24
4785712,12
4786344,14
4786964,20
4787596,31
4788220,42
4788848,44
4789480,40
4790104,47
4790736,57
4791368,51
4791988,37
4792620,27
4793244,29
4793868,42
4794500,39
4795120,29
4795752,13
4796376,15
4797000,20
4797632,19
4798252,18
4798884,21
4799516,22
4800140,21
4800768,15
4801392,19
4802020,35
4802652,38
4803272,11
4803900,29
4804524,27
4805148,45
4805776,78
4806400,103
4807080,102
4807756,52
4808376,43
4809004,31
4809628,14
4810252,42
4810884,86
4811504,131
4812188,112
4812868,63
4813488,20
4814116,13
4814740,10
4815364,16
4815996,18
4816616,33
4817244,42
4817868,40
4818496,25
4819124,14
4819744,22
4820372,18
4821004,22
4821624,19
4822252,20
4822880,16
4823508,15
4824140,14
4824760,44
4825388,53
4826016,46
4826640,36
4827268,31
4827888,17
4828520,11
4829144,16
4829768,27
4830396,28
4831016,29
4831648,20
4832280,16
4832896,18
4833528,14
4834152,14
4834780,15
4835412,26
4836032,28
4836660,15
4837284,13
4837908,11
4838540,12
4839160,11
4839788,11
4840416,18
4841036,19
4841668,18
4842288,16
4842916,17
4843548,12
4844168,12
4844796,10
4845424,17
4846052,15
4846684,10
4847304,15
4847936,11
4848560,14
4849184,13
4849816,17
4850432,32
4851064,27
4851688,35
4852312,27
4852944,13
4853560,15
4854192,17
4854824,13
4855440,10
4856072,15
4856696,23
4857324,17
4857956,20
4858576,22
4859208,16
4859832,12
4860456,11
4861088,18
4861704,36
4862336,37
4862964,31
4863588,19
4864220,18
4864844,15
4865472,20
4866104,24
4866720,20
4867352,75
4867976,57
4868608,36
4869236,22
4869856,11
4870484,25
4871108,48
4871736,53
4872364,30
4872984,11
4873612,10
4874240,14
4874864,11
4875492,11
4876120,9
4876696,11
4877336,25
4877952,16
4878584,13
4879208,11
4879840,35
4880468,59
4881088,75
4881716,74
4882344,65
4882968,53
4883596,25
4884216,22
4884848,49
4885468,62
4886096,62
4886724,50
4887344,37
4887976,16
4888604,11
4889224,14
4889856,19
4890480,33
4891108,34
4891740,50
4892360,51
4892992,27
4893616,17
4894240,11
4894872,13
4895488,15
4896120,11
4896744,25
4897368,38
4897996,53
4898616,58
4899248,47
4899876,18
4900496,21
4901124,32
4901752,38
4902384,32
4903016,35
4903632,25
4904264,11
4904892,11
4905516,30
4906148,66
4906768,92
4907400,88
4908024,61
4908648,25
4909280,13
4909904,14
4910536,11
4911168,13
4911788,14
4912420,11
4913044,15
4913672,19
4914304,16
4914924,17
4915556,24
4916180,17
4916800,14
4917432,21
4918048,12
4918676,11
4919308,10
4919928,11
4920556,22
4921180,29
4921812,21
4922440,19
4923060,24
4923688,29
4924312,25
4924936,12
4925564,10
4926184,14
4926812,11
4927436,11
4928060,14
4928688,12
4929312,26
4929940,32
4930568,24
4931192,14
4931820,9
4932392,12
4933028,13
4933660,12
4934280,11
4934908,12
4935536,29
4936164,55
4936796,50
4937416,44
4938044,16
4938672,19
4939292,41
4939924,54
4940544,59
4941176,33
4941800,12
4942420,21
4943052,23
4943672,20
4944304,22
4944932,12
4945552,11
4946184,13
4946808,14
4947436,17
4948068,14
4948688,10
4949316,17
4949940,21
4950568,28
4951196,18
4951816,10
4952448,13
4953072,12
4953696,11
4954324,12
4954948,18
4955580,26
4956212,22
4956832,11
4957460,21
4958084,17
4958716,14
4959348,18
4959968,23
4960600,32
4961224,49
4961848,62
4962476,58
4963096,25
4963724,13
4964352,17
4964976,11
4965604,13
4966228,11
4966860,10
4967492,14
4968112,23
4968740,27
4969364,26
4969988,28
4970620,22
4971240,15
4971868,13
4972492,14
4973120,11
4973748,10
4974368,15
4975000,23
4975628,25
4976248,15
4976876,13
4977500,13
4978132,11
4978764,17
4979384,56
4980012,74
4980636,72
4981264,54
4981892,36
4982512,31
4983140,13
4983768,27
4984392,41
4985020,43
4985640,56
4986268,45
4986900,55
4987520,81
4988148,96
4988776,83
4989404,65
4990036,48
4990656,28
4991288,18
4991912,15
4992540,10
4993168,14
4993788,10
4994416,13
4995040,15
4995664,10
4996296,11
4996912,15
4997544,17
4998172,27
4998792,37
4999420,24
5000044,24
5000676,36
5001304,31
5001928,20
5002556,11
5003184,31
5003808,41
5004436,53
5005056,49
5005684,43
5006308,18
5006936,11
5007564,19
5008184,22
5008812,31
5009444,43
5010064,40
5010696,18
5011320,11
5011948,13
5012580,16
5013200,15
5013832,11
5014456,11
5015080,21
5015712,42
5016328,83
5016960,103
5017644,85
5018264,63
5018892,40
5019516,30
5020148,16
5020780,16
5021400,34
5022032,37
5022656,15
5023280,17
5023912,27
5024532,33
5025160,21
5025784,15
5026408,30
5027040,27
5027664,29
5028296,27
5028924,16
5029544,14
5030176,19
5030800,19
5031428,15
5032060,14
5032680,17
5033312,11
5033936,11
5034560,11
5035192,13
5035812,17
5036440,11
5037072,10
5037696,10
5038328,12
5038952,15
5039584,37
5040216,42
5040832,24
5041460,11
5042088,12
5042712,13
5043344,11
5043960,11
5044588,9
5045164,13
5045792,32
5046424,29
5047040,27
5047668,15
5048296,20
5048920,21
5049552,15
5050168,11
5050800,10
5051432,11
5052052,10
5052680,16
5053308,22
5053940,17
5054572,10
5055192,21
5055824,29
5056448,27
5057076,25
5057704,22
5058328,30
5058960,24
5059588,13
5060208,15
5060836,31
5061464,35
5062092,16
5062724,14
5063344,19
5063976,13
5064600,14
5065224,13
5065856,38
5066476,34
5067104,30
5067732,21
5068356,11
5068988,22
5069608,47
5070236,67
5070868,62
5071488,49
5072120,38
5072744,27
5073376,11
5074004,24
5074624,41
5075256,37
5075880,33
5076504,38
5077136,23
5077756,15
5078388,39
5079012,54
5079640,38
5080272,17
5080888,10
5081520,9
5082092,11
5082720,15
5083352,32
5083976,48
5084608,55
5085240,56
5085856,39
5086488,27
5087112,24
5087744,15
5088376,14
5088996,23
5089624,15
5090248,11
5090876,17
5091508,32
5092128,46
5092760,47
5093392,38
5094012,15
5094644,11
5095268,16
5095900,31
5096532,12
5097152,14
5097784,26
5098408,35
5099032,41
5099664,62
5100284,79
5100916,61
5101540,59
5102164,60
5102796,59
5103416,56
5104048,45
5104680,30
5105300,17
5105932,11
5106556,20
5107188,23
5107820,33
5108444,54
5109072,71
5109700,75
5110328,84
5110960,84
5111576,59
5112212,45
5112844,43
5113464,59
5114100,53
5114724,21
5115356,22
5115988,33
5116612,52
5117244,91
5117868,127
5118548,134
5119228,113
5119904,78
5120524,108
5121204,124
5121872,60
5122500,25
5123128,15
5123752,45
5124380,59
5125004,97
5125632,125
5126312,82
5126928,49
5127556,43
5128180,38
5128804,14
5129432,17
5130056,32
5130684,15
5131316,10
5131936,12
5132564,12
5133188,18
5133820,24
5134448,29
5135064,39
5135696,63
5136320,51
5136940,34
5137572,23
5138192,13
5138820,12
5139444,28
5140068,33
5140700,28
5141320,27
5141952,13
5142580,13
5143200,31
5143828,53
5144452,51
5145084,15
5145712,13
5146336,11
5146964,16
5147588,29
5148212,51
5148840,52
5149456,41
5150088,32
5150712,26
5151336,22
5151968,53
5152592,44
5153220,21
5153852,12
5154472,12
5155100,13
5155728,11
5156356,11
5156988,110
5157660,121
5158336,86
5158968,63
5159584,36
5160216,14
5160840,53
5161468,83
5162100,99
5162720,61
5163348,24
5163972,23
5164596,40
5165228,40
5165848,34
5166476,25
5167100,10
5167728,11
5168356,21
5168980,21
5169612,12
5170240,10
5170860,24
5171488,29
5172112,20
5172740,21
5173372,22
5173992,21
5174620,36
5175244,48
5175868,35
5176500,12
5177120,29
5177748,47
5178380,56
5179000,32
5179628,22
5180252,47
5180884,75
5181516,74
5182136,47
5182764,18
5183388,16
5184016,41
5184644,54
5185264,40
5185892,27
5186516,19
5187140,13
5187772,17
5188392,12
5189020,18
5189652,16
5190272,27
5190904,60
5191528,66
5192160,22
5192788,30
5193408,41
5194040,35
5194664,57
5195288,57
5195916,14
5196536,47
5197168,147
5197848,154
5198524,72
5199152,39
5199776,16
5200400,50
5201028,72
5201648,98
5202276,98
5202900,84
5203524,78
5204156,18
5204776,19
5205404,21
5206036,26
5206656,14
5207284,26
5207908,30
5208540,11
5209168,10
5209792,30
5210420,35
5211044,33
5211668,44
5212300,41
5212920,15
5213548,10
5214172,15
5214800,16
5215428,10
5216048,14
5216676,24
5217308,18
5217928,30
5218556,33
5219184,56
5219816,41
5220444,140
5221116,150
5221796,94
5222424,29
5223040,41
5223668,100
5224344,158
5225020,155
5225696,131
5226372,59
5227000,25
5227628,16
5228248,24
5228876,18
5229500,11
5230124,33
5230756,46
5231376,56
5232008,61
5232632,23
5233256,9
5233836,11
5234464,12
5235096,43
5235724,102
5236396,167
5237076,134
5237748,115
5238420,73
5239048,53
5239672,63
5240304,51
5240932,22
5241552,27
5242184,117
5242860,172
5243532,238
5244208,222
5244884,161
5245552,95
5246180,69
5246804,76
5247436,72
5248064,55
5248684,35
5249312,12
5249932,37
5250564,40
5251192,28
5251808,19
5252436,29
5253060,32
5253684,25
5254312,21
5254928,25
5255560,21
5256184,15
5256804,14
5257432,11
5258060,13
5258688,19
5259316,21
5259936,17
5260564,13
5261188,13
5261820,24
5262448,35
5263064,28
5263696,11
5264320,11
5264940,21
5265572,35
5266192,37
5266820,26
5267444,13
5268068,10
5268696,10
5269320,16
5269948,28
5270580,39
5271200,30
5271828,12
5272452,13
5273084,20
5273712,33
5274336,25
5274964,23
5275588,26
5276212,52
5276840,62
5277464,62
5278092,35
5278716,14
5279344,15
5279972,13
5280600,17
5281228,11
5281856,17
5282480,20
5283108,17
5283732,18
5284360,21
5284988,30
5285608,24
5286236,11
5286860,47
5287480,75
5288112,77
5288728,47
5289356,32
5289980,14
5290608,12
5291236,13
5291860,15
5292488,14
5293120,17
5293736,16
5294364,19
5294988,19
5295620,18
5296248,15
5296872,17
5297500,14
5298124,11
5298748,12
5299380,13
5300000,26
5300628,33
5301256,97
5301880,104
5302560,57
5303184,21
5303812,11
5304444,27
5305064,58
5305692,123
5306372,138
5307044,71
5307668,22
5308292,14
5308924,27
5309556,20
5310176,11
5310804,13
5311428,27
5312056,37
5312684,38
5313304,40
5313932,33
5314556,20
5315184,11
5315816,14
5316440,11
5317068,13
5317700,15
5318320,18
5318952,35
5319576,41
5320200,62
5320828,53
5321448,55
5322076,41
5322704,28
5323328,75
5323956,104
5324628,116
5325308,138
5325984,97
5326600,53
5327228,28
5327852,102
5328528,44
5329148,26
5329772,50
5330400,38
5331032,24
5331648,55
5332276,100
5332952,138
5333620,104
5334296,22
5334920,71
5335548,89
5336180,54
5336800,37
5337428,45
5338052,49
5338676,22
5339304,10
5339928,26
5340556,17
5341180,10
5341808,11
5342436,35
5343060,56
5343692,58
5344320,71
5344944,60
5345572,43
5346196,15
5346820,86
5347452,105
5348124,53
5348748,21
5349372,10
5350000,19
5350628,26
5351252,24
5351884,26
5352512,12
5353132,11
5353760,28
5354384,56
5355012,67
5355644,21
5356264,29
5356892,55
5357516,74
5358140,85
5358772,72
5359392,55
5360024,31
5360652,15
5361272,13
5361900,11
5362524,51
5363156,89
5363788,92
5364408,99
5365036,80
5365660,52
5366288,26
5366916,48
5367536,97
5368164,65
5368788,14
5369412,81
5370044,135
5370716,98
5371344,41
5371972,15
5372592,15
5373224,28
5373848,37
5374472,40
5375100,50
5375720,46
5376352,31
5376976,31
5377596,21
5378228,11
5378848,15
5379476,23
5380108,36
5380728,23
5381356,23
5381980,41
5382612,58
5383240,60
5383856,12
5384488,12
5385112,13
5385736,13
5386364,22
5386984,11
5387612,44
5388236,52
5388860,41
5389488,30
5390108,52
5390736,32
5391364,27
5391984,38
5392616,32
5393240,42
5393868,40
5394500,23
5395120,11
5395752,16
5396376,12
5397000,46
5397628,101
5398300,105
5398980,71
5399608,29
5400224,14
5400852,18
5401480,19
5402108,12
5402740,10
5403360,17
5403988,19
5404616,16
5405240,13
5405868,12
5406488,11
5407116,11
5407744,10
5408368,19
5408996,53
5409620,68
5410248,63
5410876,74
5411496,73
5412124,57
5412748,45
5413380,37
5414012,12
5414632,30
5415260,37
5415884,50
5416508,64
5417140,76
5417760,97
5418388,92
5419020,60
5419640,29
5420268,11
5420892,11
5421524,11
5422152,10
5422776,31
5423408,35
5424032,24
5424652,12
5425284,43
5425904,85
5426536,66
5427160,92
5427784,80
5428416,16
5429032,45
5429660,68
5430292,64
5430912,37
5431540,25
5432168,13
5432796,10
5433428,17
5434048,27
5434676,32
5435300,18
5435924,11
5436556,10
5437176,14
5437808,21
5438432,19
5439056,15
5439684,20
5440304,32
5440932,16
5441560,13
5442184,21
5442812,13
5443436,17
5444064,57
5444696,125
5445364,136
5446040,90
5446668,67
5447288,58
5447916,29
5448540,24
5449168,77
5449800,59
5450416,67
5451044,57
5451668,40
5452296,29
5452924,34
5453544,47
5454172,58
5454796,75
5455420,67
5456048,60
5456672,20
5457300,26
5457928,44
5458552,35
5459180,33
5459804,49
5460436,54
5461064,51
5461688,38
5462316,32
5462944,43
5463568,32
5464196,40
5464816,35
5465444,32
5466072,34
5466696,16
5467324,11
5467944,33
5468576,59
5469204,74
5469824,67
5470452,46
5471076,37
5471708,29
5472340,10
5472960,17
5473588,23
5474212,11
5474836,10
5475468,10
5476088,33
5476716,53
5477344,77
5477968,103
5478652,115
5479324,86
5479944,58
5480576,42
5481192,17
5481820,14
5482444,25
5483068,27
5483700,20
5484320,23
5484948,16
5485580,10
5486200,14
5486828,37
5487456,12
5488084,13
5488716,10
5489336,15
5489964,28
5490588,19
5491212,10
5491844,42
5492464,55
5493092,35
5493720,17
5494344,16
5494972,10
5495592,32
5496224,36
5496852,16
5497472,12
5498104,28
5498728,22
5499356,11
5499988,28
5500608,47
5501240,53
5501864,45
5502488,25
5503120,12
5503736,33
5504372,24
5504992,29
5505616,10
5506248,14
5506864,19
5507492,18
5508124,14
5508744,15
5509376,11
5510000,19
5510628,31
5511260,36
5511880,30
5512512,19
5513136,11
5513760,17
5514388,17
5515008,16
5515640,16
5516264,25
5516888,49
5517516,50
5518136,24
5518768,20
5519396,11
5520016,16
5520644,32
5521268,46
5521900,34
5522528,12
5523152,27
5523784,61
5524408,82
5525032,62
5525664,63
5526280,23
5526912,11
5527536,13
5528160,15
5528792,11
5529416,19
5530048,19
5530676,14
5531296,11
5531924,10
5532548,17
5533180,38
5533812,32
5534432,11
5535060,11
5535684,11
5536312,11
5536940,10
5537560,13
5538188,11
5538812,12
5539440,11
5540068,12
5540692,10
5541324,19
5541956,24
5542576,25
5543204,11
5543828,23
5544456,37
5545084,39
5545704,14
5546332,14
5546956,13
5547584,15
5548212,12
5548832,16
5549460,15
5550092,16
5550712,25
5551344,26
5551968,13
5552600,27
5553228,49
5553848,31
5554480,15
5555104,25
5555728,28
5556360,20
5556980,13
5557608,23
5558232,30
5558860,15
5559492,10
5560112,14
5560744,11
5561376,10
5561992,85
5562624,102
5563300,82
5563920,59
5564552,33
5565172,37
5565800,11
5566428,31
5567052,67
5567684,22
5568304,11
5568932,23
5569564,13
5570184,11
5570816,14
5571440,15
5572068,29
5572700,24
5573320,13
5573948,11
5574572,11
5575196,11
5575828,10
5576448,16
5577076,22
5577700,21
5578328,27
5578956,48
5579576,78
5580208,96
5580836,87
5581456,70
5582084,48
5582708,49
5583340,46
5583972,32
5584592,22
5585220,23
5585848,82
5586472,128
5587152,121
5587828,96
5588456,109
5589136,106
5589812,98
5590440,85
5591068,43
5591688,23
5592316,15
5592944,21
5593576,12
5594208,13
5594824,14
5595456,12
5596080,27
5596704,38
5597336,27
5597952,17
5598584,11
5599212,11
5599836,19
5600468,23
5601092,10
5601724,22
5602352,11
5602972,15
5603600,15
5604224,11
5604852,13
5605484,15
5606104,14
5606736,12
5607356,10
5607984,11
5608612,12
5609232,19
5609860,11
5610484,10
5611108,13
5611740,11
5612364,10
5612996,16
5613624,37
5614244,23
5614872,15
5615496,15
5616128,23
5616756,34
5617376,27
5618004,33
5618628,26
5619252,23
5619884,54
5620504,32
5621132,11
5621760,24
5622384,24
5623016,32
5623640,32
5624272,65
5624900,78
5625520,41
5626152,21
5626776,13
5627400,30
5628032,33
5628648,25
5629280,27
5629904,21
5630528,11
5631160,10
5631780,10
5632412,10
5633040,14
5633656,10
5634284,21
5634908,29
5635536,18
5636168,14
5636784,32
5637412,55
5638036,32
5638664,10
5639292,22
5639912,41
5640540,36
5641168,44
5641788,35
5642420,13
5643040,12
5643668,32
5644300,52
5644920,47
5645548,61
5646172,74
5646804,76
5647432,76
5648052,59
5648680,40
5649304,39
5649928,35
5650556,25
5651176,11
5651808,15
5652432,14
5653056,16
5653684,30
5654304,27
5654932,26
5655564,27
5656184,29
5656812,30
5657436,22
5658068,12
5658696,22
5659320,24
5659948,11
5660572,12
5661196,11
5661828,11
5662448,32
5663076,31
5663700,13
5664328,12
5664956,10
5665576,18
5666204,41
5666836,45
5667456,34
5668088,36
5668708,29
5669340,11
5669972,36
5670592,57
5671220,64
5671848,69
5672472,66
5673100,46
5673720,35
5674348,31
5674972,23
5675600,12
5676228,20
5676848,22
5677476,14
5678108,42
5678728,44
5679356,23
5679984,11
5680616,17
5681244,35
5681864,64
5682496,27
5683120,17
5683744,11
5684372,34
5684992,47
5685620,57
5686244,21
5686868,47
5687500,111
5688172,75
5688800,40
5689428,15
5690048,11
5690676,25
5691304,33
5691928,49
5692560,40
5693176,33
5693808,26
5694432,15
5695056,11
5695688,18
5696304,20
5696932,18
5697564,12
5698184,11
5698812,10
5699436,10
5700068,17
5700700,21
5701320,17
5701952,12
5702576,16
5703200,12
5703832,10
5704448,29
5705076,59
5705704,69
5706328,51
5706956,48
5707576,40
5708208,24
5708836,10
5709456,17
5710084,29
5710712,31
5711340,25
5711972,11
5712592,13
5713224,22
5713848,18
5714472,15
5715104,11
5715720,11
5716352,13
5716976,23
5717600,60
5718232,75
5718856,65
5719488,55
5720120,42
5720736,33
5721368,13
5721992,12
5722624,12
5723252,11
5723872,23
5724504,25
5725128,55
5725752,57
5726384,39
5727004,35
5727636,47
5728268,50
5728888,65
5729520,72
5730144,65
5730776,59
5731408,43
5732024,21
5732656,14
5733284,43
5733908,55
5734540,24
5735160,15
5735788,38
5736412,48
5737036,47
5737664,22
5738288,15
5738916,47
5739548,66
5740168,49
5740796,31
5741420,13
5742052,12
5742684,14
5743304,15
5743936,15
5744560,14
5745184,29
5745812,33
5746432,33
5747064,31
5747688,22
5748312,20
5748940,25
5749560,21
5750192,15
5750820,17
5751440,23
5752072,17
5752696,37
5753324,53
5753956,56
5754576,50
5755208,37
5755832,18
5756456,17
5757088,16
5757704,16
5758336,13
5758960,19
5759584,32
5760216,31
5760836,28
5761468,28
5762096,41
5762712,59
5763340,63
5763964,57
5764592,45
5765224,30
5765840,26
5766468,11
5767092,18
5767716,31
5768344,29
5768960,24
5769592,18
5770216,21
5770840,19
5771468,11
5772088,11
5772716,10
5773348,12
5773968,15
5774596,17
5775224,12
5775852,11
5776484,27
5777104,38
5777732,29
5778356,15
5778980,13
5779612,24
5780232,44
5780860,49
5781484,40
5782108,15
5782740,17
5783364,11
5783992,10
5784624,10
5785244,10
5785872,12
5786496,21
5787124,13
5787756,10
5788376,19
5789004,17
5789628,32
5790252,42
5790884,60
5791504,23
5792136,31
5792760,38
5793384,16
5794012,10
5794636,11
5795268,27
5795896,33
5796516,35
5797144,38
5797768,31
5798396,31
5799028,52
5799648,59
5800280,32
5800904,48
5801528,93
5802156,101
5802828,82
5803456,70
5804084,62
5804704,52
5805336,34
5805960,15
5806588,11
5807220,14
5807840,22
5808472,22
5809096,15
5809720,13
5810348,15
5810968,34
5811600,29
5812224,10
5812848,11
5813476,11
5814104,9
5814680,11
5815320,10
5815936,10
5816568,10
5817192,14
5817820,23
5818452,26
5819072,17
5819700,11
5820328,13
5820952,11
5821580,10
5822200,16
5822832,20
5823456,28
5824080,45
5824708,29
5825328,11
5825956,15
5826588,40
5827208,44
5827836,34
5828460,33
5829092,17
5829724,14
5830344,10
5830976,11
5831600,11
5832224,13
5832852,16
5833472,17
5834104,20
5834728,24
5835352,12
5835984,14
5836604,10
5837236,11
5837864,18
5838484,27
5839112,15
5839736,12
5840368,11
5840996,16
5841616,45
5842244,70
5842868,31
5843492,35
5844124,32
5844744,42
5845372,63
5846000,99
5846624,97
5847252,96
5847876,79
5848508,61
5849140,64
5849760,49
5850388,27
5851012,26
5851644,19
5852276,12
5852896,12
5853524,16
5854152,17
5854776,11
5855404,23
5856024,15
5856652,11
5857276,16
5857904,21
5858536,26
5859160,25
5859792,37
5860420,67
5861040,85
5861672,51
5862296,16
5862920,27
5863548,49
5864168,53
5864796,41
5865424,29
5866048,31
5866680,40
5867296,47
5867928,23
5868556,10
5869176,37
5869808,23
5870432,26
5871060,43
5871692,42
5872312,31
5872944,25
5873568,22
5874192,44
5874824,67
5875444,80
5876072,83
5876696,69
5877320,46
5877952,12
5878568,46
5879200,110
5879884,109
5880556,81
5881184,45
5881808,35
5882432,13
5883064,27
5883680,60
5884312,79
5884944,61
5885564,66
5886192,50
5886820,18
5887452,10
5888084,12
5888704,11
5889332,13
5889956,24
5890580,23
5891208,17
5891832,16
5892464,14
5893088,20
5893712,17
5894344,11
5894960,11
5895592,13
5896224,15
5896840,11
5897472,10
5898096,13
5898728,17
5899356,22
5899976,25
5900604,13
5901232,18
5901856,15
5902484,11
5903104,29
5903736,27
5904360,14
5904984,12
5905612,14
5906232,25
5906864,17
5907492,10
5908112,29
5908744,33
5909368,20
5909996,14
5910628,10
5911248,11
5911876,11
5912504,10
5913128,15
5913760,12
5914376,11
5915008,11
5915632,13
5916256,11
5916888,14
5917512,17
5918140,24
5918772,28
5919392,34
5920024,28
5920644,21
5921276,11
5921904,20
5922524,13
5923152,18
5923780,24
5924404,17
5925032,15
5925652,17
5926280,18
5926908,22
5927532,31
5928160,37
5928784,38
5929416,40
5930044,48
5930664,42
5931296,37
5931920,30
5932552,11
5933180,11
5933800,13
5934432,10
5935056,10
5935680,37
5936312,68
5936928,61
5937560,78
5938192,105
5938864,71
5939488,32
5940112,15
5940740,37
5941372,45
5941992,69
5942620,83
5943248,109
5943920,87
5944552,63
5945176,70
5945804,77
5946436,64
5947056,39
5947688,26
5948308,19
5948936,13
5949564,24
5950184,25
5950816,17
5951440,17
5952064,29
5952692,41
5953312,43
5953940,45
5954572,40
5955192,16
5955824,11
5956448,10
5957080,14
5957708,14
5958328,13
5958960,11
5959584,24
5960208,35
5960836,41
5961456,17
5962084,9
5962660,33
5963288,74
5963920,74
5964536,61
5965168,27
5965792,11
5966416,10
5967044,18
5967664,27
5968296,14
5968924,11
5969544,11
5970176,12
5970800,16
5971428,39
5972060,12
5972680,11
5973312,13
5973936,13
5974560,63
5975192,95
5975808,91
5976440,69
5977064,45
5977688,35
5978316,12
5978936,33
5979568,65
5980196,50
5980816,37
5981444,25
5982068,15
5982700,15
5983332,21
5983952,29
5984584,45
5985208,15
5985832,31
5986464,33
5987080,18
5987712,11
5988336,12
5988960,16
5989592,44
5990216,91
5990848,69
5991476,22
5992096,35
5992724,38
5993352,41
5993980,53
5994612,63
5995232,61
5995864,57
5996488,50
5997112,41
5997744,22
5998364,13
5998992,11
5999624,13
6000248,20
6000880,21
6001504,13
6002132,11
6002764,14
6003384,15
6004012,13
6004636,10
6005260,16
6005892,23
6006512,17
6007144,11
6007768,11
6008392,15
6009024,12
6009640,13
6010272,11
6010904,11
6011520,14
6012152,11
6012776,13
6013408,16
6014040,22
6014656,19
6015288,16
6015916,19
6016544,11
6017172,14
6017792,13
6018424,11
6019048,14
6019672,15
6020304,13
6020920,12
6021552,12
6022184,20
6022800,17
6023432,11
6024056,11
6024684,14
6025316,20
6025936,19
6026568,29
6027192,37
6027816,33
6028448,15
6029064,22
6029696,38
6030320,30
6030944,16
6031576,10
6032200,11
6032828,13
6033460,32
6034080,53
6034712,73
6035336,76
6035968,53
6036600,26
6037216,12
6037848,36
6038472,47
6039096,52
6039728,52
6040348,31
6040976,14
6041608,10
6042224,10
6042856,16
6043480,42
6044112,40
6044740,61
6045360,78
6045992,53
6046616,21
6047240,13
6047872,21
6048492,39
6049120,49
6049744,85
6050368,85
6051000,72
6051620,44
6052248,16
6052880,19
6053500,12
6054128,38
6054756,41
6055388,46
6056016,32
6056640,17
6057272,28
6057896,29
6058520,33
6059152,38
6059772,39
6060404,50
6061028,50
6061652,35
6062284,27
6062904,16
6063536,11
6064164,11
6064784,17
6065416,30
6066040,41
6066668,44
6067300,25
6067920,14
6068548,22
6069176,16
6069800,12
6070428,61
6071048,95
6071680,78
6072304,71
6072928,59
6073560,37
6074184,19
6074816,15
6075448,13
6076068,11
6076696,47
6077324,62
6077956,42
6078588,38
6079208,37
6079840,28
6080468,34
6081092,34
6081720,38
6082344,29
6082976,26
6083604,14
6084224,11
6084852,14
6085476,23
6086108,24
6086740,18
6087360,16
6087992,11
6088616,12
6089240,12
6089872,16
6090488,31
6091120,28
6091744,17
6092368,15
6093000,12
6093616,18
6094244,79
6094876,86
6095496,52
6096128,17
6096752,14
6097380,13
6098012,11
6098632,21
6099264,28
6099888,18
6100512,17
6101144,25
6101760,23
6102392,14
6103016,20
6103644,30
6104276,28
6104900,21
6105532,24
6106164,24
6106784,23
6107416,10
6108040,32
6108672,31
6109300,20
6109920,18
6110552,32
6111176,49
6111800,49
6112432,42
6113056,23
6113688,13
6114316,11
6114936,10
6115568,14
6116192,12
6116824,11
6117452,14
6118072,10
6118704,11
6119332,25
6119956,34
6120588,46
6121208,37
6121840,13
6122464,59
6123088,86
6123720,99
6124340,86
6124968,69
6125600,47
6126220,26
6126852,20
6127476,13
6128108,17
6128740,36
6129360,71
6129992,99
6130616,89
6131240,43
6131872,29
6132492,27
6133124,27
6133748,38
6134376,45
6135008,71
6135632,72
6136268,64
6136900,51
6137520,24
6138156,11
6138780,21
6139408,28
6140040,34
6140660,36
6141292,28
6141920,21
6142544,11
6143180,10
6143804,15
6144436,14
6145064,14
6145688,19
6146316,27
6146940,20
6147568,11
6148196,16
6148816,27
6149444,23
6150068,16
6150692,19
6151320,10
6151944,11
6152572,12
6153200,17
6153824,25
6154452,30
6155076,25
6155708,11
6156340,16
6156960,22
6157588,19
6158212,12
6158844,10
6159472,12
6160096,19
6160724,15
6161348,10
6161972,13
6162600,20
6163224,17
6163852,17
6164476,10
6165104,24
6165732,22
6166360,19
6166988,18
6167620,18
6168240,24
6168868,19
6169492,11
6170120,13
6170748,22
6171368,38
6171996,46
6172624,49
6173248,47
6173876,36
6174496,28
6175128,23
6175756,44
6176376,73
6177004,76
6177628,71
6178260,58
6178888,30
6179512,13
6180144,29
6180768,69
6181392,56
6182024,35
6182640,26
6183272,28
6183896,17
6184520,14
6185152,17
6185768,13
6186396,12
6187028,10
6187648,11
6188276,10
6188904,11
6189532,12
6190164,10
6190784,21
6191416,29
6192040,33
6192664,29
6193292,25
6193912,21
6194544,23
6195168,17
6195792,16
6196424,13
6197044,39
6197672,70
6198304,81
6198924,66
6199556,41
6200180,33
6200812,29
6201440,32
6202064,30
6202696,27
6203320,21
6203944,11
6204576,18
6205192,21
6205824,31
6206452,24
6207076,28
6207708,22
6208332,12
6208960,19
6209592,11
6210212,17
6210840,13
6211468,31
6212096,30
6212728,31
6213344,53
6213976,89
6214600,79
6215224,56
6215856,60
6216472,51
6217104,20
6217736,19
6218352,62
6218984,91
6219608,95
6220240,106
6220924,99
6221544,69
6222176,55
6222800,77
6223424,113
6224108,116
6224780,56
6225408,20
6226040,17
6226656,34
6227284,17
6227908,13
6228532,33
6229164,36
6229784,24
6230416,21
6231040,16
6231664,15
6232296,17
6232920,23
6233552,20
6234184,11
6234800,11
6235432,14
6236056,20
6236680,27
6237312,22
6237928,10
6238560,12
6239184,11
6239808,10
6240440,10
6241064,21
6241696,66
6242324,120
6242996,100
6243676,58
6244296,25
6244920,16
6245552,35
6246168,41
6246800,57
6247428,60
6248048,70
6248676,65
6249300,50
6249932,44
6250560,27
6251180,34
6251808,51
6252432,53
6253064,39
6253692,31
6254312,11
6254944,19
6255568,20
6256192,12
6256820,11
6257440,13
6258068,13
6258700,18
6259320,24
6259948,12
6260576,28
6261204,56
6261836,54
6262456,52
