tempo_arduino_micro_s,valor_ADC
500,35
1004,30
1504,31
2000,32
2508,23
3000,17
3508,10
4000,12
4504,20
5000,22
5500,17
6000,18
6500,21
7004,15
7500,11
8000,11
8500,13
9000,16
9500,26
10000,21
10516,14
11036,21
11564,50
12084,45
12612,17
13132,11
13660,13
14180,19
14708,16
15228,10
15756,17
16276,23
16796,23
17316,20
17836,18
18356,19
18876,21
19396,21
19916,17
20436,16
20956,16
21476,12
21996,10
22516,9
22976,10
23508,10
24028,10
24548,10
25068,13
25588,14
26108,16
26636,16
27156,18
27684,17
28204,10
28732,11
29252,10
29780,15
30300,19
30828,19
31348,17
31876,11
32396,14
32924,15
33444,16
33972,16
34492,16
35020,21
35540,22
36068,20
36588,17
37116,14
37640,10
38164,10
38684,10
39212,10
39732,11
40260,10
40780,10
41308,10
41828,13
42356,13
42876,14
43404,15
43924,14
44444,14
44964,10
45484,10
46004,12
46524,11
47044,14
47564,13
48084,11
48604,14
49124,11
49644,12
50164,28
50684,35
51212,29
51732,20
52260,15
52780,15
53308,12
53828,16
54356,24
54876,15
55404,14
55924,16
56452,14
56972,14
57500,20
58024,21
58548,22
59068,22
59596,25
60116,21
60644,18
61164,14
61692,10
62212,10
62740,11
63260,12
63788,13
64312,12
64836,12
65356,12
65884,14
66404,17
66932,22
67452,23
67980,28
68500,33
69020,46
69540,47
70060,42
70584,35
71100,23
71620,16
72144,11
72660,10
73180,15
73700,34
74220,30
74744,26
75260,29
75788,27
76312,15
76836,14
77356,16
77884,12
78404,11
78932,14
79456,11
79980,11
80504,14
81028,15
81548,14
82076,10
82596,12
83124,24
83644,42
84172,48
84692,46
85220,29
85740,18
86268,16
86788,17
87316,16
87836,13
88364,13
88884,11
89412,10
89936,10
90460,16
90980,20
91508,16
92032,15
92556,15
93076,14
93596,14
94116,17
94636,16
95160,10
95680,11
96196,11
96716,12
97236,12
97760,10
98276,12
98796,14
99320,18
99836,22
100364,30
100928,33
101512,29
102084,25
102664,21
103232,20
103808,21
104376,21
104944,17
105520,11
106088,19
106672,14
107240,9
107764,11
108336,13
108912,15
109480,21
110048,32
110624,27
111192,11
111776,11
112344,11
112928,11
113496,11
114072,10
114640,15
115216,12
115800,13
116368,24
116952,33
117520,30
118104,21
118672,18
119248,22
119832,27
120404,28
120984,23
121552,20
122136,20
122704,18
123288,12
123856,19
124424,36
125008,40
125576,35
126160,29
126728,17
127312,14
127884,11
128464,11
129040,11
129608,9
130132,11
130704,12
131288,11
131856,11
132432,12
133000,23
133584,34
134160,38
134728,40
135312,31
135880,24
136464,23
137032,24
137616,19
138184,14
138752,11
139336,14
139904,19
140488,17
141056,15
141640,17
142208,21
142792,19
143368,15
143936,15
144520,14
145088,11
145672,10
146240,11
146824,12
147392,10
147968,14
148552,11
149120,15
149704,31
150276,38
150856,33
151428,29
152008,27
152584,34
153156,35
153736,26
154308,20
154888,14
155456,9
155980,10
156556,10
157136,9
157656,11
158224,17
158808,15
159376,18
159960,26
160532,25
161112,14
161680,11
162256,16
162832,16
163400,11
163984,14
164552,16
165128,17
165696,13
166272,12
166840,17
167416,27
167992,50
168560,51
169144,46
169712,39
170288,35
170856,30
171432,17
172004,12
172576,19
173152,14
173720,10
174304,10
174872,14
175456,14
176024,14
176600,15
177176,15
177744,26
178328,33
178896,27
179480,25
180048,24
180624,21
181192,19
181768,14
182352,13
182924,11
183504,13
184076,14
184656,14
185224,17
185808,20
186384,34
186952,37
187536,28
188104,18
188688,9
189208,10
189784,12
190352,15
190932,11
191512,15
192084,21
192664,20
193232,15
193808,17
194376,17
194960,11
195528,11
196104,11
196688,11
197256,13
197840,20
198408,22
198992,12
199564,11
200144,17
200720,32
201288,33
201872,28
202440,24
203024,33
203596,30
204176,16
204744,14
205324,18
205904,32
206472,31
207056,28
207624,25
208208,13
208776,28
209352,47
209928,45
210496,33
211072,24
211640,15
212224,11
212792,11
213376,11
213944,10
214520,11
215104,14
215672,12
216256,15
216824,22
217408,25
217980,32
218560,31
219128,24
219708,23
220288,13
220856,12
221440,12
222008,10
222592,14
223164,15
223740,18
224320,13
224888,17
225472,15
226040,15
226624,23
227192,24
227776,35
228348,50
228920,29
229504,11
230076,15
230656,13
231224,14
231808,24
232376,27
232952,30
233536,29
234108,28
234688,23
235260,22
235840,21
236408,22
236992,25
237560,25
238140,17
238720,12
239288,10
239872,11
240444,14
241024,17
241592,19
242172,15
242752,15
243324,16
243904,17
244476,19
245056,21
245628,21
246208,19
246776,11
247352,11
247936,11
248508,14
249088,17
249656,24
250240,27
250808,32
251388,29
251968,15
252540,14
253120,13
253692,14
254272,17
254844,24
255424,25
255996,31
256572,28
257152,17
257720,9
258244,12
258816,13
259392,19
259960,19
260544,21
261112,22
261692,18
262272,11
262840,11
263424,22
263992,32
264576,25
265144,15
265720,11
266304,14
266872,24
267456,28
268024,27
268608,21
269176,19
269760,15
270328,20
270904,18
271488,18
272056,11
272640,12
273208,13
273784,11
274352,10
274932,15
275512,20
276084,23
276664,21
277232,17
277816,14
278384,12
278968,11
279540,10
280116,10
280696,10
281268,11
281848,11
282416,17
283000,21
283568,24
284144,18
284728,26
285300,35
285880,32
286452,28
287032,24
287604,22
288184,15
288752,9
289268,10
289848,10
290416,11
291000,11
291572,15
292152,15
292720,18
293304,26
293876,27
294452,26
295032,26
295604,17
296184,12
296752,11
297336,11
297908,11
298484,12
299064,13
299636,16
300216,25
300788,26
301368,24
301948,28
302528,29
303100,34
303676,37
304256,32
304828,20
305408,12
305980,10
306560,9
307080,15
307656,30
308240,24
308808,33
309392,42
309964,38
310544,21
311116,11
311696,12
312268,11
312844,10
313424,10
313996,10
314576,11
315148,16
315728,20
316308,28
316884,35
317464,36
318036,32
318616,28
319188,19
319768,10
320348,10
320928,12
321496,14
322072,14
322656,10
323224,11
323808,20
324376,21
324960,12
325528,15
326108,17
326688,13
327256,14
327840,12
328408,11
328984,10
329552,9
330076,13
330648,14
331224,13
331808,11
332376,13
332960,21
333528,19
334104,22
334672,30
335256,31
335828,28
336404,27
336984,17
337552,11
338136,10
338704,10
339288,14
339856,13
340432,11
341008,13
341576,12
342160,12
342728,16
343312,30
343884,49
344464,56
345032,49
345612,31
346192,12
346764,23
347344,25
347916,30
348496,32
349072,38
349648,34
350232,30
350804,32
351384,27
351956,19
352536,14
353112,10
353696,17
354264,17
354840,11
355424,13
355996,22
356576,19
357148,14
357728,13
358300,18
358876,15
359456,13
360024,13
360608,14
361176,18
361760,16
362328,18
362912,16
363484,14
364060,12
364640,11
365212,11
365792,11
366364,12
366944,13
367516,15
368092,22
368672,29
369240,37
369824,50
370396,56
370976,53
371548,36
372128,20
372696,17
373272,34
373856,27
374424,15
375008,16
375580,24
376160,24
376732,26
377308,26
377888,22
378460,17
379040,11
379612,11
380192,12
380764,11
381344,12
381924,18
382500,23
383080,25
383652,29
384236,30
384808,30
385392,25
385960,26
386536,26
387120,18
387692,13
388272,11
388844,11
389424,9
389944,10
390520,10
391088,11
391664,14
392248,13
392816,14
393400,14
393972,13
394552,11
395124,15
395704,16
396276,12
396852,10
397432,11
398004,12
398584,10
399156,10
399736,14
400316,14
400888,16
401472,16
402044,18
402624,18
403196,19
403776,19
404356,16
404936,15
405512,10
406084,10
406664,10
407236,13
407816,13
408388,17
408968,18
409540,18
410116,20
410696,17
411264,10
411848,10
412416,11
413000,10
413568,11
414152,11
414728,11
415296,11
415872,15
416444,19
417024,22
417592,28
418176,33
418744,34
419320,32
419904,30
420472,27
421056,23
421624,14
422208,10
422780,10
423360,10
423928,12
424504,11
425088,15
425656,20
426240,22
426808,17
427392,14
427964,26
428540,25
429120,15
429688,11
430272,12
430840,13
431424,14
431996,18
432576,20
433160,16
433732,15
434312,20
434884,23
435464,28
436032,27
436616,25
437184,17
437764,11
438344,10
438916,10
439496,12
440068,12
440648,10
441216,11
441800,12
442376,14
442948,15
443528,17
444096,14
444680,11
445252,10
445832,13
446404,10
446976,19
447560,23
448132,12
448712,15
449280,24
449864,32
450436,35
451016,27
451592,19
452164,15
452744,18
453316,20
453896,21
454468,18
455048,14
455616,11
456196,12
456776,13
457348,14
457928,11
458500,12
459080,17
459652,19
460232,16
460808,13
461376,10
461952,10
462524,13
463104,13
463676,10
464256,11
464824,12
465400,15
465984,18
466552,20
467136,23
467708,23
468288,20
468860,22
469440,24
470012,24
470588,32
471168,27
471740,14
472320,9
472840,18
473416,31
473988,26
474568,21
475144,16
475716,13
476296,13
476868,13
477448,12
478020,10
478600,10
479180,11
479756,11
480336,12
480908,13
481488,12
482056,11
482640,13
483208,18
483792,20
484368,24
484940,24
485520,25
486092,26
486672,25
487240,19
487824,13
488396,10
488972,11
489552,11
490124,13
490704,14
491276,13
491856,15
492432,15
493012,13
493592,14
494164,15
494744,17
495312,11
495896,9
496416,10
496992,12
497560,11
498140,13
498720,16
499292,28
499872,39
500444,41
501024,36
501596,20
502176,15
502756,19
503332,20
503912,11
504484,19
505064,19
505636,16
506216,15
506788,10
507364,12
507944,20
508516,28
509096,24
509668,15
510248,13
510820,13
511400,14
511980,14
512556,13
513136,11
513704,11
514288,16
514856,14
515440,11
516008,18
516584,31
517168,29
517736,25
518320,22
518892,19
519472,21
520044,25
520624,22
521192,13
521772,11
522352,10
522920,11
523504,10
524076,10
524656,13
525228,14
525800,14
526384,14
526956,14
527536,12
528108,10
528688,11
529256,12
529840,13
530412,11
530988,15
531568,12
532140,14
532720,21
533288,21
533872,15
534444,17
535016,31
535600,23
536172,11
536752,30
537324,39
537904,32
538476,18
539056,9
539576,15
540148,17
540728,16
541300,14
541880,14
542452,14
543032,14
543604,13
544184,12
544752,11
545332,10
545912,11
546484,14
547064,15
547636,13
548216,10
548788,11
549364,10
549944,15
550516,15
551096,14
551668,14
552248,18
552828,24
553408,30
553980,24
554556,19
555136,11
555708,9
556236,10
556812,10
557392,15
557964,16
558544,18
559128,20
559700,19
560280,18
560852,15
561432,13
562004,10
562584,11
563156,16
563732,18
564312,15
564884,11
565464,12
566036,15
566616,28
567188,33
567764,35
568344,30
568916,32
569496,29
570068,26
570648,22
571220,16
571800,12
572372,10
572948,11
573528,16
574096,18
574680,21
575252,27
575832,40
576404,38
576976,19
577560,15
578132,29
578712,30
579284,25
579864,13
580432,12
581016,17
581588,15
582164,11
582744,16
583316,20
583896,15
584476,14
585056,15
585628,15
586204,20
586784,29
587356,23
587936,14
588508,10
589088,11
589656,12
590240,10
590812,11
591388,16
591968,15
592540,19
593120,18
593692,15
594272,12
594844,13
595420,18
596000,24
596572,24
597152,13
597724,13
598304,11
598884,11
599464,14
600044,24
600620,29
601200,31
601772,35
602352,33
602924,20
603504,13
604076,16
604652,18
605232,13
605804,10
606384,14
606956,13
607536,21
608116,26
608696,20
609268,16
609844,16
610424,15
610996,11
611576,11
612156,10
612736,11
613316,10
613892,12
614476,15
615044,12
615624,22
616196,33
616776,29
617348,22
617928,19
618504,16
619076,19
619656,23
620228,22
620808,17
621376,11
621960,11
622540,12
623116,14
623696,16
624268,14
624848,16
625420,15
626000,15
626580,15
627156,14
627740,11
628308,10
628888,11
629460,10
630040,11
630620,10
631200,10
631780,11
632356,14
632936,16
633508,20
634092,26
634668,21
635248,26
635828,38
636404,35
636984,24
637556,15
638136,13
638712,10
639292,13
639868,12
640452,11
641032,11
641600,14
642184,16
642752,20
643336,17
643904,14
644488,13
645056,11
645636,11
646216,11
646788,10
647368,11
647936,11
648520,10
649092,14
649672,17
650248,26
650816,32
651400,35
651972,31
652552,15
653132,11
653712,16
654284,19
654860,18
655440,11
656012,10
656592,10
657160,10
657744,12
658312,13
658896,13
659472,14
660040,14
660624,15
661192,10
661776,13
662344,19
662928,13
663500,10
664076,13
664656,15
665228,16
665808,13
666376,15
666952,17
667520,28
668104,33
668680,27
669248,24
669832,18
670404,18
670984,17
671556,10
672136,10
672704,11
673280,11
673864,10
674432,11
675016,15
675588,14
676168,17
676736,18
677320,17
677896,16
678468,23
679048,20
679616,15
680200,16
680768,15
681352,13
681924,15
682496,23
683080,34
683652,43
684232,40
684804,37
685384,29
685956,23
686536,21
687112,20
687684,11
688264,11
688832,10
689416,11
689988,14
690568,12
691140,11
691716,12
692296,12
692868,14
693448,15
694020,15
694600,16
695172,16
695752,14
696328,14
696900,10
697480,10
698052,11
698632,11
699204,11
699784,17
700356,24
700932,29
701512,34
702084,32
702664,34
703236,34
703816,29
704396,20
704976,16
705552,19
706124,16
706704,10
707276,12
707856,15
708428,18
709008,32
709580,47
710156,38
710736,33
711308,21
711888,18
712468,17
713048,15
713620,12
714196,11
714776,10
715352,12
715928,12
716504,27
717080,34
717660,31
718240,33
718812,42
719388,39
719968,33
720540,19
721120,9
721640,10
722216,11
722788,13
723368,21
723936,27
724516,18
725096,13
725668,14
726248,15
726828,15
727408,13
727980,11
728556,12
729136,11
729708,12
730288,11
730860,12
731440,11
732020,12
732600,11
733180,13
733756,23
734336,33
734912,43
735488,42
736068,42
736648,40
737220,35
737796,26
738376,13
738948,10
739528,10
740100,17
740680,28
741252,29
741832,24
742408,28
742976,26
743560,20
744132,15
744712,13
745284,15
745864,13
746436,11
747012,10
747592,12
748164,11
748744,11
749316,15
749896,24
750468,26
751048,24
751624,30
752196,26
752776,29
753348,26
753928,11
754500,13
755080,13
755660,15
756236,15
756816,11
757388,12
757968,13
758548,11
759128,13
759700,14
760276,13
760856,13
761428,12
762008,12
762580,11
763160,13
763740,11
764320,22
764900,22
765476,11
766056,16
766632,31
767212,34
767788,31
768372,29
768944,29
769520,19
770104,14
770676,17
771256,16
771828,11
772408,10
772980,11
773560,11
774132,11
774708,13
775288,14
775860,15
776440,13
777012,15
777592,15
778164,18
778740,18
779320,18
779892,19
780472,17
781044,11
781624,12
782196,19
782776,23
783348,29
783924,23
784504,17
785076,13
785656,12
786228,12
786808,28
787380,43
787956,40
788536,20
789108,11
789688,19
790260,17
790840,14
791420,18
792000,28
792584,24
793156,19
793740,13
794308,10
794888,11
795468,12
796048,13
796628,11
797204,10
797784,11
798360,12
798940,12
799516,19
800096,29
800672,37
801248,34
801832,26
802404,18
802984,11
803556,16
804136,11
804708,12
805288,17
805856,23
806436,23
807016,16
807588,12
808168,14
808748,14
809328,15
809900,14
810476,14
811056,12
811628,13
812208,13
812780,12
813360,11
813940,10
814520,11
815100,10
815676,10
816256,14
816828,23
817408,29
817980,31
818560,30
819140,29
819716,24
820296,19
820864,19
821448,12
822016,10
822592,11
823160,10
823744,10
824312,12
824892,13
825472,14
826044,16
826624,20
827192,20
827776,18
828344,15
828920,11
829504,10
830072,11
830656,14
831228,12
831808,12
832380,21
832960,27
833528,27
834096,22
834680,23
835248,19
835832,14
836404,12
836984,10
837552,10
838132,13
838712,16
839284,21
839864,15
840432,11
841016,10
841584,15
842168,17
842740,15
843312,15
843896,14
844468,10
845048,9
845564,10
846144,10
846712,11
847296,12
847868,11
848444,12
849024,14
849596,17
850176,20
850752,18
851336,21
851904,27
852484,30
853064,26
853636,22
854216,16
854788,11
855368,12
855940,15
856520,14
857104,19
857676,19
858256,18
858828,17
859408,19
859980,20
860560,17
861136,12
861716,10
862296,11
862868,10
863448,10
864020,12
864600,11
865172,13
865748,24
866328,31
866900,33
867480,40
868052,38
868632,29
869204,29
869784,22
870356,18
870932,19
871512,11
872084,15
872664,20
873236,20
873816,23
874388,23
874964,22
875544,19
876116,17
876696,16
877268,14
877848,20
878420,22
879000,19
879572,13
880148,13
880728,24
881296,20
881880,18
882452,18
883032,26
883604,31
884176,33
884760,34
885332,23
885912,22
886484,25
887064,17
887636,10
888216,10
888796,10
889372,11
889952,10
890524,10
891104,13
891676,13
892256,15
892836,15
893412,15
893992,11
894568,10
895144,13
895720,15
896300,18
896872,18
897456,14
898024,10
898600,15
899184,22
899756,29
900336,27
900916,22
901496,30
902076,32
902652,30
903232,22
903804,17
904384,20
904956,12
905536,10
906108,10
906688,16
907260,17
907836,16
908416,15
908988,17
909568,18
910140,15
910720,12
911292,12
911868,11
912448,11
913020,13
913600,12
914172,11
914752,13
915332,15
915912,23
916496,30
917068,30
917648,31
918220,30
918800,26
919380,22
919960,19
920540,24
921116,21
921696,12
922268,10
922848,15
923420,23
924000,17
924572,18
925148,19
925728,22
926300,17
926880,13
927452,11
928032,9
928548,11
929128,10
929700,14
930276,16
930856,13
931428,10
932008,16
932580,19
933160,26
933732,26
934312,24
934892,29
935468,39
936048,34
936620,25
937200,20
937780,15
938360,10
938932,10
939508,10
940088,14
940664,16
941240,15
941816,14
942392,14
942972,14
943552,14
944136,10
944708,10
945288,10
945860,14
946440,15
947020,13
947600,13
948180,11
948756,14
949336,17
949908,18
950488,16
951068,12
951648,14
952228,19
952804,31
953384,37
953956,32
954536,17
955112,11
955692,10
956268,10
956848,15
957428,16
958004,15
958584,14
959160,16
959740,21
960316,25
960896,20
961468,19
962044,14
962624,11
963192,11
963776,15
964348,19
964928,11
965500,15
966080,21
966652,32
967228,31
967808,28
968380,26
968960,23
969532,20
970112,16
970692,17
971268,19
971848,13
972420,10
973000,20
973572,19
974152,11
974724,13
975304,14
975880,13
976452,13
977032,13
977604,14
978184,20
978756,16
979336,15
979916,14
980492,10
981072,11
981644,11
982224,13
982804,18
983384,19
983960,15
984540,13
985120,15
985692,32
986272,40
986844,38
987424,29
987996,11
988576,12
989156,11
989732,11
990312,11
990884,13
991464,15
992036,15
992616,18
993188,17
993764,19
994344,16
994916,16
995496,12
996068,10
996648,11
997220,11
997800,11
998372,11
998948,12
999528,17
1000100,18
1000724,24
1001348,24
1001976,22
1002604,27
1003224,30
1003852,31
1004476,25
1005100,13
1005728,10
1006344,13
1006972,15
1007596,20
1008220,21
1008848,16
1009472,15
1010100,15
1010728,12
1011348,11
1011976,13
1012600,14
1013228,16
1013860,18
1014480,16
1015108,12
1015732,11
1016356,23
1016984,30
1017608,27
1018236,26
1018860,31
1019484,27
1020116,22
1020740,13
1021368,10
1022000,10
1022616,10
1023248,12
1023872,13
1024504,15
1025132,12
1025748,15
1026376,16
1027000,17
1027620,22
1028248,23
1028868,21
1029496,11
1030120,11
1030740,11
1031372,12
1031988,17
1032620,22
1033248,23
1033864,23
1034492,22
1035112,21
1035744,21
1036372,28
1036992,39
1037620,31
1038240,17
1038864,12
1039492,10
1040112,15
1040740,15
1041360,19
1041980,21
1042608,20
1043228,17
1043856,11
1044484,11
1045100,11
1045728,12
1046352,16
1046980,11
1047608,11
1048232,11
1048860,13
1049480,19
1050112,17
1050740,21
1051360,29
1051988,29
1052608,30
1053232,28
1053860,22
1054480,13
1055108,10
1055732,10
1056352,10
1056984,12
1057604,13
1058232,15
1058860,14
1059480,15
1060108,14
1060732,11
1061360,11
1061988,11
1062608,20
1063236,17
1063860,15
1064480,12
1065112,11
1065728,17
1066356,22
1066980,28
1067600,27
1068228,22
1068848,22
1069476,22
1070104,17
1070720,13
1071348,11
1071972,10
1072600,12
1073232,14
1073848,13
1074476,15
1075100,13
1075724,14
1076352,13
1076976,13
1077604,11
1078224,11
1078848,11
1079476,14
1080096,13
1080724,13
1081352,11
1081968,14
1082600,20
1083220,24
1083848,25
1084480,28
1085096,22
1085724,17
1086348,17
1086976,16
1087608,14
1088224,12
1088852,12
1089472,10
1090096,13
1090724,14
1091344,14
1091972,14
1092592,13
1093216,14
1093848,12
1094468,10
1095100,11
1095728,12
1096344,15
1096972,19
1097596,21
1098228,12
1098856,13
1099472,18
1100104,25
1100728,27
1101352,30
1101980,28
1102600,32
1103228,29
1103852,17
1104476,10
1105104,12
1105728,18
1106360,15
1106988,10
1107608,13
1108236,14
1108860,17
1109488,19
1110116,14
1110736,12
1111364,19
1111988,31
1112612,27
1113244,16
1113864,12
1114492,12
1115116,22
1115740,34
1116372,41
1116996,37
1117624,37
1118252,31
1118872,29
1119500,26
1120128,18
1120756,10
1121384,15
1122000,16
1122628,15
1123252,11
1123876,14
1124504,20
1125128,14
1125756,13
1126380,13
1127004,13
1127636,12
1128256,13
1128888,21
1129516,28
1130136,28
1130764,13
1131388,21
1132016,16
1132648,20
1133264,23
1133892,17
1134516,15
1135140,21
1135772,26
1136392,32
1137020,27
1137644,20
1138268,16
1138896,13
1139516,10
1140144,11
1140772,10
1141392,15
1142020,16
1142644,21
1143276,25
1143904,27
1144524,19
1145152,11
1145776,11
1146400,11
1147028,11
1147648,12
1148276,11
1148900,18
1149524,28
1150152,31
1150768,30
1151400,30
1152028,33
1152644,34
1153272,23
1153896,12
1154524,11
1155152,10
1155772,11
1156400,15
1157024,11
1157644,13
1158276,15
1158896,17
1159524,16
1160148,15
1160768,14
1161400,13
1162016,13
1162644,11
1163272,11
1163896,11
1164524,11
1165148,12
1165776,12
1166408,16
1167024,20
1167652,22
1168276,28
1168900,30
1169532,21
1170152,16
1170780,16
1171404,13
1172028,14
1172656,11
1173276,11
1173904,14
1174532,20
1175152,18
1175780,19
1176404,23
1177036,23
1177664,17
1178284,11
1178916,10
1179536,11
1180164,11
1180796,11
1181416,12
1182044,13
1182668,25
1183292,37
1183924,37
1184544,34
1185172,29
1185804,20
1186424,17
1187052,16
1187676,15
1188308,13
1188936,11
1189556,10
1190184,13
1190808,21
1191432,19
1192060,16
1192680,16
1193308,13
1193932,10
1194556,12
1195188,12
1195808,11
1196436,13
1197068,14
1197688,13
1198316,11
1198940,11
1199572,19
1200204,19
1200824,17
1201452,18
1202076,17
1202700,17
1203328,25
1203944,30
1204576,22
1205200,13
1205820,12
1206452,12
1207072,11
1207700,13
1208332,12
1208952,13
1209580,13
1210204,13
1210836,14
1211464,14
1212088,11
1212716,12
1213340,15
1213968,15
1214596,10
1215216,15
1215844,26
1216472,31
1217092,28
1217724,20
1218344,19
1218972,23
1219604,27
1220224,26
1220852,16
1221476,13
1222108,12
1222736,12
1223352,11
1223984,12
1224608,21
1225232,25
1225860,21
1226480,18
1227108,11
1227732,14
1228360,17
1228988,13
1229604,13
1230236,15
1230864,15
1231480,11
1232108,15
1232732,19
1233360,27
1233988,26
1234608,19
1235236,16
1235856,25
1236484,25
1237112,17
1237736,18
1238364,20
1238992,19
1239616,13
1240244,12
1240864,14
1241492,18
1242120,21
1242744,19
1243372,14
1243996,10
1244624,14
1245256,16
1245872,13
1246500,11
1247124,11
1247752,18
1248380,14
1249000,13
1249628,19
1250252,24
1250872,17
1251504,14
1252120,19
1252752,31
1253380,28
1254000,27
1254628,25
1255252,19
1255884,14
1256512,10
1257128,11
1257756,13
1258380,13
1259012,13
1259640,14
1260264,14
1260892,11
1261516,16
1262140,15
1262768,11
1263392,11
1264020,12
1264652,12
1265272,11
1265900,14
1266524,19
1267156,26
1267788,25
1268408,17
1269036,14
1269660,30
1270288,33
1270916,29
1271536,19
1272164,9
1272740,13
1273368,13
1273996,10
1274616,14
1275244,16
1275868,13
1276492,14
1277124,11
1277744,12
1278376,11
1279004,11
1279624,11
1280256,11
1280876,11
1281504,14
1282132,16
1282748,23
1283380,23
1284000,24
1284620,19
1285252,16
1285868,15
1286500,14
1287120,15
1287740,13
1288372,11
1288992,11
1289620,15
1290248,14
1290864,13
1291492,13
1292116,13
1292744,15
1293372,13
1293992,12
1294620,12
1295244,17
1295872,12
1296500,11
1297120,12
1297748,11
1298372,11
1298992,17
1299624,23
1300240,28
1300868,26
1301492,25
1302116,25
1302744,21
1303368,14
1303996,10
1304628,12
1305248,11
1305876,13
1306500,11
1307128,11
1307760,13
1308376,13
1309008,13
1309632,13
1310252,13
1310884,10
1311500,11
1312132,11
1312752,14
1313372,17
1314000,18
1314620,11
1315248,12
1315876,16
1316496,25
1317124,26
1317744,23
1318372,20
1319004,20
1319624,22
1320252,19
1320872,19
1321496,19
1322124,12
1322744,14
1323372,18
1323992,19
1324616,16
1325248,21
1325864,23
1326492,18
1327120,19
1327736,15
1328364,12
1328988,12
1329616,13
1330244,14
1330864,11
1331492,12
1332116,14
1332740,24
1333368,26
1333984,17
1334612,19
1335236,19
1335856,16
1336484,16
1337100,14
1337732,10
1338352,10
1338976,11
1339604,9
1340172,10
1340804,14
1341428,12
1342048,17
1342680,14
1343300,15
1343932,13
1344560,11
1345180,13
1345812,11
1346432,10
1347064,11
1347692,10
1348312,15
1348940,21
1349564,29
1350188,25
1350816,17
1351432,14
1352060,11
1352684,15
1353304,15
1353936,10
1354552,17
1355180,17
1355812,15
1356432,13
1357060,10
1357684,17
1358312,17
1358940,17
1359560,17
1360188,18
1360812,22
1361432,22
1362060,11
1362676,11
1363308,16
1363928,20
1364548,25
1365180,23
1365800,18
1366428,19
1367056,27
1367672,29
1368300,31
1368924,29
1369552,21
1370184,18
1370800,17
1371432,11
1372056,11
1372680,11
1373308,10
1373928,11
1374556,13
1375180,15
1375804,15
1376432,18
1377056,17
1377684,14
1378312,16
1378928,14
1379560,11
1380184,11
1380812,12
1381440,11
1382056,14
1382688,19
1383308,21
1383940,25
1384568,29
1385184,26
1385816,23
1386436,19
1387060,15
1387692,15
1388312,13
1388940,10
1389564,10
1390192,14
1390820,16
1391444,16
1392076,16
1392704,18
1393320,18
1393948,18
1394572,14
1395200,12
1395828,14
1396448,15
1397076,15
1397700,13
1398324,14
1398952,24
1399576,32
1400204,33
1400828,24
1401456,19
1402084,20
1402708,30
1403336,33
1403968,26
1404584,16
1405212,10
1405836,14
1406468,15
1407096,14
1407716,14
1408344,17
1408968,17
1409588,15
1410220,14
1410840,13
1411468,15
1412092,17
1412720,13
1413348,12
1413972,11
1414600,15
1415228,26
1415848,30
1416476,23
1417100,19
1417728,22
1418356,22
1418976,29
1419604,25
1420228,17
1420852,11
1421480,10
1422096,11
1422728,12
1423352,10
1423976,12
1424604,15
1425228,20
1425860,18
1426488,17
1427104,18
1427736,23
1428360,15
1428988,11
1429620,10
1430240,11
1430868,14
1431492,15
1432120,13
1432748,21
1433368,25
1434000,31
1434620,35
1435248,33
1435876,22
1436500,16
1437128,17
1437756,16
1438376,11
1439004,17
1439628,26
1440260,24
1440888,19
1441504,23
1442132,26
1442756,28
1443376,22
1444008,14
1444620,12
1445252,13
1445872,11
1446496,12
1447124,11
1447748,11
1448376,11
1449004,14
1449620,19
1450252,30
1450872,32
1451500,21
1452132,24
1452752,28
1453380,29
1454004,22
1454628,16
1455260,14
1455880,11
1456508,13
1457132,19
1457756,23
1458384,16
1459008,15
1459636,14
1460268,11
1460888,16
1461516,14
1462140,13
1462768,11
1463396,10
1464016,11
1464644,12
1465268,11
1465892,19
1466520,24
1467136,24
1467768,24
1468392,21
1469016,19
1469644,15
1470264,11
1470892,10
1471524,11
1472144,11
1472772,14
1473396,22
1474028,25
1474656,25
1475272,19
1475900,15
1476524,13
1477144,10
1477776,10
1478392,11
1479020,13
1479644,13
1480268,13
1480900,10
1481520,13
1482148,23
1482780,30
1483400,31
1484028,28
1484652,25
1485280,23
1485912,23
1486528,23
1487156,16
1487780,10
1488404,10
1489032,11
1489648,11
1490280,13
1490900,12
1491524,13
1492152,18
1492776,17
1493404,17
1494036,14
1494656,17
1495284,15
1495908,10
1496540,11
1497168,11
1497784,10
1498416,14
1499036,19
1499660,22
1500292,28
1500912,32
1501540,33
1502164,29
1502788,22
1503420,18
1504040,20
1504668,20
1505296,17
1505920,11
1506548,21
1507172,21
1507804,16
1508432,19
1509056,19
1509684,15
1510308,17
1510936,19
1511564,14
1512184,12
1512812,13
1513436,11
1514064,10
1514692,12
1515312,20
1515944,25
1516572,27
1517192,20
1517820,19
1518444,17
1519076,15
1519704,16
1520328,16
1520956,16
1521580,17
1522204,19
1522836,22
1523456,24
1524084,16
1524708,16
1525332,25
1525964,23
1526584,19
1527212,12
1527844,10
1528464,11
1529092,10
1529716,15
1530348,17
1530976,14
1531600,16
1532228,15
1532852,22
1533476,33
1534108,34
1534728,30
1535360,25
1535984,25
1536608,26
1537236,15
1537860,11
1538488,20
1539120,18
1539736,17
1540364,14
1540988,19
1541616,22
1542248,23
1542864,20
1543492,17
1544116,18
1544740,13
1545368,10
1545992,11
1546620,11
1547244,11
1547868,11
1548496,16
1549120,24
1549748,27
1550380,28
1551000,32
1551632,25
1552256,16
1552884,13
1553512,10
1554132,9
1554708,10
1555336,11
1555964,11
1556596,16
1557216,15
1557844,13
1558468,15
1559092,16
1559720,15
1560340,14
1560968,13
1561592,14
1562216,13
1562844,12
1563468,12
1564096,12
1564728,14
1565344,12
1565972,16
1566596,24
1567228,33
1567856,33
1568480,29
1569108,29
1569732,25
1570356,19
1570984,13
1571608,12
1572236,11
1572860,12
1573488,16
1574116,18
1574740,19
1575372,21
1576000,19
1576616,17
1577248,13
1577872,11
1578500,11
1579132,10
1579752,11
1580380,11
1581008,13
1581628,22
1582260,32
1582880,35
1583508,29
1584140,16
1584760,15
1585388,14
1586012,13
1586644,10
1587276,10
1587896,11
1588524,9
1589096,10
1589724,11
1590356,13
1590976,13
1591608,21
1592232,25
1592856,27
1593484,24
1594104,14
1594732,11
1595360,12
1595984,11
1596616,10
1597232,12
1597864,11
1598492,14
1599112,19
1599744,23
1600368,23
1600996,27
1601624,30
1602240,29
1602868,26
1603492,19
1604112,13
1604740,10
1605360,12
1605988,11
1606612,10
1607232,14
1607864,14
1608480,16
1609108,19
1609736,15
1610360,17
1610988,15
1611612,14
1612240,13
1612868,10
1613484,11
1614116,12
1614736,11
1615364,17
1615996,22
1616616,30
1617244,36
1617868,31
1618492,34
1619124,24
1619744,13
1620372,19
1621004,17
1621624,18
1622252,13
1622876,10
1623508,19
1624136,30
1624756,27
1625384,22
1626008,24
1626632,25
1627260,20
1627880,18
1628508,17
1629132,10
1629756,17
1630384,16
1631008,11
1631636,15
1632268,16
1632888,19
1633516,24
1634140,28
1634772,30
1635400,30
1636024,24
1636652,19
1637276,15
1637900,13
1638532,10
1639148,10
1639776,12
1640396,12
1641020,13
1641648,16
1642260,17
1642888,23
1643508,29
1644132,24
1644760,15
1645384,11
1646012,12
1646640,12
1647256,13
1647884,11
1648508,11
1649136,18
1649764,24
1650380,28
1651012,29
1651632,28
1652256,30
1652884,26
1653500,20
1654132,13
1654752,9
1655324,11
1655956,12
1656576,11
1657204,12
1657828,12
1658448,14
1659076,14
1659696,15
1660324,16
1660952,18
1661568,18
1662196,15
1662820,17
1663448,14
1664076,12
1664692,12
1665320,13
1665940,22
1666564,31
1667192,36
1667808,33
1668436,29
1669060,24
1669680,20
1670308,19
1670928,18
1671556,11
1672180,10
1672800,10
1673428,11
1674052,15
1674680,15
1675308,23
1675928,27
1676556,26
1677180,22
1677808,13
1678436,12
1679056,14
1679684,11
1680304,17
1680928,20
1681556,18
1682176,23
1682804,28
1683424,31
1684048,28
1684676,22
1685292,19
1685924,16
1686552,16
1687168,14
1687796,12
1688420,11
1689048,11
1689676,10
1690292,14
1690920,20
1691544,22
1692164,19
1692792,19
1693416,16
1694044,12
1694668,10
1695292,11
1695920,12
1696536,11
1697164,17
1697788,12
1698416,11
1699044,16
1699668,18
1700296,22
1700924,22
1701544,23
1702172,24
1702796,30
1703424,28
1704052,14
1704668,10
1705300,12
1705920,11
1706544,12
1707172,13
1707792,15
1708420,16
1709044,14
1709668,13
1710296,11
1710920,12
1711548,12
1712180,10
1712800,17
1713428,25
1714052,16
1714680,27
1715308,45
1715928,45
1716556,30
1717180,16
1717804,14
1718432,12
1719048,13
1719680,16
1720304,16
1720928,11
1721556,13
1722180,10
1722808,11
1723436,10
1724056,15
1724684,13
1725308,14
1725936,13
1726564,16
1727184,14
1727812,13
1728436,11
1729060,10
1729688,10
1730304,12
1730932,14
1731556,17
1732180,18
1732808,17
1733424,18
1734052,25
1734684,25
1735304,25
1735932,24
1736556,19
1737184,15
1737816,13
1738432,10
1739064,11
1739688,11
1740308,12
1740940,14
1741556,16
1742188,16
1742808,19
1743432,15
1744060,11
1744676,11
1745308,11
1745936,12
1746552,15
1747180,13
1747804,10
1748436,15
1749064,22
1749680,26
1750308,31
1750932,32
1751560,31
1752188,28
1752808,24
1753436,18
1754060,13
1754684,12
1755312,10
1755936,11
1756564,12
1757196,12
1757816,13
1758444,13
1759068,15
1759700,19
1760332,21
1760952,17
1761580,15
1762204,14
1762824,13
1763456,18
1764072,13
1764700,12
1765324,14
1765948,20
1766576,15
1767192,24
1767820,33
1768444,35
1769072,35
1769700,37
1770324,36
1770952,26
1771580,11
1772200,16
1772828,19
1773448,19
1774080,22
1774708,16
1775328,14
1775956,13
1776584,12
1777208,11
1777836,14
1778456,13
1779084,11
1779708,10
1780336,13
1780964,11
1781588,13
1782220,17
1782848,20
1783468,19
1784096,17
1784720,20
1785348,22
1785980,20
1786600,15
1787228,12
1787852,10
1788476,10
1789108,10
1789728,12
1790356,11
1790988,12
1791608,14
1792240,15
1792860,15
1793488,12
1794116,10
1794736,11
1795364,10
1795988,10
1796612,11
1797244,10
1797864,11
1798492,15
1799116,20
1799740,23
1800368,25
1800984,24
1801616,24
1802236,23
1802864,20
1803492,15
1804116,12
1804744,11
1805372,10
1805992,11
1806620,11
1807244,13
1807872,15
1808500,15
1809120,16
1809748,16
1810372,13
1810992,12
1811624,10
1812240,10
1812868,11
1813492,11
1814116,11
1814744,11
1815368,12
1815996,16
1816628,16
1817248,17
1817876,19
1818500,21
1819132,35
1819760,43
1820376,32
1821008,29
1821632,27
1822252,23
1822884,20
1823504,16
1824132,17
1824756,45
1825380,49
1826008,43
1826632,21
1827260,10
1827888,16
1828504,19
1829136,14
1829760,13
1830388,11
1831020,10
1831640,13
1832268,16
1832892,13
1833516,13
1834148,14
1834768,17
1835396,24
1836024,25
1836644,19
1837276,9
1837848,10
1838476,10
1839100,12
1839728,19
1840356,15
1840980,12
1841612,13
1842240,15
1842860,13
1843488,12
1844108,11
1844740,10
1845368,10
1845984,11
1846612,10
1847236,13
1847860,15
1848488,17
1849104,25
1849732,29
1850356,30
1850980,27
1851608,21
1852232,22
1852860,17
1853488,12
1854112,10
1854740,10
1855364,10
1855992,12
1856624,12
1857240,14
1857868,17
1858492,17
1859116,16
1859744,14
1860364,11
1860992,11
1861616,13
1862240,11
1862868,11
1863492,14
1864124,12
1864752,11
1865368,13
1865996,13
1866620,13
1867248,15
1867880,28
1868496,30
1869124,36
1869748,34
1870372,31
1871000,18
1871624,12
1872252,10
1872876,12
1873500,11
1874132,13
1874756,16
1875384,19
1876012,20
1876632,16
1877260,15
1877884,15
1878516,10
1879144,10
1879764,12
1880392,11
1881016,17
1881640,20
1882272,18
1882888,20
1883516,22
1884140,25
1884768,30
1885396,26
1886020,21
1886652,21
1887280,18
1887896,14
1888528,11
1889152,11
1889780,11
1890408,12
1891032,14
1891660,15
1892288,16
1892908,14
1893540,11
1894160,12
1894788,12
1895412,11
1896036,13
1896668,15
1897288,11
1897920,16
1898548,20
1899168,27
1899796,27
1900420,24
1901052,21
1901684,17
1902304,13
1902932,11
1903560,9
1904132,11
1904764,10
1905384,11
1906012,10
1906636,10
1907260,13
1907892,13
1908512,15
1909140,13
1909772,12
1910392,12
1911024,14
1911648,15
1912280,11
1912908,10
1913528,11
1914160,11
1914784,15
1915408,21
1916040,25
1916656,28
1917288,28
1917912,15
1918536,15
1919168,16
1919788,15
1920420,14
1921048,12
1921664,11
1922292,10
1922916,10
1923544,12
1924176,15
1924792,19
1925420,23
1926044,24
1926668,13
1927296,12
1927920,11
1928548,10
1929172,10
1929796,10
1930424,14
1931040,18
1931672,21
1932300,24
1932920,28
1933548,22
1934172,14
1934800,14
1935432,13
1936048,14
1936680,14
1937300,11
1937924,11
1938556,15
1939176,13
1939808,11
1940432,15
1941056,18
1941684,25
1942304,28
1942936,17
1943564,11
1944184,11
1944812,11
1945436,10
1946068,14
1946696,18
1947320,16
1947948,12
1948572,15
1949196,25
1949824,29
1950448,28
1951076,24
1951700,25
1952324,28
1952956,28
1953576,19
1954204,12
1954836,10
1955456,11
1956084,15
1956708,16
1957340,14
1957968,12
1958592,14
1959220,16
1959844,15
1960468,13
1961100,10
1961720,13
1962348,13
1962972,11
1963596,12
1964228,10
1964848,11
1965476,23
1966108,30
1966728,31
1967356,24
1967980,24
1968608,25
1969240,26
1969856,25
1970484,21
1971108,17
1971732,11
1972360,10
1972984,14
1973612,18
1974236,31
1974860,31
1975488,18
1976108,18
1976736,21
1977364,19
1977984,16
1978612,15
1979236,15
1979864,11
1980496,17
1981112,25
1981744,29
1982368,27
1982992,28
1983620,22
1984240,17
1984868,25
1985492,32
1986116,33
1986744,21
1987360,11
1987988,9
1988560,10
1989184,10
1989812,10
1990432,17
1991060,21
1991692,32
1992312,25
1992940,18
1993564,11
1994196,13
1994828,10
1995448,10
1996076,11
1996704,12
1997328,13
1997956,12
1998576,21
1999204,21
1999828,20
2000452,22
2001084,24
2001704,28
2002332,17
2002960,18
2003584,16
2004212,14
2004836,11
2005464,12
2006092,14
2006712,17
2007340,16
2007964,13
2008588,13
2009216,12
2009840,12
2010468,15
2011092,16
2011716,11
2012344,10
2012964,10
2013592,15
2014220,13
2014840,13
2015468,18
2016092,32
2016724,27
2017352,24
2017968,29
2018600,34
2019220,37
2019844,24
2020476,14
2021096,11
2021724,12
2022352,14
2022976,15
2023604,12
2024224,13
2024852,13
2025484,16
2026104,33
2026732,28
2027356,15
2027988,12
2028616,12
2029240,15
2029868,13
2030492,13
2031116,23
2031748,24
2032368,23
2032996,25
2033620,26
2034244,26
2034876,27
2035496,29
2036124,31
2036756,16
2037376,14
2038008,10
2038632,11
2039260,11
2039892,16
2040512,26
2041140,25
2041768,28
2042388,29
2043020,27
2043640,18
2044268,10
2044896,11
2045520,10
2046148,10
2046768,13
2047400,12
2048028,16
2048644,27
2049272,34
2049892,36
2050520,35
2051148,31
2051768,30
2052396,28
2053016,22
2053640,15
2054268,9
2054836,11
2055468,15
2056092,16
2056712,17
2057340,17
2057960,17
2058588,15
2059208,17
2059832,22
2060460,17
2061080,13
2061708,13
2062328,10
2062952,11
2063580,13
2064204,11
2064832,16
2065460,18
2066080,20
2066708,23
2067328,29
2067960,27
2068588,22
2069204,24
2069836,19
2070456,12
2071080,11
2071708,9
2072276,10
2072908,10
2073532,13
2074156,14
2074784,13
2075408,14
2076036,13
2076660,13
2077284,11
2077912,13
2078536,21
2079164,19
2079796,12
2080416,11
2081044,13
2081664,21
2082292,31
2082924,34
2083544,29
2084172,23
2084792,18
2085416,17
2086044,19
2086664,19
2087292,16
2087912,11
2088536,13
2089168,15
2089784,12
2090412,12
2091040,13
2091656,17
2092284,16
2092908,15
2093536,18
2094164,13
2094784,11
2095412,15
2096036,17
2096656,12
2097284,10
2097904,13
2098532,13
2099156,16
2099780,35
2100408,46
2101032,37
2101660,28
2102288,21
2102912,19
2103540,13
2104164,19
2104792,11
2105424,10
2106040,11
2106668,12
2107292,16
2107916,17
2108544,20
2109168,21
2109796,22
2110420,17
2111044,11
2111672,10
2112296,12
2112924,10
2113552,11
2114172,12
2114800,13
2115424,25
2116052,31
2116680,33
2117300,31
2117928,19
2118552,12
2119176,9
2119752,10
2120376,11
2121008,12
2121628,11
2122252,13
2122880,15
2123504,11
2124132,13
2124756,15
2125380,14
2126012,12
2126632,14
2127260,15
2127892,12
2128512,13
2129140,10
2129764,11
2130396,11
2131024,14
2131640,22
2132268,29
2132892,23
2133512,23
2134144,26
2134760,23
2135392,17
2136012,15
2136636,10
2137268,10
2137888,13
2138516,15
2139148,14
2139768,12
2140396,12
2141020,13
2141652,16
2142280,15
2142896,14
2143528,13
2144152,11
2144772,12
2145404,10
2146024,15
2146652,13
2147276,11
2147900,13
2148528,15
2149148,18
2149776,19
2150404,24
2151020,27
2151652,21
2152276,18
2152904,20
2153532,16
2154152,13
2154780,10
2155404,15
2156036,15
2156664,11
2157280,15
2157912,13
2158536,13
2159160,15
2159788,16
2160408,15
2161036,16
2161660,14
2162288,11
2162916,16
2163540,15
2164168,15
2164800,18
2165416,21
2166044,29
2166668,31
2167296,29
2167928,20
2168544,11
2169176,11
2169800,11
2170424,10
2171052,10
2171672,10
2172300,11
2172924,10
2173552,17
2174180,16
2174804,15
2175436,13
2176064,12
2176684,10
2177312,11
2177936,13
2178564,14
2179192,13
2179816,11
2180444,11
2181068,11
2181692,11
2182320,14
2182944,16
2183572,18
2184204,20
2184824,17
2185452,12
2186076,14
2186708,10
2187336,10
2187952,10
2188584,13
2189208,12
2189832,12
2190460,14
2191080,15
2191708,15
2192332,16
2192956,15
2193588,11
2194208,12
2194836,11
2195468,10
2196088,11
2196716,11
2197340,11
2197972,16
2198600,26
2199224,31
2199852,32
2200480,26
2201100,17
2201732,18
2202352,21
2202980,24
2203604,19
2204228,15
2204856,15
2205472,11
2206100,13
2206732,12
2207352,13
2207980,13
2208608,15
2209236,19
2209868,11
2210488,11
2211116,10
2211744,11
2212368,10
2212996,10
2213616,12
2214244,12
2214868,11
2215492,17
2216124,25
2216744,23
2217372,19
2218004,12
2218624,14
2219252,16
2219876,23
2220508,19
2221136,11
2221760,11
2222388,10
2223012,12
2223640,13
2224268,13
2224888,17
2225516,23
2226140,25
2226768,23
2227396,16
2228016,11
2228644,15
2229272,10
2229896,17
2230524,11
2231148,12
2231780,13
2232412,12
2233032,16
2233660,21
2234284,20
2234908,27
2235540,30
2236160,28
2236788,15
2237416,11
2238040,11
2238672,11
2239288,10
2239920,13
2240552,14
2241168,13
2241796,13
2242420,15
2243052,16
2243680,17
2244296,13
2244924,12
2245548,14
2246172,22
2246804,22
2247424,15
2248052,11
2248676,28
2249300,36
2249932,37
2250552,37
2251184,29
2251812,26
2252432,21
2253064,12
2253684,10
2254312,12
2254944,15
2255560,14
2256188,13
2256812,16
2257436,13
2258064,13
2258680,14
2259308,14
2259932,17
2260556,13
2261184,12
2261800,11
2262432,13
2263060,10
2263680,17
2264308,22
2264932,23
2265560,19
2266192,17
2266812,15
2267440,21
2268064,26
2268688,23
2269316,12
2269936,10
2270564,10
2271192,12
2271816,13
2272448,10
2273064,12
2273692,21
2274324,18
2274944,14
2275572,15
2276196,17
2276828,12
2277456,11
2278076,10
2278708,12
2279332,14
2279956,16
2280584,11
2281204,13
2281832,18
2282456,21
2283080,20
2283708,19
2284328,23
2284956,23
2285588,22
2286208,18
2286836,14
2287460,10
2288092,11
2288720,12
2289344,12
2289972,11
2290596,13
2291224,13
2291852,13
2292472,13
2293104,13
2293728,14
2294352,10
2294980,10
2295600,11
2296228,11
2296860,12
2297480,13
2298108,11
2298732,15
2299364,20
2299992,20
2300616,17
2301244,16
2301872,22
2302496,19
2303124,15
2303744,15
2304376,15
2304996,12
2305620,13
2306248,15
2306864,16
2307496,16
2308124,16
2308744,16
2309372,16
2309996,16
2310624,12
2311256,16
2311872,12
2312500,10
2313124,13
2313748,16
2314380,14
2315000,18
2315628,28
2316252,34
2316876,32
2317504,30
2318128,24
2318756,15
2319388,14
2320008,17
2320636,14
2321260,10
2321888,15
2322520,17
2323136,20
2323768,21
2324392,23
2325016,23
2325644,21
2326264,14
2326892,13
2327516,13
2328140,13
2328772,12
2329392,11
2330024,12
2330652,10
2331272,16
2331900,25
2332524,24
2333156,17
2333788,14
2334408,19
2335036,24
2335660,27
2336288,23
2336916,14
2337536,11
2338164,10
2338788,10
2339412,10
2340044,13
2340664,15
2341292,13
2341924,12
2342544,14
2343172,12
2343796,13
2344428,12
2345056,14
2345680,13
2346308,15
2346932,21
2347556,20
2348188,25
2348808,33
2349436,30
2350060,33
2350688,35
2351316,26
2351944,12
2352576,11
2353204,13
2353824,11
2354456,13
2355080,20
2355712,12
2356340,10
2356960,13
2357588,13
2358212,15
2358836,16
2359468,16
2360088,23
2360716,14
2361340,10
2361968,11
2362596,15
2363220,15
2363852,12
2364484,13
2365104,23
2365736,25
2366360,18
2366984,23
2367612,24
2368232,27
2368860,27
2369484,22
2370108,18
2370740,12
2371360,10
2371988,12
2372620,10
2373240,11
2373868,13
2374496,16
2375124,16
2375756,18
2376376,15
2377004,13
2377628,18
2378252,19
2378880,17
2379504,11
2380136,12
2380760,17
2381384,21
2382012,23
2382632,28
2383260,27
2383892,26
2384512,29
2385140,25
2385764,18
2386396,11
2387028,10
2387648,11
2388276,11
2388900,11
2389524,12
2390156,16
2390776,22
2391408,24
2392032,25
2392656,21
2393284,15
2393904,15
2394536,13
2395164,10
2395784,11
2396416,11
2397040,11
2397668,11
2398300,17
2398920,21
2399552,21
2400176,29
2400800,31
2401428,28
2402048,29
2402676,26
2403300,15
2403924,11
2404556,10
2405176,11
2405804,12
2406436,20
2407056,25
2407684,19
2408308,19
2408936,16
2409564,11
2410184,12
2410812,12
2411436,13
2412064,11
2412692,10
2413312,13
2413940,11
2414568,14
2415192,28
2415820,30
2416440,31
2417072,21
2417700,24
2418320,25
2418948,21
2419572,20
2420204,13
2420832,10
2421456,9
2422032,14
2422664,15
2423292,15
2423924,15
2424544,14
2425172,15
2425800,15
2426420,12
2427052,10
2427672,11
2428304,11
2428928,10
2429552,12
2430184,12
2430808,19
2431436,23
2432068,14
2432688,16
2433316,13
2433940,20
2434568,30
2435196,32
2435816,32
2436448,18
2437072,11
2437696,9
2438272,11
2438900,11
2439528,13
2440152,14
2440776,13
2441404,14
2442024,16
2442652,17
2443284,16
2443904,16
2444536,13
2445160,11
2445788,15
2446420,18
2447040,23
2447668,17
2448296,14
2448920,21
2449548,22
2450168,15
2450796,15
2451424,21
2452048,23
2452676,10
2453296,15
2453928,16
2454556,13
2455176,15
2455808,12
2456432,11
2457064,13
2457692,12
2458308,14
2458940,13
2459560,15
2460184,24
2460812,24
2461432,15
2462060,11
2462684,15
2463308,10
2463936,11
2464560,15
2465188,26
2465820,32
2466440,30
2467068,27
2467692,24
2468320,24
2468952,20
2469568,17
2470196,15
2470820,15
2471444,13
2472076,10
2472696,15
2473324,19
2473948,21
2474572,21
2475200,16
2475824,20
2476452,26
2477084,30
2477704,25
2478332,15
2478956,11
2479588,14
2480220,18
2480840,19
2481468,17
2482092,24
2482716,26
2483344,27
2483960,30
2484592,25
2485216,18
2485836,17
2486468,16
2487088,12
2487716,10
2488348,10
2488968,11
2489596,17
2490220,17
2490852,16
2491480,15
2492104,17
2492732,15
2493360,12
2493984,11
2494612,10
2495232,12
2495864,16
2496488,13
2497112,13
2497740,18
2498360,27
2498988,31
2499620,33
2500240,22
2500868,17
2501492,13
2502120,10
2502752,10
2503372,11
2504000,13
2504624,11
2505248,11
2505876,11
2506496,12
2507124,13
2507748,13
2508376,14
2509008,12
2509624,14
2510252,27
2510884,22
2511504,12
2512132,11
2512756,12
2513388,11
2514016,14
2514640,30
2515268,44
2515892,39
2516516,35
2517148,40
2517768,32
2518400,16
2519020,13
2519648,11
2520276,10
2520900,11
2521532,10
2522164,11
2522784,15
2523416,21
2524040,19
2524668,22
2525300,16
2525920,15
2526548,13
2527176,11
2527800,11
2528432,10
2529048,10
2529676,11
2530304,10
2530928,13
2531560,17
2532184,19
2532812,21
2533444,24
2534064,29
2534696,32
2535320,22
2535944,11
2536576,9
2537140,10
2537776,15
2538400,13
2539024,11
2539656,10
2540272,12
2540900,13
2541524,13
2542152,14
2542780,11
2543400,11
2544032,13
2544660,11
2545280,15
2545908,21
2546536,14
2547164,12
2547796,14
2548416,22
2549048,33
2549672,29
2550296,21
2550928,18
2551544,16
2552176,14
2552800,14
2553424,11
2554056,10
2554676,11
2555304,10
2555936,13
2556556,13
2557188,12
2557812,15
2558444,15
2559076,16
2559696,20
2560328,20
2560952,11
2561572,12
2562204,10
2562824,14
2563452,17
2564072,22
2564692,18
2565324,15
2565944,13
2566572,13
2567200,15
2567816,19
2568444,17
2569068,17
2569696,15
2570324,11
2570944,11
2571572,12
2572196,13
2572816,11
2573444,13
2574064,19
2574692,24
2575316,24
2575940,22
2576572,18
2577192,11
2577820,13
2578452,16
2579072,20
2579700,19
2580324,17
2580956,14
2581584,20
2582200,27
2582832,33
2583452,33
2584076,27
2584704,18
2585328,15
2585956,10
2586580,10
2587204,10
2587832,10
2588448,13
2589080,14
2589708,10
2590328,13
2590956,13
2591580,13
2592212,13
2592840,11
2593456,13
2594088,13
2594708,11
2595332,11
2595964,10
2596584,11
2597212,15
2597836,19
2598460,22
2599092,29
2599712,31
2600340,38
2600972,38
2601592,31
2602220,13
2602844,9
2603424,10
2604052,13
2604672,23
2605300,27
2605924,25
2606556,27
2607184,22
2607808,14
2608436,13
2609060,13
2609684,10
2610316,10
2610936,10
2611568,12
2612188,11
2612812,11
2613440,10
2614064,11
2614692,18
2615324,24
2615944,27
2616576,24
2617200,22
2617828,21
2618456,23
2619080,26
2619708,18
2620332,11
2620960,11
2621588,10
2622208,11
2622836,10
2623460,12
2624080,13
2624708,12
2625324,13
2625952,17
2626580,16
2627196,24
2627828,25
2628448,14
2629080,13
2629708,14
2630328,12
2630956,11
2631580,13
2632204,15
2632832,18
2633448,19
2634076,23
2634700,23
2635324,16
2635952,11
2636568,10
2637200,11
2637820,11
2638448,11
2639076,10
2639700,10
2640328,13
2640956,12
2641576,24
2642204,21
2642828,11
2643456,11
2644084,11
2644700,16
2645332,12
2645952,11
2646576,11
2647204,11
2647824,12
2648452,18
2649076,22
2649696,25
2650324,25
2650948,31
2651580,33
2652208,26
2652824,16
2653452,10
2654076,12
2654704,10
2655332,10
2655952,10
2656584,12
2657204,13
2657828,16
2658456,15
2659080,15
2659708,12
2660332,14
2660956,14
2661588,10
2662212,10
2662840,12
2663468,10
2664088,16
2664716,26
2665336,29
2665964,27
2666592,27
2667208,31
2667836,19
2668460,9
2669032,13
2669660,11
2670280,11
2670908,22
2671532,17
2672152,11
2672784,10
2673400,13
2674028,17
2674652,21
2675276,20
2675904,17
2676520,11
2677148,10
2677776,10
2678400,10
2679028,11
2679652,11
2680280,11
2680908,13
2681528,18
2682156,19
2682780,18
2683404,21
2684032,19
2684656,21
2685284,17
2685908,10
2686532,10
2687160,11
2687780,10
2688408,11
2689036,15
2689656,14
2690284,13
2690904,13
2691536,17
2692164,14
2692784,12
2693412,13
2694036,15
2694660,11
2695292,10
2695912,11
2696540,11
2697164,11
2697788,11
2698416,23
2699032,28
2699664,25
2700292,22
2700912,18
2701540,14
2702164,17
2702792,17
2703424,12
2704040,11
2704668,10
2705288,11
2705920,15
2706548,16
2707168,15
2707796,15
2708420,14
2709044,13
2709672,10
2710296,11
2710924,11
2711548,10
2712176,11
2712804,11
2713428,10
2714060,15
2714688,20
2715304,19
2715936,19
2716560,25
2717188,34
2717820,36
2718440,29
2719068,10
2719692,11
2720316,12
2720944,10
2721568,12
2722196,10
2722824,10
2723448,14
2724076,14
2724700,14
2725328,15
2725956,15
2726576,15
2727204,10
2727828,11
2728452,11
2729084,10
2729704,11
2730332,11
2730956,14
2731580,15
2732208,33
2732824,34
2733456,31
2734076,25
2734704,27
2735332,24
2735956,17
2736588,10
2737216,10
2737840,11
2738468,10
2739092,15
2739720,20
2740348,18
2740968,16
2741596,15
2742220,15
2742844,13
2743476,16
2744096,13
2744724,14
2745356,19
2745976,17
2746604,11
2747228,15
2747856,27
2748488,39
2749104,34
2749736,31
2750360,24
2750984,21
2751612,16
2752232,15
2752860,12
2753484,10
2754108,10
2754736,10
2755360,12
2755988,13
2756620,12
2757240,13
2757868,13
2758492,14
2759124,14
2759752,11
2760372,11
2761000,13
2761624,14
2762248,17
2762876,16
2763496,12
2764128,16
2764752,29
2765376,41
2766004,37
2766624,34
2767252,34
2767884,31
2768504,30
2769132,17
2769756,10
2770388,13
2771016,15
2771636,14
2772264,11
2772888,12
2773512,15
2774140,16
2774760,15
2775388,12
2776012,11
2776636,10
2777268,10
2777888,11
2778516,10
2779148,10
2779768,13
2780396,11
2781024,15
2781652,25
2782284,32
2782904,27
2783532,23
2784160,19
2784784,21
2785412,14
2786032,11
2786660,10
2787284,10
2787908,10
2788536,10
2789152,11
2789784,13
2790412,14
2791032,16
2791660,18
2792284,17
2792912,13
2793544,11
2794164,10
2794792,10
2795416,11
2796040,13
2796668,11
2797288,15
2797916,24
2798540,27
2799164,22
2799796,20
2800416,23
2801044,22
2801676,20
2802296,17
2802924,12
2803548,10
2804180,11
2804808,31
2805424,42
2806052,25
2806676,15
2807300,12
2807932,12
2808552,13
2809180,12
2809804,13
2810428,11
2811060,10
2811680,11
2812308,11
2812940,10
2813560,11
2814188,14
2814816,25
2815444,28
2816076,32
2816692,33
2817324,33
2817944,29
2818568,23
2819196,10
2819816,12
2820444,12
2821068,16
2821692,25
2822320,22
2822944,15
2823572,13
2824204,14
2824824,16
2825452,14
2826076,21
2826708,31
2827336,22
2827952,13
2828584,12
2829208,16
2829828,12
2830460,11
2831080,12
2831708,14
2832332,24
2832956,31
2833588,24
2834208,18
2834836,12
2835468,14
2836088,15
2836716,14
2837340,13
2837972,11
2838600,10
2839220,10
2839848,13
2840472,13
2841096,13
2841724,13
2842344,13
2842972,10
2843596,11
2844220,11
2844852,14
2845472,16
2846100,12
2846732,10
2847352,11
2847980,15
2848608,19
2849236,23
2849864,22
2850488,23
2851116,25
2851740,24
2852368,21
2852996,21
2853616,12
2854244,10
2854868,15
2855492,17
2856124,18
2856744,21
2857372,19
2858004,16
2858624,13
2859252,12
2859876,11
2860508,12
2861140,15
2861760,12
2862388,13
2863016,13
2863640,15
2864272,11
2864888,18
2865516,32
2866144,36
2866768,30
2867400,25
2868016,22
2868644,15
2869272,10
2869888,12
2870516,11
2871140,12
2871768,13
2872400,14
2873016,13
2873644,15
2874268,16
2874892,13
2875520,13
2876136,11
2876768,13
2877392,11
2878016,10
2878644,11
2879264,11
2879892,11
2880524,11
2881140,19
2881772,27
2882392,21
2883024,20
2883652,21
2884272,21
2884900,25
2885524,21
2886148,13
2886780,10
2887400,11
2888028,10
2888652,14
2889272,19
2889900,14
2890520,14
2891148,14
2891772,14
2892400,17
2893028,15
2893652,13
2894280,11
2894912,10
2895528,11
2896156,13
2896780,16
2897408,21
2898040,26
2898656,35
2899284,29
2899908,22
2900532,19
2901160,18
2901780,15
2902408,13
2903032,10
2903656,11
2904284,11
2904908,15
2905540,18
2906172,17
2906792,21
2907420,24
2908048,19
2908676,14
2909308,10
2909928,11
2910556,11
2911184,10
2911808,21
2912436,12
2913056,15
2913684,22
2914316,20
2914936,25
2915564,31
2916188,28
2916820,19
2917448,18
2918072,18
2918704,19
2919328,15
2919952,10
2920580,11
2921200,13
2921828,11
2922452,12
2923076,15
2923708,11
2924328,15
2924956,17
2925588,16
2926208,12
2926836,11
2927460,11
2928092,12
2928720,11
2929344,12
2929972,11
2930596,15
2931220,17
2931852,16
2932472,17
2933104,16
2933728,17
2934352,19
2934984,20
2935600,18
2936232,17
2936860,18
2937480,15
2938112,12
2938736,17
2939368,20
2939996,20
2940616,17
2941248,13
2941872,14
2942496,13
2943128,10
2943744,10
2944376,11
2945000,13
2945624,15
2946252,12
2946872,12
2947500,20
2948132,25
2948752,23
2949384,16
2950004,16
2950636,13
2951264,13
2951880,12
2952512,20
2953136,21
2953760,16
2954388,14
2955008,11
2955636,14
2956260,12
2956884,17
2957512,24
2958136,25
2958764,17
2959396,12
2960016,15
2960644,12
2961268,12
2961896,15
2962524,16
2963144,15
2963772,14
2964396,13
2965024,21
2965652,26
2966272,23
2966900,26
2967528,25
2968152,28
2968780,21
2969400,12
2970032,15
2970660,22
2971280,16
2971908,11
2972532,12
2973160,13
2973792,19
2974408,26
2975040,20
2975664,24
2976288,18
2976916,10
2977536,11
2978164,14
2978788,11
2979412,11
2980044,12
2980664,12
2981292,26
2981924,36
2982544,42
2983172,35
2983796,30
2984428,32
2985056,25
2985672,15
2986304,11
2986928,11
2987552,11
2988180,11
2988800,11
2989428,12
2990052,26
2990680,32
2991308,26
2991928,20
2992560,18
2993188,20
2993808,19
2994436,13
2995060,11
2995692,15
2996324,12
2996944,19
2997572,31
2998200,31
2998824,30
2999452,28
3000072,15
3000700,13
3001328,16
3001952,24
3002580,23
3003204,19
3003836,12
3004468,10
3005088,14
3005720,12
3006344,17
3006972,19
3007604,17
3008224,21
3008852,15
3009476,11
3010100,11
3010732,14
3011352,15
3011980,13
3012608,11
3013232,11
3013860,11
3014488,15
3015116,14
3015748,14
3016368,17
3016996,15
3017624,13
3018248,27
3018876,30
3019496,22
3020128,17
3020752,15
3021376,10
3022008,11
3022628,17
3023256,21
3023888,21
3024504,19
3025136,17
3025760,13
3026392,12
3027020,11
3027640,11
3028272,13
3028896,20
3029520,17
3030152,11
3030772,11
3031400,18
3032024,26
3032648,32
3033280,28
3033900,36
3034528,38
3035160,26
3035776,19
3036408,11
3037032,11
3037660,10
3038292,12
3038912,22
3039544,21
3040168,15
3040792,13
3041420,14
3042040,19
3042668,17
3043292,11
3043916,11
3044548,12
3045168,17
3045796,15
3046428,12
3047048,14
3047676,16
3048300,24
3048932,23
3049564,28
3050184,33
3050816,33
3051440,29
3052064,21
3052692,13
3053312,11
3053944,17
3054568,26
3055192,21
3055824,16
3056444,21
3057072,20
3057704,25
3058324,17
3058952,12
3059580,12
3060212,12
3060840,12
3061464,18
3062096,17
3062720,13
3063344,15
3063976,15
3064592,18
3065224,23
3065848,27
3066472,29
3067104,29
3067728,27
3068360,21
3068992,10
3069608,12
3070240,11
3070864,10
3071496,11
3072128,12
3072744,16
3073372,21
3073996,25
3074620,24
3075248,20
3075864,14
3076496,11
3077116,12
3077744,15
3078372,15
3078996,17
3079628,16
3080256,16
3080880,13
3081508,15
3082132,21
3082760,23
3083388,26
3084008,36
3084636,27
3085260,14
3085884,13
3086516,10
3087136,11
3087764,12
3088396,22
3089016,16
3089644,13
3090268,12
3090900,17
3091528,22
3092152,19
3092784,12
3093408,11
3094032,10
3094660,10
3095280,11
3095908,11
3096536,11
3097160,14
3097788,19
3098408,24
3099036,23
3099668,24
3100288,27
3100916,20
3101540,14
3102172,13
3102804,16
3103424,11
3104056,14
3104676,23
3105300,25
3105932,12
3106552,13
3107184,13
3107808,14
3108432,15
3109064,15
3109680,15
3110312,15
3110944,13
3111560,11
3112192,11
3112816,12
3113448,11
3114076,10
3114696,14
3115328,19
3115952,24
3116576,29
3117208,31
3117824,32
3118456,31
3119080,23
3119704,13
3120332,10
3120952,11
3121580,11
3122212,10
3122832,14
3123464,15
3124084,17
3124716,24
3125344,25
3125968,22
3126596,18
3127220,10
3127844,12
3128476,10
3129096,11
3129724,11
3130348,13
3130972,21
3131604,24
3132228,24
3132860,22
3133488,23
3134112,22
3134740,21
3135368,17
3135996,11
3136628,10
3137248,11
3137876,12
3138504,13
3139128,15
3139756,14
3140376,15
3141004,16
3141632,14
3142256,15
3142888,13
3143512,14
3144144,15
3144772,15
3145392,13
3146024,11
3146648,15
3147272,23
3147900,29
3148520,26
3149152,29
3149776,28
3150400,22
3151028,18
3151648,16
3152280,15
3152908,10
3153528,12
3154160,18
3154784,26
3155412,16
3156044,11
3156664,13
3157292,13
3157920,16
3158544,20
3159172,18
3159792,22
3160424,20
3161048,19
3161672,21
3162300,12
3162920,11
3163548,11
3164180,12
3164800,14
3165428,13
3166056,20
3166684,22
3167316,22
3167936,23
3168568,17
3169196,11
3169820,14
3170452,15
3171072,18
3171704,22
3172328,16
3172952,14
3173584,19
3174204,23
3174836,26
3175464,18
3176088,11
3176716,16
3177344,19
3177972,17
3178604,11
3179224,15
3179856,13
3180480,16
3181104,25
3181736,23
3182352,22
3182984,20
3183612,22
3184240,22
3184872,18
3185496,15
3186128,11
3186756,10
3187376,11
3188004,16
3188632,17
3189256,16
3189888,16
3190504,14
3191136,15
3191760,13
3192388,12
3193020,10
3193640,10
3194272,11
3194904,9
3195468,10
3196104,10
3196720,13
3197352,18
3197984,25
3198608,27
3199240,28
3199864,26
3200496,26
3201128,22
3201744,21
3202372,15
3202996,11
3203620,10
3204248,14
3204864,15
3205492,16
3206116,17
3206740,18
3207368,18
3207984,20
3208612,29
3209244,28
3209864,13
3210492,9
3211064,11
3211692,11
3212324,10
3212944,13
3213572,25
3214196,37
3214828,44
3215456,37
3216076,31
3216704,29
3217324,22
3217948,11
3218580,14
3219200,11
3219828,19
3220452,24
3221076,15
3221708,10
3222328,21
3222956,24
3223588,22
3224208,16
3224836,13
3225460,13
3226092,10
3226720,14
3227344,17
3227972,14
3228596,13
3229220,15
3229852,18
3230472,25
3231100,42
3231728,51
3232352,45
3232980,39
3233604,37
3234232,23
3234864,10
3235480,18
3236112,26
3236736,25
3237364,21
3237996,18
3238616,11
3239244,9
3239816,19
3240444,25
3241076,14
3241696,15
3242324,17
3242948,10
3243572,11
3244200,12
3244824,9
3245400,10
3246024,13
3246648,11
3247276,16
3247896,25
3248528,31
3249152,26
3249776,22
3250404,20
3251032,23
3251660,24
3252292,20
3252912,13
3253540,12
3254168,11
3254792,12
3255420,14
3256040,15
3256668,17
3257292,18
3257916,17
3258548,12
3259168,11
3259800,13
3260428,14
3261048,12
3261680,10
3262304,11
3262932,11
3263564,11
3264184,16
3264812,25
3265436,28
3266060,24
3266692,19
3267312,20
3267940,20
3268568,17
3269192,14
3269820,11
3270440,11
3271068,11
3271700,18
3272320,20
3272948,18
3273576,21
3274208,25
3274836,18
3275456,13
3276088,11
3276712,12
3277336,10
3277964,10
3278584,10
3279212,11
3279832,13
3280456,15
3281084,14
3281700,19
3282332,23
3282960,25
3283576,24
3284204,24
3284824,22
3285452,20
3286080,13
3286696,11
3287324,9
3287896,10
3288524,14
3289152,14
3289768,14
3290396,14
3291020,15
3291648,16
3292280,16
3292896,17
3293524,14
3294144,10
3294768,11
3295396,14
3296016,13
3296644,11
3297264,15
3297888,24
3298516,29
3299140,29
3299768,26
3300396,28
3301016,26
3301644,25
3302268,21
3302896,12
3303524,10
3304144,11
3304772,11
3305396,11
3306020,15
3306648,12
3307264,15
3307892,18
3308516,16
3309140,10
3309768,15
3310384,26
3311016,31
3311644,23
3312264,23
3312892,21
3313516,13
3314148,12
3314776,13
3315396,16
3316024,26
3316648,27
3317268,29
3317900,31
3318520,33
3319148,30
3319772,19
3320396,15
3321024,12
3321644,13
3322272,18
3322900,14
3323520,18
3324148,17
3324772,15
3325404,13
3326032,11
3326652,11
3327280,10
3327904,11
3328532,15
3329160,13
3329776,11
3330404,13
3331024,21
3331648,29
3332276,36
3332896,28
3333524,22
3334152,25
3334772,22
3335400,19
3336024,15
3336652,13
3337280,10
3337896,11
3338524,13
3339148,14
3339776,17
3340408,18
3341024,18
3341652,13
3342276,11
3342900,10
3343528,13
3344144,11
3344776,13
3345396,23
3346020,20
3346648,11
3347272,20
3347900,31
3348532,22
3349152,13
3349780,13
3350404,24
3351032,27
3351664,32
3352280,25
3352908,19
3353532,12
3354160,11
3354788,14
3355408,13
3356036,12
3356660,13
3357284,13
3357916,18
3358540,21
3359168,25
3359800,18
3360416,10
3361044,13
3361668,11
3362296,13
3362924,15
3363544,11
3364172,11
3364792,12
3365416,13
3366048,23
3366664,36
3367292,45
3367916,43
3368540,33
3369168,21
3369784,14
3370416,10
3371044,10
3371664,11
3372292,11
3372916,16
3373544,18
3374176,15
3374792,13
3375420,12
3376044,9
3376616,9
3377192,10
3377820,10
3378448,13
3379072,13
3379700,11
3380332,10
3380952,15
3381580,26
3382204,29
3382828,20
3383456,15
3384072,21
3384704,14
3385324,14
3385948,15
3386576,16
3387200,13
3387828,10
3388456,10
3389080,11
3389708,15
3390332,14
3390964,17
3391592,18
3392212,13
3392840,15
3393464,13
3394084,10
3394716,11
3395336,11
3395964,11
3396588,11
3397212,11
3397840,14
3398464,18
3399092,21
3399724,20
3400344,19
3400972,16
3401596,15
3402224,12
3402852,10
3403472,13
3404100,15
3404724,12
3405348,10
3405980,14
3406600,17
3407228,15
3407852,15
3408476,13
3409104,10
3409728,15
3410356,13
3410988,11
3411608,12
3412236,13
3412860,19
3413488,13
3414120,11
3414736,19
3415368,29
3415992,35
3416616,36
3417244,34
3417864,27
3418492,25
3419116,13
3419740,12
3420372,17
3420996,12
3421624,11
3422256,10
3422872,11
3423504,16
3424128,18
3424756,16
3425388,14
3426008,14
3426636,12
3427260,12
3427884,17
3428516,18
3429136,14
3429764,13
3430392,27
3431016,37
3431644,36
3432268,34
3432900,31
3433532,23
3434152,21
3434784,17
3435408,15
3436036,14
3436668,11
3437288,15
3437916,26
3438544,28
3439168,27
3439796,18
3440416,15
3441048,14
3441676,18
3442296,19
3442924,16
3443548,12
3444176,12
3444804,18
3445424,12
3446052,17
3446676,25
3447300,33
3447932,36
3448552,35
3449180,32
3449804,31
3450428,19
3451056,10
3451680,11
3452308,10
3452940,10
3453560,11
3454188,14
3454812,11
3455444,11
3456076,12
3456696,12
3457324,13
3457948,12
3458568,12
3459200,11
3459816,15
3460444,17
3461068,25
3461692,22
3462324,12
3462944,12
3463572,11
3464204,14
3464824,19
3465452,18
3466076,21
3466704,17
3467336,12
3467952,13
3468584,15
3469208,11
3469832,11
3470460,11
3471080,11
3471708,12
3472332,12
3472956,13
3473588,12
3474208,15
3474836,14
3475468,10
3476088,15
3476716,13
3477340,11
3477972,11
3478604,10
3479224,11
3479852,16
3480480,25
3481104,29
3481732,27
3482352,29
3482980,19
3483604,13
3484228,18
3484856,21
3485472,19
3486100,16
3486732,10
3487352,10
3487980,12
3488604,20
3489236,31
3489864,29
3490488,16
3491116,13
3491740,15
3492364,15
3492996,12
3493616,10
3494244,16
3494868,23
3495492,25
3496124,18
3496744,18
3497372,42
3498004,46
3498624,33
3499252,32
3499876,33
3500508,23
3501136,16
3501760,11
3502388,10
3503016,11
3503640,13
3504268,12
3504888,13
3505516,11
3506144,12
3506768,14
3507396,13
3508016,13
3508644,15
3509276,18
3509896,20
3510524,18
3511152,16
3511780,13
3512412,11
3513032,16
3513664,22
3514284,33
3514912,31
3515540,25
3516160,17
3516788,15
3517416,19
3518040,18
3518672,16
3519288,12
3519920,12
3520552,16
3521176,16
3521804,11
3522428,9
3523008,12
3523636,13
3524256,15
3524884,16
3525508,16
3526136,11
3526768,11
3527384,11
3528012,13
3528636,19
3529260,19
3529888,16
3530512,11
3531140,17
3531764,20
3532392,18
3533020,28
3533644,37
3534272,29
3534904,23
3535520,26
3536152,21
3536776,13
3537404,10
3538036,10
3538656,13
3539284,13
3539908,12
3540532,13
3541164,12
3541784,12
3542412,14
3543036,13
3543664,18
3544292,32
3544916,17
3545548,13
3546180,18
3546800,26
3547428,24
3548052,24
3548680,21
3549308,16
3549928,15
3550556,14
3551184,13
3551808,14
3552440,18
3553056,17
3553688,13
3554316,10
3554936,11
3555564,14
3556192,14
3556820,13
3557452,14
3558072,25
3558704,33
3559328,40
3559952,30
3560584,14
3561200,11
3561828,10
3562452,12
3563080,19
3563708,26
3564328,29
3564956,25
3565588,26
3566208,29
3566836,29
3567460,20
3568092,10
3568724,10
3569344,15
3569972,13
3570600,11
3571224,15
3571852,14
3572472,13
3573104,13
3573728,15
3574352,21
3574984,17
3575600,11
3576232,11
3576864,10
3577480,11
3578112,15
3578736,11
3579368,16
3579996,15
3580616,24
3581248,39
3581876,34
3582500,26
3583132,19
3583752,14
3584388,11
3585008,14
3585632,14
3586260,11
3586884,11
3587512,11
3588140,11
3588760,11
3589388,12
3590012,13
3590644,14
3591272,12
3591896,15
3592524,13
3593148,12
3593772,13
3594404,11
3595024,18
3595652,17
3596280,12
3596904,11
3597532,24
3598156,35
3598788,31
3599416,21
3600040,18
3600668,15
3601292,11
3601920,11
3602552,10
3603168,11
3603800,11
3604424,11
3605048,11
3605676,10
3606296,14
3606924,17
3607548,14
3608176,14
3608804,11
3609428,10
3610056,13
3610688,13
3611304,13
3611932,11
3612556,14
3613188,13
3613816,25
3614436,31
3615064,35
3615688,33
3616312,37
3616940,29
3617560,18
3618188,14
3618812,10
3619440,13
3620068,18
3620692,16
3621320,11
3621952,10
3622568,13
3623200,13
3623824,13
3624452,13
3625084,12
3625704,11
3626332,15
3626956,15
3627580,13
3628208,10
3628832,11
3629460,12
3630092,14
3630712,20
3631340,18
3631968,20
3632596,25
3633228,32
3633848,33
3634480,27
3635104,16
3635728,11
3636356,12
3636976,12
3637604,10
3638228,11
3638852,14
3639484,18
3640104,24
3640732,24
3641364,14
3641984,13
3642612,11
3643236,11
3643868,14
3644496,16
3645120,12
3645748,12
3646372,19
3646996,23
3647628,27
3648248,29
3648876,27
3649500,25
3650124,19
3650752,12
3651376,13
3652004,15
3652636,10
3653256,11
3653884,11
3654508,11
3655140,11
3655772,14
3656392,13
3657020,15
3657644,16
3658268,19
3658900,27
3659520,32
3660148,23
3660776,11
3661400,15
3662028,17
3662648,13
3663276,19
3663908,24
3664528,35
3665156,36
3665784,31
3666412,19
3667044,10
3667664,18
3668292,23
3668916,19
3669540,12
3670172,12
3670792,11
3671424,13
3672048,14
3672672,15
3673304,17
3673928,17
3674556,14
3675188,12
3675808,10
3676440,11
3677064,11
3677696,12
3678324,14
3678944,12
3679576,11
3680200,17
3680824,23
3681452,20
3682072,19
3682700,17
3683328,19
3683952,18
3684584,21
3685208,22
3685836,13
3686468,10
3687084,10
3687716,11
3688336,22
3688964,29
3689592,15
3690212,13
3690840,15
3691464,16
3692088,13
3692716,10
3693336,11
3693964,11
3694588,11
3695216,13
3695844,11
3696468,14
3697100,19
3697728,31
3698348,35
3698976,36
3699600,31
3700228,25
3700856,18
3701480,15
3702108,13
3702732,14
3703356,13
3703988,10
3704608,19
3705236,21
3705868,16
3706488,16
3707116,18
3707744,23
3708372,22
3709004,20
3709624,16
3710252,10
3710876,12
3711504,11
3712136,12
3712752,15
3713380,14
3714004,12
3714628,15
3715256,22
3715880,33
3716508,33
3717140,20
3717760,16
3718388,11
3719012,11
3719644,12
3720276,10
3720896,15
3721524,13
3722148,11
3722776,13
3723404,12
3724024,13
3724652,13
3725280,16
3725900,13
3726532,11
3727152,11
3727784,11
3728412,12
3729032,12
3729660,21
3730284,26
3730916,27
3731544,26
3732168,21
3732796,17
3733424,17
3734048,13
3734676,10
3735296,11
3735928,11
3736552,12
3737176,16
3737808,13
3738424,15
3739052,14
3739684,13
3740304,15
3740932,16
3741560,13
3742188,12
3742820,15
3743440,20
3744068,19
3744692,16
3745316,20
3745948,18
3746568,12
3747196,15
3747824,22
3748448,24
3749076,27
3749704,27
3750332,26
3750964,26
3751584,23
3752216,21
3752840,19
3753468,12
3754100,14
3754720,27
3755352,29
3755976,29
3756600,21
3757232,15
3757848,13
3758480,14
3759108,17
3759728,18
3760360,18
3760984,14
3761612,10
3762244,16
3762864,26
3763496,16
3764120,18
3764744,30
3765376,33
3765992,32
3766624,27
3767248,24
3767872,17
3768504,11
3769120,11
3769748,10
3770380,9
3770948,9
3771528,11
3772156,10
3772788,12
3773412,11
3774036,13
3774668,13
3775288,14
3775920,13
3776548,12
3777168,11
3777796,11
3778424,12
3779052,15
3779684,10
3780304,18
3780936,23
3781560,27
3782184,25
3782816,20
3783432,15
3784064,11
3784688,10
3785312,14
3785940,14
3786568,12
3787196,13
3787828,10
3788448,11
3789080,13
3789704,15
3790332,13
3790964,13
3791584,13
3792216,14
3792836,17
3793460,15
3794092,10
3794712,12
3795344,14
3795972,15
3796592,13
3797220,12
3797848,14
3798476,16
3799108,16
3799728,15
3800360,21
3800984,32
3801608,32
3802236,22
3802856,11
3803488,13
3804112,11
3804736,12
3805368,12
3805984,19
3806616,20
3807248,16
3807868,18
3808496,13
3809120,11
3809752,11
3810380,11
3811000,10
3811632,11
3812256,11
3812880,20
3813508,24
3814128,25
3814760,22
3815384,21
3816008,22
3816636,27
3817256,30
3817888,20
3818516,14
3819136,11
3819768,12
3820392,11
3821024,13
3821652,12
3822272,14
3822904,17
3823528,20
3824152,25
3824784,17
3825400,10
3826032,10
3826656,11
3827280,16
3827908,18
3828528,11
3829160,12
3829792,19
3830408,29
3831036,33
3831664,33
3832296,33
3832928,30
3833548,23
3834180,22
3834804,22
3835428,18
3836060,10
3836680,20
3837312,25
3837940,23
3838564,18
3839196,22
3839824,21
3840456,15
3841084,14
3841704,19
3842332,20
3842956,13
3843584,10
3844216,12
3844832,10
3845460,12
3846084,17
3846708,17
3847336,22
3847960,27
3848588,21
3849212,14
3849840,13
3850468,12
3851092,13
3851724,17
3852352,17
3852972,17
3853600,12
3854224,11
3854852,13
3855484,12
3856104,14
3856732,13
3857356,15
3857980,17
3858612,16
3859232,19
3859860,12
3860492,10
3861112,11
3861740,11
3862368,14
3862996,13
3863628,16
3864248,32
3864876,29
3865500,19
3866128,25
3866756,31
3867376,28
3868004,31
3868628,19
3869252,11
3869884,14
3870504,18
3871136,15
3871764,12
3872384,13
3873012,12
3873636,12
3874268,13
3874896,16
3875520,18
3876148,15
3876776,14
3877400,15
3878032,14
3878648,10
3879280,12
3879904,13
3880528,19
3881156,28
3881776,38
3882404,42
3883036,35
3883656,30
3884288,25
3884912,24
3885540,18
3886172,10
3886792,17
3887424,34
3888048,33
3888672,18
3889300,12
3889920,16
3890552,19
3891176,17
3891800,17
3892432,23
3893048,22
3893680,21
3894308,16
3894928,17
3895556,14
3896184,12
3896812,20
3897444,34
3898064,40
3898692,37
3899320,37
3899944,33
3900572,23
3901192,18
3901824,19
3902448,16
3903072,11
3903704,9
3904276,12
3904908,14
3905532,14
3906160,13
3906788,13
3907416,13
3908044,14
3908676,14
3909296,13
3909924,12
3910552,10
3911176,11
3911808,12
3912424,12
3913056,11
3913680,13
3914304,24
3914936,17
3915552,15
3916184,21
3916812,27
3917432,28
3918064,16
3918688,11
3919316,13
3919948,10
3920568,14
3921200,18
3921824,23
3922448,20
3923076,13
3923696,23
3924324,22
3924952,17
3925576,11
3926208,10
3926824,11
3927456,11
3928088,12
3928704,11
3929336,14
3929960,13
3930588,15
3931220,22
3931840,28
3932472,29
3933096,25
3933720,27
3934348,20
3934968,11
3935596,10
3936224,10
3936844,11
3937476,10
3938096,11
3938724,11
3939356,12
3939976,13
3940604,13
3941228,14
3941860,14
3942492,18
3943112,20
3943740,14
3944364,12
3944988,12
3945616,14
3946236,15
3946864,14
3947488,24
3948112,27
3948740,29
3949360,32
3949988,26
3950620,20
3951240,13
3951872,10
3952496,10
3953124,11
3953756,10
3954376,11
3955008,19
3955632,23
3956256,20
3956884,18
3957504,14
3958136,13
3958760,12
3959384,13
3960012,12
3960632,11
3961264,17
3961892,14
3962512,13
3963144,13
3963768,13
3964396,17
3965028,23
3965648,29
3966276,34
3966904,32
3967528,25
3968160,16
3968776,13
3969404,10
3970028,10
3970652,10
3971284,13
3971904,16
3972536,17
3973164,18
3973784,18
3974412,16
3975036,19
3975668,18
3976296,20
3976920,20
3977548,17
3978176,14
3978800,16
3979428,11
3980048,19
3980676,29
3981304,34
3981928,30
3982556,29
3983184,31
3983816,33
3984444,31
3985064,26
3985692,13
3986320,10
3986948,10
3987580,10
3988200,11
3988828,13
3989456,12
3990080,13
3990708,13
3991328,15
3991960,13
3992592,11
3993212,10
3993844,11
3994468,13
3995096,14
3995728,10
3996344,11
3996972,14
3997600,16
3998224,17
3998852,18
3999472,20
4000104,28
4000724,35
4001348,32
4001976,18
4002600,11
4003228,19
4003856,18
4004480,13
4005108,11
4005732,26
4006360,29
4006992,21
4007608,17
4008240,15
4008864,13
4009488,10
4010116,10
4010736,11
4011364,11
4011992,11
4012616,13
4013248,21
4013864,34
4014496,37
4015124,28
4015744,21
4016372,21
4016996,17
4017628,15
4018256,11
4018872,10
4019504,10
4020128,10
4020752,11
4021380,10
4022000,11
4022628,12
4023252,13
4023876,13
4024508,12
4025128,15
4025756,18
4026388,14
4027008,11
4027636,13
4028260,29
4028892,34
4029520,16
4030144,17
4030776,32
4031400,35
4032024,19
4032652,12
4033272,13
4033900,12
4034524,16
4035152,18
4035780,16
4036400,14
4037028,10
4037660,9
4038228,10
4038864,12
4039480,13
4040108,13
4040740,12
4041360,14
4041988,15
4042612,14
4043244,13
4043876,14
4044496,12
4045124,12
4045748,11
4046372,16
4047004,28
4047624,35
4048252,34
4048876,28
4049500,24
4050132,19
4050756,20
4051388,14
4052016,10
4052636,10
4053264,11
4053888,10
4054520,11
4055148,11
4055768,15
4056396,15
4057020,17
4057648,17
4058276,14
4058896,12
4059524,10
4060148,11
4060776,13
4061404,15
4062028,14
4062660,13
4063292,10
4063912,25
4064544,32
4065168,30
4065800,26
4066428,26
4067048,35
4067680,32
4068304,26
4068928,13
4069556,10
4070176,12
4070808,17
4071436,17
4072056,13
4072684,12
4073308,13
4073940,14
4074572,14
4075192,12
4075824,11
4076448,15
4077072,23
4077704,29
4078320,18
4078952,13
4079576,11
4080200,18
4080828,27
4081448,33
4082076,33
4082708,28
4083328,25
4083956,30
4084584,24
4085212,13
4085844,10
4086464,11
4087092,10
4087720,16
4088344,19
4088972,13
4089592,13
4090224,13
4090848,13
4091472,13
4092104,10
4092720,10
4093352,10
4093984,11
4094608,10
4095240,11
4095864,11
4096500,13
4097124,16
4097740,15
4098368,14
4098992,16
4099612,21
4100240,23
4100860,23
4101488,19
4102112,15
4102736,11
4103364,20
4103984,19
4104612,15
4105240,11
4105856,12
4106484,13
4107108,13
4107736,14
4108368,11
4108984,11
4109612,17
4110232,16
4110856,10
4111488,12
4112104,15
4112732,11
4113356,15
4113976,29
4114608,33
4115224,35
4115852,33
4116476,27
4117104,21
4117732,17
4118356,17
4118988,10
4119616,10
4120232,10
4120864,12
4121484,11
4122116,12
4122744,17
4123368,16
4123996,14
4124620,20
4125244,17
4125872,16
4126488,15
4127120,16
4127740,12
4128368,11
4128996,11
4129620,19
4130248,22
4130876,22
4131496,18
4132124,16
4132748,22
4133380,19
4134008,17
4134624,19
4135256,18
4135880,15
4136504,11
4137132,20
4137752,27
4138380,21
4139004,12
4139632,14
4140260,13
4140884,13
4141512,14
4142140,10
4142760,11
4143388,12
4144012,11
4144640,12
4145268,12
4145888,12
4146516,11
4147140,16
4147768,23
4148396,20
4149016,22
4149644,23
4150268,23
4150896,26
4151524,20
4152148,13
4152780,12
4153408,10
4154032,11
4154660,17
4155284,22
4155908,21
4156540,20
4157160,17
4157788,17
4158412,15
4159036,14
4159668,10
4160288,11
4160916,13
4161544,11
4162160,11
4162792,13
4163412,21
4164044,31
4164672,28
4165288,21
4165916,17
4166540,23
4167168,31
4167800,30
4168416,21
4169044,11
4169668,11
4170288,16
4170920,22
4171536,17
4172164,16
4172788,20
4173412,20
4174044,17
4174664,15
4175296,16
4175924,16
4176544,12
4177172,10
4177796,10
4178428,11
4179056,11
4179672,14
4180300,21
4180924,26
4181548,31
4182176,31
4182792,34
4183424,29
4184048,14
4184668,11
4185300,15
4185924,11
4186552,10
4187180,10
4187800,15
4188428,19
4189052,26
4189684,17
4190312,12
4190928,18
4191560,15
4192184,12
4192808,13
4193436,18
4194056,16
4194684,9
4195256,11
4195888,12
4196516,21
4197136,18
4197764,16
4198388,25
4199016,38
4199644,49
4200268,51
4200896,31
4201524,13
4202144,11
4202772,16
4203396,17
4204024,22
4204656,17
4205272,15
4205900,16
4206524,18
4207148,19
4207780,12
4208400,11
4209028,11
4209652,11
4210276,14
4210904,14
4211528,13
4212156,10
4212788,11
4213408,17
4214036,26
4214660,31
4215292,32
4215920,34
4216544,27
4217172,18
4217796,18
4218420,13
4219052,12
4219672,19
4220300,18
4220924,12
4221552,11
4222180,14
4222804,14
4223436,13
4224068,15
4224684,14
4225316,10
4225936,12
4226564,12
4227192,10
4227816,12
4228444,11
4229068,12
4229692,13
4230324,26
4230944,28
4231572,21
4232204,18
4232824,19
4233452,16
4234076,12
4234708,10
4235336,11
4235960,17
4236588,14
4237216,11
4237836,11
4238468,10
4239088,13
4239720,13
4240340,14
4240964,16
4241592,11
4242216,17
4242844,14
4243476,10
4244096,15
4244724,13
4245348,11
4245980,15
4246608,26
4247228,41
4247856,51
4248480,31
4249104,21
4249732,21
4250352,22
4250980,15
4251604,12
4252228,10
4252856,12
4253480,12
4254108,10
4254740,10
4255360,12
4255988,15
4256616,14
4257244,15
4257876,15
4258496,21
4259124,16
4259752,20
4260376,21
4261004,22
4261624,19
4262252,13
4262876,11
4263500,14
4264128,22
4264752,26
4265380,25
4266008,23
4266632,23
4267260,22
4267884,22
4268516,17
4269144,14
4269760,11
4270392,11
4271016,15
4271640,16
4272268,14
4272888,15
4273516,15
4274140,14
4274764,13
4275396,9
4275964,11
4276596,11
4277220,10
4277844,9
4278424,11
4279048,11
4279676,11
4280300,19
4280924,37
4281556,31
4282180,24
4282808,23
4283440,23
4284056,23
4284684,21
4285308,11
4285940,14
4286572,16
4287192,17
4287824,15
4288448,11
4289072,13
4289700,11
4290320,13
4290948,17
4291572,25
4292196,29
4292828,28
4293452,25
4294080,13
4294708,13
4295328,12
4295960,15
4296584,24
4297212,32
4297844,34
4298464,33
4299092,27
4299720,24
4300344,19
4300972,18
4301592,17
4302220,12
4302844,12
4303472,15
4304100,12
4304724,12
4305352,17
4305984,19
4306600,18
4307228,15
4307852,13
4308480,10
4309112,11
4309728,10
4310360,11
4310984,11
4311608,11
4312236,13
4312856,15
4313484,21
4314112,28
4314736,27
4315364,19
4315988,15
4316620,17
4317252,16
4317872,11
4318504,11
4319128,12
4319752,11
4320384,15
4321000,15
4321628,13
4322252,12
4322876,13
4323504,14
4324128,16
4324756,18
4325388,22
4326008,22
4326636,17
4327260,12
4327892,14
4328520,25
4329136,25
4329768,24
4330392,27
4331016,35
4331648,41
4332264,47
4332892,46
4333516,34
4334140,31
4334772,20
4335392,13
4336024,13
4336652,22
4337272,21
4337900,28
4338528,40
4339156,49
4339788,44
4340408,26
4341036,14
4341664,20
4342288,22
4342916,11
4343536,16
4344164,12
4344788,13
4345412,13
4346044,11
4346664,19
4347292,22
4347924,23
4348544,19
4349172,23
4349800,28
4350428,26
4351060,25
4351680,24
4352312,15
4352936,10
4353556,13
4354188,14
4354808,13
4355436,13
4356060,13
4356684,14
4357312,17
4357936,17
4358564,14
4359196,13
4359816,14
4360444,17
4361068,18
4361700,11
4362328,14
4362944,23
4363576,27
4364200,24
4364824,22
4365452,28
4366072,29
4366700,27
4367324,23
4367952,16
4368580,12
4369200,12
4369828,11
4370460,16
4371080,18
4371712,17
4372336,20
4372964,19
4373596,13
4374216,13
4374848,12
4375472,15
4376096,12
4376724,10
4377344,11
4377976,11
4378600,10
4379224,12
4379852,18
4380472,19
4381104,21
4381732,26
4382352,31
4382984,29
4383608,32
4384236,28
4384868,18
4385488,18
4386116,22
4386740,20
4387364,11
4387996,12
4388616,20
4389244,28
4389868,37
4390496,41
4391124,32
4391748,25
4392380,16
4393008,10
4393632,12
4394260,13
4394884,19
4395516,11
4396148,14
4396768,26
4397400,32
4398024,30
4398648,27
4399280,26
4399896,24
4400528,24
4401156,16
4401776,14
4402408,10
4403032,13
4403664,16
4404292,10
4404912,11
4405540,11
4406164,13
4406788,14
4407420,16
4408040,14
4408668,11
4409292,11
4409916,12
4410548,14
4411168,12
4411800,13
4412428,18
4413048,21
4413676,25
4414304,25
4414932,21
4415564,23
4416184,23
4416812,20
4417436,17
4418060,14
4418692,10
4419312,13
4419940,13
4420568,15
4421192,13
4421820,16
4422440,17
4423068,13
4423700,12
4424320,13
4424948,10
4425572,11
4426204,14
4426832,13
4427452,12
4428080,15
4428704,15
4429328,11
4429956,17
4430576,28
4431204,31
4431828,34
4432456,30
4433084,28
4433704,28
4434332,25
4434964,21
4435584,12
4436212,14
4436836,16
4437468,17
4438100,14
4438720,17
4439348,19
4439976,17
4440600,21
4441228,24
4441848,28
4442476,16
4443100,11
4443728,11
4444356,10
4444976,13
4445604,11
4446236,14
4446856,19
4447484,23
4448112,27
4448740,31
4449372,33
4449992,39
4450620,29
4451248,17
4451872,12
4452500,11
4453120,13
4453748,10
4454376,26
4455000,46
4455632,44
4456252,18
4456880,13
4457508,14
4458128,14
4458756,12
4459384,13
4460012,11
4460644,16
4461264,19
4461896,19
4462520,18
4463144,18
4463776,15
4464396,16
4465024,22
4465648,23
4466276,22
4466904,15
4467528,14
4468156,16
4468788,10
4469408,12
4470040,13
4470664,13
4471292,15
4471924,14
4472544,15
4473176,13
4473800,13
4474424,13
4475056,9
4475620,10
4476256,10
4476880,12
4477504,12
4478136,11
4478752,10
4479384,11
4480016,21
4480636,28
4481268,31
4481892,31
4482520,29
4483152,26
4483768,24
4484400,15
4485024,11
4485648,11
4486276,10
4486896,10
4487524,11
4488148,11
4488772,14
4489404,16
4490024,24
4490652,22
4491284,20
4491904,16
4492536,11
4493160,10
4493788,10
4494420,10
4495040,13
4495668,11
4496296,11
4496920,21
4497548,30
4498168,34
4498796,31
4499424,28
4500048,30
4500676,33
4501296,27
4501924,20
4502556,12
4503176,10
4503808,12
4504432,16
4505064,17
4505692,15
4506312,21
4506940,28
4507564,23
4508188,19
4508816,15
4509432,17
4510060,10
4510688,13
4511312,11
4511940,11
4512560,19
4513188,19
4513820,24
4514440,29
4515068,29
4515692,27
4516324,29
4516952,31
4517576,21
4518204,9
4518780,10
4519412,14
4520044,16
4520664,12
4521292,11
4521916,19
4522540,22
4523172,16
4523792,17
4524420,20
4525048,17
4525672,15
4526300,10
4526924,10
4527556,10
4528184,11
4528804,11
4529432,14
4530056,19
4530684,24
4531316,25
4531936,26
4532564,21
4533188,24
4533812,19
4534444,11
4535064,10
4535692,17
4536320,14
4536944,12
4537572,10
4538200,11
4538828,13
4539460,12
4540080,14
4540712,13
4541336,12
4541960,13
4542592,14
4543208,16
4543840,19
4544464,15
4545088,11
4545716,10
4546336,14
4546968,21
4547596,22
4548216,31
4548844,35
4549468,34
4550100,32
4550732,23
4551352,13
4551984,10
4552608,13
4553232,19
4553864,22
4554480,26
4555108,19
4555736,20
4556360,16
4556992,13
4557608,14
4558236,14
4558868,14
4559488,11
4560116,12
4560740,11
4561372,11
4562004,10
4562624,12
4563252,18
4563876,25
4564500,25
4565132,23
4565752,24
4566384,25
4567008,26
4567632,20
4568264,16
4568880,13
4569508,9
4570084,10
4570712,15
4571344,14
4571960,23
4572592,23
4573224,17
4573840,12
4574472,13
4575096,11
4575728,12
4576360,12
4576976,11
4577608,10
4578228,11
4578856,16
4579484,11
4580104,13
4580736,16
4581360,19
4581984,33
4582616,34
4583240,29
4583872,29
4584500,26
4585120,18
4585752,12
4586376,11
4587008,9
4587588,10
4588212,11
4588840,13
4589464,13
4590088,13
4590716,12
4591336,16
4591968,25
4592592,27
4593216,15
4593844,12
4594464,18
4595096,20
4595724,20
4596344,22
4596972,28
4597600,29
4598228,19
4598860,18
4599480,17
4600112,16
4600736,12
4601360,11
4601988,10
4602608,11
4603236,10
4603864,11
4604488,10
4605116,15
4605736,19
4606368,23
4606996,18
4607616,21
4608248,23
4608872,29
4609500,20
4610128,11
4610744,12
4611376,19
4611996,19
4612620,21
4613252,24
4613872,32
4614500,33
4615124,25
4615748,22
4616376,21
4617000,19
4617628,23
4618260,16
4618880,10
4619508,10
4620132,13
4620764,17
4621396,14
4622016,16
4622644,18
4623268,18
4623892,15
4624524,14
4625144,10
4625772,11
4626396,13
4627020,11
4627652,13
4628272,13
4628904,11
4629532,12
4630152,17
4630784,18
4631408,17
4632036,19
4632668,18
4633288,15
4633916,21
4634544,24
4635168,24
4635796,28
4636416,27
4637044,13
4637668,11
4638292,11
4638924,14
4639544,18
4640176,23
4640804,34
4641424,38
4642052,30
4642676,19
4643304,17
4643932,14
4644552,13
4645180,11
4645804,11
4646428,17
4647060,30
4647680,28
4648308,19
4648932,15
4649556,14
4650188,22
4650808,27
4651436,22
4652068,13
4652688,11
4653320,10
4653944,10
4654572,11
4655204,11
4655824,13
4656456,13
4657080,13
4657704,13
4658332,11
4658952,10
4659584,11
4660208,10
4660828,13
4661460,19
4662084,15
4662712,11
4663344,19
4663960,26
4664592,17
4665216,17
4665844,30
4666476,32
4667096,27
4667728,21
4668352,16
4668976,13
4669604,11
4670224,11
4670856,10
4671480,11
4672104,13
4672732,13
4673356,16
4673984,21
4674616,25
4675232,35
4675860,29
4676484,11
4677116,19
4677744,22
4678368,22
4679000,22
4679624,29
4680248,34
4680876,29
4681496,21
4682128,17
4682752,14
4683376,16
4684004,13
4684628,10
4685260,10
4685892,12
4686512,20
4687140,24
4687768,21
4688392,20
4689020,19
4689640,18
4690268,13
4690892,17
4691516,15
4692148,10
4692768,13
4693396,13
4694028,11
4694648,12
4695280,13
4695904,13
4696536,19
4697164,24
4697784,27
4698412,32
4699040,32
4699664,31
4700296,28
4700912,21
4701544,11
4702168,11
4702792,13
4703424,12
4704040,12
4704672,15
4705304,16
4705920,15
4706548,14
4707176,14
4707808,15
4708440,10
4709060,11
4709692,11
4710316,11
4710944,13
4711572,12
4712192,12
4712820,15
4713444,17
4714072,16
4714700,16
4715320,24
4715952,28
4716580,27
4717200,28
4717828,21
4718456,14
4719084,11
4719716,15
4720336,22
4720964,24
4721588,21
4722216,23
4722844,24
4723464,16
4724092,14
4724716,14
4725344,11
4725972,13
4726600,19
4727228,25
4727860,18
4728480,13
4729108,12
4729736,28
4730368,33
4730996,36
4731616,36
4732248,36
4732872,35
4733496,27
4734128,19
4734744,14
4735376,15
4736008,12
4736624,17
4737252,18
4737880,17
4738508,24
4739140,28
4739760,19
4740392,14
4741016,15
4741640,12
4742268,11
4742888,11
4743516,11
4744144,11
4744768,11
4745400,11
4746016,11
4746648,15
4747276,18
4747896,23
4748528,25
4749152,28
4749784,25
4750412,19
4751032,16
4751664,13
4752288,11
4752912,11
4753540,10
4754160,12
4754788,13
4755416,13
4756040,14
4756668,12
4757288,15
4757916,15
4758548,14
4759168,14
4759800,13
4760424,13
4761056,12
4761684,12
4762304,11
4762932,11
4763556,21
4764180,33
4764812,24
4765432,19
4766064,19
4766688,25
4767312,21
4767944,16
4768564,15
4769192,11
4769824,10
4770440,13
4771072,13
4771696,13
4772328,13
4772956,17
4773576,23
4774208,23
4774832,13
4775456,12
4776088,14
4776704,18
4777336,21
4777960,11
4778584,15
4779216,23
4779832,28
4780464,27
4781096,26
4781712,23
4782344,17
4782972,13
4783600,11
4784232,12
4784856,20
4785488,20
4786112,11
4786736,11
4787368,12
4787984,11
4788616,14
4789240,15
4789864,15
4790496,14
4791120,11
4791752,12
4792384,11
4793000,10
4793632,11
4794256,13
4794888,20
4795516,20
4796136,13
4796768,17
4797396,25
4798020,28
4798652,27
4799272,27
4799904,33
4800540,26
4801160,16
4801788,10
4802412,10
4803044,10
4803672,13
4804292,19
4804920,19
4805544,17
4806168,18
4806796,16
4807416,17
4808048,12
4808668,10
4809292,11
4809924,15
4810544,19
4811176,15
4811804,13
4812424,14
4813056,21
4813676,27
4814308,29
4814936,23
4815560,18
4816188,11
4816812,11
4817436,10
4818068,10
4818688,11
4819316,11
4819940,10
4820564,11
4821196,10
4821816,13
4822448,17
4823076,20
4823696,18
4824324,17
4824948,14
4825580,10
4826212,10
4826832,11
4827464,10
4828088,11
4828712,16
4829344,21
4829960,25
4830592,22
4831216,21
4831840,19
4832472,19
4833096,19
4833728,21
4834356,18
4834976,11
4835604,15
4836228,16
4836860,14
4837492,10
4838112,14
4838744,13
4839368,13
4839992,13
4840620,15
4841240,13
4841868,12
4842492,10
4843120,13
4843752,12
4844376,14
4845004,11
4845636,10
4846256,20
4846884,19
4847512,24
4848136,25
4848764,18
4849384,22
4850012,26
4850640,26
4851264,21
4851892,16
4852512,13
4853144,20
4853772,22
4854392,16
4855024,17
4855648,22
4856280,19
4856908,14
4857528,13
4858160,11
4858784,12
4859408,11
4860040,11
4860656,12
4861288,11
4861912,13
4862536,16
4863168,16
4863788,18
4864420,23
4865052,22
4865672,25
4866300,24
4866924,23
4867556,19
4868188,10
4868808,15
4869436,18
4870064,21
4870688,22
4871316,14
4871936,14
4872568,15
4873192,13
4873816,13
4874448,11
4875064,10
4875692,11
4876324,10
4876944,11
4877572,12
4878196,12
4878828,10
4879460,10
4880080,14
4880708,24
4881332,31
4881956,33
4882588,28
4883208,19
4883836,15
4884464,15
4885088,10
4885716,18
4886344,28
4886972,14
4887604,14
4888224,18
4888856,16
4889480,17
4890112,13
4890740,15
4891360,20
4891992,17
4892616,12
4893240,11
4893872,13
4894488,15
4895120,11
4895752,11
4896368,17
4897000,23
4897624,28
4898252,24
4898884,28
4899504,32
4900136,28
4900760,25
4901384,19
4902016,13
4902632,10
4903264,11
4903888,10
4904512,12
4905144,15
4905760,18
4906392,25
4907024,23
4907644,24
4908272,22
4908900,15
4909528,10
4910160,10
4910784,12
4911416,11
4912040,10
4912664,13
4913296,21
4913916,13
4914548,17
4915172,24
4915800,34
4916428,32
4917048,35
4917676,23
4918308,10
4918928,12
4919556,13
4920180,10
4920812,11
4921440,15
4922056,17
4922688,14
4923312,15
4923936,14
4924564,11
4925184,11
4925812,12
4926436,15
4927060,13
4927692,10
4928312,21
4928940,31
4929572,32
4930192,32
4930820,30
4931444,25
4932076,18
4932704,12
4933320,14
4933952,17
4934576,17
4935200,11
4935828,13
4936448,12
4937076,10
4937700,10
4938324,12
4938956,14
4939576,16
4940204,15
4940836,14
4941456,13
4942084,11
4942708,10
4943336,11
4943968,11
4944588,11
4945216,11
4945844,12
4946468,16
4947096,22
4947716,29
4948344,31
4948968,25
4949592,25
4950224,19
4950844,14
4951476,9
4952048,12
4952672,14
4953304,12
4953928,11
4954556,10
4955188,14
4955808,14
4956440,15
4957064,17
4957692,21
4958324,18
4958944,12
4959576,10
4960200,10
4960824,11
4961452,10
4962072,13
4962700,17
4963324,24
4963952,22
4964580,21
4965204,25
4965836,29
4966468,27
4967088,25
4967716,17
4968340,11
4968964,11
4969596,10
4970216,13
4970844,11
4971472,13
4972096,17
4972724,28
4973344,24
4973972,17
4974604,13
4975224,13
4975856,11
4976480,11
4977108,11
4977740,18
4978360,19
4978988,11
4979616,15
4980240,32
4980868,33
4981488,34
4982120,33
4982744,29
4983368,27
4983996,19
4984616,15
4985248,11
4985880,10
4986496,9
4987076,9
4987652,11
4988288,16
4988912,23
4989536,27
4990168,25
4990792,20
4991424,12
4992056,13
4992672,12
4993300,13
4993924,10
4994556,16
4995188,14
4995808,14
4996440,24
4997064,27
4997688,23
4998316,14
4998936,14
4999564,15
5000192,22
5000816,27
5001444,22
5002068,18
5002700,15
5003332,11
5003952,9
5004532,9
5005108,13
5005744,13
5006372,14
5006992,19
5007624,20
5008248,26
5008876,36
5009508,34
5010128,17
5010760,15
5011384,35
5012008,40
5012636,34
5013256,30
5013888,27
5014512,22
5015136,17
5015768,14
5016392,11
5017024,13
5017656,10
5018272,11
5018900,10
5019524,11
5020156,18
5020788,28
5021408,30
5022040,28
5022664,19
5023288,14
5023920,13
5024536,11
5025168,11
5025800,11
5026416,14
5027044,13
5027672,11
5028304,11
5028932,15
5029552,17
5030184,19
5030808,21
5031432,23
5032064,21
5032680,19
5033312,16
5033936,11
5034560,11
5035192,10
5035812,10
5036440,10
5037072,13
5037696,17
5038328,18
5038952,14
5039584,13
5040216,12
5040832,12
5041460,12
5042088,11
5042712,13
5043340,11
5043960,10
5044592,11
5045216,13
5045840,15
5046468,18
5047088,21
5047720,28
5048348,28
5048968,24
5049596,27
5050224,30
5050856,23
5051488,15
5052104,10
5052736,10
5053360,18
5053988,18
5054620,15
5055240,15
5055872,17
5056496,18
5057124,16
5057752,10
5058380,10
5059012,11
5059640,12
5060264,12
5060896,11
5061520,11
5062152,15
5062780,21
5063400,18
5064032,18
5064656,27
5065280,34
5065912,30
5066532,23
5067160,19
5067792,14
5068416,9
5068996,11
5069624,13
5070252,15
5070884,15
5071504,18
5072136,19
5072760,15
5073392,13
5074020,12
5074640,12
5075272,10
5075896,10
5076520,13
5077152,11
5077768,11
5078400,11
5079028,16
5079652,29
5080284,35
5080908,25
5081540,15
5082172,22
5082792,26
5083424,21
5084048,22
5084680,15
5085308,10
5085928,9
5086508,12
5087136,17
5087760,15
5088392,14
5089008,13
5089640,13
5090264,15
5090888,15
5091520,14
5092136,12
5092768,11
5093400,10
5094020,12
5094652,13
5095276,17
5095908,24
5096536,29
5097160,32
5097792,27
5098416,27
5099040,28
5099672,18
5100292,10
5100924,12
5101548,12
5102172,12
5102804,14
5103428,14
5104060,10
5104692,12
5105312,13
5105944,12
5106568,14
5107200,13
5107828,13
5108448,14
5109080,16
5109708,15
5110332,15
5110968,13
5111588,11
5112220,11
5112852,17
5113472,29
5114108,34
5114732,29
5115364,30
5115996,23
5116620,17
5117252,18
5117880,17
5118504,12
5119136,11
5119756,11
5120392,12
5121012,10
5121636,16
5122264,20
5122888,27
5123516,34
5124144,31
5124760,16
5125388,11
5126012,11
5126640,11
5127272,13
5127888,10
5128516,16
5129140,23
5129764,33
5130392,31
5131008,31
5131640,25
5132264,18
5132888,11
5133516,12
5134136,15
5134764,12
5135396,18
5136016,18
5136644,16
5137268,11
5137896,11
5138524,16
5139144,15
5139776,20
5140400,23
5141020,13
5141652,10
5142272,11
5142900,12
5143524,14
5144148,18
5144780,16
5145400,17
5146028,16
5146660,18
5147280,25
5147908,27
5148532,22
5149164,21
5149792,15
5150412,10
5151040,17
5151664,22
5152288,22
5152920,19
5153536,14
5154164,11
5154788,13
5155416,13
5156044,12
5156664,14
5157292,13
5157924,10
5158544,14
5159172,13
5159796,12
5160428,13
5161060,12
5161680,12
5162308,14
5162932,16
5163556,17
5164184,20
5164800,20
5165432,15
5166056,13
5166680,18
5167308,27
5167928,25
5168560,16
5169188,10
5169808,11
5170436,15
5171060,11
5171692,12
5172324,14
5172944,18
5173572,24
5174196,26
5174820,21
5175452,12
5176072,18
5176700,21
5177324,15
5177948,11
5178580,16
5179204,18
5179832,22
5180464,23
5181088,25
5181720,26
5182344,26
5182972,28
5183604,18
5184224,12
5184852,9
5185424,9
5186000,10
5186636,11
5187256,14
5187884,13
5188508,13
5189132,12
5189764,13
5190384,13
5191016,14
5191640,19
5192264,18
5192892,15
5193512,13
5194144,12
5194772,11
5195392,14
5196024,12
5196648,14
5197280,20
5197908,23
5198528,29
5199160,29
5199784,32
5200408,32
5201036,26
5201656,16
5202284,9
5202856,11
5203480,13
5204108,10
5204728,14
5205356,15
5205980,14
5206604,13
5207236,16
5207856,23
5208484,14
5209116,10
5209736,11
5210364,12
5210988,12
5211620,13
5212252,14
5212872,17
5213500,25
5214128,28
5214752,25
5215380,21
5216000,25
5216628,26
5217252,22
5217876,12
5218508,10
5219128,11
5219760,17
5220388,19
5221008,17
5221640,13
5222264,13
5222896,13
5223524,12
5224144,16
5224772,17
5225396,15
5226020,13
5226652,10
5227272,11
5227900,12
5228528,11
5229152,11
5229780,19
5230404,27
5231036,34
5231668,38
5232288,35
5232920,28
5233544,19
5234172,18
5234804,10
5235424,19
5236052,32
5236680,39
5237304,23
5237932,14
5238552,13
5239184,13
5239812,15
5240432,16
5241064,11
5241688,14
5242316,16
5242948,11
5243568,10
5244196,11
5244820,10
5245444,13
5246072,18
5246696,23
5247324,21
5247948,27
5248572,26
5249200,18
5249824,16
5250452,16
5251080,12
5251696,10
5252328,10
5252948,11
5253580,11
5254208,11
5254824,14
5255456,15
5256076,14
5256708,14
5257336,11
5257952,12
5258580,13
5259204,12
5259828,12
5260456,17
5261076,18
5261704,14
5262328,11
5262952,23
5263580,36
5264204,43
5264832,47
5265460,46
5266080,33
5266708,16
5267332,11
5267960,15
5268592,16
5269208,17
5269836,16
5270460,10
5271084,11
5271712,13
5272336,23
5272964,22
5273588,19
5274216,16
5274844,13
5275468,11
5276096,9
5276668,10
5277300,10
5277928,14
5278552,26
5279184,31
5279816,32
5280432,19
5281060,15
5281684,17
5282308,17
5282940,16
5283560,24
5284188,20
5284812,15
5285432,12
5286064,18
5286680,20
5287308,16
5287932,14
5288560,15
5289188,14
5289812,14
5290440,14
5291068,10
5291688,11
5292316,12
5292940,11
5293572,10
5294200,10
5294816,10
5295448,12
5296072,14
5296696,17
5297324,18
5297944,27
5298572,35
5299196,36
5299824,38
5300456,32
5301080,19
5301708,10
5302340,14
5302960,19
5303588,17
5304216,17
5304840,15
5305468,18
5306088,22
5306716,23
5307340,23
5307964,12
5308596,10
5309216,11
5309844,11
5310476,10
5311096,11
5311728,13
5312352,18
5312980,21
5313612,20
5314232,25
5314864,25
5315488,28
5316112,27
5316740,23
5317360,19
5317988,13
5318616,11
5319236,10
5319868,10
5320488,11
5321116,13
5321748,13
5322368,20
5322996,20
5323624,17
5324252,11
5324884,13
5325500,13
5326132,10
5326752,10
5327376,11
5328004,10
5328620,11
5329252,17
5329876,22
5330496,19
5331128,14
5331744,14
5332372,20
5333004,30
5333624,25
5334252,13
5334876,10
5335508,10
5336136,12
5336756,17
5337384,15
5338008,13
5338632,14
5339260,15
5339880,13
5340508,13
5341132,13
5341756,13
5342388,18
5343008,21
5343636,17
5344268,10
5344888,24
5345516,30
5346140,25
5346772,24
5347400,21
5348016,19
5348648,23
5349272,28
5349896,25
5350524,19
5351144,16
5351772,12
5352396,10
5353020,12
5353652,14
5354272,16
5354900,15
5355532,20
5356152,24
5356780,18
5357408,15
5358036,18
5358668,12
5359288,12
5359916,10
5360544,13
5361168,13
5361796,18
5362416,22
5363044,23
5363672,25
5364296,32
5364924,26
5365544,24
5366176,24
5366804,22
5367424,22
5368052,15
5368676,11
5369308,10
5369936,10
5370560,13
5371188,15
5371816,14
5372440,13
5373068,13
5373688,14
5374316,13
5374944,11
5375568,11
5376200,10
5376816,11
5377444,11
5378072,13
5378692,20
5379320,17
5379944,20
5380572,39
5381200,44
5381824,53
5382452,47
5383076,27
5383700,10
5384328,21
5384948,34
5385576,25
5386200,17
5386824,12
5387452,10
5388072,13
5388700,13
5389332,19
5389952,21
5390580,16
5391204,12
5391836,12
5392468,10
5393088,11
5393716,10
5394340,11
5394964,15
5395596,16
5396216,21
5396844,25
5397468,27
5398092,29
5398724,26
5399344,25
5399976,21
5400604,16
5401224,11
5401856,11
5402476,11
5403108,11
5403740,10
5404360,15
5404988,17
5405612,18
5406236,15
5406868,14
5407488,11
5408116,11
5408740,10
5409364,10
5409992,10
5410608,11
5411240,11
5411868,10
5412488,12
5413116,22
5413740,31
5414372,34
5415004,30
5415624,22
5416252,16
5416876,17
5417500,17
5418132,13
5418752,9
5419332,11
5419960,11
5420584,19
5421216,18
5421832,17
5422464,13
5423084,13
5423712,14
5424340,13
5424964,19
5425596,12
5426228,14
5426848,23
5427480,24
5428100,13
5428732,13
5429360,17
5429980,20
5430608,24
5431232,31
5431856,35
5432484,37
5433104,29
5433732,15
5434356,11
5434980,10
5435612,11
5436236,10
5436868,12
5437496,12
5438120,13
5438748,12
5439376,13
5440004,13
5440632,16
5441256,25
5441884,24
5442508,15
5443132,11
5443760,10
5444384,13
5445012,19
5445644,21
5446264,24
5446892,27
5447516,27
5448148,31
5448776,29
5449396,22
5450024,14
5450648,12
5451272,10
5451900,14
5452520,14
5453148,11
5453772,10
5454396,13
5455028,18
5455648,21
5456276,19
5456908,14
5457528,11
5458156,10
5458780,10
5459412,10
5460040,10
5460664,11
5461292,11
5461916,15
5462540,24
5463172,28
5463792,29
5464420,25
5465044,27
5465668,16
5466300,12
5466920,15
5467548,14
5468180,12
5468800,9
5469376,9
5469948,10
5470580,11
5471208,16
5471832,16
5472460,15
5473080,15
5473708,16
5474340,14
5474960,14
5475588,15
5476216,13
5476844,11
5477476,10
5478096,14
5478728,17
5479348,19
5479972,23
5480604,30
5481224,30
5481852,31
5482476,35
5483100,36
5483732,22
5484356,13
5484988,11
5485616,15
5486240,20
5486868,17
5487492,18
5488124,22
5488756,24
5489376,21
5490004,21
5490628,16
5491252,15
5491884,12
5492504,10
5493132,11
5493756,10
5494384,12
5495016,12
5495640,15
5496268,19
5496900,23
5497520,27
5498152,27
5498776,30
5499400,27
5500028,21
5500648,20
5501280,11
5501904,11
5502528,13
5503160,14
5503780,19
5504412,16
5505040,14
5505656,12
5506288,13
5506912,15
5507540,28
5508172,32
5508792,17
5509424,13
5510048,11
5510672,15
5511300,17
5511920,11
5512552,12
5513176,15
5513800,21
5514428,19
5515048,24
5515680,24
5516308,20
5516928,15
5517556,17
5518184,15
5518812,12
5519444,11
5520064,15
5520692,13
5521316,17
5521940,20
5522572,18
5523192,20
5523824,13
5524448,10
5525072,10
5525704,10
5526320,10
5526952,11
5527584,13
5528204,14
5528832,16
5529460,23
5530092,31
5530720,29
5531336,25
5531968,27
5532592,19
5533216,13
5533844,11
5534464,11
5535092,11
5535720,9
5536292,10
5536924,10
5537544,11
5538172,15
5538800,17
5539424,17
5540052,18
5540676,25
5541308,27
5541936,23
5542560,13
5543188,11
5543812,11
5544444,12
5545076,11
5545696,10
5546324,13
5546948,24
5547576,28
5548204,30
5548824,26
5549452,22
5550080,22
5550704,17
5551336,18
5551960,17
5552592,12
5553224,10
5553840,12
5554472,15
5555096,13
5555720,12
5556352,15
5556972,19
5557600,23
5558224,28
5558848,11
5559480,17
5560096,15
5560728,11
5561356,10
5561976,13
5562608,18
5563232,17
5563860,18
5564492,19
5565112,26
5565744,27
5566368,21
5566992,22
5567624,21
5568244,11
5568876,10
5569500,15
5570124,17
5570756,20
5571376,21
5572004,18
5572636,15
5573256,15
5573884,12
5574512,10
5575140,11
5575772,14
5576392,16
5577020,13
5577648,10
5578268,15
5578900,24
5579520,33
5580152,30
5580776,28
5581400,25
5582032,26
5582648,21
5583280,20
5583912,17
5584528,15
5585160,10
5585784,15
5586416,16
5587044,14
5587664,15
5588292,21
5588920,24
5589544,21
5590176,14
5590792,13
5591424,14
5592048,11
5592672,10
5593304,11
5593928,14
5594556,12
5595188,10
5595808,14
5596440,20
5597064,22
5597696,33
5598324,40
5598944,24
5599576,18
5600200,18
5600824,19
5601452,18
5602072,11
5602700,11
5603324,12
5603952,14
5604580,16
5605208,17
5605836,14
5606468,14
5607088,15
5607716,15
5608340,11
5608964,10
5609596,11
5610216,17
5610848,20
5611472,14
5612096,16
5612724,27
5613344,26
5613972,23
5614604,32
5615224,32
5615856,31
5616480,26
5617108,15
5617740,10
5618360,13
5618992,15
5619616,13
5620240,13
5620868,15
5621488,15
5622120,13
5622744,13
5623368,13
5623996,10
5624616,11
5625248,11
5625880,14
5626496,21
5627128,13
5627752,12
5628384,27
5629012,36
5629632,37
5630264,29
5630888,21
5631512,18
5632144,19
5632760,20
5633388,17
5634012,13
5634636,13
5635264,10
5635880,13
5636512,17
5637140,14
5637760,19
5638388,21
5639012,18
5639644,18
5640276,16
5640896,11
5641524,10
5642148,11
5642776,10
5643404,10
5644024,11
5644652,13
5645276,16
5645900,21
5646532,25
5647152,25
5647784,20
5648412,15
5649032,16
5649660,17
5650284,17
5650916,12
5651548,10
5652168,10
5652796,12
5653420,12
5654044,11
5654676,12
5655296,17
5655924,20
5656548,20
5657172,18
5657804,11
5658424,11
5659052,10
5659684,12
5660304,14
5660932,11
5661556,13
5662188,13
5662820,18
5663440,29
5664068,34
5664692,33
5665316,30
5665944,27
5666568,24
5667196,18
5667824,14
5668448,11
5669076,12
5669700,15
5670332,13
5670964,14
5671584,17
5672216,15
5672840,14
5673468,16
5674100,16
5674720,17
5675352,12
5675976,11
5676600,12
5677232,11
5677848,11
5678480,14
5679104,15
5679728,17
5680360,17
5680984,17
5681612,22
5682244,24
5682864,22
5683496,24
5684120,22
5684744,14
5685372,9
5685940,12
5686572,14
5687196,13
5687824,13
5688452,12
5689072,13
5689704,13
5690324,11
5690952,10
5691580,10
5692200,11
5692828,17
5693460,14
5694080,12
5694708,12
5695336,17
5695964,24
5696596,21
5697216,16
5697844,13
5698468,13
5699092,19
5699724,22
5700344,18
5700972,10
5701600,10
5702224,13
5702852,11
5703472,10
5704104,13
5704732,12
5705352,15
5705984,13
5706608,14
5707236,11
5707868,10
5708488,19
5709120,15
5709744,16
5710368,15
5711000,11
5711620,10
5712248,15
5712876,19
5713500,20
5714132,22
5714756,29
5715388,31
5716016,26
5716640,18
5717268,13
5717896,12
5718528,11
5719156,10
5719776,14
5720408,13
5721032,12
5721656,15
5722284,17
5722904,14
5723536,14
5724164,10
5724784,13
5725416,11
5726040,10
5726672,10
5727304,10
5727924,15
5728556,22
5729180,29
5729804,31
5730436,34
5731056,26
5731688,17
5732316,19
5732940,25
5733572,22
5734196,19
5734828,15
5735456,10
5736072,12
5736704,13
5737328,11
5737956,14
5738588,22
5739208,31
5739836,30
5740464,20
5741088,12
5741716,10
5742336,15
5742964,17
5743592,15
5744216,13
5744844,15
5745464,18
5746092,20
5746724,22
5747344,25
5747972,28
5748596,25
5749228,24
5749860,24
5750480,17
5751108,11
5751736,10
5752360,11
5752988,15
5753608,16
5754236,16
5754864,17
5755488,19
5756120,20
5756744,23
5757376,19
5758004,14
5758624,15
5759256,13
5759880,11
5760512,11
5761140,14
5761760,19
5762388,24
5763012,24
5763636,21
5764264,21
5764884,24
5765512,15
5766136,17
5766760,17
5767388,13
5768012,19
5768640,17
5769268,10
5769888,11
5770516,15
5771140,21
5771772,24
5772404,20
5773024,20
5773652,16
5774276,13
5774900,10
5775532,14
5776152,17
5776780,19
5777404,18
5778032,18
5778660,17
5779284,21
5779916,19
5780544,23
5781164,32
5781792,35
5782416,32
5783044,26
5783676,18
5784296,13
5784928,10
5785552,13
5786176,25
5786804,29
5787424,21
5788052,16
5788684,14
5789304,14
5789932,14
5790556,10
5791188,11
5791820,10
5792440,13
5793068,11
5793692,13
5794316,11
5794948,10
5795568,21
5796200,31
5796824,25
5797444,19
5798076,18
5798696,19
5799324,23
5799956,26
5800576,17
5801204,9
5801776,12
5802412,17
5803044,16
5803664,14
5804292,13
5804920,13
5805548,16
5806180,14
5806800,15
5807428,12
5808052,11
5808676,12
5809308,12
5809928,11
5810556,11
5811184,13
5811808,14
5812440,14
5813064,24
5813696,30
5814324,23
5814944,21
5815576,20
5816200,25
5816832,24
5817460,13
5818080,13
5818708,12
5819336,10
5819960,12
5820588,11
5821208,14
5821836,15
5822468,17
5823088,15
5823720,13
5824344,11
5824972,10
5825604,10
5826224,11
5826856,12
5827480,13
5828104,17
5828732,12
5829352,13
5829984,15
5830608,23
5831232,33
5831864,26
5832480,23
5833108,25
5833740,22
5834360,18
5834992,11
5835616,12
5836248,17
5836876,18
5837496,17
5838124,13
5838748,13
5839372,13
5840004,14
5840624,12
5841252,10
5841876,10
5842500,11
5843132,10
5843752,11
5844384,12
5845012,12
5845632,19
5846264,29
5846888,28
5847516,23
5848148,19
5848768,16
5849396,12
5850024,12
5850648,11
5851276,9
5851844,10
5852480,10
5853104,13
5853728,13
5854360,13
5854976,12
5855608,15
5856232,13
5856856,10
5857488,11
5858104,11
5858732,10
5859364,10
5859984,11
5860616,11
5861240,12
5861868,11
5862500,12
5863120,14
5863748,19
5864376,23
5865000,19
5865628,19
5866248,20
5866876,17
5867504,20
5868128,19
5868760,14
5869384,11
5870016,11
5870644,11
5871264,12
5871896,11
5872520,13
5873152,17
5873784,18
5874400,14
5875032,12
5875656,12
5876284,11
5876912,10
5877536,11
5878168,13
5878800,24
5879416,32
5880048,33
5880672,29
5881304,27
5881932,20
5882552,18
5883184,15
5883808,11
5884432,10
5885064,10
5885684,10
5886312,10
5886940,10
5887564,12
5888200,12
5888816,15
5889444,13
5890076,12
5890696,12
5891324,15
5891952,17
5892580,16
5893212,11
5893832,11
5894464,11
5895088,11
5895712,17
5896344,21
5896960,24
5897588,22
5898216,23
5898840,22
5899468,18
5900088,20
5900716,27
5901348,30
5901968,24
5902596,10
5903224,16
5903852,20
5904484,20
5905104,24
5905732,23
5906360,17
5906984,11
5907612,9
5908180,10
5908812,11
5909436,11
5910064,11
5910692,11
5911312,12
5911944,11
5912568,15
5913192,25
5913824,29
5914448,29
5915076,23
5915708,17
5916328,11
5916956,10
5917584,10
5918216,10
5918844,10
5919464,13
5920096,18
5920716,20
5921340,16
5921972,12
5922592,13
5923220,13
5923852,10
5924472,11
5925100,11
5925728,17
5926356,19
5926988,16
5927608,13
5928236,11
5928864,14
5929488,15
5930116,20
5930736,25
5931368,28
5931992,25
5932616,18
5933248,13
5933864,13
5934496,12
5935128,10
5935744,10
5936376,10
5937000,10
5937632,13
5938260,11
5938880,14
5939512,21
5940136,26
5940760,25
5941388,17
5942008,12
5942636,11
5943260,16
5943884,21
5944516,13
5945136,11
5945764,13
5946396,22
5947016,31
5947648,34
5948272,29
5948900,27
5949532,24
5950152,22
5950784,13
5951408,13
5952032,26
5952660,20
5953280,17
5953908,19
5954532,18
5955160,16
5955788,12
5956408,13
5957036,14
5957668,18
5958288,19
5958920,14
5959544,12
5960176,11
5960804,12
5961424,11
5962056,17
5962680,24
5963304,29
5963932,29
5964552,23
5965184,22
5965808,23
5966432,22
5967060,14
5967688,12
5968316,18
5968948,18
5969568,16
5970200,15
5970824,19
5971452,19
5972084,18
5972704,21
5973336,19
5973960,11
5974584,15
5975216,16
5975832,12
5976464,10
5977096,10
5977712,11
5978344,13
5978968,21
5979600,25
5980228,27
5980848,28
5981476,29
5982100,25
5982728,18
5983356,11
5983976,11
5984608,10
5985232,9
5985808,10
5986436,12
5987056,12
5987688,12
5988312,13
5988936,13
5989568,16
5990184,15
5990816,13
5991448,12
5992068,10
5992696,11
5993320,12
5993952,12
5994580,11
5995200,13
5995832,13
5996456,19
5997080,28
5997712,24
5998328,25
5998960,38
5999588,33
6000212,14
6000844,10
6001464,10
6002092,10
6002724,14
6003344,17
6003972,14
6004600,16
6005228,17
6005860,16
6006480,13
6007108,11
6007736,13
6008360,12
6008988,10
6009608,11
6010236,11
6010864,12
6011488,11
6012120,12
6012744,13
6013376,15
6014008,20
6014624,26
6015256,27
6015884,24
6016516,14
6017148,11
6017768,20
6018396,13
6019024,11
6019648,11
6020280,11
6020896,12
6021528,15
6022156,16
6022776,17
6023404,17
6024032,17
6024660,13
6025292,10
6025912,13
6026544,19
6027168,20
6027792,21
6028424,20
6029040,27
6029672,32
6030296,29
6030920,21
6031552,19
6032172,18
6032800,15
6033428,15
6034048,13
6034680,10
6035304,11
6035932,11
6036564,11
6037184,14
6037816,15
6038440,14
6039064,13
6039696,12
6040316,10
6040948,11
6041572,10
6042200,11
6042828,13
6043448,13
6044076,13
6044708,11
6045328,22
6045960,22
6046584,20
6047216,21
6047844,18
6048464,21
6049092,24
6049720,17
6050344,12
6050976,10
6051592,11
6052224,11
6052848,10
6053472,12
6054104,12
6054728,18
6055356,21
6055988,18
6056608,12
6057240,11
6057864,10
6058496,10
6059124,10
6059744,11
6060376,14
6061004,18
6061628,18
6062260,15
6062880,14
6063508,21
6064140,26
6064760,28
6065392,21
6066016,21
6066644,23
6067276,18
6067896,11
6068524,11
6069152,16
6069776,20
6070404,19
6071024,19
6071656,17
6072280,15
6072908,15
6073536,14
6074160,12
6074792,11
6075424,10
6076044,11
6076676,11
6077300,11
6077932,12
6078564,16
6079184,20
6079816,22
6080444,23
6081068,25
6081700,23
6082320,23
6082952,17
6083576,13
6084200,12
6084828,9
6085400,10
6086028,13
6086656,11
6087280,14
6087912,15
6088536,15
6089164,15
6089796,14
6090416,12
6091048,13
6091672,18
6092296,19
6092928,12
6093544,13
6094176,17
6094800,27
6095424,27
6096052,25
6096672,29
6097300,27
6097932,22
6098552,15
6099184,19
6099808,20
6100440,11
6101072,11
6101688,13
6102320,15
6102948,17
6103572,13
6104204,13
6104824,13
6105456,13
6106080,15
6106704,16
6107336,10
6107956,10
6108588,10
6109216,10
6109840,13
6110472,11
6111096,11
6111728,12
6112360,27
6112980,35
6113608,31
6114236,19
6114860,13
6115492,9
6116060,11
6116696,20
6117320,28
6117944,22
6118576,10
6119196,15
6119828,15
6120460,15
6121080,17
6121712,16
6122336,14
6122968,13
6123600,10
6124216,11
6124848,10
6125472,11
6126096,10
6126728,11
6127344,11
6127976,12
6128604,15
6129228,21
6129860,27
6130480,30
6131112,29
6131744,29
6132368,25
6133000,18
6133628,12
6134260,10
6134892,10
6135512,10
6136148,11
6136772,10
6137400,13
6138032,15
6138652,15
6139284,14
6139916,14
6140540,27
6141172,16
6141796,11
6142432,9
6143012,10
6143640,11
6144272,11
6144896,13
6145524,18
6146152,29
6146772,31
6147400,36
6148024,32
6148648,21
6149276,23
6149896,24
6150524,19
6151148,15
6151772,11
6152404,13
6153028,19
6153656,25
6154288,23
6154904,19
6155532,18
6156156,19
6156788,16
6157420,10
6158040,11
6158668,13
6159296,18
6159920,17
6160552,11
6161168,15
6161796,24
6162420,32
6163044,29
6163676,17
6164300,13
6164932,13
6165560,27
6166180,33
6166808,31
6167432,24
6168064,13
6168692,10
6169312,14
6169944,20
6170564,23
6171188,17
6171820,15
6172440,12
6173068,13
6173696,10
6174320,11
6174952,11
6175576,11
6176208,11
6176836,11
6177456,12
6178084,11
6178708,15
6179336,22
6179964,21
6180584,21
6181216,22
6181840,28
6182464,28
6183092,26
6183712,17
6184344,9
6184916,13
6185544,13
6186176,11
6186792,11
6187424,13
6188052,17
6188672,25
6189304,31
6189928,26
6190560,19
6191188,10
6191808,10
6192440,12
6193064,12
6193688,11
6194320,21
6194936,27
6195568,32
6196192,32
6196816,29
6197444,30
6198064,32
6198696,17
6199324,10
6199944,11
6200576,11
6201200,10
6201828,11
6202460,16
6203080,15
6203712,16
6204336,15
6204960,16
6205592,23
6206208,35
6206840,39
6207464,29
6208088,14
6208716,15
6209336,15
6209964,12
6210596,12
6211216,17
6211844,19
6212472,24
6213100,29
6213732,28
6214352,23
6214984,22
6215612,23
6216236,15
6216868,12
6217488,10
6218120,12
6218744,11
6219368,10
6220000,13
6220624,16
6221256,17
6221888,18
6222504,15
6223136,14
6223760,10
6224392,11
6225024,12
6225644,13
6226272,12
6226896,15
6227520,14
6228152,13
6228768,14
6229400,19
6230032,22
6230648,25
6231280,29
6231904,34
6232536,30
6233168,29
6233784,22
6234416,14
6235040,10
6235664,11
6236296,11
6236912,11
6237544,13
6238168,15
6238792,18
6239424,17
6240044,13
6240672,11
6241300,10
6241920,12
6242548,13
6243176,12
6243804,11
6244436,10
6245056,13
6245688,19
6246312,22
6246936,21
6247568,21
6248184,22
6248816,20
6249440,21
6250064,20
6250692,13
6251312,10
6251944,19
6252572,20
6253192,17
6253824,15
6254448,16
6255076,15
6255708,16
6256328,17
6256956,12
6257584,11
6258208,11
6258836,11
6259456,13
6260088,13
6260712,11
6261336,11
6261968,14
6262584,21
