tempo_arduino_micro_s,valor_ADC
500,12
1004,11
1504,14
2000,16
2508,15
3000,14
3508,16
4000,17
4508,27
5000,27
5500,33
6000,36
6500,32
7000,24
7500,22
8000,18
8500,18
9000,13
9500,19
10000,28
10508,36
11028,46
11556,43
12076,40
12604,33
13124,23
13652,16
14172,20
14700,30
15220,30
15748,23
16268,20
16796,20
17316,12
17836,10
18356,10
18876,10
19396,11
19916,11
20436,14
20956,22
21476,37
21996,47
22516,50
23036,47
23564,34
24084,26
24612,21
25132,17
25660,13
26180,19
26708,28
27228,39
27756,46
28276,45
28804,50
29324,48
29852,36
30372,28
30900,24
31420,25
31948,22
32468,20
32996,18
33516,18
34044,11
34564,13
35092,16
35612,12
36140,10
36660,12
37188,16
37708,29
38236,42
38760,46
39284,45
39804,38
40332,28
40852,23
41372,20
41892,18
42412,15
42932,24
43452,33
43972,43
44492,46
45012,43
45532,43
46052,39
46572,33
47092,26
47612,24
48140,22
48660,20
49188,19
49708,18
50236,17
50760,11
51284,9
51744,11
52276,11
52796,12
53324,15
53844,16
54372,23
54892,31
55420,44
55940,46
56468,36
56988,26
57516,21
58040,18
58564,17
59084,14
59612,25
60132,35
60660,40
61180,39
61708,38
62228,43
62756,41
63276,32
63804,25
64328,19
64852,23
65372,26
65900,23
66420,22
66948,18
67468,11
67996,10
68516,10
69036,12
69556,16
70076,22
70600,27
71116,35
71640,41
72160,42
72676,44
73196,37
73720,25
74236,19
74764,17
75284,18
75812,15
76336,26
76860,33
77380,39
77908,49
78428,45
78956,43
79480,39
80004,28
80524,21
81052,23
81572,23
82100,20
82620,17
83148,17
83668,18
84196,12
84716,11
85244,10
85764,11
86292,11
86812,10
87340,12
87860,22
88388,29
88908,37
89436,41
89960,34
90484,26
91004,24
91532,20
92052,17
92572,20
93092,18
93612,28
94132,39
94652,42
95172,37
95696,38
96216,35
96732,24
97252,19
97772,23
98292,23
98812,22
99340,20
99860,19
100388,18
100952,11
101536,11
102108,11
102688,9
103204,12
103784,15
104352,25
104920,33
105496,45
106064,45
106648,39
107216,26
107792,20
108360,18
108944,19
109512,31
110080,37
110664,41
111232,44
111816,38
112388,42
112968,33
113536,24
114112,17
114680,21
115256,19
115840,17
116408,17
116984,19
117552,11
118136,11
118704,10
119280,10
119864,12
120436,18
121016,32
121584,40
122168,43
122736,44
123320,32
123888,24
124464,19
125048,17
125616,14
126200,23
126768,31
127352,39
127924,43
128500,34
129080,35
129648,31
130224,22
130792,18
131368,26
131936,24
132512,23
133080,22
133656,21
134240,11
134808,11
135392,11
135960,12
136544,13
137112,19
137688,27
138272,35
138840,43
139424,42
139992,36
140576,23
141144,19
141728,17
142296,14
142872,26
143456,35
144024,43
144608,43
145176,42
145760,40
146328,34
146904,27
147488,23
148056,22
148640,21
149208,19
149792,19
150360,18
150944,10
151516,11
152092,13
152672,14
153244,15
153824,17
154392,26
154976,31
155544,34
156120,40
156704,33
157276,30
157856,22
158424,18
159008,12
159580,19
160160,26
160728,39
161296,46
161880,42
162448,41
163032,33
163604,28
164184,22
164752,23
165328,23
165904,20
166472,19
167056,17
167624,12
168200,10
168768,10
169344,11
169912,13
170480,18
171064,27
171632,34
172216,41
172784,38
173368,27
173936,22
174520,17
175088,18
175664,16
176248,29
176816,39
177392,48
177960,50
178544,43
179116,40
179692,32
180272,28
180840,24
181424,26
181992,19
182576,17
183144,18
183728,19
184300,27
184876,20
185456,18
186024,17
186608,18
187176,23
187760,28
188328,19
188904,31
189488,36
190056,29
190640,19
191212,17
191792,23
192364,25
192944,37
193512,38
194092,41
194672,41
195240,37
195824,38
196396,30
196976,22
197544,26
198124,27
198704,27
199276,21
199856,18
200424,18
201008,10
201576,11
202160,9
202680,10
203248,11
203832,13
204404,23
204984,41
205552,61
206128,53
206696,37
207272,27
207840,21
208416,19
209000,17
209568,28
210144,40
210712,43
211296,41
211864,41
212432,40
213016,34
213584,27
214168,19
214736,24
215320,21
215888,19
216472,18
217040,18
217616,10
218200,11
218768,11
219352,12
219924,15
220504,21
221072,30
221652,35
222232,41
222804,41
223384,33
223956,24
224536,19
225112,17
225696,16
226264,25
226832,36
227416,40
227984,40
228568,37
229136,40
229720,32
230292,23
230868,23
231448,24
232016,19
232600,18
233172,18
233752,18
234324,11
234904,10
235476,10
236052,11
236632,12
237204,10
237784,25
238356,38
238936,46
239508,57
240084,45
240664,31
241232,21
241816,18
242388,19
242968,34
243540,46
244120,53
244692,51
245268,46
245848,41
246416,34
247000,19
247568,16
248152,21
248720,24
249296,22
249880,21
250448,18
251032,10
251604,10
252184,9
252700,10
253280,11
253852,17
254428,27
255008,34
255580,42
256160,44
256728,37
257312,27
257880,21
258456,18
259024,13
259600,23
260184,31
260752,43
261336,48
261904,50
262488,45
263056,39
263632,26
264208,19
264776,22
265360,21
265928,20
266512,18
267080,18
267664,16
268232,14
268808,11
269392,10
269960,10
270536,14
271104,24
271688,36
272256,42
272840,37
273416,28
273988,20
274568,18
275136,17
275720,15
276292,22
276872,33
277440,41
278016,43
278600,40
279172,41
279752,34
280324,27
280904,23
281476,22
282056,20
282632,19
283200,18
283784,18
284356,11
284936,12
285508,13
286088,13
286656,17
287236,19
287816,27
288388,34
288968,40
289536,41
290112,33
290684,27
291264,21
291832,18
292412,20
292992,34
293564,38
294144,48
294716,54
295296,49
295868,43
296444,34
297024,26
297592,25
298176,28
298748,22
299328,19
299900,18
300480,17
301052,15
301628,14
302208,14
302780,14
303360,13
303932,18
304512,28
305092,33
305668,40
306248,41
306820,33
307400,24
307972,19
308552,17
309124,15
309704,24
310280,39
310852,53
311432,55
312004,56
312584,43
313156,27
313736,18
314316,16
314892,20
315472,22
316044,19
316624,17
317196,15
317776,13
318356,11
318932,12
319512,13
320084,16
320664,21
321232,34
321808,40
322376,46
322960,38
323528,28
324104,19
324688,18
325256,19
325840,19
326412,27
326992,35
327564,44
328144,49
328720,48
329288,48
329864,35
330432,26
331016,20
331584,22
332168,19
332736,21
333316,20
333896,15
334464,14
335048,18
335616,11
336200,10
336768,13
337344,19
337912,32
338492,39
339072,43
339644,39
340224,31
340792,25
341376,17
341944,17
342520,15
343104,20
343672,30
344256,43
344824,51
345408,49
345980,44
346560,32
347128,24
347708,22
348288,22
348856,20
349440,17
350008,18
350592,13
351164,9
351688,10
352264,10
352832,11
353416,13
353984,17
354568,30
355136,33
355720,44
356300,44
356876,34
357456,26
358028,19
358608,17
359176,22
359760,25
360328,29
360912,41
361488,51
362056,52
362640,51
363208,38
363792,25
364364,25
364944,25
365512,22
366092,18
366672,18
367244,14
367824,13
368396,14
368976,16
369544,14
370128,17
370704,23
371276,33
371856,41
372424,45
373008,34
373580,24
374160,20
374728,18
375304,18
375888,18
376460,28
377040,35
377612,45
378192,49
378764,47
379344,45
379920,35
380492,25
381072,23
381644,24
382224,21
382796,19
383376,19
383956,12
384532,12
385112,14
385684,17
386264,13
386832,15
387416,20
387988,30
388564,39
389144,43
389712,40
390296,30
390868,20
391448,17
392020,17
392600,15
393172,26
393748,36
394328,46
394900,43
395480,45
396052,42
396632,33
397204,28
397780,28
398360,29
398932,24
399512,22
400084,18
400664,12
401232,13
401816,11
402388,13
402964,14
403544,19
404116,23
404696,33
405268,42
405848,48
406420,47
406992,34
407576,25
408148,19
408728,18
409300,14
409880,26
410456,37
411032,47
411600,50
412176,50
412760,44
413328,31
413912,25
414484,26
415064,26
415632,24
416212,19
416792,19
417360,11
417944,11
418512,10
419088,10
419656,13
420240,21
420808,25
421384,29
421960,39
422528,42
423112,40
423680,27
424264,23
424832,19
425416,17
425992,22
426560,35
427144,42
427716,48
428296,49
428864,49
429448,41
430016,29
430596,22
431176,22
431748,19
432328,18
432896,17
433480,18
434052,12
434632,10
435208,10
435776,9
436300,11
436876,12
437456,19
438024,32
438608,37
439180,41
439760,35
440336,35
440904,35
441488,21
442060,19
442640,23
443212,29
443792,34
444364,42
444940,43
445520,45
446092,46
446672,33
447244,23
447824,25
448396,24
448976,23
449552,21
450124,19
450704,11
451272,11
451856,12
452424,13
453008,12
453580,12
454156,17
454736,27
455304,34
455888,36
456460,34
457040,28
457608,25
458192,20
458768,17
459340,13
459920,26
460492,33
461072,44
461640,46
462224,47
462796,49
463372,36
463952,27
464524,23
465104,19
465676,17
466256,17
466828,19
467408,11
467984,10
468556,10
469136,10
469708,10
470288,14
470868,22
471448,34
472028,41
472600,40
473184,35
473756,27
474336,19
474908,18
475488,19
476060,22
476636,29
477216,38
477788,41
478368,34
478940,32
479520,32
480100,25
480680,21
481248,24
481828,22
482408,20
482976,19
483560,19
484132,11
484712,11
485284,10
485860,11
486440,11
487008,17
487592,29
488164,38
488744,40
489316,41
489896,31
490468,28
491044,28
491624,19
492196,15
492776,19
493348,32
493928,46
494500,53
495076,50
495656,49
496228,40
496808,31
497376,25
497960,23
498528,23
499112,20
499684,18
500256,18
500840,10
501408,14
501992,12
502564,11
503144,9
503664,15
504240,25
504820,37
505396,45
505976,44
506548,35
507128,26
507708,19
508288,17
508860,17
509436,23
510016,35
510592,43
511168,47
511744,42
512324,38
512896,28
513472,13
514040,11
514616,19
515200,21
515768,19
516344,19
516912,19
517496,11
518064,11
518644,11
519224,11
519792,11
520376,12
520944,22
521528,33
522100,40
522680,40
523248,34
523824,24
524408,22
524976,19
525560,15
526128,22
526712,33
527284,41
527860,46
528440,44
529008,46
529592,40
530164,30
530744,22
531316,24
531896,21
532468,22
533044,20
533624,18
534192,10
534776,10
535348,12
535928,13
536500,14
537076,16
537656,24
538224,32
538808,39
539380,43
539960,33
540532,21
541112,19
541684,19
542260,14
542840,19
543408,31
543992,43
544564,49
545144,44
545716,41
546292,30
546872,22
547444,17
548024,21
548592,21
549176,20
549748,19
550328,18
550908,11
551484,10
552064,10
552636,10
553216,15
553796,21
554376,30
554948,38
555524,43
556104,41
556676,34
557256,25
557828,19
558408,18
558988,15
559568,23
560152,34
560724,44
561304,45
561876,43
562456,43
563036,39
563616,34
564192,27
564772,28
565352,24
565924,19
566504,17
567076,18
567656,9
568176,13
568752,22
569324,18
569900,12
570480,10
571052,19
571632,28
572204,37
572784,40
573356,32
573932,23
574512,20
575084,18
575664,13
576236,14
576816,19
577384,32
577968,44
578540,42
579116,40
579696,39
580268,35
580848,25
581420,25
582000,22
582572,18
583148,19
583728,18
584300,10
584880,10
585452,10
586032,13
586604,14
587184,15
587756,25
588332,36
588912,44
589484,41
590064,27
590636,23
591216,19
591796,17
592372,16
592952,22
593524,30
594104,38
594676,42
595256,37
595828,32
596408,27
596988,19
597564,20
598144,23
598716,21
599296,22
599876,19
600456,16
601036,11
601612,10
602192,10
602764,10
603344,12
603924,16
604504,26
605084,31
605660,41
606240,42
606812,35
607392,26
607964,19
608548,18
609124,13
609704,22
610284,31
610860,47
611440,55
612012,48
612592,44
613164,36
613744,27
614324,20
614900,19
615480,18
616052,18
616632,18
617204,15
617784,10
618356,11
618936,9
619456,10
620028,15
620608,25
621180,34
621760,40
622332,43
622912,41
623492,29
624072,21
624656,18
625228,19
625808,17
626380,22
626960,31
627540,41
628120,44
628692,40
629268,44
629848,35
630420,28
631000,24
631572,23
632152,21
632732,18
633308,18
633888,15
634464,10
635040,10
635612,10
636192,11
636772,11
637356,17
637932,31
638508,42
639088,50
639664,46
640244,31
640816,24
641392,21
641960,18
642536,16
643120,30
643692,41
644272,50
644844,53
645424,46
645996,41
646576,33
647144,21
647724,20
648304,17
648876,17
649456,17
650028,18
650608,13
651180,11
651756,10
652336,10
652908,10
653488,16
654060,20
654640,28
655212,37
655792,44
656368,43
656944,36
657528,26
658096,19
658680,18
659248,19
659832,28
660404,34
660976,40
661560,47
662132,47
662712,46
663284,35
663864,22
664436,20
665016,23
665588,22
666164,18
666744,17
667312,13
667896,10
668464,10
669048,9
669564,10
670144,14
670716,22
671292,36
671872,39
672444,40
673024,36
673596,27
674176,20
674748,18
675324,18
675904,16
676472,27
677056,38
677628,47
678208,50
678780,46
679360,40
679928,30
680508,20
681088,19
681656,21
682240,22
682808,19
683392,17
683964,13
684540,12
685120,11
685688,13
686272,15
686840,19
687424,17
687996,25
688576,30
689160,37
689732,37
690312,27
690884,24
691464,20
692032,18
692616,17
693188,31
693764,40
694344,48
694916,46
695496,40
696068,34
696648,26
697216,22
697800,23
698376,24
698948,21
699528,19
700100,18
700680,12
701252,10
701832,11
702412,10
702988,10
703568,14
704140,19
704720,34
705292,43
705872,45
706444,42
707024,29
707600,22
708172,18
708752,17
709324,21
709904,33
710476,45
711056,51
711628,47
712204,42
712784,35
713356,14
713936,14
714516,21
715096,26
715676,25
716252,22
716832,18
717404,11
717984,11
718556,12
719136,10
719708,10
720288,17
720856,25
721432,41
722016,54
722588,51
723168,36
723740,25
724320,20
724892,18
725468,18
726048,17
726620,27
727200,38
727772,47
728352,45
728924,47
729504,44
730076,33
730652,27
731232,27
731804,24
732384,24
732964,18
733544,18
734116,11
734692,10
735272,10
735848,10
736424,13
736996,17
737576,23
738148,34
738728,39
739300,35
739876,31
740456,25
741028,21
741608,17
742180,18
742760,25
743336,30
743916,36
744496,42
745068,40
745648,40
746216,32
746800,20
747380,19
747960,23
748540,21
749116,22
749696,19
750268,18
750848,10
751420,11
752000,11
752580,11
753156,12
753736,12
754308,21
754888,35
755460,40
756040,39
756620,32
757200,24
757784,19
758356,18
758936,16
759508,22
760088,34
760668,37
761248,40
761820,39
762396,38
762976,34
763548,28
764128,24
764708,26
765288,22
765868,21
766444,21
767024,17
767600,10
768180,12
768748,12
769328,13
769896,14
770480,18
771052,29
771628,35
772208,39
772780,40
773360,33
773940,27
774520,24
775100,19
775676,12
776256,19
776828,33
777408,40
777980,41
778560,44
779136,43
779720,37
780304,28
780876,25
781456,27
782028,20
782608,18
783180,17
783760,18
784340,10
784916,10
785496,10
786068,11
786648,12
787220,15
787800,28
788372,40
788948,47
789528,46
790100,31
790680,22
791252,19
791832,18
792412,14
792992,25
793572,35
794148,45
794728,48
795300,42
795880,42
796460,35
797040,25
797620,21
798196,23
798776,21
799352,20
799932,18
800504,16
801080,13
801652,16
802232,14
802804,14
803376,14
803960,16
804532,23
805112,27
805684,34
806264,35
806836,30
807412,28
807992,25
808564,19
809144,10
809716,22
810296,41
810868,57
811448,62
812028,56
812604,51
813184,38
813756,15
814336,11
814916,19
815496,23
816076,20
816652,19
817232,15
817804,9
818332,10
818908,11
819488,12
820064,16
820640,20
821208,28
821776,34
822352,42
822924,39
823504,33
824076,27
824656,23
825224,19
825808,14
826384,24
826952,35
827536,43
828104,48
828688,42
829260,40
829840,27
830408,19
830984,22
831568,24
832140,22
832720,20
833288,21
833872,15
834440,10
835024,11
835600,12
836168,12
836752,16
837324,19
837904,28
838476,36
839056,41
839624,39
840204,27
840784,20
841352,18
841936,19
842504,21
843088,35
843660,43
844240,41
844816,44
845384,39
845960,35
846532,27
847112,17
847684,14
848264,17
848832,18
849408,18
849992,17
850560,16
851144,11
851716,11
852296,9
852816,10
853392,9
853912,13
854484,26
855064,38
855636,42
856216,42
856788,36
857368,27
857948,21
858528,18
859100,16
859676,28
860256,37
860828,47
861408,48
861980,40
862560,41
863132,33
863708,26
864288,18
864860,23
865440,23
866008,19
866592,20
867164,17
867744,11
868324,10
868900,10
869480,10
870052,14
870632,21
871208,31
871792,36
872364,41
872936,40
873520,30
874092,23
874672,18
875244,18
875824,12
876396,23
876976,29
877556,43
878132,47
878712,38
879284,33
879864,27
880444,24
881024,22
881596,25
882172,22
882752,19
883324,18
883904,15
884476,10
885056,11
885628,10
886208,10
886780,17
887356,19
887936,28
888508,33
889088,41
889660,40
890240,29
890812,24
891388,18
891968,18
892540,15
893120,28
893692,38
894272,48
894852,49
895432,46
896020,41
896588,29
897168,17
897740,16
898320,21
898892,19
899472,18
900044,18
900620,13
901200,10
901772,10
902352,9
902872,10
903448,13
904020,16
904600,28
905172,33
905748,40
906328,38
906900,30
907480,23
908052,21
908632,18
909204,12
909780,21
910360,30
910932,41
911512,46
912084,45
912664,40
913236,31
913816,27
914396,26
914972,21
915552,18
916124,20
916704,20
917284,14
917864,9
918384,10
918960,11
919540,11
920116,14
920696,17
921268,25
921848,32
922424,38
923008,35
923580,22
924156,18
924736,19
925308,26
925888,11
926460,22
927040,39
927612,51
928192,50
928776,42
929348,33
929928,20
930496,17
931080,17
931652,19
932232,19
932812,18
933388,18
933968,14
934540,11
935120,9
935640,10
936216,11
936796,14
937376,16
937956,22
938532,27
939112,33
939688,37
940264,30
940844,26
941424,20
941996,18
942572,12
943152,25
943724,38
944304,43
944876,46
945456,44
946028,41
946608,29
947180,20
947756,21
948336,22
948908,21
949488,20
950060,20
950640,13
951220,10
951796,10
952380,11
952952,12
953528,13
954104,15
954680,30
955260,34
955840,35
956424,36
957000,30
957576,25
958152,23
958732,21
959308,14
959892,33
960468,49
961040,50
961624,46
962196,41
962776,38
963356,27
963936,20
964508,24
965084,24
965664,20
966236,19
966816,17
967388,11
967968,12
968540,12
969120,13
969692,11
970268,18
970848,25
971420,35
972000,42
972580,42
973160,36
973740,24
974316,20
974896,21
975468,18
976048,14
976620,27
977200,37
977780,51
978360,59
978940,54
979516,48
980096,34
980668,23
981248,23
981820,19
982400,22
982980,21
983556,18
984136,11
984708,10
985288,10
985860,10
986440,11
987008,15
987592,21
988168,32
988736,38
989320,38
989892,33
990472,27
991052,22
991632,19
992212,15
992788,18
993368,28
993940,35
994520,46
995092,45
995672,48
996252,39
996828,29
997408,23
997980,24
998560,20
999132,18
999712,17
1000284,18
1000908,12
1001536,12
1002160,11
1002788,12
1003412,15
1004036,20
1004668,31
1005288,39
1005916,39
1006540,34
1007164,24
1007792,18
1008412,18
1009040,15
1009660,22
1010288,34
1010916,43
1011540,46
1012168,42
1012800,38
1013416,32
1014044,26
1014668,24
1015300,19
1015928,18
1016548,18
1017176,19
1017800,15
1018424,13
1019052,10
1019672,11
1020300,13
1020924,18
1021552,30
1022180,44
1022808,45
1023436,35
1024068,24
1024684,19
1025312,18
1025932,15
1026560,26
1027188,40
1027808,50
1028436,43
1029056,45
1029676,38
1030308,27
1030928,24
1031556,22
1032176,21
1032800,21
1033428,19
1034052,14
1034680,10
1035308,12
1035928,16
1036556,15
1037180,18
1037808,28
1038436,34
1039056,44
1039684,46
1040304,30
1040928,22
1041556,17
1042176,17
1042804,10
1043424,29
1044048,46
1044676,48
1045292,50
1045920,43
1046548,30
1047168,26
1047796,25
1048420,29
1049048,23
1049676,18
1050292,17
1050920,10
1051544,9
1052116,10
1052748,10
1053368,17
1053996,19
1054620,34
1055244,42
1055872,41
1056488,33
1057116,22
1057740,22
1058364,19
1058992,13
1059608,23
1060240,35
1060860,44
1061488,49
1062116,45
1062740,42
1063368,29
1063996,22
1064616,25
1065244,24
1065868,21
1066496,21
1067124,17
1067744,10
1068372,11
1068996,11
1069616,11
1070248,14
1070864,20
1071492,31
1072116,42
1072740,51
1073368,41
1073988,32
1074620,24
1075248,18
1075864,15
1076492,29
1077112,41
1077744,52
1078372,50
1078992,46
1079620,38
1080244,30
1080868,23
1081496,28
1082112,25
1082740,20
1083364,19
1083988,13
1084616,10
1085232,12
1085864,12
1086492,12
1087112,15
1087740,27
1088364,41
1088992,50
1089620,46
1090236,33
1090868,23
1091488,18
1092112,18
1092740,18
1093360,25
1093988,37
1094612,47
1095236,43
1095864,47
1096480,43
1097112,33
1097740,26
1098360,27
1098988,20
1099612,20
1100240,18
1100868,10
1101484,11
1102116,14
1102740,15
1103364,16
1103996,15
1104616,27
1105244,37
1105868,40
1106492,34
1107124,26
1107744,19
1108372,18
1109004,15
1109624,25
1110252,35
1110876,44
1111508,45
1112136,37
1112756,30
1113384,12
1114008,10
1114632,20
1115260,21
1115880,26
1116508,24
1117132,18
1117756,10
1118388,10
1119008,11
1119636,13
1120268,16
1120888,22
1121516,34
1122140,42
1122768,40
1123396,28
1124016,22
1124644,20
1125268,17
1125892,17
1126524,26
1127140,39
1127772,47
1128392,39
1129016,31
1129644,27
1130260,22
1130892,19
1131512,23
1132136,23
1132768,20
1133392,19
1134020,13
1134652,10
1135272,11
1135900,12
1136524,13
1137156,17
1137784,29
1138404,35
1139032,43
1139656,48
1140280,37
1140908,22
1141528,19
1142156,22
1142780,28
1143408,39
1144036,42
1144660,41
1145292,40
1145920,42
1146540,31
1147168,19
1147792,17
1148420,23
1149048,21
1149672,19
1150300,17
1150924,11
1151548,10
1152180,10
1152796,11
1153428,12
1154056,18
1154672,32
1155300,42
1155924,42
1156552,35
1157180,22
1157800,19
1158428,18
1159048,17
1159680,28
1160308,36
1160928,48
1161556,50
1162180,44
1162804,41
1163432,26
1164048,23
1164680,27
1165304,25
1165924,21
1166556,19
1167180,17
1167808,21
1168440,27
1169056,19
1169684,13
1170308,15
1170936,18
1171568,31
1172184,39
1172812,39
1173436,32
1174060,24
1174688,20
1175312,18
1175940,17
1176568,25
1177192,40
1177820,49
1178444,43
1179072,45
1179700,37
1180320,26
1180948,23
1181572,23
1182200,21
1182832,18
1183448,19
1184080,13
1184700,11
1185324,10
1185956,10
1186576,13
1187204,23
1187828,35
1188452,39
1189080,40
1189704,39
1190336,26
1190964,20
1191584,18
1192212,17
1192836,19
1193468,31
1194096,40
1194712,44
1195344,41
1195968,43
1196592,34
1197224,26
1197840,32
1198468,27
1199092,25
1199716,19
1200348,17
1200972,11
1201600,12
1202228,10
1202848,11
1203476,15
1204100,22
1204728,36
1205360,41
1205976,43
1206604,40
1207228,28
1207852,25
1208484,20
1209104,13
1209732,24
1210356,34
1210980,44
1211608,47
1212232,52
1212860,50
1213492,34
1214112,26
1214740,26
1215364,23
1215996,21
1216628,18
1217248,16
1217876,12
1218500,12
1219124,13
1219756,10
1220376,13
1221004,21
1221628,31
1222256,40
1222884,37
1223508,31
1224140,27
1224768,20
1225392,19
1226024,14
1226648,27
1227272,39
1227900,44
1228520,44
1229152,43
1229772,35
1230396,26
1231024,23
1231640,23
1232272,24
1232896,19
1233520,19
1234148,11
1234772,11
1235400,13
1236028,14
1236648,11
1237276,14
1237900,31
1238528,41
1239156,43
1239776,36
1240404,24
1241028,19
1241652,17
1242280,15
1242896,21
1243524,30
1244148,41
1244772,38
1245400,32
1246024,30
1246652,23
1247284,18
1247904,23
1248532,25
1249156,23
1249788,22
1250416,19
1251032,10
1251664,13
1252288,14
1252912,13
1253540,17
1254160,23
1254788,29
1255412,41
1256036,43
1256664,35
1257288,22
1257920,19
1258548,18
1259168,18
1259796,29
1260420,37
1261052,43
1261680,40
1262304,42
1262932,38
1263556,25
1264184,14
1264812,18
1265432,19
1266060,19
1266684,18
1267312,15
1267940,10
1268564,10
1269196,10
1269828,10
1270448,12
1271076,24
1271700,34
1272328,39
1272956,36
1273576,27
1274208,21
1274832,18
1275456,17
1276084,22
1276704,33
1277336,28
1277964,32
1278584,44
1279216,51
1279840,44
1280472,29
1281100,24
1281716,24
1282344,19
1282968,19
1283588,18
1284220,14
1284836,15
1285468,12
1286088,11
1286708,11
1287340,18
1287960,31
1288588,40
1289212,42
1289832,36
1290464,27
1291084,23
1291712,18
1292340,12
1292960,19
1293588,33
1294212,45
1294840,49
1295468,44
1296088,41
1296716,29
1297336,21
1297960,23
1298588,20
1299208,20
1299836,20
1300460,17
1301084,10
1301712,10
1302328,10
1302960,12
1303588,19
1304208,25
1304836,32
1305460,40
1306092,42
1306720,33
1307336,21
1307968,19
1308592,19
1309216,14
1309844,26
1310464,33
1311092,37
1311716,32
1312340,36
1312968,33
1313584,32
1314212,31
1314840,33
1315456,26
1316084,20
1316708,18
1317336,13
1317964,10
1318584,10
1319212,11
1319832,12
1320456,16
1321084,26
1321700,29
1322328,36
1322952,39
1323576,36
1324204,24
1324820,19
1325452,18
1326072,20
1326696,29
1327324,38
1327948,41
1328576,42
1329204,43
1329824,36
1330452,25
1331076,23
1331704,26
1332332,21
1332948,21
1333576,18
1334200,11
1334824,13
1335452,14
1336072,12
1336700,12
1337320,17
1337944,29
1338572,38
1339192,41
1339820,36
1340448,22
1341072,20
1341700,18
1342324,15
1342952,22
1343580,35
1344200,45
1344828,49
1345448,44
1346072,43
1346700,27
1347320,22
1347948,22
1348568,20
1349192,21
1349820,18
1350440,17
1351068,10
1351696,10
1352312,12
1352940,12
1353564,18
1354192,19
1354824,31
1355440,41
1356068,45
1356692,32
1357320,25
1357948,20
1358568,19
1359196,11
1359820,20
1360444,31
1361072,46
1361688,47
1362316,45
1362940,40
1363560,30
1364188,21
1364812,24
1365440,20
1366068,18
1366688,19
1367316,14
1367940,10
1368568,11
1369196,10
1369816,11
1370444,15
1371068,25
1371692,30
1372320,37
1372936,34
1373564,30
1374188,27
1374812,19
1375440,18
1376056,17
1376684,26
1377312,40
1377928,47
1378556,41
1379180,39
1379812,29
1380440,21
1381056,19
1381688,23
1382312,23
1382936,20
1383564,18
1384184,11
1384812,10
1385436,9
1386008,10
1386636,12
1387256,20
1387884,27
1388508,34
1389132,45
1389760,39
1390376,30
1391008,23
1391636,18
1392256,17
1392884,20
1393508,31
1394136,42
1394764,44
1395384,41
1396012,41
1396636,29
1397256,21
1397888,19
1398504,20
1399132,17
1399756,18
1400380,19
1401008,11
1401624,10
1402256,11
1402876,10
1403504,12
1404132,13
1404756,22
1405388,41
1406016,61
1406636,44
1407264,25
1407888,19
1408520,18
1409148,16
1409768,27
1410396,37
1411020,47
1411640,45
1412272,43
1412888,37
1413516,27
1414140,22
1414768,25
1415396,21
1416020,21
1416648,19
1417276,14
1417896,10
1418524,13
1419148,22
1419780,29
1420408,19
1421024,25
1421656,33
1422280,36
1422900,32
1423532,25
1424152,20
1424780,17
1425404,17
1426032,18
1426660,33
1427284,39
1427912,42
1428544,39
1429160,38
1429788,31
1430412,25
1431044,22
1431672,22
1432292,21
1432920,19
1433544,19
1434172,11
1434800,10
1435416,11
1436044,10
1436668,10
1437296,12
1437924,25
1438548,37
1439176,43
1439808,39
1440424,30
1441052,24
1441676,19
1442304,15
1442932,21
1443552,33
1444180,42
1444804,50
1445424,48
1446052,46
1446672,33
1447300,23
1447924,20
1448544,19
1449176,21
1449796,18
1450428,17
1451056,12
1451672,12
1452300,11
1452924,10
1453552,15
1454184,20
1454800,33
1455432,43
1456052,47
1456676,37
1457304,28
1457928,22
1458556,18
1459180,13
1459804,16
1460436,36
1461060,57
1461688,53
1462316,44
1462936,40
1463564,31
1464188,21
1464820,25
1465448,23
1466064,19
1466696,19
1467320,13
1467944,11
1468572,11
1469192,13
1469820,12
1470444,13
1471068,15
1471700,21
1472324,32
1472952,45
1473584,40
1474200,36
1474832,24
1475456,17
1476084,19
1476712,34
1477328,43
1477956,44
1478580,45
1479204,45
1479832,38
1480456,31
1481084,26
1481708,24
1482332,20
1482960,18
1483576,18
1484204,12
1484836,11
1485452,11
1486080,11
1486704,13
1487332,17
1487964,26
1488584,35
1489212,42
1489836,39
1490460,26
1491088,20
1491708,17
1492336,16
1492960,24
1493584,35
1494212,44
1494832,44
1495460,35
1496092,28
1496712,21
1497340,18
1497964,26
1498592,23
1499224,18
1499840,19
1500468,19
1501092,11
1501716,9
1502296,9
1502868,12
1503500,17
1504124,21
1504756,30
1505384,35
1506008,40
1506636,38
1507260,28
1507884,22
1508512,17
1509136,16
1509764,25
1510388,35
1511016,40
1511644,42
1512268,44
1512900,41
1513532,26
1514152,19
1514784,25
1515408,24
1516036,19
1516668,18
1517288,15
1517916,11
1518540,10
1519168,11
1519796,12
1520416,15
1521044,21
1521676,32
1522296,46
1522924,49
1523548,34
1524180,21
1524808,17
1525432,20
1526060,23
1526684,32
1527308,39
1527940,46
1528560,43
1529188,40
1529812,35
1530436,28
1531068,22
1531688,23
1532316,21
1532948,19
1533568,19
1534200,11
1534824,11
1535452,13
1536084,13
1536700,13
1537328,21
1537952,46
1538576,49
1539204,48
1539820,37
1540452,26
1541076,21
1541700,19
1542328,16
1542944,27
1543576,34
1544204,42
1544824,53
1545452,51
1546076,46
1546704,31
1547336,26
1547952,25
1548580,21
1549204,19
1549828,17
1550460,17
1551080,12
1551708,12
1552332,11
1552956,10
1553588,11
1554208,18
1554836,29
1555468,38
1556088,45
1556716,41
1557340,33
1557972,24
1558600,17
1559216,23
1559848,31
1560472,41
1561096,47
1561724,44
1562344,42
1562972,30
1563596,22
1564220,25
1564848,27
1565464,24
1566092,20
1566716,18
1567344,13
1567972,11
1568600,11
1569228,10
1569856,10
1570480,13
1571108,28
1571732,44
1572360,46
1572988,40
1573608,28
1574236,21
1574864,19
1575488,19
1576116,23
1576736,30
1577364,31
1577996,36
1578616,38
1579244,37
1579868,29
1580500,23
1581128,22
1581752,22
1582384,20
1583008,21
1583632,18
1584264,10
1584880,10
1585508,10
1586132,10
1586760,13
1587388,18
1588008,30
1588636,38
1589268,40
1589888,37
1590516,28
1591140,21
1591772,18
1592404,16
1593024,24
1593652,34
1594276,47
1594900,49
1595532,40
1596152,33
1596784,20
1597408,10
1598032,19
1598660,22
1599280,25
1599912,24
1600540,19
1601156,10
1601788,10
1602408,12
1603036,13
1603664,18
1604288,29
1604916,45
1605540,47
1606160,40
1606788,26
1607408,20
1608036,18
1608660,18
1609280,21
1609908,32
1610528,40
1611156,45
1611788,42
1612408,39
1613036,33
1613660,24
1614288,21
1614916,22
1615536,23
1616164,21
1616788,18
1617412,12
1618044,11
1618664,10
1619292,10
1619912,13
1620536,15
1621168,25
1621784,37
1622412,43
1623036,39
1623664,29
1624292,23
1624916,19
1625548,17
1626176,25
1626800,37
1627428,46
1628052,53
1628680,48
1629308,46
1629928,40
1630556,29
1631180,25
1631808,18
1632436,17
1633056,18
1633684,17
1634316,14
1634936,15
1635564,15
1636188,14
1636820,16
1637448,20
1638072,33
1638704,45
1639324,47
1639948,42
1640576,25
1641188,20
1641816,17
1642440,17
1643060,28
1643688,40
1644304,50
1644932,47
1645552,46
1646176,40
1646804,27
1647424,16
1648056,19
1648680,20
1649300,19
1649928,18
1650548,17
1651176,10
1651808,10
1652424,11
1653052,10
1653676,13
1654296,22
1654928,33
1655544,41
1656172,36
1656796,30
1657416,24
1658048,20
1658664,18
1659292,17
1659920,29
1660536,39
1661168,46
1661788,43
1662416,40
1663048,31
1663664,27
1664292,20
1664916,23
1665540,21
1666168,18
1666784,18
1667412,12
1668032,10
1668656,11
1669284,10
1669900,11
1670528,14
1671152,25
1671776,32
1672404,41
1673024,39
1673656,33
1674284,24
1674900,23
1675532,17
1676152,22
1676784,36
1677412,39
1678032,45
1678660,44
1679284,42
1679908,33
1680536,27
1681152,25
1681780,23
1682404,21
1683024,19
1683652,18
1684268,11
1684900,11
1685528,11
1686144,14
1686772,18
1687396,26
1688024,32
1688652,38
1689272,43
1689900,34
1690524,20
1691144,18
1691772,16
1692392,17
1693020,24
1693644,31
1694264,38
1694892,36
1695512,32
1696140,32
1696764,24
1697384,21
1698012,22
1698636,22
1699264,20
1699892,16
1700508,18
1701140,10
1701760,10
1702388,10
1703016,11
1703640,17
1704268,22
1704892,29
1705512,42
1706144,45
1706760,40
1707388,28
1708012,19
1708636,18
1709264,18
1709888,32
1710516,36
1711148,44
1711768,41
1712396,46
1713020,37
1713652,22
1714280,14
1714896,20
1715524,20
1716148,20
1716772,21
1717400,19
1718020,12
1718648,11
1719272,14
1719896,16
1720524,16
1721144,24
1721772,35
1722400,40
1723016,39
1723644,25
1724268,19
1724896,18
1725524,16
1726144,20
1726772,30
1727396,41
1728020,49
1728648,44
1729264,41
1729892,35
1730516,32
1731140,26
1731768,20
1732392,19
1733020,17
1733652,18
1734272,12
1734900,10
1735524,10
1736152,11
1736784,14
1737400,20
1738032,37
1738656,48
1739280,46
1739908,32
1740528,26
1741156,21
1741780,17
1742404,16
1743032,28
1743648,39
1744276,43
1744904,46
1745528,41
1746156,37
1746780,25
1747408,19
1748036,22
1748656,19
1749284,19
1749908,19
1750536,18
1751164,10
1751784,10
1752412,11
1753036,11
1753660,15
1754288,18
1754912,30
1755540,41
1756172,42
1756792,29
1757420,23
1758044,19
1758676,17
1759308,15
1759928,28
1760560,37
1761180,43
1761804,40
1762432,40
1763056,35
1763684,28
1764308,22
1764928,23
1765560,21
1766176,18
1766804,18
1767432,11
1768056,10
1768684,10
1769304,10
1769936,11
1770564,14
1771184,36
1771812,50
1772436,45
1773060,39
1773692,26
1774312,21
1774940,20
1775564,17
1776188,22
1776816,37
1777440,56
1778068,59
1778696,48
1779320,44
1779948,23
1780572,11
1781204,18
1781832,20
1782448,22
1783076,21
1783700,19
1784324,10
1784956,10
1785576,13
1786208,13
1786832,18
1787456,21
1788084,32
1788704,38
1789336,37
1789964,32
1790584,26
1791216,19
1791840,17
1792472,16
1793100,25
1793720,36
1794348,42
1794972,41
1795596,41
1796224,41
1796840,26
1797468,17
1798092,20
1798716,19
1799344,20
1799964,18
1800592,17
1801220,10
1801840,11
1802468,11
1803092,12
1803720,17
1804348,21
1804968,34
1805596,46
1806216,36
1806848,29
1807476,23
1808096,20
1808724,17
1809344,18
1809968,28
1810596,40
1811216,49
1811844,42
1812468,38
1813092,29
1813720,22
1814344,24
1814972,21
1815604,22
1816224,21
1816852,19
1817476,11
1818108,10
1818736,10
1819352,10
1819984,12
1820608,16
1821232,32
1821860,42
1822480,47
1823108,38
1823732,25
1824356,20
1824984,17
1825608,19
1826236,27
1826864,38
1827488,40
1828116,37
1828740,33
1829372,38
1830000,31
1830620,23
1831248,23
1831872,22
1832496,21
1833124,18
1833744,18
1834372,10
1834996,11
1835620,11
1836252,11
1836876,16
1837504,22
1838132,34
1838752,40
1839380,36
1840004,29
1840636,23
1841264,20
1841884,18
1842512,14
1843136,29
1843764,39
1844392,46
1845008,43
1845636,40
1846260,35
1846884,28
1847512,24
1848136,24
1848764,21
1849392,19
1850012,19
1850640,15
1851264,12
1851892,13
1852520,10
1853144,10
1853772,11
1854396,22
1855020,32
1855652,40
1856272,41
1856900,34
1857524,25
1858144,18
1858776,19
1859400,15
1860028,25
1860656,39
1861276,47
1861904,41
1862528,39
1863156,33
1863788,26
1864408,24
1865036,23
1865660,23
1866284,20
1866912,17
1867528,10
1868160,10
1868784,10
1869408,10
1870036,10
1870660,13
1871292,26
1871920,40
1872540,52
1873168,44
1873792,29
1874420,20
1875052,18
1875672,16
1876300,21
1876924,27
1877548,36
1878180,46
1878800,44
1879428,40
1880052,30
1880676,20
1881308,21
1881932,20
1882560,19
1883188,17
1883808,19
1884440,11
1885060,10
1885692,10
1886320,10
1886936,13
1887568,18
1888192,29
1888816,42
1889444,48
1890064,39
1890692,24
1891316,20
1891940,18
1892568,14
1893192,27
1893824,37
1894452,46
1895072,45
1895700,41
1896324,33
1896952,30
1897580,30
1898200,32
1898828,27
1899452,25
1900076,21
1900708,11
1901328,10
1901956,12
1902584,11
1903208,10
1903836,11
1904464,22
1905092,33
1905724,42
1906344,60
1906972,47
1907600,27
1908228,20
1908856,16
1909480,18
1910108,21
1910736,29
1911360,29
1911988,38
1912608,46
1913240,41
1913872,31
1914488,23
1915120,22
1915744,23
1916376,19
1917004,18
1917624,11
1918252,11
1918880,11
1919504,13
1920136,14
1920752,21
1921380,36
1922004,45
1922628,47
1923256,40
1923872,27
1924500,19
1925132,17
1925752,16
1926380,26
1927004,34
1927632,44
1928260,46
1928880,42
1929508,40
1930132,31
1930760,25
1931388,25
1932008,23
1932636,21
1933260,18
1933884,16
1934516,11
1935136,11
1935768,11
1936396,10
1937016,16
1937644,22
1938268,35
1938896,41
1939528,42
1940144,33
1940772,21
1941396,19
1942024,19
1942652,14
1943272,28
1943900,37
1944528,40
1945152,33
1945780,35
1946400,35
1947028,19
1947656,12
1948272,20
1948904,25
1949528,26
1950156,23
1950788,15
1951408,14
1952036,13
1952660,11
1953284,10
1953916,17
1954536,33
1955164,37
1955792,45
1956416,39
1957044,24
1957664,19
1958292,18
1958924,16
1959544,23
1960172,32
1960796,41
1961428,47
1962056,44
1962680,43
1963308,33
1963936,25
1964560,27
1965188,24
1965808,27
1966436,23
1967060,17
1967684,12
1968312,13
1968928,13
1969560,18
1970188,32
1970808,37
1971436,43
1972060,44
1972688,46
1973316,36
1973936,25
1974564,18
1975188,18
1975816,16
1976444,24
1977064,34
1977692,47
1978316,46
1978940,41
1979568,39
1980184,30
1980816,23
1981436,24
1982064,21
1982692,19
1983316,19
1983948,15
1984580,10
1985200,11
1985828,10
1986452,11
1987080,15
1987708,26
1988328,30
1988956,38
1989580,40
1990204,31
1990836,24
1991456,20
1992084,17
1992716,21
1993336,35
1993964,46
1994588,52
1995220,48
1995848,44
1996468,33
1997096,19
1997720,19
1998344,23
1998972,24
1999592,21
2000220,19
2000844,11
2001468,12
2002096,11
2002712,11
2003344,13
2003968,19
2004592,27
2005220,32
2005844,46
2006472,42
2007104,30
2007720,22
2008348,18
2008972,16
2009600,24
2010228,34
2010848,38
2011476,45
2012100,41
2012724,40
2013356,32
2013976,26
2014604,24
2015228,19
2015856,19
2016484,17
2017108,18
2017740,11
2018368,11
2018984,10
2019616,11
2020240,12
2020868,16
2021500,32
2022120,45
2022748,43
2023372,33
2023996,27
2024628,22
2025248,18
2025876,14
2026508,28
2027128,41
2027760,49
2028380,42
2029012,42
2029640,41
2030264,31
2030892,25
2031516,25
2032140,23
2032772,26
2033392,20
2034020,18
2034644,27
2035268,17
2035900,10
2036520,11
2037148,12
2037780,28
2038400,44
2039028,49
2039652,46
2040284,35
2040916,24
2041536,20
2042168,17
2042792,21
2043416,37
2044048,49
2044664,51
2045296,49
2045920,47
2046544,37
2047176,24
2047792,18
2048424,17
2049052,18
2049668,19
2050296,22
2050916,11
2051544,9
2052120,10
2052744,10
2053372,13
2053996,22
2054624,39
2055252,40
2055872,43
2056500,36
2057120,27
2057744,21
2058372,16
2058988,15
2059620,19
2060240,31
2060860,39
2061488,45
2062108,48
2062740,47
2063368,33
2063984,21
2064612,21
2065236,22
2065864,20
2066492,19
2067112,17
2067740,10
2068364,11
2068992,13
2069620,13
2070240,15
2070868,18
2071492,31
2072116,39
2072744,41
2073360,34
2073988,25
2074612,21
2075236,18
2075864,14
2076488,26
2077116,34
2077744,43
2078368,40
2078996,42
2079620,40
2080248,28
2080876,21
2081492,27
2082124,26
2082744,19
2083364,18
2083996,14
2084616,11
2085244,10
2085864,11
2086488,11
2087116,14
2087736,29
2088364,42
2088992,48
2089608,44
2090236,33
2090860,24
2091488,20
2092116,16
2092736,16
2093364,27
2093988,39
2094612,47
2095240,45
2095856,41
2096488,34
2097108,24
2097732,21
2098360,20
2098984,20
2099612,20
2100240,20
2100864,12
2101492,10
2102112,10
2102744,12
2103372,12
2103992,18
2104620,32
2105244,39
2105868,41
2106496,35
2107112,29
2107744,27
2108368,19
2108992,14
2109620,25
2110240,41
2110868,53
2111496,50
2112120,41
2112748,36
2113372,29
2114000,23
2114628,23
2115248,23
2115876,24
2116500,19
2117124,17
2117756,10
2118376,11
2119008,12
2119628,14
2120252,18
2120884,30
2121504,43
2122132,41
2122764,38
2123384,37
2124012,29
2124636,22
2125268,17
2125896,18
2126516,29
2127144,42
2127768,53
2128392,50
2129020,39
2129640,32
2130268,25
2130892,23
2131516,28
2132144,21
2132760,19
2133388,19
2134012,13
2134640,11
2135268,10
2135892,10
2136520,13
2137152,16
2137768,25
2138396,35
2139020,42
2139648,42
2140280,28
2140896,24
2141524,21
2142148,17
2142772,15
2143400,31
2144024,43
2144652,46
2145276,48
2145900,40
2146528,28
2147152,24
2147780,23
2148412,23
2149032,17
2149660,17
2150288,19
2150916,11
2151544,10
2152168,11
2152796,11
2153420,11
2154044,13
2154672,29
2155292,44
2155920,52
2156548,44
2157168,29
2157796,20
2158420,18
2159048,15
2159680,27
2160296,45
2160928,50
2161552,47
2162180,42
2162808,38
2163432,27
2164060,14
2164684,18
2165308,18
2165936,20
2166552,18
2167184,19
2167812,10
2168432,12
2169060,12
2169684,13
2170312,18
2170944,27
2171560,33
2172192,40
2172812,42
2173444,29
2174072,21
2174692,20
2175320,17
2175944,17
2176568,25
2177196,35
2177816,48
2178444,47
2179068,44
2179696,37
2180324,25
2180948,21
2181576,22
2182208,18
2182824,19
2183452,19
2184076,12
2184704,10
2185332,10
2185952,10
2186580,12
2187204,19
2187828,35
2188460,39
2189080,39
2189708,39
2190332,28
2190960,27
2191588,22
2192212,17
2192844,15
2193472,30
2194092,43
2194720,51
2195344,43
2195972,44
2196604,35
2197224,29
2197852,19
2198476,15
2199100,17
2199732,20
2200352,21
2200980,13
2201612,10
2202232,13
2202860,11
2203484,14
2204112,20
2204744,31
2205364,41
2205992,43
2206616,40
2207240,31
2207868,22
2208488,18
2209116,15
2209740,26
2210364,35
2210996,46
2211616,49
2212244,47
2212876,41
2213496,32
2214124,19
2214748,21
2215380,18
2216008,18
2216624,19
2217256,16
2217880,13
2218504,10
2219132,10
2219752,13
2220380,16
2221008,25
2221628,35
2222260,38
2222880,39
2223508,29
2224140,20
2224760,20
2225388,18
2226012,19
2226644,26
2227272,35
2227896,36
2228524,35
2229148,38
2229772,35
2230404,32
2231024,29
2231656,27
2232280,22
2232904,18
2233532,18
2234152,13
2234780,11
2235412,10
2236032,13
2236664,12
2237288,17
2237916,29
2238548,36
2239168,41
2239800,43
2240424,35
2241048,23
2241676,18
2242296,19
2242924,22
2243548,35
2244172,38
2244800,40
2245424,41
2246052,43
2246684,34
2247304,23
2247932,22
2248556,21
2249188,20
2249816,18
2250440,18
2251068,12
2251692,11
2252316,11
2252948,10
2253568,14
2254196,19
2254820,31
2255440,40
2256072,39
2256688,33
2257316,27
2257944,21
2258568,18
2259196,15
2259820,28
2260448,38
2261080,44
2261696,46
2262328,43
2262952,35
2263576,35
2264204,22
2264824,26
2265452,24
2266076,21
2266700,18
2267328,16
2267952,15
2268580,12
2269212,10
2269832,11
2270460,15
2271084,27
2271716,35
2272348,40
2272968,41
2273596,26
2274220,21
2274844,19
2275476,18
2276096,18
2276724,29
2277348,40
2277972,46
2278604,43
2279224,43
2279852,34
2280484,20
2281104,19
2281732,26
2282356,24
2282988,21
2283616,18
2284236,13
2284864,13
2285488,11
2286112,10
2286740,10
2287360,16
2287988,29
2288616,39
2289240,49
2289868,45
2290488,35
2291116,24
2291748,20
2292368,14
2293000,18
2293624,32
2294252,50
2294884,54
2295504,49
2296132,45
2296756,29
2297380,17
2298012,23
2298632,20
2299260,17
2299884,19
2300508,17
2301140,10
2301764,10
2302392,10
2303024,10
2303644,15
2304276,24
2304896,39
2305528,45
2306156,42
2306776,33
2307404,26
2308028,19
2308652,17
2309280,16
2309896,25
2310524,39
2311148,48
2311772,45
2312404,41
2313024,35
2313656,27
2314284,19
2314904,22
2315532,20
2316156,18
2316784,18
2317416,12
2318036,11
2318664,12
2319288,13
2319912,14
2320540,11
2321160,21
2321788,35
2322412,43
2323036,45
2323664,33
2324288,23
2324920,17
2325548,16
2326168,20
2326796,30
2327420,40
2328052,44
2328680,42
2329304,41
2329932,32
2330556,23
2331180,20
2331812,19
2332432,19
2333060,20
2333688,18
2334308,11
2334940,11
2335564,10
2336196,10
2336824,11
2337440,15
2338068,33
2338692,42
2339324,43
2339952,38
2340572,31
2341200,22
2341824,19
2342448,13
2343076,25
2343696,41
2344324,48
2344948,49
2345572,45
2346204,44
2346828,33
2347460,21
2348088,24
2348712,20
2349344,19
2349968,19
2350596,17
2351228,10
2351848,10
2352480,10
2353104,11
2353728,11
2354360,22
2354976,40
2355608,44
2356236,39
2356856,30
2357484,20
2358108,18
2358740,18
2359368,17
2359988,26
2360616,27
2361240,29
2361864,35
2362496,39
2363112,37
2363744,25
2364368,22
2364992,26
2365620,23
2366240,19
2366868,17
2367500,10
2368120,11
2368748,11
2369372,10
2370004,11
2370632,19
2371248,30
2371880,35
2372504,43
2373128,37
2373756,28
2374376,25
2375008,19
2375632,17
2376256,22
2376884,31
2377504,43
2378132,46
2378764,42
2379384,36
2380012,28
2380636,21
2381268,21
2381900,18
2382520,20
2383148,18
2383772,18
2384400,11
2385028,10
2385648,11
2386276,11
2386900,13
2387524,19
2388156,32
2388776,46
2389404,40
2390036,35
2390656,26
2391288,19
2391912,18
2392544,18
2393172,31
2393792,41
2394424,51
2395048,46
2395672,46
2396304,40
2396920,30
2397548,25
2398176,26
2398800,20
2399428,18
2400048,20
2400676,15
2401304,10
2401928,10
2402556,11
2403180,11
2403812,15
2404440,28
2405064,41
2405692,46
2406320,44
2406944,32
2407572,23
2408192,20
2408820,17
2409444,17
2410068,34
2410700,50
2411320,59
2411948,52
2412580,44
2413200,32
2413828,24
2414452,21
2415084,20
2415716,17
2416336,18
2416964,17
2417588,13
2418212,11
2418844,10
2419464,10
2420092,11
2420716,17
2421340,29
2421972,38
2422596,43
2423224,38
2423856,28
2424472,19
2425104,20
2425728,15
2426356,27
2426988,38
2427608,47
2428236,47
2428860,41
2429484,39
2430116,28
2430736,22
2431368,25
2431992,21
2432616,18
2433248,20
2433872,17
2434500,9
2435080,10
2435704,11
2436332,11
2436960,15
2437588,22
2438220,34
2438840,44
2439468,45
2440092,36
2440716,24
2441348,20
2441968,19
2442596,15
2443220,29
2443844,35
2444476,45
2445096,45
2445724,43
2446356,36
2446976,27
2447608,25
2448232,30
2448860,25
2449492,19
2450112,19
2450744,13
2451368,12
2451992,15
2452620,12
2453240,11
2453868,15
2454496,24
2455120,33
2455748,40
2456368,40
2457000,27
2457628,23
2458244,19
2458872,17
2459496,20
2460128,32
2460756,44
2461376,45
2462004,40
2462628,37
2463252,25
2463880,20
2464504,22
2465132,23
2465756,25
2466380,22
2467008,19
2467628,11
2468256,12
2468884,12
2469504,14
2470132,13
2470756,17
2471388,29
2472016,39
2472632,41
2473264,36
2473888,27
2474512,22
2475140,18
2475760,15
2476388,25
2477012,37
2477636,49
2478268,48
2478888,42
2479516,35
2480148,27
2480768,19
2481396,24
2482020,19
2482648,20
2483280,17
2483896,17
2484524,10
2485148,10
2485772,11
2486400,10
2487016,14
2487648,22
2488272,35
2488896,43
2489524,38
2490144,27
2490772,21
2491404,17
2492024,17
2492652,12
2493280,17
2493908,24
2494540,32
2495160,40
2495792,45
2496416,39
2497040,28
2497668,21
2498288,23
2498916,21
2499540,19
2500164,19
2500792,11
2501412,10
2502040,9
2502612,10
2503240,12
2503868,19
2504488,34
2505116,37
2505748,36
2506368,33
2506996,24
2507620,19
2508252,18
2508884,16
2509504,22
2510132,34
2510756,32
2511380,41
2512012,44
2512632,41
2513260,31
2513888,22
2514512,22
2515140,23
2515760,19
2516388,19
2517020,18
2517640,11
2518272,11
2518896,11
2519528,11
2520156,12
2520776,17
2521408,36
2522032,46
2522656,47
2523284,42
2523904,27
2524536,19
2525160,18
2525784,17
2526412,27
2527032,36
2527664,50
2528296,47
2528912,46
2529544,38
2530168,27
2530796,19
2531428,20
2532048,19
2532676,21
2533304,18
2533928,16
2534560,10
2535176,11
2535808,11
2536432,12
2537056,15
2537684,23
2538312,35
2538940,43
2539572,44
2540192,37
2540820,26
2541444,19
2542076,20
2542708,24
2543328,33
2543960,43
2544584,51
2545208,48
2545836,45
2546456,35
2547088,24
2547716,19
2548336,24
2548968,21
2549592,19
2550224,20
2550852,11
2551472,11
2552104,12
2552728,12
2553352,13
2553984,20
2554604,29
2555232,40
2555856,49
2556484,38
2557116,23
2557736,21
2558368,18
2559000,13
2559620,17
2560252,29
2560876,42
2561504,45
2562132,40
2562752,36
2563380,27
2564000,23
2564620,24
2565252,20
2565868,23
2566500,22
2567120,20
2567744,13
2568372,10
2568992,10
2569620,9
2570192,14
2570816,20
2571444,34
2572064,45
2572692,47
2573324,39
2573944,25
2574572,19
2575196,17
2575824,15
2576456,21
2577072,32
2577700,45
2578324,45
2578948,43
2579580,38
2580200,29
2580828,20
2581452,23
2582072,20
2582704,18
2583320,19
2583948,16
2584572,10
2585200,11
2585828,10
2586452,10
2587080,15
2587708,21
2588328,32
2588956,46
2589580,47
2590208,38
2590840,27
2591456,22
2592084,17
2592708,20
2593332,31
2593960,46
2594576,57
2595208,50
2595828,40
2596456,31
2597084,20
2597708,15
2598336,21
2598968,20
2599584,19
2600216,19
2600840,13
2601468,11
2602100,12
2602720,13
2603348,11
2603972,14
2604596,34
2605228,49
2605848,68
2606476,52
2607100,34
2607728,22
2608356,18
2608980,15
2609612,27
2610240,38
2610860,40
2611488,41
2612112,38
2612740,41
2613372,34
2613992,26
2614620,25
2615244,23
2615868,22
2616500,20
2617120,19
2617748,10
2618380,10
2619000,10
2619628,10
2620252,11
2620884,19
2621512,34
2622136,45
2622764,47
2623388,38
2624008,27
2624636,21
2625256,19
2625884,12
2626504,30
2627128,47
2627756,54
2628376,53
2629004,45
2629628,36
2630248,27
2630880,23
2631500,24
2632132,21
2632760,17
2633376,19
2634004,14
2634628,9
2635204,10
2635836,10
2636456,11
2637084,11
2637708,22
2638336,31
2638964,40
2639584,43
2640212,33
2640836,24
2641456,21
2642088,22
2642704,10
2643332,24
2643956,32
2644576,46
2645204,43
2645828,47
2646456,38
2647084,26
2647704,23
2648332,19
2648956,22
2649584,21
2650212,18
2650832,11
2651460,10
2652084,9
2652656,10
2653284,10
2653904,15
2654532,23
2655156,37
2655780,47
2656412,41
2657032,29
2657660,21
2658284,19
2658904,16
2659536,17
2660152,32
2660780,47
2661412,50
2662032,45
2662660,45
2663284,35
2663912,26
2664540,21
2665160,21
2665788,19
2666408,17
2667028,19
2667660,10
2668280,12
2668908,15
2669528,14
2670152,17
2670780,19
2671400,30
2672028,37
2672656,39
2673272,37
2673900,26
2674524,20
2675152,18
2675784,15
2676400,25
2677028,34
2677652,45
2678276,46
2678908,44
2679528,42
2680156,30
2680780,23
2681404,23
2682032,20
2682656,19
2683284,19
2683912,16
2684536,11
2685164,10
2685788,9
2686364,9
2686940,12
2687568,21
2688196,34
2688812,43
2689440,42
2690068,30
2690688,23
2691316,19
2691940,18
2692568,12
2693196,23
2693816,33
2694444,33
2695064,32
2695688,46
2696316,46
2696936,35
2697564,25
2698188,25
2698812,23
2699440,18
2700064,19
2700692,13
2701324,10
2701944,10
2702572,10
2703196,11
2703828,15
2704456,28
2705080,39
2705708,43
2706332,42
2706952,27
2707584,19
2708200,17
2708832,19
2709452,21
2710076,33
2710708,48
2711328,50
2711956,40
2712588,37
2713208,29
2713836,23
2714460,20
2715088,23
2715720,22
2716336,21
2716964,18
2717588,11
2718216,11
2718844,10
2719464,10
2720092,12
2720716,17
2721340,30
2721968,38
2722584,44
2723212,38
2723836,26
2724464,24
2725092,21
2725716,12
2726344,17
2726976,33
2727592,43
2728220,47
2728844,44
2729472,37
2730104,27
2730720,20
2731348,24
2731972,18
2732596,19
2733228,20
2733848,20
2734476,10
2735100,10
2735728,16
2736356,15
2736980,16
2737612,13
2738240,18
2738856,32
2739488,37
2740112,29
2740740,19
2741368,17
2741992,19
2742620,15
2743244,21
2743868,29
2744500,34
2745120,37
2745748,39
2746376,34
2747000,26
2747628,24
2748252,25
2748884,22
2749512,19
2750128,18
2750760,13
2751384,12
2752008,11
2752636,10
2753256,13
2753884,15
2754508,24
2755132,34
2755764,42
2756384,47
2757012,31
2757644,22
2758264,18
2758892,17
2759516,21
2760148,33
2760780,38
2761400,41
2762028,36
2762656,36
2763276,31
2763908,22
2764528,24
2765156,24
2765780,24
2766404,21
2767032,17
2767652,11
2768280,11
2768908,10
2769528,11
2770156,13
2770780,20
2771412,36
2772040,45
2772656,44
2773288,36
2773912,26
2774536,20
2775164,18
2775784,15
2776412,23
2777036,33
2777660,45
2778292,46
2778912,45
2779540,41
2780172,28
2780792,24
2781420,24
2782048,19
2782676,18
2783308,18
2783928,17
2784560,11
2785184,10
2785808,11
2786436,10
2787056,14
2787684,28
2788308,48
2788932,45
2789560,35
2790184,24
2790816,19
2791444,18
2792064,19
2792692,10
2793316,23
2793948,39
2794576,51
2795196,47
2795824,46
2796448,37
2797072,22
2797704,13
2798320,20
2798948,19
2799572,19
2800200,21
2800828,14
2801448,13
2802076,10
2802704,10
2803328,12
2803956,15
2804580,25
2805208,33
2805840,40
2806456,37
2807084,26
2807708,22
2808332,19
2808960,15
2809580,20
2810208,34
2810832,45
2811456,48
2812084,42
2812704,40
2813336,29
2813964,19
2814584,24
2815212,26
2815840,22
2816472,21
2817100,18
2817720,10
2818348,10
2818972,11
2819596,10
2820224,15
2820840,17
2821472,27
2822092,36
2822716,43
2823348,38
2823968,31
2824596,24
2825228,20
2825848,13
2826476,24
2827100,36
2827728,42
2828360,39
2828976,41
2829604,35
2830228,26
2830852,23
2831484,25
2832104,22
2832732,18
2833356,17
2833980,15
2834608,13
2835228,10
2835856,11
2836484,9
2837052,11
2837684,21
2838304,38
2838936,45
2839564,41
2840184,31
2840812,21
2841436,19
2842068,17
2842696,13
2843320,25
2843948,38
2844572,52
2845196,49
2845828,42
2846448,33
2847076,26
2847700,27
2848324,23
2848956,20
2849576,19
2850204,18
2850836,10
2851456,12
2852084,14
2852708,13
2853340,10
2853968,14
2854592,29
2855220,32
2855844,41
2856468,39
2857100,22
2857720,19
2858348,17
2858972,15
2859596,22
2860228,35
2860848,44
2861476,48
2862108,42
2862728,43
2863356,31
2863984,22
2864616,24
2865244,20
2865864,19
2866496,22
2867120,21
2867744,11
2868372,10
2868992,11
2869620,13
2870244,21
2870868,32
2871496,43
2872112,43
2872744,41
2873372,32
2873992,25
2874620,18
2875244,18
2875876,18
2876504,30
2877124,37
2877752,46
2878376,45
2879000,42
2879628,35
2880248,26
2880876,18
2881496,23
2882120,18
2882748,17
2883368,18
2883996,15
2884624,13
2885240,12
2885868,10
2886492,10
2887120,13
2887748,24
2888368,32
2888996,41
2889616,41
2890244,30
2890872,20
2891496,18
2892124,19
2892748,18
2893372,30
2894004,38
2894624,43
2895252,43
2895884,45
2896504,35
2897132,21
2897756,21
2898388,25
2899016,24
2899636,20
2900264,18
2900888,11
2901512,10
2902140,10
2902760,11
2903388,15
2904012,19
2904636,29
2905268,36
2905888,40
2906516,36
2907148,29
2907768,23
2908396,18
2909020,15
2909652,24
2910280,34
2910904,45
2911532,48
2912156,40
2912780,37
2913412,24
2914032,18
2914660,24
2915284,28
2915908,22
2916540,18
2917160,18
2917788,10
2918420,10
2919040,11
2919668,11
2920292,14
2920920,20
2921552,32
2922168,43
2922800,45
2923424,38
2924048,29
2924676,20
2925296,18
2925924,17
2926548,28
2927172,37
2927804,48
2928424,46
2929052,46
2929684,35
2930304,27
2930932,20
2931556,23
2932188,21
2932816,20
2933440,17
2934068,13
2934692,15
2935316,12
2935948,11
2936568,12
2937196,14
2937824,21
2938448,31
2939076,38
2939696,40
2940324,29
2940956,22
2941576,18
2942208,17
2942832,19
2943460,36
2944092,45
2944712,50
2945340,48
2945964,45
2946588,34
2947220,22
2947840,24
2948468,22
2949092,21
2949716,18
2950348,18
2950968,25
2951596,15
2952228,8
2952796,10
2953428,10
2954052,14
2954684,31
2955312,44
2955936,49
2956564,43
2957188,26
2957820,19
2958448,17
2959072,15
2959700,25
2960328,30
2960948,42
2961580,45
2962200,45
2962828,44
2963452,36
2964080,28
2964708,22
2965332,21
2965964,19
2966592,17
2967208,17
2967840,11
2968464,11
2969092,10
2969724,10
2970344,11
2970972,16
2971596,28
2972220,35
2972848,35
2973464,32
2974092,25
2974716,28
2975344,23
2975972,12
2976600,24
2977228,35
2977860,44
2978480,43
2979108,43
2979732,35
2980360,29
2980988,26
2981608,26
2982236,21
2982860,20
2983484,18
2984116,10
2984736,12
2985364,12
2985996,11
2986616,13
2987244,17
2987868,27
2988500,36
2989132,36
2989752,36
2990384,25
2991008,18
2991632,18
2992260,16
2992880,24
2993508,31
2994132,35
2994756,40
2995388,34
2996008,37
2996636,29
2997268,22
2997888,24
2998516,19
2999140,19
2999772,18
3000404,18
3001024,11
3001652,11
3002276,10
3002900,9
3003480,13
3004104,16
3004736,34
3005360,41
3005984,43
3006616,37
3007232,25
3007864,19
3008488,18
3009112,13
3009740,25
3010360,38
3010992,47
3011620,46
3012240,45
3012868,42
3013492,27
3014124,24
3014756,24
3015376,24
3016008,20
3016628,18
3017252,16
3017884,10
3018504,11
3019136,10
3019760,12
3020384,15
3021016,22
3021640,35
3022268,44
3022900,44
3023520,29
3024148,19
3024772,18
3025404,17
3026036,18
3026656,32
3027288,38
3027912,45
3028536,41
3029164,40
3029784,30
3030416,25
3031044,22
3031664,26
3032296,23
3032920,19
3033548,18
3034180,11
3034800,12
3035432,11
3036056,11
3036680,12
3037312,18
3037928,30
3038560,40
3039184,43
3039808,35
3040440,26
3041056,21
3041684,18
3042316,14
3042936,27
3043564,38
3044192,45
3044820,44
3045452,37
3046072,32
3046704,28
3047328,24
3047952,24
3048584,21
3049200,20
3049828,20
3050452,19
3051080,10
3051708,10
3052328,13
3052956,12
3053588,14
3054208,22
3054836,39
3055464,48
3056096,48
3056724,28
3057344,23
3057976,19
3058600,18
3059224,14
3059852,26
3060472,38
3061104,45
3061728,48
3062352,49
3062984,43
3063604,27
3064232,18
3064864,21
3065484,20
3066116,18
3066740,18
3067372,13
3068004,10
3068624,10
3069256,10
3069880,11
3070504,18
3071136,30
3071756,39
3072388,43
3073012,41
3073636,27
3074264,22
3074888,19
3075516,18
3076144,26
3076768,38
3077396,42
3078020,45
3078652,43
3079280,42
3079896,33
3080528,25
3081152,24
3081776,24
3082404,18
3083024,17
3083652,17
3084276,11
3084900,11
3085528,10
3086152,10
3086780,12
3087412,17
3088032,31
3088660,39
3089284,43
3089912,41
3090544,27
3091160,22
3091792,19
3092416,14
3093040,22
3093668,34
3094288,45
3094916,43
3095544,41
3096168,39
3096796,25
3097420,20
3098052,24
3098684,24
3099304,24
3099932,24
3100560,17
3101188,10
3101820,10
3102440,12
3103072,14
3103696,22
3104320,26
3104948,35
3105568,45
3106200,39
3106828,27
3107448,19
3108076,18
3108704,17
3109332,19
3109964,28
3110584,38
3111216,47
3111840,41
3112464,37
3113096,33
3113712,22
3114340,19
3114964,20
3115592,19
3116220,18
3116840,19
3117468,11
3118100,9
3118668,11
3119300,10
3119920,13
3120552,21
3121180,26
3121800,31
3122428,34
3123056,34
3123684,23
3124316,20
3124936,18
3125564,19
3126188,24
3126812,32
3127444,42
3128064,46
3128692,42
3129316,39
3129940,18
3130572,16
3131192,23
3131824,24
3132452,21
3133072,20
3133704,18
3134328,13
3134956,20
3135588,16
3136208,13
3136836,11
3137460,15
3138084,27
3138712,36
3139336,37
3139964,33
3140592,27
3141216,23
3141844,18
3142468,18
3143100,31
3143732,36
3144352,45
3144980,43
3145604,41
3146236,42
3146868,32
3147488,27
3148120,24
3148744,19
3149368,17
3150000,18
3150620,15
3151248,10
3151880,10
3152500,10
3153132,10
3153756,15
3154388,25
3155016,34
3155640,43
3156268,42
3156896,29
3157520,21
3158148,17
3158768,19
3159400,18
3160024,31
3160648,42
3161276,50
3161896,43
3162528,43
3163160,39
3163776,26
3164408,20
3165032,22
3165664,17
3166292,16
3166912,17
3167544,11
3168168,11
3168792,11
3169424,11
3170040,11
3170672,15
3171296,29
3171920,41
3172552,48
3173168,38
3173800,30
3174432,26
3175052,19
3175680,16
3176304,29
3176932,40
3177564,48
3178184,49
3178816,49
3179440,47
3180064,33
3180696,23
3181312,23
3181944,23
3182568,22
3183192,19
3183824,17
3184444,11
3185072,11
3185704,10
3186324,10
3186956,14
3187580,21
3188212,38
3188844,44
3189464,43
3190096,36
3190720,25
3191344,21
3191976,19
3192596,11
3193228,19
3193852,34
3194480,51
3195112,57
3195736,55
3196368,42
3197000,28
3197616,22
3198248,23
3198872,22
3199496,20
3200128,17
3200744,12
3201372,11
3201996,10
3202616,10
3203248,12
3203864,18
3204492,28
3205116,42
3205740,47
3206368,45
3206992,29
3207620,21
3208252,18
3208872,17
3209500,24
3210124,34
3210752,42
3211384,48
3212000,43
3212632,41
3213256,29
3213880,17
3214508,16
3215128,19
3215756,20
3216380,18
3217008,18
3217636,11
3218260,10
3218888,11
3219516,11
3220136,16
3220764,20
3221388,28
3222020,31
3222648,40
3223272,39
3223900,25
3224528,21
3225152,19
3225780,13
3226400,27
3227028,39
3227656,48
3228280,49
3228908,44
3229532,41
3230160,26
3230792,16
3231412,24
3232040,26
3232664,25
3233288,19
3233916,16
3234536,12
3235164,12
3235792,11
3236416,12
3237044,16
3237664,24
3238292,35
3238924,44
3239544,46
3240172,32
3240796,24
3241428,19
3242056,17
3242680,19
3243308,35
3243932,49
3244560,56
3245188,50
3245808,46
3246436,32
3247060,20
3247684,15
3248316,19
3248936,20
3249564,20
3250196,18
3250816,12
3251448,11
3252068,11
3252700,11
3253332,11
3253952,18
3254580,29
3255208,35
3255832,40
3256460,35
3257080,28
3257708,20
3258332,18
3258956,15
3259588,20
3260208,36
3260836,44
3261468,46
3262088,49
3262716,45
3263344,29
3263976,19
3264608,23
3265224,23
3265852,25
3266480,20
3267104,18
3267732,16
3268352,15
3268980,11
3269608,10
3270232,14
3270864,19
3271480,30
3272112,41
3272740,43
3273360,35
3273992,25
3274616,23
3275248,18
3275876,16
3276496,27
3277128,36
3277748,44
3278372,43
3279000,45
3279616,42
3280244,32
3280868,27
3281488,27
3282116,20
3282732,20
3283364,19
3283988,13
3284608,11
3285236,12
3285856,13
3286488,15
3287116,16
3287736,25
3288364,38
3288984,44
3289608,43
3290236,29
3290856,23
3291484,19
3292108,17
3292728,22
3293360,34
3293976,44
3294604,50
3295228,48
3295856,47
3296484,33
3297108,23
3297736,21
3298364,20
3298984,20
3299612,19
3300232,18
3300864,11
3301492,10
3302112,12
3302740,12
3303364,15
3303988,19
3304616,30
3305232,36
3305864,43
3306484,37
3307108,27
3307740,21
3308360,17
3308992,17
3309620,24
3310240,34
3310868,41
3311492,45
3312120,43
3312752,41
3313368,33
3313996,22
3314620,22
3315244,22
3315872,22
3316496,21
3317124,17
3317748,10
3318372,10
3319004,10
3319628,11
3320256,21
3320884,26
3321504,37
3322132,40
3322756,41
3323384,37
3324016,31
3324632,26
3325260,18
3325884,15
3326508,31
3327140,45
3327760,55
3328392,51
3329012,48
3329636,42
3330264,33
3330884,30
3331516,29
3332144,22
3332760,18
3333388,20
3334012,18
3334640,10
3335272,10
3335888,10
3336516,11
3337140,15
3337764,24
3338392,34
3339008,43
3339640,50
3340260,39
3340884,25
3341512,18
3342132,18
3342760,21
3343388,28
3344008,36
3344636,42
3345260,39
3345888,41
3346516,34
3347136,29
3347764,28
3348388,27
3349012,25
3349644,20
3350264,19
3350892,11
3351516,12
3352140,11
3352772,10
3353392,15
3354024,24
3354652,34
3355272,40
3355900,41
3356524,33
3357156,24
3357784,18
3358408,19
3359036,13
3359660,22
3360284,36
3360912,45
3361528,48
3362160,45
3362780,39
3363404,29
3364032,22
3364648,25
3365276,21
3365904,19
3366528,19
3367156,17
3367780,10
3368408,10
3369036,11
3369656,13
3370284,19
3370904,20
3371528,29
3372156,35
3372776,35
3373404,29
3374028,26
3374652,23
3375284,18
3375904,15
3376532,26
3377164,38
3377784,51
3378412,47
3379036,41
3379668,34
3380296,23
3380920,21
3381548,25
3382172,23
3382792,21
3383424,18
3384040,12
3384668,11
3385292,14
3385912,12
3386544,14
3387160,15
3387792,26
3388420,35
3389040,40
3389668,38
3390292,25
3390920,21
3391552,19
3392168,17
3392800,18
3393420,29
3394052,40
3394680,46
3395296,43
3395924,42
3396548,35
3397172,23
3397800,21
3398420,21
3399048,21
3399672,19
3400296,17
3400924,11
3401548,10
3402176,11
3402808,12
3403424,15
3404052,19
3404676,29
3405308,37
3405936,37
3406552,33
3407184,28
3407808,22
3408432,18
3409060,14
3409680,29
3410308,39
3410932,45
3411556,49
3412184,46
3412808,42
3413436,34
3414068,24
3414688,26
3415316,24
3415940,21
3416572,18
3417204,17
3417824,11
3418452,11
3419076,10
3419700,11
3420332,14
3420952,23
3421580,34
3422204,41
3422832,43
3423460,34
3424084,25
3424716,20
3425344,18
3425960,10
3426592,19
3427216,30
3427844,45
3428472,48
3429096,55
3429728,47
3430352,34
3430976,27
3431604,25
3432224,22
3432852,19
3433484,18
3434104,11
3434732,12
3435356,11
3435988,11
3436620,10
3437240,15
3437868,25
3438496,36
3439120,43
3439748,40
3440368,30
3440996,21
3441620,17
3442244,15
3442872,19
3443488,27
3444120,34
3444748,36
3445368,37
3445996,43
3446620,37
3447252,32
3447880,28
3448496,24
3449128,22
3449752,20
3450376,17
3451004,10
3451624,11
3452252,12
3452876,12
3453500,13
3454132,16
3454752,29
3455380,38
3456012,42
3456628,39
3457260,29
3457884,21
3458512,19
3459140,11
3459760,24
3460388,36
3461012,45
3461640,47
3462268,46
3462888,45
3463516,33
3464140,25
3464764,25
3465392,24
3466016,23
3466644,20
3467276,14
3467896,11
3468524,10
3469148,12
3469780,14
3470408,17
3471028,27
3471656,39
3472280,42
3472904,35
3473536,28
3474152,23
3474784,20
3475408,18
3476032,16
3476660,27
3477280,41
3477908,53
3478540,48
3479160,45
3479792,35
3480416,25
3481044,21
3481676,22
3482292,21
3482924,18
3483544,17
3484168,11
3484796,11
3485416,13
3486044,11
3486668,10
3487292,13
3487924,22
3488544,34
3489172,44
3489804,36
3490424,26
3491052,22
3491676,17
3492308,15
3492936,22
3493556,35
3494184,45
3494808,49
3495432,44
3496060,40
3496680,28
3497308,21
3497932,22
3498556,21
3499188,21
3499808,19
3500436,17
3501068,10
3501688,11
3502316,11
3502944,11
3503572,17
3504204,23
3504824,34
3505452,42
3506076,42
3506700,33
3507332,25
3507952,21
3508580,17
3509204,13
3509828,19
3510460,32
3511080,50
3511712,51
3512340,48
3512960,38
3513588,25
3514216,24
3514844,25
3515476,21
3516096,19
3516728,18
3517352,14
3517976,11
3518608,11
3519224,10
3519856,11
3520480,12
3521104,26
3521732,38
3522352,47
3522980,52
3523612,36
3524232,25
3524860,24
3525484,17
3526112,21
3526740,34
3527360,47
3527988,52
3528612,45
3529236,39
3529868,26
3530488,20
3531116,20
3531740,25
3532368,23
3532996,19
3533616,20
3534244,10
3534872,10
3535496,12
3536124,11
3536748,13
3537380,18
3538008,30
3538628,40
3539256,42
3539880,38
3540504,27
3541132,18
3541752,18
3542384,15
3543008,26
3543632,35
3544260,45
3544880,52
3545508,47
3546140,45
3546760,31
3547388,22
3548012,21
3548644,16
3549272,16
3549896,18
3550524,17
3551152,12
3551776,12
3552408,10
3553024,10
3553656,15
3554276,20
3554904,31
3555532,37
3556152,39
3556784,31
3557412,23
3558032,21
3558664,19
3559288,18
3559916,31
3560548,38
3561168,47
3561796,44
3562424,45
3563048,37
3563676,26
3564296,21
3564924,23
3565548,23
3566172,20
3566804,18
3567428,11
3568060,12
3568688,11
3569304,11
3569936,14
3570560,21
3571188,32
3571820,40
3572440,43
3573072,35
3573696,25
3574320,18
3574952,26
3575568,30
3576200,40
3576824,47
3577448,54
3578080,54
3578704,43
3579336,34
3579964,23
3580584,16
3581216,17
3581840,17
3582472,20
3583104,19
3583720,18
3584356,9
3584924,10
3585552,10
3586180,10
3586800,14
3587428,18
3588052,35
3588676,50
3589304,54
3589928,38
3590556,23
3591188,18
3591808,17
3592436,17
3593060,32
3593692,43
3594320,47
3594944,43
3595572,49
3596196,45
3596824,27
3597452,16
3598072,22
3598704,17
3599328,19
3599952,18
3600584,15
3601200,11
3601828,13
3602460,12
3603080,15
3603712,21
3604336,29
3604964,42
3605592,45
3606216,41
3606844,29
3607468,23
3608092,18
3608720,17
3609336,16
3609968,28
3610592,40
3611212,45
3611844,42
3612464,46
3613092,38
3613724,25
3614344,18
3614972,20
3615596,20
3616228,18
3616856,17
3617472,11
3618104,12
3618724,11
3619348,10
3619980,10
3620600,19
3621228,35
3621852,43
3622476,44
3623104,41
3623728,32
3624356,22
3624988,17
3625608,17
3626236,28
3626860,34
3627492,43
3628120,44
3628736,39
3629368,42
3629992,35
3630616,25
3631244,22
3631864,19
3632496,20
3633120,18
3633744,17
3634372,10
3634992,11
3635624,11
3636252,12
3636872,17
3637500,19
3638124,33
3638756,40
3639384,39
3640004,33
3640632,23
3641256,20
3641880,18
3642508,14
3643128,25
3643756,38
3644384,51
3645008,53
3645636,49
3646256,37
3646884,12
3647516,10
3648136,19
3648764,20
3649388,23
3650016,20
3650648,13
3651264,11
3651892,11
3652516,12
3653140,12
3653768,14
3654392,23
3655024,33
3655648,42
3656272,44
3656900,34
3657520,21
3658148,17
3658780,18
3659400,21
3660028,31
3660656,43
3661284,49
3661916,42
3662536,40
3663164,29
3663792,19
3664416,21
3665044,21
3665664,20
3666292,17
3666916,17
3667540,11
3668172,11
3668792,13
3669424,12
3670052,14
3670672,23
3671304,33
3671928,43
3672560,42
3673188,32
3673808,21
3674436,17
3675064,17
3675688,15
3676316,21
3676936,30
3677568,42
3678192,47
3678816,45
3679448,43
3680072,32
3680700,27
3681332,27
3681952,23
3682580,20
3683204,19
3683836,16
3684468,10
3685088,11
3685720,10
3686344,12
3686968,17
3687596,17
3688216,26
3688844,29
3689468,32
3690088,27
3690720,21
3691344,17
3691972,17
3692604,18
3693224,29
3693852,28
3694476,30
3695108,29
3695736,39
3696360,37
3696988,28
3697612,24
3698236,26
3698864,23
3699488,20
3700116,17
3700748,13
3701368,15
3701996,13
3702624,15
3703252,17
3703884,22
3704504,35
3705132,45
3705760,51
3706384,42
3707012,26
3707632,20
3708260,17
3708884,17
3709508,24
3710140,34
3710760,41
3711388,43
3712020,40
3712636,41
3713268,33
3713892,25
3714520,23
3715152,21
3715772,20
3716400,18
3717024,17
3717648,11
3718276,10
3718896,10
3719524,9
3720096,11
3720728,14
3721356,26
3721976,40
3722604,43
3723228,35
3723852,23
3724484,18
3725104,17
3725732,16
3726364,26
3726984,37
3727616,46
3728236,47
3728868,43
3729496,39
3730116,23
3730744,15
3731368,19
3731992,18
3732620,19
3733240,21
3733868,16
3734492,10
3735116,10
3735748,10
3736368,10
3736996,11
3737628,18
3738248,31
3738876,39
3739500,42
3740132,31
3740760,24
3741384,18
3742016,17
3742640,15
3743264,23
3743896,39
3744512,47
3745144,45
3745768,42
3746392,35
3747024,21
3747640,20
3748272,21
3748900,16
3749520,16
3750148,17
3750776,11
3751404,11
3752036,12
3752656,13
3753284,13
3753908,19
3754536,37
3755168,44
3755784,49
3756416,40
3757040,29
3757664,20
3758296,17
3758920,19
3759552,25
3760180,34
3760800,50
3761428,60
3762056,57
3762684,57
3763316,38
3763936,24
3764568,21
3765192,20
3765816,20
3766444,22
3767064,21
3767696,10
3768324,10
3768944,11
3769572,14
3770196,23
3770828,29
3771460,34
3772080,35
3772708,37
3773336,33
3773960,30
3774592,21
3775208,16
3775840,16
3776464,21
3777088,29
3777716,32
3778336,25
3778968,34
3779596,38
3780216,34
3780844,28
3781468,35
3782100,33
3782732,28
3783352,25
3783984,18
3784608,12
3785232,11
3785864,14
3786480,18
3787112,26
3787736,39
3788360,43
3788992,47
3789608,45
3790236,35
3790868,22
3791488,18
3792116,15
3792740,15
3793372,27
3794004,44
3794624,55
3795252,55
3795876,45
3796500,25
3797132,18
3797752,32
3798384,32
3799008,34
3799636,24
3800264,16
3800888,11
3801516,11
3802148,15
3802768,22
3803400,22
3804024,24
3804652,33
3805284,42
3805904,50
3806536,45
3807160,28
3807784,21
3808416,17
3809032,28
3809664,40
3810288,54
3810912,58
3811544,60
3812168,42
3812796,25
3813428,22
3814048,22
3814680,23
3815304,21
3815932,18
3816564,16
3817184,16
3817816,10
3818440,11
3819064,11
3819696,15
3820312,10
3820944,20
3821572,38
3822192,54
3822824,45
3823448,22
3824080,16
3824708,16
3825328,20
3825960,17
3826584,12
3827208,22
3827836,47
3828456,54
3829088,51
3829712,40
3830336,26
3830968,14
3831588,18
3832220,16
3832852,16
3833472,17
3834104,13
3834728,11
3835360,11
3835992,12
3836612,15
3837244,23
3837868,27
3838496,31
3839128,38
3839748,42
3840380,25
3841004,20
3841628,18
3842256,14
3842872,13
3843500,27
3844132,38
3844752,45
3845380,42
3846004,44
3846636,36
3847264,31
3847888,28
3848516,29
3849140,25
3849764,25
3850396,24
3851016,22
3851644,17
3852268,13
3852892,11
3853520,17
3854144,30
3854772,49
3855404,60
3856024,58
3856652,38
3857276,24
3857904,17
3858536,17
3859156,18
3859784,33
3860412,46
3861036,57
3861664,56
3862284,56
3862912,39
3863536,18
3864160,11
3864792,17
3865416,15
3866048,16
3866676,16
3867296,13
3867924,12
3868548,11
3869180,19
3869812,22
3870432,24
3871064,27
3871688,43
3872312,54
3872940,51
3873560,39
3874188,23
3874816,18
3875440,16
3876068,11
3876692,25
3877324,48
3877956,67
3878576,75
3879204,71
3879832,55
3880456,43
3881084,35
3881704,29
3882332,28
3882956,23
3883584,17
3884212,10
3884832,17
3885460,24
3886092,24
3886712,24
3887344,33
3887968,43
3888600,54
3889232,43
3889848,26
3890480,18
3891104,17
3891728,19
3892360,18
3892976,18
3893608,30
3894232,45
3894856,32
3895484,11
3896104,14
3896732,19
3897364,16
3897984,18
3898612,19
3899236,19
3899868,23
3900500,22
3901120,11
3901752,11
3902376,16
3903000,20
3903632,17
3904248,11
3904880,14
3905504,21
3906128,14
3906756,35
3907376,51
3908004,49
3908636,26
3909256,13
3909884,15
3910512,31
3911140,49
3911772,51
3912392,40
3913024,21
3913648,11
3914272,12
3914900,19
3915520,23
3916152,17
3916776,17
3917400,17
3918032,21
3918652,21
3919284,16
3919912,18
3920536,19
3921168,17
3921792,29
3922424,48
3923052,37
3923672,25
3924304,16
3924928,16
3925552,18
3926184,27
3926800,38
3927432,47
3928056,44
3928680,47
3929312,45
3929936,29
3930564,21
3931196,21
3931816,24
3932448,18
3933072,16
3933704,18
3934332,16
3934952,12
3935580,10
3936208,10
3936828,13
3937460,20
3938080,34
3938708,49
3939340,48
3939960,39
3940588,31
3941212,23
3941844,22
3942476,10
3943096,21
3943724,35
3944348,39
3944972,37
3945600,38
3946216,36
3946848,32
3947472,31
3948096,24
3948724,18
3949344,18
3949972,16
3950604,15
3951224,16
3951856,18
3952480,21
3953108,20
3953740,12
3954360,22
3954988,37
3955616,40
3956240,29
3956868,19
3957488,17
3958116,20
3958744,31
3959368,38
3959996,35
3960616,28
3961248,27
3961880,27
3962496,26
3963124,19
3963752,13
3964380,13
3965012,16
3965632,16
3966260,19
3966888,29
3967512,25
3968144,28
3968760,29
3969388,15
3970012,14
3970636,29
3971268,43
3971888,47
3972516,48
3973148,40
3973768,33
3974396,24
3975020,19
3975652,12
3976284,24
3976904,46
3977532,65
3978160,65
3978784,61
3979416,65
3980032,58
3980664,49
3981288,43
3981912,29
3982540,17
3983160,19
3983792,21
3984420,18
3985040,13
3985668,11
3986292,11
3986924,11
3987556,18
3988176,51
3988808,81
3989428,79
3990056,57
3990688,39
3991304,29
3991936,18
3992560,17
3993184,30
3993816,41
3994440,39
3995068,28
3995700,40
3996320,47
3996948,37
3997576,35
3998204,41
3998836,38
3999456,37
4000088,35
4000708,16
4001332,14
4001960,25
4002576,26
4003208,21
4003832,12
4004456,21
4005084,29
4005708,37
4006336,48
4006968,34
4007584,17
4008216,17
4008840,24
4009468,49
4010100,66
4010720,64
4011348,45
4011976,33
4012600,33
4013228,15
4013848,11
4014476,30
4015100,42
4015728,47
4016356,50
4016980,39
4017612,27
4018240,21
4018856,11
4019488,11
4020112,11
4020740,15
4021368,20
4021992,21
4022620,11
4023244,17
4023868,26
4024500,39
4025120,43
4025748,28
4026380,42
4027000,45
4027628,49
4028252,47
4028884,18
4029512,10
4030132,11
4030760,16
4031384,39
4032012,63
4032640,67
4033256,68
4033888,59
4034512,36
4035136,47
4035764,24
4036384,11
4037012,17
4037644,34
4038264,64
4038896,95
4039516,81
4040148,54
4040780,44
4041400,44
4042028,33
4042656,12
4043280,19
4043908,15
4044528,24
4045160,25
4045780,24
4046404,14
4047036,10
4047656,11
4048284,16
4048916,18
4049536,35
4050168,41
4050788,44
4051420,48
4052052,54
4052672,64
4053300,43
4053928,19
4054552,11
4055180,61
4055800,124
4056480,161
4057160,148
4057836,96
4058460,61
4059084,33
4059708,11
4060340,10
4060960,13
4061588,17
4062220,26
4062840,89
4063468,126
4064148,145
4064824,142
4065496,131
4066172,108
4066848,88
4067476,70
4068096,63
4068728,44
4069352,15
4069976,24
4070608,50
4071224,74
4071856,69
4072484,58
4073104,52
4073736,31
4074360,24
4074992,17
4075620,17
4076240,19
4076868,13
4077492,17
4078120,11
4078748,11
4079368,20
4080000,22
4080624,13
4081248,43
4081876,47
4082504,43
4083132,24
4083764,21
4084384,13
4085016,13
4085640,13
4086268,11
4086900,15
4087520,43
4088152,77
4088776,67
4089400,49
4090032,38
4090652,24
4091280,19
4091912,24
4092532,15
4093164,68
4093788,91
4094420,90
4095052,66
4095672,124
4096360,131
4097032,124
4097696,84
4098324,88
4098944,80
4099572,31
4100200,49
4100816,84
4101444,97
4102064,87
4102688,82
4103316,73
4103936,47
4104564,53
4105184,49
4105808,23
4106436,16
4107052,17
4107684,32
4108312,57
4108928,60
4109556,34
4110180,16
4110808,12
4111436,27
4112056,60
4112684,71
4113304,38
4113928,18
4114556,44
4115176,43
4115804,32
4116428,61
4117052,119
4117736,99
4118352,137
4119032,145
4119712,84
4120336,26
4120964,21
4121588,16
4122212,23
4122840,58
4123464,46
4124092,39
4124720,25
4125336,19
4125968,10
4126592,13
4127220,35
4127852,28
4128472,12
4129100,10
4129724,10
4130348,22
4130976,16
4131592,21
4132220,39
4132844,53
4133468,52
4134096,35
4134720,14
4135348,14
4135980,32
4136600,35
4137228,39
4137852,46
4138480,31
4139112,29
4139728,29
4140356,19
4140980,29
4141604,41
4142232,14
4142856,14
4143484,21
4144108,37
4144732,51
4145360,11
4145984,24
4146612,53
4147244,56
4147864,33
4148492,16
4149112,15
4149744,24
4150372,15
4150992,41
4151620,72
4152244,50
4152868,35
4153500,13
4154120,36
4154748,28
4155372,51
4155996,51
4156628,35
4157252,18
4157884,20
4158512,21
4159132,59
4159764,62
4160388,12
4161016,69
4161644,77
4162264,75
4162892,39
4163512,13
4164136,13
4164764,17
4165384,24
4166012,24
4166636,16
4167260,56
4167888,97
4168504,96
4169132,62
4169764,36
4170384,18
4171012,30
4171636,42
4172264,14
4172896,63
4173512,101
4174192,75
4174812,63
4175432,96
4176064,134
4176732,160
4177408,150
4178084,152
4178756,130
4179432,81
4180060,26
4180680,15
4181308,45
4181932,65
4182556,67
4183184,69
4183800,58
4184432,63
4185056,48
4185676,57
4186308,64
4186928,27
4187556,11
4188188,20
4188808,11
4189436,11
4190060,21
4190688,18
4191320,24
4191936,64
4192568,98
4193192,80
4193816,15
4194444,24
4195064,54
4195692,72
4196316,69
4196940,61
4197572,30
4198192,32
4198824,38
4199452,74
4200072,59
4200700,31
4201324,19
4201952,11
4202580,10
4203200,12
4203828,17
4204452,13
4205076,11
4205704,10
4206320,51
4206948,99
4207572,64
4208196,57
4208828,55
4209448,38
4210076,50
4210708,48
4211328,70
4211956,86
4212580,44
4213212,71
4213840,128
4214508,142
4215184,95
4215816,74
4216432,93
4217060,97
4217684,65
4218316,13
4218944,38
4219564,58
4220192,42
4220816,20
4221444,31
4222072,33
4222696,31
4223328,31
4223952,25
4224576,18
4225204,22
4225824,36
4226452,51
4227080,46
4227704,38
4228332,12
4228956,30
4229584,14
4230216,31
4230832,45
4231464,21
4232088,24
4232712,53
4233340,72
4233960,77
4234588,46
4235212,11
4235836,16
4236468,46
4237088,50
4237716,53
4238348,92
4238968,105
4239648,63
4240272,53
4240900,57
4241528,34
4242152,19
4242780,33
4243404,49
4244028,53
4244656,28
4245280,13
4245908,49
4246540,46
4247160,13
4247788,35
4248416,31
4249044,24
4249676,26
4250296,16
4250924,20
4251548,40
4252172,79
4252800,81
4253416,55
4254048,17
4254672,32
4255296,37
4255928,12
4256544,25
4257172,22
4257804,16
4258424,25
4259052,12
4259676,57
4260308,64
4260940,88
4261560,63
4262188,29
4262812,11
4263436,14
4264064,17
4264680,22
4265312,15
4265936,19
4266556,17
4267188,18
4267808,23
4268436,27
4269068,43
4269688,53
4270316,23
4270940,39
4271572,16
4272200,12
4272820,24
4273448,18
4274072,20
4274696,27
4275324,24
4275944,12
4276572,11
4277196,37
4277820,32
4278452,27
4279072,41
4279700,32
4280332,22
4280952,16
4281580,43
4282204,24
4282836,19
4283464,28
4284088,32
4284716,18
4285340,16
4285968,17
4286596,10
4287216,24
4287844,23
4288472,11
4289092,15
4289724,29
4290344,40
4290972,24
4291604,28
4292224,32
4292852,27
4293476,12
4294108,29
4294736,39
4295360,11
4295988,28
4296616,38
4297240,36
4297868,27
4298488,20
4299116,17
4299744,29
4300368,22
4301000,12
4301616,21
4302244,19
4302872,29
4303492,24
4304120,31
4304744,39
4305372,14
4306000,11
4306624,20
4307252,22
4307876,17
4308500,18
4309128,55
4309748,65
4310376,32
4311000,25
4311624,16
4312252,14
4312872,17
4313500,10
4314132,11
4314752,21
4315380,19
4316008,17
4316636,16
4317268,18
4317888,16
4318520,12
4319144,10
4319768,11
4320400,10
4321016,11
4321644,20
4322268,35
4322892,39
4323520,37
4324144,52
4324772,32
4325404,16
4326024,38
4326652,59
4327276,65
4327908,56
4328536,43
4329156,37
4329784,19
4330408,11
4331032,14
4331660,15
4332280,16
4332908,18
4333532,17
4334156,17
4334788,12
4335408,11
4336036,13
4336668,18
4337288,27
4337916,16
4338544,17
4339172,28
4339804,29
4340424,39
4341056,33
4341680,19
4342304,25
4342932,21
4343552,13
4344180,12
4344808,12
4345428,10
4346060,10
4346680,15
4347308,12
4347940,18
4348560,21
4349188,17
4349816,23
4350444,21
4351076,10
4351696,10
4352328,13
4352948,13
4353572,16
4354204,13
4354824,13
4355452,29
4356076,34
4356700,41
4357332,28
4357952,16
4358584,19
4359212,52
4359832,61
4360464,47
4361084,51
4361716,50
4362344,40
4362968,26
4363596,10
4364220,30
4364844,43
4365472,36
4366096,19
4366724,27
4367348,29
4367972,37
4368604,20
4369228,12
4369860,48
4370488,80
4371108,72
4371736,71
4372364,37
4372992,20
4373620,17
4374240,28
4374868,16
4375496,35
4376120,49
4376748,11
4377368,56
4378000,86
4378620,86
4379248,92
4379876,72
4380504,55
4381132,33
4381764,24
4382384,17
4383016,28
4383640,29
4384264,19
4384892,14
4385512,13
4386140,18
4386764,17
4387392,33
4388020,76
4388640,77
4389268,63
4389900,28
4390520,22
4391148,18
4391772,24
4392404,20
4393036,14
4393656,28
4394284,70
4394912,89
4395536,69
4396164,44
4396784,40
4397416,33
4398040,33
4398664,18
4399296,24
4399912,23
4400548,13
4401176,10
4401796,10
4402428,17
4403052,33
4403684,30
4404312,16
4404928,10
4405560,32
4406184,45
4406808,50
4407436,54
4408056,37
4408684,28
4409308,27
4409932,13
4410564,18
4411184,26
4411816,38
4412444,62
4413064,49
4413696,35
4414320,37
4414948,71
4415580,130
4416252,116
4416928,97
4417556,51
4418176,11
4418804,24
4419428,24
4420060,38
4420688,49
4421312,55
4421944,68
4422568,78
4423192,66
4423820,41
4424440,29
4425068,23
4425692,14
4426316,10
4426944,22
4427568,35
4428196,38
4428828,30
4429448,24
4430076,25
4430700,40
4431332,62
4431960,44
4432584,24
4433212,26
4433836,24
4434464,13
4435092,16
4435712,12
4436340,10
4436968,14
4437592,27
4438220,25
4438840,30
4439472,15
4440100,15
4440720,17
4441348,19
4441976,18
4442604,11
4443236,16
4443856,28
4444488,41
4445108,38
4445732,30
4446364,16
4446984,11
4447616,11
4448240,19
4448864,21
4449492,20
4450116,16
4450748,44
4451376,61
4452000,60
4452628,58
4453256,72
4453884,81
4454516,100
4455188,81
4455816,22
4456440,17
4457064,28
4457692,65
4458316,82
4458948,95
4459576,122
4460252,120
4460932,105
4461608,80
4462232,56
4462864,21
4463488,11
4464120,13
4464748,16
4465368,17
4465996,16
4466624,18
4467248,20
4467876,14
4468496,18
4469124,29
4469752,19
4470376,29
4471008,43
4471632,45
4472264,45
4472896,39
4473512,39
4474144,33
4474768,20
4475400,17
4476032,36
4476648,64
4477280,130
4477964,125
4478636,78
4479264,52
4479888,35
4480520,15
4481148,33
4481768,89
4482396,65
4483020,53
4483644,39
4484276,16
4484896,23
4485524,27
4486156,22
4486776,12
4487404,13
4488028,11
4488660,28
4489288,14
4489904,17
4490532,16
4491160,16
4491784,17
4492412,33
4493032,51
4493660,31
4494284,30
4494908,50
4495540,42
4496160,32
4496788,21
4497420,18
4498040,29
4498668,23
4499292,19
4499924,17
4500556,30
4501176,52
4501808,51
4502432,27
4503056,24
4503684,37
4504304,40
4504936,49
4505560,56
4506184,38
4506816,16
4507432,17
4508060,16
4508692,18
4509312,13
4509940,45
4510564,57
4511196,64
4511828,62
4512448,43
4513076,42
4513700,44
4514324,46
4514952,60
4515576,60
4516204,29
4516828,16
4517452,12
4518084,16
4518704,17
4519332,13
4519964,10
4520584,11
4521212,11
4521836,13
4522468,29
4523096,32
4523720,29
4524348,30
4524976,24
4525596,12
4526228,22
4526848,24
4527476,24
4528100,32
4528724,27
4529356,21
4529976,14
4530604,12
4531236,16
4531856,20
4532484,21
4533108,26
4533740,21
4534372,10
4534992,13
4535624,12
4536248,11
4536872,17
4537500,33
4538120,48
4538752,42
4539376,28
4540000,22
4540628,16
4541256,16
4541884,19
4542516,10
4543136,17
4543768,28
4544392,40
4545020,40
4545652,41
4546272,32
4546904,19
4547524,15
4548148,17
4548780,18
4549400,18
4550028,19
4550656,15
4551280,14
4551912,40
4552536,59
4553164,35
4553796,14
4554416,20
4555044,55
4555672,77
4556296,85
4556928,88
4557544,75
4558176,52
4558800,31
4559424,19
4560052,14
4560672,51
4561300,66
4561932,82
4562552,89
4563184,69
4563808,74
4564440,85
4565068,69
4565688,51
4566320,36
4566944,19
4567568,13
4568200,21
4568816,22
4569444,16
4570072,22
4570696,31
4571324,39
4571944,48
4572576,60
4573204,55
4573824,54
4574456,44
4575080,37
4575712,11
4576344,14
4576960,11
4577588,20
4578216,26
4578840,17
4579472,10
4580088,13
4580720,16
4581344,29
4581968,15
4582600,17
4583216,20
4583848,23
4584476,12
4585096,37
4585728,81
4586352,93
4586984,54
4587612,21
4588232,13
4588860,27
4589484,17
4590108,17
4590740,18
4591360,23
4591988,26
4592616,24
4593240,27
4593868,51
4594488,58
4595116,48
4595748,39
4596368,27
4596996,13
4597624,15
4598252,17
4598884,16
4599504,18
4600136,16
4600760,13
4601384,10
4602016,11
4602632,12
4603264,20
4603888,27
4604512,36
4605144,43
4605768,54
4606396,54
4607028,46
4607648,38
4608280,31
4608904,13
4609532,20
4610160,31
4610784,43
4611412,57
4612036,54
4612660,33
4613288,18
4613904,15
4614536,18
4615160,17
4615784,17
4616412,18
4617036,17
4617664,10
4618296,13
4618912,11
4619540,13
4620164,13
4620796,10
4621428,12
4622048,15
4622676,25
4623300,23
4623928,21
4624556,22
4625176,17
4625804,20
4626432,28
4627056,42
4627688,55
4628312,44
4628940,37
4629572,26
4630192,21
4630820,15
4631448,21
4632072,23
4632700,17
4633320,17
4633952,13
4634572,10
4635196,11
4635828,10
4636448,16
4637076,23
4637708,28
4638328,44
4638960,43
4639584,38
4640212,29
4640844,24
4641464,25
4642092,26
4642716,16
4643340,27
4643968,59
4644592,70
4645220,59
4645844,56
4646468,50
4647100,38
4647720,41
4648348,41
4648980,28
4649600,17
4650228,16
4650852,10
4651484,11
4652112,16
4652736,24
4653368,25
4653992,44
4654616,66
4655244,76
4655864,70
4656496,53
4657120,45
4657744,30
4658376,22
4658992,15
4659624,27
4660252,71
4660872,123
4661552,117
4662224,89
4662840,66
4663468,43
4664088,27
4664716,17
4665344,16
4665968,17
4666596,16
4667224,13
4667852,10
4668484,12
4669104,11
4669736,10
4670360,12
4670984,18
4671612,28
4672232,44
4672860,55
4673484,46
4674108,31
4674740,20
4675360,17
4675988,20
4676620,38
4677240,37
4677868,37
4678492,29
4679124,19
4679756,10
4680376,15
4681004,34
4681628,32
4682252,22
4682884,17
4683504,17
4684136,11
4684760,11
4685384,10
4686012,10
4686632,10
4687264,18
4687892,35
4688512,56
4689144,64
4689768,64
4690396,48
4691028,28
4691648,21
4692276,17
4692900,9
4693472,17
4694112,40
4694728,67
4695360,95
4695984,93
4696608,69
4697240,53
4697860,59
4698488,46
4699112,27
4699740,17
4700372,16
4700996,11
4701624,12
4702256,13
4702876,23
4703508,22
4704132,27
4704764,46
4705396,54
4706016,57
4706648,74
4707272,63
4707896,45
4708528,30
4709144,22
4709776,19
4710408,10
4711024,10
4711656,14
4712280,65
4712908,102
4713592,86
4714208,54
4714840,37
4715464,56
4716088,61
4716716,70
4717336,53
4717968,26
4718600,11
4719216,25
4719848,21
4720472,17
4721104,15
4721732,14
4722352,28
4722984,36
4723608,24
4724232,18
4724860,16
4725480,15
4726112,11
4726736,17
4727360,21
4727992,22
4728608,23
4729240,21
4729872,10
4730488,13
4731120,17
4731744,15
4732372,18
4733004,16
4733624,17
4734256,13
4734880,11
4735504,15
4736136,19
4736752,31
4737380,28
4738008,29
4738632,21
4739260,18
4739880,21
4740508,17
4741140,16
4741760,17
4742388,13
4743016,30
4743648,48
4744276,56
4744896,46
4745528,33
4746152,25
4746776,18
4747408,14
4748024,18
4748656,17
4749280,19
4749904,20
4750536,15
4751156,11
4751788,11
4752416,12
4753040,11
4753668,12
4754296,22
4754924,27
4755556,39
4756176,43
4756804,37
4757428,27
4758056,23
4758684,17
4759304,11
4759936,14
4760560,19
4761184,25
4761816,36
4762440,33
4763068,13
4763700,12
4764320,13
4764948,16
4765572,17
4766204,21
4766836,26
4767456,21
4768088,9
4768656,11
4769288,15
4769916,24
4770536,26
4771168,11
4771792,15
4772416,23
4773048,27
4773668,18
4774296,17
4774928,18
4775552,32
4776184,30
4776808,28
4777436,26
4778068,27
4778688,28
4779320,17
4779944,20
4780568,16
4781200,15
4781816,16
4782448,19
4783072,16
4783700,16
4784332,18
4784952,22
4785584,17
4786216,16
4786832,12
4787464,15
4788088,12
4788720,24
4789352,22
4789972,22
4790600,18
4791228,16
4791852,16
4792484,13
4793104,27
4793736,30
4794360,35
4794984,27
4795616,20
4796240,11
4796872,11
4797500,12
4798120,19
4798752,18
4799376,17
4800008,18
4800636,13
4801256,15
4801884,16
4802508,11
4803132,14
4803764,10
4804384,14
4805012,14
4805644,16
4806264,19
4806892,17
4807520,17
4808148,19
4808780,22
4809400,29
4810032,25
4810656,27
4811280,29
4811908,23
4812528,24
4813160,19
4813784,17
4814404,16
4815036,16
4815656,19
4816284,18
4816916,16
4817536,24
4818168,17
4818788,18
4819420,31
4820052,36
4820672,41
4821300,27
4821924,37
4822552,43
4823180,35
4823800,29
4824428,20
4825052,25
4825680,13
4826308,26
4826928,62
4827556,69
4828188,66
4828808,66
4829436,67
4830064,73
4830692,59
4831324,51
4831944,34
4832576,22
4833200,17
4833828,28
4834456,31
4835076,52
4835704,41
4836328,18
4836952,11
4837584,14
4838204,27
4838832,27
4839464,21
4840080,16
4840712,17
4841336,19
4841964,20
4842596,22
4843216,60
4843844,89
4844468,83
4845096,67
4845724,54
4846344,36
4846976,13
4847600,11
4848224,19
4848852,24
4849476,27
4850108,26
4850740,22
4851360,23
4851988,28
4852616,28
4853244,37
4853876,30
4854496,27
4855124,25
4855752,26
4856376,25
4857004,18
4857624,18
4858252,16
4858880,27
4859504,37
4860136,35
4860760,32
4861392,43
4862024,58
4862644,66
4863276,57
4863900,38
4864528,25
4865156,20
4865776,18
4866404,17
4867028,17
4867652,15
4868284,16
4868904,17
4869532,15
4870164,18
4870784,29
4871412,37
4872040,45
4872668,45
4873300,39
4873920,32
4874552,29
4875176,20
4875800,17
4876432,29
4877048,36
4877680,41
4878304,40
4878928,35
4879560,30
4880176,22
4880804,12
4881436,19
4882056,19
4882684,17
4883312,20
4883940,13
4884572,10
4885192,11
4885820,12
4886448,14
4887072,10
4887700,21
4888320,25
4888948,28
4889576,22
4890200,15
4890832,19
4891448,16
4892080,16
4892708,12
4893328,22
4893960,28
4894584,29
4895216,28
4895844,27
4896464,23
4897092,20
4897720,21
4898344,19
4898972,18
4899592,20
4900224,21
4900848,14
4901472,12
4902104,11
4902728,14
4903356,13
4903988,10
4904608,16
4905240,31
4905864,43
4906496,46
4907124,46
4907744,34
4908376,25
4909000,14
4909628,11
4910256,26
4910880,25
4911512,21
4912144,12
4912764,11
4913396,20
4914020,32
4914652,43
4915284,50
4915904,36
4916532,28
4917156,28
4917780,31
4918408,24
4919024,15
4919652,11
4920280,19
4920904,47
4921532,58
4922152,60
4922780,45
4923412,29
4924032,19
4924660,16
4925284,17
4925916,19
4926548,10
4927168,13
4927800,33
4928424,22
4929044,26
4929676,24
4930296,19
4930924,16
4931548,22
4932172,21
4932800,16
4933424,25
4934052,41
4934684,62
4935304,65
4935936,39
4936556,28
4937188,17
4937816,12
4938440,13
4939068,25
4939692,28
4940316,33
4940948,35
4941568,28
4942196,16
4942820,12
4943444,17
4944076,28
4944696,32
4945324,28
4945956,22
4946576,15
4947204,11
4947828,17
4948460,15
4949088,17
4949712,19
4950344,17
4950968,11
4951592,12
4952224,11
4952840,14
4953472,19
4954096,26
4954720,41
4955352,39
4955976,35
4956608,28
4957236,21
4957856,18
4958484,16
4959112,13
4959740,14
4960372,11
4960992,21
4961620,23
4962244,35
4962868,40
4963500,38
4964120,37
4964748,32
4965376,28
4966000,22
4966628,17
4967252,12
4967884,14
4968512,14
4969132,13
4969760,11
4970384,15
4971012,14
4971644,12
4972264,21
4972892,31
4973516,26
4974140,21
4974772,17
4975392,17
4976024,10
4976652,14
4977272,25
4977900,37
4978528,39
4979156,39
4979788,30
4980408,25
4981036,24
4981664,20
4982288,17
4982916,16
4983536,17
4984168,13
4984792,12
4985416,17
4986048,11
4986664,10
4987296,11
4987924,40
4988544,51
4989176,53
4989800,43
4990432,34
4991060,24
4991680,18
4992312,13
4992936,24
4993560,41
4994188,58
4994808,60
4995436,47
4996060,45
4996688,41
4997316,30
4997936,30
4998564,26
4999196,20
4999816,18
5000444,15
5001068,11
5001700,10
5002332,10
5002952,11
5003580,12
5004208,23
5004832,28
5005460,26
5006080,40
5006708,44
5007336,38
5007960,29
5008592,19
5009208,12
5009836,22
5010468,34
5011088,52
5011720,61
5012344,60
5012976,40
5013604,34
5014224,29
5014856,18
5015480,15
5016104,17
5016736,16
5017352,15
5017984,11
5018608,13
5019232,15
5019864,13
5020488,31
5021116,60
5021748,58
5022368,49
5023000,39
5023624,20
5024256,17
5024884,16
5025504,15
5026136,40
5026760,58
5027384,69
5028016,67
5028632,58
5029264,53
5029892,36
5030512,17
5031144,19
5031768,19
5032396,17
5033028,23
5033648,21
5034276,10
5034904,12
5035528,11
5036160,12
5036776,16
5037408,24
5038036,41
5038660,55
5039292,46
5039912,25
5040544,17
5041176,16
5041792,17
5042424,11
5043048,14
5043680,31
5044308,50
5044928,56
5045556,62
5046184,49
5046808,29
5047436,19
5048056,25
5048688,26
5049312,25
5049936,21
5050568,11
5051184,18
5051816,21
5052448,23
5053064,35
5053696,39
5054324,49
5054956,50
5055588,44
5056208,27
5056840,18
5057464,15
5058088,18
5058720,18
5059336,29
5059968,47
5060592,59
5061216,65
5061848,49
5062472,37
5063104,37
5063732,28
5064352,23
5064984,23
5065608,21
5066240,16
5066868,18
5067488,12
5068120,13
5068744,16
5069372,12
5070004,10
5070624,13
5071256,24
5071888,40
5072504,50
5073136,47
5073760,30
5074392,24
5075024,18
5075644,11
5076276,22
5076900,30
5077524,45
5078156,45
5078776,39
5079412,41
5080036,32
5080660,29
5081288,30
5081912,29
5082544,21
5083172,20
5083792,16
5084424,10
5085048,11
5085680,15
5086308,16
5086928,13
5087560,27
5088184,28
5088808,36
5089440,36
5090060,23
5090688,18
5091316,16
5091940,16
5092572,17
5093196,22
5093828,26
5094460,22
5095080,17
5095712,16
5096336,19
5096968,26
5097596,30
5098220,25
5098848,21
5099476,17
5100100,19
5100732,17
5101352,13
5101984,12
5102616,12
5103240,10
5103872,19
5104496,22
5105128,27
5105760,36
5106380,42
5107012,33
5107640,24
5108264,21
5108896,14
5109516,10
5110148,14
5110772,25
5111400,35
5112032,29
5112656,25
5113288,18
5113920,18
5114544,36
5115180,41
5115804,28
5116432,19
5117064,18
5117684,15
5118316,26
5118944,24
5119572,15
5120204,10
5120820,19
5121448,31
5122076,37
5122696,37
5123324,25
5123944,17
5124576,18
5125204,20
5125824,15
5126452,11
5127072,12
5127696,15
5128324,17
5128944,17
5129572,14
5130196,16
5130820,15
5131448,20
5132072,31
5132700,28
5133332,27
5133952,31
5134580,24
5135204,19
5135836,27
5136464,29
5137084,24
5137712,11
5138336,25
5138960,33
5139588,35
5140208,27
5140836,24
5141460,20
5142084,15
5142712,18
5143336,32
5143964,44
5144596,48
5145216,38
5145848,25
5146468,11
5147100,11
5147728,17
5148348,19
5148976,17
5149600,18
5150224,22
5150852,24
5151472,29
5152100,29
5152724,29
5153348,30
5153980,26
5154600,22
5155228,21
5155860,22
5156480,19
5157108,16
5157732,20
5158364,35
5158996,46
5159616,64
5160248,61
5160872,49
5161496,23
5162124,19
5162744,33
5163372,31
5163996,31
5164620,24
5165252,19
5165872,17
5166500,17
5167132,13
5167752,11
5168384,11
5169008,14
5169636,19
5170268,21
5170888,32
5171520,38
5172140,47
5172764,50
5173396,36
5174016,25
5174644,17
5175268,22
5175892,35
5176524,40
5177144,41
5177772,39
5178404,31
5179024,24
5179652,14
5180280,15
5180908,14
5181540,16
5182160,17
5182788,16
5183416,20
5184040,14
5184668,14
5185288,14
5185916,10
5186540,13
5187164,18
5187796,23
5188420,29
5189052,44
5189680,43
5190300,18
5190932,16
5191556,21
5192188,31
5192816,39
5193436,48
5194064,54
5194692,47
5195316,41
5195948,38
5196568,34
5197200,27
5197828,21
5198448,16
5199076,16
5199704,16
5200332,16
5200964,11
5201584,13
5202212,13
5202836,17
5203464,32
5204092,47
5204712,60
5205340,67
5205964,55
5206592,36
5207220,25
5207840,28
5208468,16
5209100,28
5209720,45
5210348,77
5210972,84
5211604,59
5212236,52
5212856,50
5213484,38
5214108,32
5214736,29
5215364,28
5215984,23
5216616,18
5217240,21
5217864,21
5218492,14
5219112,13
5219744,18
5220376,21
5220992,29
5221624,25
5222248,37
5222880,39
5223508,30
5224128,26
5224756,21
5225380,16
5226004,19
5226636,34
5227256,48
5227884,47
5228508,38
5229136,45
5229764,43
5230384,31
5231016,23
5231644,18
5232264,16
5232896,16
5233520,17
5234152,10
5234780,10
5235400,10
5236028,10
5236652,18
5237280,20
5237908,22
5238528,30
5239160,35
5239784,33
5240408,33
5241036,21
5241656,17
5242284,19
5242916,18
5243536,19
5244164,36
5244788,41
5245416,30
5246044,16
5246664,16
5247292,24
5247916,47
5248540,50
5249172,43
5249792,32
5250420,20
5251040,11
5251664,21
5252292,26
5252912,29
5253540,30
5254168,35
5254792,35
5255420,38
5256044,34
5256672,25
5257300,16
5257920,17
5258548,18
5259172,16
5259796,23
5260424,37
5261044,51
5261672,50
5262296,47
5262920,35
5263548,19
5264168,13
5264796,16
5265424,16
5266044,16
5266672,18
5267296,19
5267924,15
5268552,10
5269176,13
5269804,10
5270428,22
5271052,41
5271680,39
5272300,30
5272928,25
5273552,22
5274180,25
5274808,18
5275424,14
5276056,18
5276684,25
5277304,46
5277932,49
5278556,33
5279188,27
5279820,12
5280440,10
5281068,17
5281692,18
5282316,17
5282944,19
5283560,18
5284192,12
5284812,10
5285436,11
5286064,12
5286688,25
5287316,21
5287944,10
5288568,26
5289196,33
5289820,30
5290448,24
5291076,19
5291696,18
5292324,11
5292948,21
5293572,43
5294204,49
5294824,48
5295452,47
5296076,37
5296700,23
5297328,11
5297948,18
5298576,18
5299204,17
5299820,17
5300452,14
5301076,11
5301704,10
5302336,12
5302956,15
5303584,14
5304208,15
5304836,25
5305468,36
5306088,34
5306716,31
5307340,24
5307964,21
5308596,22
5309216,12
5309844,15
5310476,30
5311096,43
5311728,37
5312352,47
5312980,48
5313612,48
5314232,45
5314864,29
5315484,22
5316108,18
5316740,16
5317360,13
5317988,10
5318616,11
5319240,14
5319868,21
5320488,29
5321116,35
5321748,32
5322368,23
5322996,19
5323624,16
5324252,17
5324884,17
5325500,15
5326132,31
5326752,41
5327376,46
5328004,54
5328620,43
5329252,42
5329876,25
5330496,10
5331128,17
5331744,15
5332372,17
5333004,16
5333624,18
5334252,13
5334876,11
5335508,10
5336136,11
5336756,10
5337384,21
5338008,27
5338632,28
5339260,24
5339880,17
5340508,15
5341132,18
5341756,20
5342388,10
5343008,24
5343636,28
5344268,40
5344888,40
5345516,32
5346140,51
5346772,60
5347400,50
5348016,38
5348648,31
5349272,17
5349896,16
5350524,14
5351144,18
5351772,24
5352396,21
5353020,19
5353648,21
5354272,31
5354900,44
5355532,41
5356152,35
5356780,23
5357408,19
5358036,17
5358668,15
5359288,17
5359916,30
5360544,36
5361168,36
5361796,23
5362416,26
5363044,25
5363668,27
5364292,32
5364924,35
5365544,35
5366176,26
5366804,16
5367424,14
5368052,16
5368676,17
5369308,20
5369936,39
5370556,42
5371184,34
5371808,25
5372436,31
5373064,25
5373684,16
5374312,16
5374936,17
5375560,15
5376192,25
5376808,33
5377436,54
5378064,60
5378688,49
5379316,27
5379940,20
5380568,21
5381196,29
5381816,29
5382444,20
5383068,16
5383692,15
5384320,11
5384936,12
5385564,15
5386192,19
5386816,25
5387444,35
5388064,51
5388692,63
5389324,64
5389944,37
5390572,17
5391196,23
5391828,23
5392460,10
5393080,17
5393708,37
5394332,48
5394956,45
5395588,46
5396208,50
5396836,43
5397460,41
5398084,40
5398716,32
5399336,20
5399968,17
5400596,16
5401216,17
5401848,13
5402468,12
5403100,11
5403728,10
5404352,16
5404980,28
5405604,34
5406228,37
5406860,31
5407480,24
5408108,17
5408732,14
5409356,16
5409984,27
5410600,37
5411232,44
5411860,52
5412480,53
5413108,37
5413732,19
5414364,17
5414992,15
5415616,19
5416244,17
5416868,17
5417492,15
5418124,18
5418744,19
5419372,15
5420000,17
5420620,20
5421252,25
5421872,37
5422504,35
5423132,30
5423752,25
5424384,18
5425008,17
5425636,15
5426268,22
5426888,36
5427520,50
5428140,48
5428764,44
5429396,46
5430016,35
5430644,24
5431268,27
5431892,23
5432524,18
5433144,17
5433772,14
5434404,10
5435024,11
5435652,14
5436280,23
5436908,30
5437540,34
5438160,32
5438792,35
5439416,33
5440040,16
5440668,18
5441288,21
5441916,26
5442540,26
5443164,25
5443792,36
5444412,43
5445040,27
5445668,18
5446288,24
5446916,33
5447540,31
5448172,20
5448800,17
5449416,17
5450048,17
5450672,15
5451296,18
5451924,16
5452544,14
5453172,12
5453796,17
5454420,32
5455048,40
5455672,44
5456300,44
5456932,34
5457552,26
5458180,19
5458804,12
5459436,25
5460064,32
5460684,45
5461312,57
5461936,57
5462560,47
5463188,23
5463808,15
5464436,19
5465060,20
5465688,24
5466316,20
5466936,16
5467564,11
5468196,10
5468816,13
5469444,15
5470068,11
5470700,16
5471332,27
5471952,40
5472584,41
5473208,43
5473832,34
5474460,25
5475080,23
5475712,11
5476336,12
5476960,41
5477588,60
5478216,54
5478848,53
5479476,44
5480096,36
5480724,30
5481348,25
5481980,25
5482608,23
5483228,24
5483856,16
5484480,12
5485104,25
5485732,14
5486352,11
5486984,20
5487608,31
5488232,39
5488860,38
5489484,41
5490116,29
5490744,19
5491368,17
5491996,16
5492620,21
5493252,27
5493880,36
5494504,47
5495132,48
5495760,47
5496384,38
5497012,26
5497632,25
5498260,22
5498892,18
5499512,17
5500144,17
5500768,12
5501400,15
5502028,17
5502648,24
5503280,24
5503904,25
5504528,46
5505160,46
5505776,41
5506408,33
5507032,23
5507656,18
5508284,18
5508904,27
5509532,33
5510164,38
5510784,44
5511412,43
5512040,40
5512668,30
5513300,24
5513920,29
5514552,29
5515176,25
5515800,23
5516432,18
5517052,14
5517680,11
5518304,10
5518928,10
5519560,10
5520176,11
5520808,21
5521436,34
5522056,62
5522684,56
5523312,40
5523940,30
5524572,20
5525192,16
5525824,15
5526448,25
5527072,53
5527704,63
5528320,54
5528952,39
5529576,27
5530204,19
5530832,14
5531456,17
5532084,16
5532716,16
5533336,18
5533968,16
5534592,21
5535220,13
5535852,10
5536472,13
5537100,22
5537724,32
5538348,36
5538980,42
5539600,35
5540228,25
5540852,17
5541476,16
5542108,19
5542732,30
5543364,29
5543992,30
5544616,34
5545248,43
5545872,41
5546500,33
5547132,20
5547752,20
5548384,20
5549008,18
5549632,18
5550264,16
5550880,11
5551508,10
5552140,12
5552760,13
5553388,18
5554016,20
5554644,25
5555276,30
5555896,38
5556528,37
5557152,32
5557776,23
5558404,20
5559024,11
5559656,25
5560280,42
5560904,47
5561536,39
5562152,46
5562784,49
5563416,21
5564032,12
5564664,18
5565288,30
5565920,43
5566548,35
5567168,23
5567800,12
5568428,15
5569052,18
5569680,18
5570304,28
5570936,41
5571560,49
5572184,45
5572812,34
5573432,25
5574064,24
5574692,18
5575312,17
5575944,21
5576568,23
5577196,33
5577828,44
5578448,41
5579076,51
5579704,38
5580328,21
5580960,18
5581576,15
5582204,16
5582828,17
5583456,17
5584084,11
5584708,10
5585340,10
5585968,14
5586592,16
5587220,16
5587844,23
5588476,27
5589108,31
5589728,28
5590360,25
5590984,20
5591608,18
5592240,12
5592856,28
5593488,44
5594116,43
5594736,41
5595368,41
5595992,43
5596624,29
5597256,13
5597872,17
5598504,21
5599128,21
5599752,22
5600384,15
5601000,13
5601628,11
5602252,10
5602876,11
5603508,14
5604128,22
5604756,34
5605388,50
5606008,56
5606640,43
5607260,25
5607892,21
5608520,18
5609144,10
5609772,26
5610396,44
5611020,49
5611652,47
5612272,45
5612900,40
5613524,32
5614148,24
5614780,21
5615400,17
5616028,16
5616660,16
5617280,12
5617908,11
5618536,12
5619164,11
5619796,16
5620416,11
5621048,18
5621672,30
5622296,37
5622928,41
5623544,28
5624176,17
5624800,18
5625424,19
5626056,26
5626672,38
5627304,49
5627936,44
5628552,37
5629184,25
5629808,16
5630440,19
5631068,20
5631688,18
5632320,17
5632944,16
5633568,18
5634196,16
5634816,21
5635444,17
5636068,11
5636692,13
5637320,18
5637944,36
5638572,47
5639204,46
5639824,30
5640452,19
5641076,17
5641708,18
5642336,18
5642952,27
5643584,35
5644208,48
5644832,48
5645460,41
5646080,31
5646708,24
5647332,24
5647960,30
5648588,30
5649208,25
5649836,18
5650468,10
5651088,11
5651720,12
5652344,11
5652972,12
5653604,20
5654224,23
5654852,30
5655476,34
5656104,37
5656732,26
5657352,22
5657984,18
5658604,16
5659228,15
5659860,25
5660484,42
5661112,50
5661744,44
5662364,44
5662992,40
5663620,23
5664248,17
5664876,20
5665496,22
5666124,17
5666748,18
5667372,11
5668004,11
5668624,13
5669252,13
5669880,17
5670504,21
5671132,35
5671756,45
5672388,47
5673020,40
5673640,30
5674268,21
5674892,16
5675524,18
5676152,27
5676776,40
5677408,50
5678032,46
5678656,47
5679288,48
5679904,29
5680536,17
5681164,25
5681784,21
5682412,17
5683040,16
5683668,16
5684300,10
5684920,11
5685548,11
5686172,10
5686800,15
5687428,22
5688048,29
5688676,32
5689300,36
5689928,29
5690556,24
5691176,22
5691808,17
5692436,16
5693056,29
5693688,37
5694312,35
5694940,31
5695572,30
5696192,21
5696820,19
5697444,21
5698068,18
5698700,16
5699320,18
5699948,19
5700572,11
5701200,10
5701828,10
5702448,10
5703076,11
5703708,18
5704328,28
5704956,30
5705584,39
5706212,35
5706844,22
5707464,18
5708096,16
5708720,14
5709344,25
5709976,39
5710592,44
5711224,40
5711848,32
5712472,39
5713104,33
5713724,26
5714352,22
5714984,25
5715604,26
5716232,22
5716860,17
5717488,10
5718120,11
5718740,10
5719372,10
5719996,15
5720620,24
5721252,37
5721872,45
5722504,47
5723128,41
5723752,31
5724384,20
5725008,18
5725640,20
5726268,34
5726888,40
5727520,44
5728144,43
5728776,50
5729404,51
5730024,42
5730656,26
5731280,20
5731904,17
5732536,18
5733156,17
5733788,13
5734420,14
5735040,15
5735668,14
5736292,13
5736920,13
5737552,16
5738172,15
5738800,15
5739424,16
5740048,15
5740676,16
5741296,17
5741924,16
5742548,10
5743172,11
5743804,15
5744424,30
5745052,33
5745684,28
5746304,23
5746932,21
5747560,23
5748188,21
5748820,16
5749440,17
5750068,17
5750696,12
5751320,13
5751952,18
5752568,18
5753200,12
5753824,10
5754448,16
5755080,23
5755696,26
5756324,25
5756956,20
5757576,18
5758208,16
5758832,11
5759464,16
5760096,30
5760712,35
5761340,35
5761964,37
5762588,33
5763216,25
5763832,19
5764460,23
5765084,20
5765708,18
5766340,16
5766960,17
5767588,10
5768220,14
5768840,12
5769468,10
5770092,12
5770720,21
5771352,31
5771972,46
5772600,56
5773224,40
5773848,29
5774476,16
5775096,19
5775728,30
5776348,41
5776972,48
5777604,48
5778224,42
5778852,37
5779484,29
5780104,25
5780732,22
5781356,28
5781988,26
5782620,20
5783240,17
5783868,12
5784492,17
5785116,13
5785748,12
5786368,19
5786996,16
5787620,21
5788244,35
5788872,52
5789496,49
5790124,33
5790756,24
5791376,18
5792004,15
5792628,20
5793260,39
5793888,41
5794512,33
5795144,33
5795768,41
5796392,37
5797020,31
5797640,27
5798268,27
5798896,29
5799520,26
5800148,19
5800772,11
5801404,11
5802032,10
5802652,11
5803280,11
5803908,18
5804536,32
5805168,46
5805784,48
5806412,36
5807036,22
5807664,18
5808292,16
5808912,18
5809540,32
5810168,36
5810792,40
5811424,40
5812048,33
5812676,20
5813308,18
5813928,16
5814556,17
5815184,16
5815812,17
5816444,17
5817064,14
5817692,12
5818316,10
5818940,10
5819572,12
5820192,12
5820820,24
5821452,32
5822072,35
5822704,32
5823328,26
5823960,23
5824592,20
5825208,17
5825836,16
5826460,26
5827088,40
5827716,44
5828336,42
5828964,44
5829588,32
5830216,25
5830848,22
5831464,23
5832096,26
5832724,22
5833344,25
5833976,18
5834600,14
5835232,10
5835860,11
5836480,17
5837112,29
5837736,60
5838360,72
5838992,67
5839608,46
5840236,29
5840860,19
5841484,16
5842116,14
5842736,15
5843364,27
5843996,50
5844616,56
5845244,52
5845868,51
5846500,36
5847132,32
5847752,40
5848384,36
5849008,23
5849632,18
5850260,16
5850880,13
5851508,12
5852136,13
5852760,13
5853392,12
5854012,18
5854640,33
5855272,44
5855892,41
5856524,27
5857148,22
5857780,20
5858408,17
5859028,14
5859656,24
5860284,29
5860908,40
5861536,42
5862160,44
5862792,39
5863416,26
5864040,21
5864668,21
5865292,21
5865924,18
5866552,16
5867176,15
5867808,17
5868432,15
5869064,17
5869692,14
5870312,16
5870944,23
5871568,30
5872192,37
5872824,31
5873440,20
5874072,17
5874700,17
5875320,16
5875952,26
5876576,33
5877208,41
5877836,46
5878456,42
5879088,40
5879712,32
5880336,25
5880964,25
5881584,24
5882216,19
5882840,18
5883464,17
5884096,12
5884712,15
5885344,18
5885976,19
5886600,23
5887232,26
5887860,31
5888492,36
5889120,43
5889744,44
5890372,29
5891000,16
5891624,19
5892256,22
5892872,28
5893504,43
5894128,49
5894752,46
5895384,41
5896008,34
5896636,21
5897268,14
5897888,19
5898520,17
5899144,17
5899772,17
5900404,12
5901024,10
5901652,11
5902276,12
5902900,12
5903532,10
5904152,13
5904780,25
5905404,33
5906032,39
5906660,32
5907288,26
5907916,19
5908548,16
5909168,23
5909796,35
5910420,45
5911048,52
5911676,42
5912296,39
5912928,30
5913552,22
5914176,21
5914808,19
5915428,19
5916056,17
5916688,16
5917308,12
5917940,13
5918564,13
5919196,12
5919824,12
5920448,14
5921080,30
5921704,49
5922324,59
5922956,47
5923576,23
5924204,16
5924828,19
5925452,27
5926084,38
5926704,43
5927332,56
5927964,50
5928584,39
5929216,31
5929840,17
5930468,10
5931100,18
5931720,17
5932352,19
5932976,18
5933600,16
5934228,10
5934848,11
5935480,11
5936104,11
5936728,11
5937356,15
5937976,27
5938608,41
5939240,41
5939856,31
5940484,22
5941108,18
5941740,16
5942368,17
5942988,28
5943616,43
5944240,48
5944864,43
5945496,36
5946112,27
5946744,23
5947368,24
5947992,23
5948624,20
5949240,16
5949872,16
5950500,11
5951120,11
5951752,11
5952376,12
5953004,11
5953636,16
5954256,32
5954888,38
5955508,47
5956136,43
5956764,30
5957384,26
5958016,20
5958640,15
5959264,15
5959896,30
5960520,41
5961148,49
5961780,47
5962400,41
5963028,35
5963656,44
5964284,39
5964916,38
5965536,32
5966168,28
5966792,19
5967416,11
5968044,9
5968612,12
5969248,18
5969872,27
5970496,34
5971128,44
5971744,48
5972376,42
5973008,36
5973624,30
5974256,22
5974880,18
5975512,13
5976140,30
5976760,40
5977392,48
5978016,43
5978644,38
5979272,34
5979896,25
5980528,22
5981152,24
5981776,21
5982408,17
5983028,17
5983656,14
5984288,11
5984912,11
5985544,17
5986168,19
5986796,13
5987428,20
5988048,33
5988680,31
5989304,29
5989928,23
5990560,21
5991176,17
5991808,16
5992432,16
5993056,29
5993684,41
5994312,50
5994940,51
5995572,57
5996192,45
5996824,28
5997448,20
5998076,20
5998708,19
5999328,17
5999960,16
6000588,15
6001212,15
6001844,12
6002464,10
6003092,11
6003724,16
6004344,35
6004976,38
6005600,38
6006228,39
6006860,33
6007480,26
6008112,21
6008736,13
6009360,13
6009992,35
6010608,47
6011240,64
6011864,59
6012488,64
6013120,59
6013736,40
6014368,30
6015000,18
6015620,18
6016252,19
6016876,16
6017504,10
6018136,10
6018756,10
6019384,12
6020012,13
6020636,31
6021264,38
6021888,50
6022520,60
6023144,51
6023768,34
6024396,16
6025016,18
6025644,25
6026276,36
6026896,42
6027524,51
6028152,47
6028780,48
6029412,40
6030032,26
6030664,25
6031288,26
6031912,18
6032544,16
6033164,16
6033792,10
6034420,10
6035044,10
6035676,13
6036300,12
6036932,21
6037564,39
6038184,49
6038816,51
6039440,34
6040072,20
6040700,17
6041320,17
6041952,14
6042576,17
6043200,37
6043828,47
6044448,49
6045076,45
6045708,44
6046328,34
6046960,22
6047584,23
6048216,19
6048844,18
6049464,17
6050096,17
6050720,12
6051344,11
6051976,10
6052592,11
6053224,15
6053848,18
6054472,31
6055104,39
6055720,45
6056352,37
6056984,27
6057600,20
6058232,17
6058856,17
6059488,34
6060120,44
6060744,47
6061376,43
6062004,44
6062628,40
6063260,28
6063880,20
6064512,22
6065136,19
6065760,17
6066392,16
6067016,12
6067648,12
6068276,10
6068896,11
6069524,12
6070152,17
6070784,29
6071412,39
6072032,40
6072664,35
6073288,23
6073912,17
6074544,16
6075164,16
6075792,23
6076424,37
6077048,43
6077680,42
6078308,35
6078940,37
6079572,30
6080196,23
6080824,22
6081448,21
6082072,17
6082700,16
6083320,17
6083948,11
6084572,10
6085200,12
6085828,15
6086448,19
6087076,26
6087708,33
6088328,44
6088956,40
6089584,27
6090212,21
6090844,19
6091464,17
6092096,22
6092720,32
6093344,43
6093976,50
6094596,47
6095224,46
6095852,44
6096476,29
6097108,17
6097732,19
6098360,21
6098992,16
6099612,16
6100244,20
6100868,15
6101500,12
6102132,10
6102752,11
6103384,15
6104008,11
6104636,15
6105264,34
6105888,44
6106520,33
6107152,21
6107768,18
6108400,18
6109024,9
6109604,11
6110240,20
6110856,32
6111488,36
6112116,40
6112748,41
6113380,32
6114000,27
6114632,19
6115256,21
6115880,24
6116512,17
6117128,12
6117760,11
6118384,11
6119012,12
6119640,18
6120268,33
6120900,47
6121532,47
6122152,43
6122784,36
6123412,26
6124040,18
6124672,16
6125292,17
6125920,27
6126548,39
6127172,47
6127804,47
6128424,42
6129056,39
6129688,31
6130308,31
6130940,33
6131564,23
6132196,17
6132828,16
6133448,18
6134080,13
6134704,14
6135328,11
6135960,11
6136588,12
6137216,17
6137844,20
6138468,32
6139100,37
6139728,36
6140360,32
6140992,24
6141612,19
6142244,11
6142872,22
6143496,35
6144132,42
6144752,41
6145380,42
6146004,36
6146628,35
6147256,31
6147872,27
6148500,23
6149132,20
6149752,23
6150380,16
6151008,11
6151636,10
6152268,10
6152888,12
6153516,12
6154144,22
6154768,42
6155396,54
6156016,52
6156644,32
6157272,20
6157896,16
6158524,15
6159144,23
6159776,27
6160404,21
6161024,37
6161652,38
6162276,33
6162908,24
6163536,25
6164156,30
6164784,35
6165412,33
6166036,27
6166664,20
6167288,11
6167916,10
6168544,13
6169168,11
6169796,11
6170416,15
6171044,29
6171676,43
6172296,49
6172924,40
6173548,30
6174180,26
6174812,19
6175432,12
6176064,19
6176684,31
6177308,40
6177940,46
6178560,48
6179188,46
6179816,36
6180440,34
6181072,30
6181688,19
6182320,17
6182952,16
6183568,15
6184200,10
6184824,9
6185404,13
6186036,17
6186656,20
6187288,23
6187912,32
6188540,37
6189172,34
6189792,29
6190424,24
6191048,20
6191672,18
6192304,13
6192920,23
6193552,35
6194184,36
6194804,37
6195432,43
6196056,35
6196688,26
6197316,24
6197936,26
6198568,22
6199192,20
6199816,17
6200448,11
6201064,12
6201696,17
6202320,13
6202944,12
6203576,12
6204192,23
6204824,35
6205456,46
6206072,44
6206704,33
6207328,22
6207960,17
6208592,15
6209208,23
6209840,27
6210464,35
6211088,40
6211720,39
6212336,42
6212968,31
6213592,25
6214216,25
6214848,20
6215468,17
6216096,16
6216728,18
6217348,19
6217976,19
6218604,11
6219232,16
6219864,17
6220488,10
6221120,21
6221744,35
6222368,41
6223000,37
6223620,31
6224252,22
6224876,16
6225500,20
6226132,29
6226756,41
6227388,53
6228016,48
6228636,41
6229264,32
6229888,19
6230520,16
6231148,24
6231768,24
6232400,18
6233024,17
6233648,14
6234276,10
6234896,11
6235524,10
6236152,10
6236776,13
6237408,23
6238032,35
6238664,41
6239296,45
6239912,31
6240548,23
6241172,19
6241800,15
6242428,17
6243048,30
6243680,38
6244304,36
6244928,37
6245560,36
6246176,30
6246808,25
6247436,23
6248056,23
6248684,17
6249308,17
6249940,17
6250568,11
6251188,11
6251816,10
6252444,10
6253068,10
6253696,18
6254320,30
6254952,39
6255576,50
6256200,47
6256828,30
6257448,19
6258076,16
6258708,20
6259328,33
6259956,39
6260584,45
6261212,45
6261844,38
6262464,35
