tempo_arduino_micro_s,valor_ADC
500,10
1004,10
1504,10
2000,12
2508,14
3000,14
3508,15
4000,16
4508,17
5000,16
5500,13
6000,14
6500,15
7004,16
7500,15
8000,11
8500,10
9000,14
9500,14
10000,11
10516,10
11036,10
11564,10
12084,15
12612,15
13132,13
13660,12
14180,11
14708,10
15228,10
15756,10
16276,10
16796,10
17316,10
17836,11
18356,10
18876,10
19396,11
19916,10
20436,10
20956,10
21476,10
21996,10
22516,10
23036,11
23564,13
24084,13
24612,12
25132,10
25660,10
26180,10
26708,10
27228,10
27756,10
28276,13
28804,14
29324,16
29852,13
30372,11
30900,11
31420,10
31948,10
32472,10
32996,10
33516,10
34044,10
34564,12
35092,11
35612,11
36140,10
36660,11
37188,10
37708,14
38236,14
38760,10
39284,13
39804,14
40332,13
40852,15
41372,10
41892,13
42412,12
42932,10
43452,11
43972,15
44492,19
45012,23
45532,16
46052,10
46572,14
47092,11
47612,10
48140,12
48660,12
49188,10
49708,11
50236,11
50756,11
51284,10
51804,10
52332,10
52852,10
53380,10
53900,12
54428,15
54948,15
55476,14
55996,12
56524,12
57044,12
57572,10
58096,10
58620,10
59140,11
59668,10
60188,12
60716,14
61240,13
61764,12
62284,12
62812,13
63332,13
63860,12
64384,11
64908,10
65428,10
65948,11
66468,12
66988,15
67508,14
68028,11
68548,10
69068,10
69588,10
70108,10
70628,10
71148,10
71668,11
72192,11
72716,11
73236,10
73764,10
74284,10
74812,12
75332,10
75860,11
76384,10
76908,10
77428,10
77956,11
78476,12
79004,14
79528,16
80052,16
80572,13
81100,11
81620,11
82148,12
82668,12
83196,10
83720,9
84184,11
84708,10
85236,10
85756,11
86284,11
86804,12
87332,12
87852,16
88380,16
88900,14
89428,13
89948,16
90476,12
90996,10
91524,12
92044,16
92572,15
93092,10
93612,11
94132,11
94652,9
95116,10
95648,10
96168,10
96684,12
97204,16
97724,16
98244,14
98764,11
99284,10
99804,10
100328,10
100888,10
101472,10
102044,11
102624,12
103192,11
103768,11
104336,12
104912,10
105488,11
106056,11
106632,10
107200,11
107784,10
108352,12
108936,13
109504,13
110072,11
110656,13
111224,12
111808,11
112380,10
112960,9
113476,9
114004,11
114576,11
115152,10
115728,11
116296,11
116880,13
117448,13
118032,13
118600,13
119184,12
119756,11
120332,10
120912,10
121480,11
122064,10
122632,10
123216,13
123784,11
124360,11
124936,11
125504,11
126088,13
126656,11
127240,9
127760,10
128336,9
128852,11
129432,11
130000,10
130568,11
131144,14
131712,11
132296,11
132864,11
133448,18
134016,15
134592,13
135160,14
135736,12
136320,11
136888,9
137412,15
137984,11
138568,11
139136,12
139712,12
140280,11
140856,10
141440,11
142008,11
142592,10
143160,11
143744,10
144312,12
144888,14
145472,11
146040,10
146624,10
147192,21
147776,24
148352,14
148936,12
149512,13
150084,14
150664,13
151236,11
151816,10
152388,10
152968,9
153488,10
154064,11
154640,11
155208,11
155792,11
156364,12
156944,12
157512,16
158096,20
158664,18
159244,14
159824,11
160396,12
160976,11
161544,12
162128,9
162644,9
163172,9
163696,10
164272,10
164840,11
165408,11
165984,11
166552,11
167136,10
167704,10
168288,10
168856,10
169424,10
170000,10
170568,10
171144,12
171712,18
172296,13
172864,11
173448,10
174016,11
174592,10
175176,10
175748,10
176328,11
176896,10
177480,11
178048,11
178632,11
179208,13
179776,11
180352,11
180920,10
181504,10
182072,11
182656,13
183224,14
183800,13
184384,13
184952,15
185528,15
186096,10
186680,12
187248,19
187832,23
188404,17
188976,11
189560,16
190128,24
190712,21
191284,16
191864,13
192436,13
193008,12
193592,13
194164,15
194744,11
195312,11
195896,13
196464,11
197048,9
197568,11
198140,13
198720,15
199288,16
199872,18
200444,13
201024,10
201592,11
202176,11
202748,11
203324,10
203904,11
204476,13
205056,13
205624,11
206200,10
206768,9
207284,10
207856,13
208432,11
209016,11
209584,10
210160,9
210676,10
211256,12
211824,10
212400,10
212968,11
213544,9
214068,10
214640,10
215224,10
215792,10
216376,9
216892,10
217472,12
218044,14
218616,11
219200,12
219768,11
220352,10
220920,11
221504,11
222076,14
222656,11
223228,10
223804,13
224384,12
224952,11
225536,11
226104,14
226688,15
227256,16
227832,11
228416,15
228984,17
229568,16
230140,14
230720,12
231288,11
231872,11
232444,14
233016,13
233600,10
234168,11
234752,10
235324,10
235904,9
236424,11
237000,13
237576,11
238148,11
238728,11
239300,10
239880,12
240460,15
241040,14
241608,10
242184,12
242768,14
243340,14
243920,10
244488,10
245072,10
245644,12
246224,15
246800,16
247368,14
247952,11
248524,11
249104,9
249624,10
250200,10
250772,11
251348,11
251928,11
252500,14
253080,18
253652,18
254232,12
254804,11
255384,12
255956,10
256532,11
257112,10
257680,10
258264,10
258832,13
259408,16
259976,17
260552,15
261128,13
261696,17
262272,20
262840,15
263424,10
263992,11
264576,14
265144,13
265720,12
266304,13
266872,14
267456,12
268024,10
268608,11
269180,11
269760,10
270328,11
270904,10
271488,13
272056,13
272640,11
273208,11
273792,13
274364,15
274940,17
275520,17
276088,17
276672,15
277240,10
277824,10
278392,11
278976,13
279548,20
280124,22
280704,11
281276,22
281856,36
282424,24
283008,12
283576,10
284156,11
284736,11
285308,12
285888,16
286460,19
287040,19
287608,14
288192,10
288760,12
289336,11
289920,10
290488,11
291072,11
291644,10
292224,12
292792,14
293372,22
293952,22
294524,20
295104,19
295676,11
296256,9
296776,9
297300,11
297872,14
298452,22
299032,22
299604,14
300184,11
300756,15
301336,15
301916,11
302496,11
303076,10
303652,10
304232,10
304804,10
305384,9
305904,9
306428,10
307004,15
307584,16
308160,16
308736,15
309320,14
309892,13
310472,15
311044,11
311624,9
312144,12
312720,16
313292,13
313868,10
314448,12
315020,14
315600,9
316120,10
316696,16
317276,21
317856,15
318436,12
319012,11
319592,11
320168,11
320744,11
321312,15
321896,11
322464,13
323040,14
323624,11
324192,11
324776,11
325348,12
325928,11
326500,10
327080,11
327652,10
328228,11
328808,11
329376,15
329952,17
330520,14
331104,14
331676,12
332252,10
332832,10
333400,10
333976,10
334544,11
335128,15
335696,14
336280,10
336848,11
337424,11
338008,10
338576,9
339100,10
339676,10
340256,10
340824,11
341408,12
341976,16
342556,13
343136,15
343704,17
344288,17
344860,14
345440,13
346012,14
346584,11
347168,11
347740,12
348320,13
348888,11
349472,11
350040,11
350624,13
351196,12
351772,13
352352,14
352924,15
353504,10
354072,16
354656,16
355224,12
355800,11
356384,11
356956,10
357536,10
358108,12
358688,15
359264,16
359848,19
360416,14
360992,11
361576,11
362148,10
362728,13
363296,14
363880,10
364448,11
365028,11
365608,13
366176,16
366760,11
367332,12
367912,16
368492,16
369072,13
369640,11
370216,10
370800,11
371372,11
371952,10
372524,10
373104,11
373676,11
374252,12
374832,11
375404,10
375984,14
376556,17
377136,17
377708,17
378288,19
378860,16
379436,11
380016,11
380588,11
381168,10
381740,11
382320,11
382900,10
383476,10
384056,11
384628,10
385208,11
385776,14
386360,16
386932,18
387512,13
388084,10
388656,11
389240,10
389808,11
390392,9
390912,13
391488,11
392060,11
392640,10
393212,11
393788,11
394368,13
394940,14
395520,12
396092,14
396672,14
397244,12
397820,13
398400,17
398972,22
399552,23
400124,15
400704,11
401272,11
401856,9
402376,16
402948,18
403528,11
404096,13
404680,14
405248,14
405832,13
406404,13
406984,11
407560,10
408132,11
408712,10
409284,10
409864,9
410380,11
410960,9
411476,11
412056,13
412624,12
413200,11
413784,11
414352,10
414936,9
415452,11
416032,16
416600,19
417176,13
417744,11
418320,11
418904,11
419472,11
420056,13
420624,15
421200,13
421768,14
422352,13
422928,15
423496,10
424080,14
424648,11
425232,10
425800,12
426384,10
426952,10
427532,10
428112,11
428684,11
429264,12
429832,11
430416,10
430984,11
431568,10
432144,10
432712,11
433296,11
433864,11
434448,12
435020,12
435600,11
436168,11
436744,11
437328,11
437900,10
438480,11
439048,11
439632,10
440204,10
440784,16
441360,13
441932,10
442512,13
443084,15
443664,11
444236,10
444816,11
445384,12
445964,12
446544,11
447116,12
447696,16
448276,14
448856,11
449424,11
450004,10
450584,14
451152,15
451736,17
452308,14
452888,13
453456,10
454040,11
454612,10
455184,13
455768,19
456336,14
456920,9
457440,10
458016,11
458588,11
459168,10
459740,10
460316,11
460896,14
461468,15
462048,13
462620,10
463200,12
463772,10
464348,12
464928,11
465500,12
466080,21
466648,21
467232,11
467800,10
468384,10
468956,11
469532,11
470112,12
470684,11
471264,10
471836,12
472416,15
472992,15
473572,11
474152,10
474724,10
475304,11
475876,11
476456,10
477036,12
477616,15
478188,19
478764,16
479344,12
479916,11
480500,13
481076,14
481656,10
482224,12
482804,13
483384,12
483956,10
484536,11
485108,10
485688,18
486268,16
486848,11
487416,11
487996,14
488576,15
489148,18
489728,15
490300,15
490880,17
491452,15
492028,13
492608,11
493180,13
493760,14
494328,11
494912,12
495484,10
496064,11
496632,11
497212,13
497792,25
498364,25
498944,13
499516,13
500096,10
500664,11
501244,14
501824,13
502396,12
502976,11
503548,10
504128,11
504700,12
505280,12
505852,19
506428,14
507008,10
507580,11
508160,11
508732,11
509312,17
509892,19
510468,15
511048,12
511620,10
512204,10
512772,10
513352,15
513920,19
514504,22
515080,13
515648,11
516232,15
516800,18
517384,23
517952,22
518536,13
519104,10
519684,11
520264,11
520832,15
521416,11
521988,11
522568,17
523136,20
523720,21
524296,18
524868,14
525448,10
526016,11
526600,10
527168,11
527752,11
528324,11
528896,11
529480,11
530048,11
530632,11
531204,13
531784,13
532356,13
532936,11
533512,10
534084,12
534664,12
535236,12
535816,11
536388,10
536968,10
537536,15
538116,14
538696,13
539268,15
539848,17
540420,11
541000,9
541520,10
542096,9
542616,13
543188,13
543768,11
544340,10
544920,11
545492,11
546072,11
546644,11
547224,11
547792,10
548372,10
548952,11
549524,16
550104,20
550676,15
551256,9
551776,11
552352,10
552924,16
553500,15
554080,14
554652,17
555232,17
555804,22
556384,22
556956,15
557532,10
558112,10
558684,10
559264,10
559836,11
560416,10
560996,11
561576,15
562148,18
562724,22
563304,18
563872,13
564456,10
565028,14
565608,15
566180,15
566756,12
567336,13
567908,11
568488,12
569060,13
569640,12
570208,11
570792,12
571364,12
571940,10
572520,10
573092,10
573672,12
574252,13
574832,13
575404,11
575980,14
576560,22
577132,23
577712,16
578284,11
578864,15
579436,26
580016,23
580584,14
581164,11
581744,12
582316,12
582896,11
583476,11
584056,11
584632,11
585212,11
585792,10
586364,11
586944,10
587516,12
588096,14
588676,14
589256,14
589840,16
590412,15
590992,18
591564,17
592144,16
592724,12
593304,11
593876,16
594452,15
595032,11
595604,10
596184,10
596756,14
597336,15
597916,10
598492,11
599072,14
599644,14
600224,17
600796,16
601376,14
601956,14
602536,13
603108,11
603684,12
604264,15
604836,16
605416,12
605988,10
606568,11
607148,10
607724,10
608304,11
608876,11
609456,11
610028,17
610608,17
611180,15
611764,15
612340,16
612916,14
613496,10
614072,14
614652,14
615224,11
615808,9
616328,10
616904,13
617480,15
618052,12
618632,10
619204,11
619784,11
620356,10
620936,9
621456,10
622032,9
622552,10
623124,10
623704,13
624276,12
624856,9
625376,13
625952,13
626524,10
627104,11
627684,11
628260,12
628840,10
629412,10
629992,16
630572,19
631152,19
631724,17
632300,17
632880,15
633456,12
634032,10
634608,10
635184,12
635764,18
636344,13
636924,12
637500,12
638080,11
638652,10
639232,11
639812,10
640396,10
640968,10
641544,9
642068,11
642640,11
643224,11
643792,11
644376,9
644896,12
645472,11
646040,10
646616,10
647200,12
647768,15
648352,14
648920,11
649504,10
650076,11
650656,12
651236,11
651812,15
652392,14
652964,11
653544,13
654116,15
654696,12
655268,10
655844,10
656424,10
656992,10
657576,14
658148,15
658728,15
659296,12
659880,12
660448,11
661024,10
661608,10
662176,11
662760,11
663328,13
663912,9
664432,10
665008,11
665576,12
666156,11
666736,13
667304,11
667888,11
668456,14
669040,20
669608,14
670184,11
670768,15
671336,18
671920,12
672492,10
673072,12
673644,11
674224,9
674744,10
675316,11
675896,12
676464,13
677048,10
677616,12
678200,13
678772,14
679352,15
679924,11
680500,10
681080,11
681648,11
682232,14
682804,15
683384,15
683956,14
684532,14
685112,13
685684,12
686264,11
686832,13
687416,17
687988,14
688568,11
689148,12
689724,11
690304,11
690876,13
691456,16
692032,18
692616,17
693188,18
693764,14
694344,10
694916,10
695496,10
696068,12
696648,9
697164,12
697744,12
698312,11
698892,10
699472,10
700044,10
700624,9
701144,12
701720,13
702300,10
702880,11
703460,19
704036,21
704616,16
705188,14
705768,10
706336,11
706920,13
707488,16
708068,11
708648,11
709220,12
709800,14
710372,10
710952,11
711532,13
712112,10
712692,11
713268,11
713848,11
714420,15
715000,14
715572,15
716152,18
716732,12
717308,11
717888,11
718460,13
719040,14
719612,11
720192,10
720760,11
721344,13
721916,11
722492,10
723072,11
723644,14
724224,13
724796,11
725376,9
725896,10
726472,11
727056,11
727624,10
728208,10
728780,13
729360,13
729932,10
730512,9
731032,11
731604,10
732184,14
732756,18
733336,12
733908,11
734488,11
735068,10
735648,11
736228,10
736804,10
737384,14
737952,22
738536,20
739108,19
739688,22
740268,15
740844,11
741424,11
741996,11
742576,10
743148,11
743728,12
744300,10
744880,11
745452,13
746028,14
746608,11
747180,10
747760,10
748340,10
748920,11
749492,10
750068,10
750648,12
751220,11
751800,11
752372,10
752952,11
753532,12
754112,10
754696,11
755272,10
755848,10
756420,11
757000,14
757580,20
758160,28
758740,27
759316,19
759896,15
760472,11
761048,9
761568,10
762144,14
762724,15
763304,10
763884,10
764460,11
765040,12
765612,11
766192,11
766772,10
767352,10
767932,13
768508,15
769088,17
769660,14
770240,11
770812,12
771392,11
771964,11
772544,12
773116,10
773692,12
774272,13
774844,11
775424,10
775996,11
776576,16
777156,14
777732,11
778312,10
778884,11
779464,11
780036,11
780616,10
781188,10
781768,10
782344,10
782916,11
783496,12
784068,12
784648,12
785216,14
785800,13
786372,13
786948,11
787528,12
788100,14
788680,13
789252,13
789832,15
790404,15
790984,13
791560,16
792136,17
792712,14
793288,11
793864,10
794444,10
795024,12
795596,18
796172,15
796752,13
797324,19
797904,17
798484,12
799064,11
799644,11
800220,14
800800,11
801368,11
801952,11
802524,10
803104,9
803624,13
804200,23
804772,22
805348,14
805928,12
806500,13
807080,13
807652,10
808232,10
808804,11
809384,13
809956,17
810532,16
811112,17
811684,15
812264,11
812836,10
813416,12
813988,15
814564,13
815144,10
815716,12
816296,10
816868,9
817396,10
817972,11
818552,14
819132,12
819708,10
820288,11
820856,15
821432,16
822000,12
822584,10
823152,11
823736,13
824304,13
824884,11
825464,12
826032,13
826616,14
827184,13
827768,11
828336,10
828912,10
829496,10
830064,11
830648,12
831220,13
831800,11
832372,11
832952,13
833520,13
834096,11
834680,11
835248,12
835832,10
836404,11
836984,17
837556,13
838132,12
838712,10
839284,10
839864,10
840432,14
841016,12
841584,15
842168,15
842736,15
843312,13
843896,11
844468,11
845048,12
845616,13
846200,11
846768,11
847344,11
847928,10
848500,11
849080,13
849648,13
850232,12
850804,11
851384,9
851904,10
852476,10
853056,10
853628,13
854208,15
854780,12
855360,12
855928,13
856512,17
857084,18
857660,13
858240,13
858808,14
859392,12
859964,10
860544,16
861124,18
861696,13
862280,11
862852,10
863432,11
864004,15
864584,15
865156,12
865736,9
866256,9
866776,12
867352,11
867924,13
868504,14
869076,11
869656,9
870176,15
870752,15
871328,10
871908,16
872488,15
873056,15
873640,11
874208,11
874792,10
875364,10
875944,11
876516,13
877092,12
877672,10
878244,10
878824,9
879344,10
879920,11
880500,10
881080,10
881652,10
882224,10
882808,10
883380,10
883960,13
884532,11
885112,10
885684,10
886260,11
886840,14
887412,14
887992,11
888564,10
889144,10
889716,11
890296,16
890868,17
891444,11
892024,10
892596,11
893176,12
893756,10
894336,10
894916,10
895492,10
896076,13
896644,14
897224,11
897796,10
898376,10
898948,10
899528,9
900048,10
900620,10
901200,10
901772,10
902352,10
902924,10
903504,9
904024,10
904600,10
905172,11
905748,11
906328,14
906896,18
907480,16
908052,17
908632,15
909204,11
909780,11
910360,13
910932,13
911512,10
912084,11
912664,12
913236,14
913816,11
914396,12
914972,11
915552,11
916124,13
916704,16
917284,11
917864,11
918436,16
919012,21
919592,18
920168,14
920744,11
921316,11
921896,10
922472,10
923056,10
923628,11
924204,14
924784,13
925356,11
925936,11
926516,10
927096,11
927676,14
928252,15
928832,15
929404,14
929984,12
930556,14
931136,13
931716,13
932296,11
932880,10
933452,10
934032,11
934604,11
935184,10
935756,11
936336,11
936916,10
937492,12
938072,10
938644,11
939224,11
939804,11
940384,13
940964,15
941540,15
942120,11
942692,11
943272,12
943844,19
944424,19
945004,13
945584,11
946156,13
946732,12
947312,11
947884,10
948464,13
949036,10
949616,10
950196,10
950772,11
951352,11
951928,11
952504,10
953076,13
953656,15
954236,10
954816,13
955400,11
955976,10
956556,10
957128,13
957704,11
958284,10
958864,11
959444,10
960020,10
960600,10
961172,11
961752,12
962324,12
962904,16
963476,19
964052,16
964632,15
965204,16
965784,12
966356,10
966936,10
967516,10
968096,10
968676,11
969252,10
969832,12
970404,11
970984,12
971556,14
972136,17
972716,21
973292,17
973872,18
974444,13
975024,12
975596,13
976176,11
976756,10
977336,11
977916,10
978496,10
979072,10
979644,10
980224,11
980796,11
981376,12
981956,12
982532,11
983112,12
983684,17
984264,18
984836,16
985416,13
985988,10
986568,9
987088,10
987660,11
988240,10
988808,11
989392,10
989964,11
990544,13
991116,10
991696,10
992280,11
992852,13
993432,11
994004,10
994584,9
995104,11
995680,11
996260,11
996836,14
997416,12
997988,11
998568,14
999140,17
999720,16
1000292,15
1000916,15
1001544,12
1002168,11
1002796,11
1003420,14
1004044,13
1004672,10
1005292,10
1005920,11
1006544,10
1007164,10
1007796,12
1008416,14
1009044,10
1009672,10
1010296,9
1010872,10
1011496,11
1012124,11
1012756,10
1013376,11
1014004,10
1014628,10
1015260,14
1015888,16
1016504,17
1017136,13
1017760,12
1018384,11
1019012,9
1019580,10
1020212,14
1020836,17
1021460,13
1022092,11
1022712,11
1023344,11
1023968,11
1024592,11
1025220,10
1025836,15
1026464,15
1027092,12
1027708,11
1028336,11
1028960,14
1029588,10
1030216,10
1030832,11
1031460,11
1032084,10
1032708,10
1033336,11
1033952,10
1034584,13
1035204,12
1035828,10
1036456,12
1037072,13
1037700,10
1038324,11
1038944,12
1039576,11
1040196,11
1040824,13
1041452,16
1042072,16
1042700,14
1043320,12
1043948,13
1044580,14
1045196,15
1045828,11
1046448,11
1047068,10
1047696,10
1048316,10
1048948,10
1049568,10
1050192,10
1050824,11
1051440,11
1052068,10
1052696,11
1053312,10
1053944,12
1054564,11
1055196,11
1055824,10
1056440,10
1057072,10
1057692,10
1058316,11
1058944,12
1059560,13
1060192,11
1060812,12
1061436,15
1062064,15
1062688,17
1063316,17
1063944,19
1064568,13
1065196,13
1065820,13
1066448,12
1067076,14
1067696,14
1068324,13
1068944,11
1069572,10
1070200,10
1070824,11
1071452,10
1072076,10
1072696,12
1073324,14
1073944,14
1074572,13
1075196,12
1075824,14
1076452,11
1077076,11
1077704,11
1078332,10
1078952,13
1079580,12
1080204,11
1080832,11
1081460,10
1082080,11
1082708,11
1083332,11
1083952,11
1084584,14
1085200,10
1085828,10
1086452,10
1087076,11
1087704,13
1088328,12
1088956,11
1089584,12
1090200,10
1090828,10
1091452,11
1092080,11
1092708,10
1093328,11
1093956,13
1094580,15
1095200,13
1095832,10
1096448,11
1097076,11
1097700,11
1098324,10
1098952,10
1099568,12
1100200,11
1100828,10
1101444,11
1102076,11
1102700,10
1103328,13
1103956,14
1104576,18
1105204,16
1105828,16
1106452,13
1107080,11
1107704,12
1108332,11
1108956,11
1109580,11
1110208,10
1110832,11
1111460,9
1112032,11
1112664,11
1113292,10
1113912,15
1114540,17
1115172,10
1115792,11
1116424,11
1117044,11
1117676,12
1118304,12
1118924,12
1119552,11
1120176,11
1120796,12
1121428,10
1122048,11
1122676,11
1123300,13
1123920,17
1124552,15
1125168,11
1125796,11
1126428,10
1127044,11
1127672,10
1128296,10
1128928,9
1129504,11
1130128,15
1130756,17
1131380,17
1132008,16
1132640,13
1133256,13
1133884,11
1134508,11
1135132,11
1135764,10
1136384,15
1137012,20
1137636,15
1138260,17
1138888,16
1139512,14
1140140,13
1140772,12
1141392,11
1142020,17
1142644,19
1143276,19
1143904,16
1144524,13
1145152,11
1145776,10
1146400,13
1147028,12
1147648,11
1148276,10
1148900,11
1149524,14
1150152,18
1150768,13
1151400,11
1152028,11
1152644,10
1153272,12
1153896,17
1154524,17
1155152,11
1155776,11
1156404,11
1157028,11
1157652,13
1158280,12
1158896,15
1159528,13
1160148,10
1160772,10
1161400,10
1162024,9
1162600,10
1163224,10
1163844,11
1164476,11
1165096,12
1165724,10
1166356,10
1166976,11
1167604,13
1168228,11
1168856,11
1169484,12
1170104,11
1170732,11
1171356,11
1171980,10
1172608,13
1173232,12
1173860,11
1174484,12
1175108,11
1175736,11
1176356,10
1176984,15
1177612,18
1178228,21
1178860,17
1179484,11
1180112,11
1180740,11
1181360,12
1181988,21
1182612,23
1183240,15
1183868,14
1184488,15
1185116,11
1185740,11
1186364,10
1186992,13
1187616,16
1188244,19
1188876,18
1189496,12
1190124,10
1190748,10
1191376,11
1192008,10
1192624,11
1193252,13
1193876,15
1194500,16
1195132,15
1195752,16
1196380,12
1197008,11
1197632,11
1198260,11
1198880,10
1199508,11
1200140,12
1200760,12
1201388,11
1202012,11
1202640,10
1203272,12
1203888,15
1204516,21
1205140,19
1205764,16
1206396,11
1207016,10
1207644,12
1208268,12
1208892,11
1209524,14
1210144,15
1210772,12
1211404,10
1212024,11
1212652,11
1213276,11
1213908,11
1214540,10
1215160,11
1215792,11
1216416,13
1217036,11
1217668,10
1218288,11
1218916,11
1219540,13
1220164,12
1220792,14
1221412,12
1222040,10
1222672,10
1223288,10
1223920,11
1224544,11
1225172,15
1225804,11
1226424,11
1227052,12
1227676,11
1228304,15
1228932,12
1229548,11
1230180,11
1230800,12
1231424,11
1232052,10
1232668,11
1233300,10
1233928,12
1234544,14
1235172,11
1235796,10
1236428,10
1237056,12
1237672,15
1238304,13
1238928,11
1239556,10
1240188,12
1240808,19
1241436,17
1242060,11
1242684,11
1243312,14
1243928,15
1244560,12
1245188,10
1245808,15
1246436,18
1247060,17
1247692,13
1248320,15
1248936,16
1249568,15
1250188,16
1250820,13
1251448,13
1252064,11
1252696,10
1253320,11
1253944,11
1254572,10
1255192,12
1255820,13
1256444,12
1257072,13
1257700,10
1258324,10
1258952,10
1259584,10
1260200,11
1260832,12
1261452,11
1262084,12
1262712,12
1263332,11
1263960,12
1264588,11
1265212,10
1265840,16
1266460,19
1267088,10
1267720,12
1268336,13
1268964,11
1269588,12
1270220,11
1270852,10
1271472,11
1272100,11
1272724,12
1273352,12
1273980,13
1274600,15
1275228,11
1275852,11
1276476,11
1277108,11
1277728,11
1278356,11
1278988,11
1279608,11
1280240,11
1280860,13
1281488,20
1282116,16
1282732,12
1283360,11
1283984,11
1284612,11
1285240,10
1285856,10
1286484,11
1287104,10
1287728,11
1288356,10
1288976,10
1289604,10
1290224,15
1290848,17
1291476,15
1292100,12
1292728,11
1293356,10
1293976,12
1294604,11
1295228,11
1295856,12
1296484,10
1297100,11
1297732,10
1298356,14
1298976,20
1299608,19
1300224,15
1300852,12
1301476,12
1302100,11
1302728,10
1303344,10
1303976,12
1304604,9
1305172,11
1305804,10
1306424,11
1307052,11
1307680,12
1308296,11
1308928,12
1309552,12
1310180,13
1310812,14
1311428,11
1312060,11
1312680,16
1313300,14
1313928,11
1314544,15
1315172,15
1315796,11
1316420,10
1317048,11
1317664,12
1318292,12
1318920,12
1319544,11
1320172,16
1320792,18
1321424,13
1322052,16
1322672,15
1323300,14
1323920,17
1324548,15
1325180,12
1325800,10
1326428,10
1327048,10
1327672,12
1328300,11
1328920,11
1329548,11
1330172,14
1330800,13
1331428,14
1332048,12
1332676,12
1333304,10
1333928,11
1334556,10
1335176,12
1335808,11
1336436,10
1337052,11
1337684,12
1338304,11
1338928,11
1339556,10
1340176,10
1340804,12
1341424,17
1342048,24
1342680,28
1343300,27
1343932,11
1344560,21
1345176,24
1345804,21
1346428,16
1347056,12
1347684,10
1348304,14
1348932,12
1349552,10
1350176,17
1350804,21
1351424,23
1352052,14
1352676,13
1353296,21
1353924,17
1354544,19
1355172,20
1355800,18
1356424,15
1357052,11
1357676,10
1358304,11
1358932,10
1359552,12
1360180,12
1360804,11
1361424,16
1362052,14
1362668,15
1363300,13
1363920,13
1364540,12
1365172,11
1365792,11
1366420,10
1367048,11
1367664,18
1368292,13
1368916,13
1369544,12
1370176,11
1370792,14
1371420,18
1372044,19
1372676,16
1373304,14
1373920,14
1374548,11
1375172,11
1375796,16
1376428,17
1377048,13
1377676,11
1378296,13
1378920,14
1379552,11
1380172,10
1380804,11
1381432,14
1382048,11
1382680,14
1383300,14
1383932,12
1384560,10
1385176,11
1385804,10
1386428,10
1387052,10
1387680,10
1388296,11
1388924,11
1389548,13
1390172,10
1390800,10
1391424,12
1392052,10
1392684,10
1393300,11
1393932,12
1394552,12
1395184,11
1395812,12
1396432,13
1397060,11
1397684,14
1398308,17
1398936,18
1399556,15
1400184,11
1400808,11
1401428,17
1402060,14
1402680,11
1403308,12
1403936,11
1404560,11
1405188,11
1405812,11
1406444,11
1407072,10
1407692,11
1408320,15
1408940,10
1409564,19
1410192,17
1410816,12
1411444,17
1412068,11
1412688,14
1413320,16
1413936,15
1414564,12
1415192,10
1415816,12
1416444,10
1417068,10
1417696,12
1418324,16
1418944,23
1419572,11
1420196,11
1420820,11
1421448,11
1422064,14
1422692,11
1423316,11
1423940,13
1424572,12
1425192,13
1425820,12
1426452,12
1427072,13
1427700,15
1428324,14
1428956,10
1429584,9
1430152,10
1430780,11
1431408,11
1432036,11
1432668,10
1433288,11
1433916,12
1434540,13
1435164,20
1435792,23
1436416,13
1437044,11
1437668,12
1438292,13
1438920,11
1439536,10
1440168,11
1440796,10
1441416,11
1442044,11
1442664,16
1443296,14
1443924,10
1444544,16
1445172,13
1445792,10
1446416,11
1447044,10
1447664,11
1448292,10
1448916,16
1449540,10
1450168,11
1450784,16
1451412,16
1452044,12
1452664,12
1453292,13
1453916,12
1454548,16
1455176,12
1455792,10
1456424,12
1457048,11
1457668,11
1458300,12
1458920,13
1459548,12
1460172,13
1460796,13
1461424,13
1462040,13
1462672,13
1463300,14
1463920,13
1464548,12
1465172,10
1465804,14
1466432,11
1467048,10
1467680,12
1468304,13
1468932,10
1469564,10
1470184,12
1470812,12
1471436,10
1472060,12
1472692,12
1473312,10
1473940,13
1474568,16
1475188,20
1475820,26
1476444,24
1477072,16
1477700,10
1478320,12
1478948,11
1479572,11
1480200,10
1480828,10
1481448,10
1482076,10
1482700,11
1483324,11
1483952,14
1484572,17
1485200,17
1485828,17
1486448,16
1487076,11
1487700,11
1488328,11
1488956,10
1489576,11
1490204,14
1490828,17
1491456,14
1492088,15
1492704,15
1493332,13
1493956,10
1494580,14
1495212,14
1495832,15
1496460,15
1497084,14
1497712,14
1498340,13
1498964,12
1499592,14
1500220,14
1500840,15
1501468,13
1502092,11
1502720,10
1503352,10
1503972,11
1504600,12
1505224,13
1505848,12
1506480,11
1507096,12
1507724,11
1508348,11
1508976,10
1509604,9
1510176,10
1510816,11
1511444,12
1512064,11
1512692,11
1513316,10
1513948,12
1514580,10
1515200,11
1515828,15
1516452,20
1517080,17
1517708,14
1518328,12
1518956,11
1519580,11
1520208,11
1520836,10
1521456,12
1522084,10
1522716,10
1523336,14
1523964,17
1524588,15
1525220,10
1525848,11
1526468,10
1527096,11
1527720,15
1528344,17
1528972,10
1529592,11
1530224,11
1530848,10
1531472,11
1532104,11
1532720,15
1533352,16
1533980,14
1534600,14
1535232,14
1535856,14
1536488,11
1537116,10
1537736,13
1538364,12
1538988,11
1539608,15
1540240,16
1540856,15
1541484,13
1542108,11
1542732,11
1543360,14
1543976,15
1544604,15
1545236,12
1545856,11
1546484,10
1547108,10
1547740,10
1548368,10
1548984,10
1549616,12
1550236,13
1550860,14
1551492,10
1552112,10
1552740,15
1553364,13
1553988,10
1554620,10
1555240,12
1555868,12
1556500,10
1557120,11
1557748,10
1558372,11
1559000,12
1559632,10
1560252,11
1560880,11
1561504,11
1562128,10
1562756,10
1563376,11
1564004,11
1564628,14
1565252,15
1565880,10
1566504,11
1567132,11
1567764,11
1568384,17
1569012,12
1569636,11
1570264,13
1570892,14
1571512,15
1572140,13
1572764,11
1573388,12
1574020,12
1574640,12
1575268,11
1575892,10
1576516,11
1577148,12
1577768,22
1578396,14
1579028,10
1579648,10
1580276,10
1580900,10
1581532,11
1582160,13
1582784,15
1583412,11
1584036,12
1584660,11
1585292,10
1585912,13
1586544,15
1587168,13
1587792,10
1588420,14
1589040,16
1589668,13
1590300,10
1590920,10
1591548,10
1592176,11
1592804,18
1593436,14
1594056,15
1594684,11
1595312,11
1595936,11
1596568,14
1597184,18
1597816,18
1598440,17
1599064,17
1599692,13
1600312,10
1600940,11
1601568,10
1602184,10
1602812,11
1603436,10
1604064,13
1604692,12
1605312,11
1605940,11
1606564,10
1607184,10
1607816,10
1608432,10
1609060,10
1609684,13
1610304,12
1610936,12
1611552,13
1612180,13
1612812,11
1613428,11
1614060,10
1614684,11
1615312,11
1615940,10
1616560,10
1617188,10
1617812,11
1618436,15
1619068,10
1619688,11
1620316,10
1620940,10
1621564,10
1622192,10
1622816,12
1623444,11
1624076,10
1624696,10
1625324,11
1625948,16
1626576,18
1627208,15
1627824,14
1628452,11
1629076,11
1629700,15
1630332,14
1630952,11
1631580,13
1632208,13
1632828,11
1633460,10
1634080,11
1634708,12
1635340,10
1635960,11
1636588,12
1637212,10
1637844,11
1638472,10
1639092,11
1639720,11
1640340,12
1640964,15
1641592,16
1642208,17
1642836,18
1643456,16
1644080,13
1644708,10
1645328,11
1645956,10
1646576,10
1647200,11
1647828,10
1648452,11
1649080,13
1649708,14
1650324,16
1650956,16
1651576,14
1652204,10
1652832,14
1653452,19
1654084,14
1654704,11
1655328,11
1655956,10
1656576,11
1657204,12
1657828,11
1658448,10
1659080,10
1659696,13
1660324,16
1660952,18
1661568,13
1662196,10
1662820,10
1663448,11
1664076,12
1664692,15
1665320,13
1665940,11
1666564,11
1667192,13
1667808,12
1668436,10
1669060,11
1669680,10
1670308,10
1670928,11
1671556,10
1672180,10
1672800,11
1673428,13
1674052,14
1674680,15
1675308,12
1675928,13
1676556,15
1677180,17
1677808,16
1678436,10
1679056,10
1679684,11
1680308,11
1680928,11
1681556,10
1682176,13
1682804,11
1683424,9
1683996,11
1684628,14
1685244,13
1685872,10
1686496,10
1687116,10
1687748,10
1688368,10
1688996,11
1689624,13
1690240,11
1690868,10
1691488,20
1692116,21
1692744,18
1693368,16
1693996,17
1694620,18
1695240,12
1695872,11
1696488,16
1697116,16
1697740,11
1698360,10
1698988,11
1699608,11
1700236,11
1700856,10
1701480,10
1702108,11
1702732,11
1703360,17
1703988,10
1704608,11
1705236,11
1705860,13
1706488,12
1707116,10
1707736,11
1708364,12
1708988,12
1709612,13
1710240,10
1710856,11
1711488,15
1712108,19
1712732,19
1713360,12
1713984,11
1714612,13
1715244,12
1715864,15
1716492,14
1717112,15
1717744,15
1718372,12
1718992,11
1719620,14
1720244,17
1720868,15
1721496,12
1722120,11
1722748,11
1723372,10
1723992,13
1724624,13
1725240,11
1725868,11
1726500,10
1727120,10
1727748,10
1728372,10
1729000,11
1729632,13
1730248,12
1730876,10
1731500,11
1732124,12
1732752,13
1733368,10
1734000,11
1734624,11
1735244,11
1735876,10
1736496,12
1737124,11
1737752,10
1738376,11
1739004,11
1739628,13
1740260,14
1740888,16
1741508,18
1742140,14
1742760,13
1743384,11
1744012,11
1744628,10
1745260,10
1745884,11
1746504,10
1747136,10
1747752,10
1748380,10
1749012,10
1749632,11
1750260,10
1750884,11
1751512,11
1752144,11
1752760,10
1753392,11
1754016,10
1754640,11
1755268,12
1755888,11
1756516,11
1757140,10
1757764,11
1758396,12
1759016,15
1759648,16
1760276,16
1760896,15
1761524,13
1762148,10
1762776,13
1763404,14
1764024,10
1764652,19
1765276,16
1765896,10
1766528,16
1767144,15
1767772,10
1768396,10
1769016,11
1769648,14
1770264,17
1770892,14
1771516,11
1772140,11
1772768,16
1773392,17
1774020,11
1774652,10
1775272,13
1775900,12
1776528,10
1777156,10
1777784,11
1778408,11
1779036,10
1779660,10
1780284,12
1780912,11
1781536,16
1782164,17
1782796,10
1783416,13
1784044,12
1784668,12
1785300,10
1785928,11
1786544,16
1787176,12
1787800,11
1788424,10
1789052,12
1789672,13
1790300,11
1790928,11
1791552,14
1792184,11
1792800,10
1793428,11
1794056,13
1794672,14
1795300,10
1795924,12
1796552,12
1797184,10
1797800,13
1798428,13
1799052,11
1799680,10
1800308,12
1800928,11
1801556,11
1802180,13
1802804,14
1803432,12
1804056,13
1804684,18
1805308,15
1805928,12
1806560,11
1807180,13
1807812,10
1808440,10
1809056,10
1809684,11
1810308,13
1810936,16
1811564,16
1812184,11
1812812,11
1813436,11
1814060,10
1814688,11
1815308,12
1815936,13
1816560,11
1817184,11
1817812,10
1818436,11
1819064,14
1819692,10
1820312,15
1820940,12
1821564,11
1822196,15
1822824,12
1823440,11
1824072,15
1824692,17
1825316,12
1825944,11
1826560,10
1827188,11
1827816,10
1828440,11
1829068,12
1829688,11
1830316,10
1830948,10
1831568,11
1832196,11
1832820,10
1833452,10
1834080,10
1834696,10
1835328,11
1835952,13
1836576,13
1837204,11
1837824,10
1838452,11
1839076,12
1839704,12
1840332,10
1840952,12
1841580,20
1842212,20
1842832,21
1843464,17
1844084,11
1844712,11
1845340,10
1845960,10
1846588,11
1847212,11
1847832,11
1848464,10
1849080,13
1849708,13
1850332,11
1850956,10
1851584,10
1852200,10
1852828,10
1853456,10
1854080,12
1854708,15
1855332,15
1855960,12
1856592,10
1857208,10
1857840,11
1858460,10
1859084,13
1859716,14
1860336,11
1860964,13
1861588,17
1862212,13
1862840,10
1863464,12
1864092,11
1864720,10
1865344,10
1865972,10
1866596,11
1867224,13
1867856,16
1868472,15
1869100,15
1869724,15
1870348,13
1870980,10
1871600,11
1872228,11
1872852,12
1873476,15
1874104,12
1874728,19
1875356,16
1875988,10
1876608,11
1877236,11
1877860,12
1878492,11
1879120,10
1879744,9
1880324,11
1880952,11
1881580,12
1882212,12
1882832,11
1883460,13
1884088,15
1884712,16
1885340,12
1885960,11
1886588,11
1887212,13
1887836,11
1888468,11
1889092,11
1889720,11
1890348,10
1890968,10
1891596,13
1892220,13
1892852,11
1893480,10
1894104,12
1894732,10
1895356,11
1895980,11
1896612,12
1897232,13
1897860,13
1898484,13
1899108,11
1899740,10
1900364,11
1900992,14
1901620,16
1902240,17
1902868,20
1903492,22
1904124,13
1904756,10
1905376,18
1906004,17
1906628,15
1907252,15
1907884,12
1908504,10
1909132,10
1909756,10
1910384,11
1911016,11
1911640,14
1912272,14
1912900,13
1913520,13
1914152,11
1914776,12
1915400,16
1916028,14
1916648,15
1917280,11
1917904,11
1918528,11
1919160,11
1919780,13
1920412,17
1921040,18
1921656,16
1922284,10
1922908,11
1923536,12
1924164,12
1924784,15
1925412,19
1926036,22
1926660,12
1927292,10
1927912,12
1928540,14
1929164,21
1929788,22
1930416,16
1931032,11
1931664,11
1932292,10
1932912,12
1933540,15
1934164,11
1934796,10
1935424,12
1936040,12
1936672,14
1937292,12
1937924,10
1938552,11
1939172,10
1939800,15
1940424,14
1941048,17
1941680,18
1942296,14
1942928,14
1943556,13
1944176,10
1944804,11
1945428,10
1946060,11
1946688,12
1947312,13
1947940,11
1948564,11
1949188,13
1949820,12
1950440,11
1951068,10
1951692,10
1952316,10
1952948,10
1953568,13
1954196,10
1954828,10
1955448,13
1956076,10
1956700,13
1957332,17
1957960,18
1958584,13
1959212,10
1959836,10
1960460,11
1961092,12
1961712,12
1962340,13
1962964,11
1963588,11
1964220,10
1964840,10
1965468,11
1966100,10
1966720,13
1967348,10
1967972,15
1968600,14
1969228,11
1969848,11
1970476,11
1971100,10
1971724,10
1972352,10
1972976,10
1973604,12
1974228,12
1974852,11
1975480,10
1976100,10
1976728,12
1977356,18
1977976,17
1978604,12
1979228,10
1979856,13
1980488,15
1981104,14
1981732,13
1982356,11
1982984,11
1983612,11
1984232,17
1984860,13
1985484,10
1986108,10
1986736,10
1987352,11
1987980,15
1988604,11
1989232,11
1989860,14
1990484,14
1991112,12
1991744,10
1992360,17
1992992,21
1993616,24
1994244,15
1994872,11
1995496,11
1996128,12
1996752,20
1997376,24
1998004,17
1998624,11
1999252,10
1999884,10
2000504,11
2001132,11
2001756,12
2002384,11
2003016,10
2003632,10
2004264,16
2004884,17
2005508,12
2006140,10
2006760,11
2007388,10
2008012,11
2008636,11
2009264,11
2009884,11
2010512,11
2011140,10
2011760,13
2012388,15
2013012,16
2013644,13
2014272,20
2014888,28
2015520,21
2016144,11
2016772,11
2017404,12
2018024,15
2018652,16
2019276,11
2019900,12
2020528,11
2021152,11
2021780,11
2022412,10
2023032,12
2023660,10
2024284,10
2024916,12
2025544,11
2026164,11
2026792,11
2027416,12
2028040,15
2028668,18
2029288,14
2029916,11
2030540,14
2031164,12
2031796,10
2032416,12
2033044,12
2033676,10
2034296,11
2034924,10
2035552,10
2036180,11
2036812,12
2037432,14
2038064,17
2038688,17
2039312,16
2039944,11
2040560,11
2041188,10
2041816,17
2042440,23
2043068,20
2043688,13
2044316,13
2044948,10
2045568,15
2046200,17
2046824,22
2047452,28
2048084,23
2048700,18
2049328,18
2049948,13
2050572,11
2051196,18
2051816,17
2052444,14
2053068,11
2053688,10
2054316,14
2054936,15
2055564,10
2056184,12
2056808,19
2057436,15
2058060,10
2058688,10
2059316,13
2059936,13
2060564,10
2061184,10
2061816,11
2062444,10
2063060,10
2063692,12
2064312,11
2064936,11
2065564,14
2066184,20
2066812,21
2067436,14
2068056,11
2068688,10
2069304,13
2069932,13
2070560,10
2071176,10
2071804,10
2072428,10
2073056,11
2073684,10
2074300,11
2074932,10
2075552,12
2076176,12
2076804,11
2077420,12
2078052,10
2078676,10
2079300,12
2079928,13
2080552,13
2081180,10
2081808,11
2082424,11
2083052,11
2083676,11
2084304,12
2084932,10
2085552,11
2086180,14
2086804,12
2087428,11
2088056,10
2088680,10
2089308,10
2089928,12
2090552,13
2091180,9
2091748,10
2092380,10
2093004,10
2093628,11
2094256,12
2094872,11
2095500,10
2096124,10
2096752,12
2097380,11
2098004,10
2098632,11
2099260,14
2099876,15
2100504,15
2101128,11
2101756,11
2102388,16
2103008,15
2103636,11
2104260,10
2104884,10
2105512,11
2106132,14
2106760,13
2107384,13
2108008,11
2108636,11
2109260,13
2109888,11
2110520,10
2111136,13
2111764,13
2112392,13
2113020,10
2113648,13
2114264,15
2114892,13
2115516,9
2116088,12
2116716,10
2117336,11
2117964,10
2118588,10
2119212,10
2119840,10
2120464,13
2121092,12
2121716,10
2122340,10
2122968,11
2123592,11
2124220,11
2124852,10
2125472,12
2126100,10
2126724,10
2127352,14
2127980,14
2128600,12
2129228,11
2129852,12
2130476,9
2131052,10
2131676,13
2132308,18
2132932,17
2133552,15
2134184,16
2134800,10
2135432,11
2136052,12
2136676,11
2137308,10
2137928,10
2138560,11
2139188,10
2139808,15
2140436,12
2141060,11
2141692,10
2142320,11
2142936,11
2143568,11
2144192,11
2144816,11
2145444,10
2146064,11
2146692,11
2147316,11
2147940,13
2148568,17
2149192,17
2149820,15
2150452,14
2151068,15
2151700,10
2152320,10
2152952,9
2153528,11
2154152,16
2154784,18
2155408,13
2156036,10
2156668,12
2157288,11
2157916,11
2158540,11
2159164,11
2159796,10
2160416,11
2161044,10
2161672,10
2162296,11
2162924,10
2163548,10
2164176,14
2164804,12
2165424,11
2166052,11
2166676,11
2167300,11
2167932,10
2168552,12
2169180,11
2169804,11
2170428,11
2171060,15
2171680,15
2172308,10
2172940,10
2173560,12
2174188,11
2174812,11
2175444,11
2176072,12
2176692,12
2177320,10
2177944,10
2178568,10
2179196,10
2179816,16
2180444,21
2181068,18
2181692,13
2182320,10
2182944,14
2183572,17
2184204,20
2184824,20
2185452,16
2186076,13
2186704,13
2187336,12
2187952,11
2188584,10
2189208,11
2189832,10
2190460,10
2191080,11
2191708,9
2192280,12
2192912,11
2193540,10
2194160,11
2194788,13
2195412,13
2196036,14
2196668,16
2197288,17
2197916,15
2198548,15
2199168,16
2199796,11
2200424,13
2201052,16
2201684,14
2202304,12
2202932,10
2203556,16
2204180,17
2204808,15
2205424,12
2206052,10
2206680,12
2207304,11
2207932,10
2208552,11
2209180,10
2209812,10
2210432,10
2211060,10
2211688,11
2212316,10
2212944,10
2213568,12
2214196,11
2214820,10
2215444,10
2216076,10
2216696,12
2217324,13
2217948,19
2218572,18
2219204,18
2219824,11
2220452,11
2221084,11
2221704,13
2222332,11
2222956,10
2223588,13
2224220,12
2224840,15
2225468,17
2226092,15
2226716,13
2227348,10
2227968,11
2228596,15
2229220,16
2229844,12
2230476,11
2231096,10
2231728,11
2232356,12
2232976,16
2233604,12
2234228,13
2234860,17
2235492,17
2236112,11
2236744,11
2237368,11
2237992,17
2238624,18
2239240,16
2239872,10
2240496,11
2241120,11
2241748,10
2242372,11
2243004,10
2243632,13
2244248,12
2244880,10
2245504,11
2246132,10
2246764,14
2247384,15
2248012,13
2248636,11
2249260,12
2249888,11
2250512,12
2251140,10
2251768,10
2252392,11
2253024,11
2253644,10
2254272,10
2254904,10
2255520,10
2256148,11
2256772,11
2257400,15
2258028,14
2258648,15
2259276,15
2259900,11
2260520,10
2261152,11
2261768,12
2262396,11
2263020,11
2263648,9
2264224,11
2264848,11
2265476,11
2266100,10
2266724,10
2267352,10
2267976,10
2268608,11
2269236,10
2269856,11
2270484,13
2271108,15
2271740,16
2272372,14
2272992,17
2273620,13
2274244,11
2274868,12
2275496,11
2276120,12
2276748,12
2277372,10
2278000,11
2278628,11
2279252,11
2279884,11
2280512,10
2281136,9
2281712,10
2282344,11
2282972,15
2283604,14
2284224,11
2284852,11
2285476,10
2286100,10
2286728,10
2287352,10
2287984,10
2288608,11
2289232,11
2289860,10
2290480,12
2291108,12
2291740,11
2292360,11
2292988,12
2293616,14
2294244,15
2294876,12
2295496,11
2296124,11
2296748,11
2297372,10
2298004,10
2298624,11
2299252,11
2299876,11
2300500,11
2301132,10
2301752,12
2302384,13
2303012,17
2303632,15
2304264,13
2304884,11
2305512,13
2306144,17
2306760,18
2307388,11
2308012,10
2308636,10
2309264,10
2309880,10
2310508,11
2311132,10
2311756,10
2312384,11
2313008,13
2313636,11
2314268,18
2314888,11
2315516,11
2316140,11
2316772,11
2317400,10
2318020,13
2318648,12
2319272,11
2319896,12
2320524,11
2321144,16
2321772,14
2322396,10
2323020,14
2323648,16
2324272,11
2324900,12
2325532,12
2326152,13
2326780,11
2327404,13
2328036,11
2328664,10
2329284,10
2329912,10
2330536,10
2331160,11
2331788,15
2332408,18
2333036,13
2333660,11
2334284,12
2334916,16
2335536,17
2336164,11
2336792,10
2337416,12
2338044,11
2338668,10
2339296,10
2339928,10
2340544,10
2341172,11
2341796,10
2342420,10
2343052,12
2343672,11
2344300,13
2344928,15
2345552,12
2346180,11
2346800,13
2347428,11
2348060,10
2348680,11
2349308,11
2349936,11
2350564,13
2351196,13
2351816,13
2352448,12
2353072,11
2353696,10
2354324,10
2354944,11
2355576,11
2356200,11
2356820,11
2357452,11
2358072,9
2358652,11
2359280,11
2359904,11
2360536,10
2361156,10
2361788,10
2362420,11
2363040,12
2363668,11
2364292,11
2364924,12
2365556,10
2366176,13
2366804,11
2367428,12
2368052,13
2368684,12
2369304,11
2369932,11
2370556,11
2371184,15
2371816,11
2372440,11
2373068,11
2373700,10
2374320,13
2374952,13
2375576,12
2376200,11
2376828,10
2377448,11
2378076,16
2378700,18
2379324,13
2379956,10
2380576,11
2381208,13
2381836,19
2382456,16
2383084,12
2383708,10
2384340,11
2384968,14
2385592,14
2386224,13
2386848,18
2387468,19
2388100,14
2388720,13
2389348,10
2389976,12
2390600,11
2391228,10
2391848,11
2392480,10
2393108,10
2393728,10
2394356,11
2394984,12
2395612,10
2396244,10
2396864,10
2397492,10
2398116,13
2398744,14
2399372,14
2399992,15
2400624,17
2401248,16
2401872,15
2402500,14
2403120,12
2403748,10
2404380,10
2405000,15
2405628,12
2406252,10
2406884,10
2407512,10
2408136,12
2408764,10
2409388,12
2410012,12
2410644,14
2411264,13
2411892,11
2412516,11
2413144,12
2413772,10
2414392,12
2415024,12
2415652,10
2416272,12
2416900,12
2417524,10
2418156,10
2418784,10
2419408,11
2420036,10
2420660,9
2421232,10
2421860,10
2422480,12
2423108,11
2423732,10
2424356,10
2424988,10
2425608,12
2426236,17
2426860,15
2427488,17
2428116,19
2428744,20
2429372,14
2430004,10
2430624,10
2431256,11
2431880,11
2432512,9
2433088,10
2433712,11
2434344,15
2434968,13
2435592,11
2436220,11
2436840,10
2437468,10
2438092,10
2438716,10
2439348,10
2439968,15
2440600,15
2441228,14
2441848,17
2442476,19
2443100,14
2443732,10
2444364,10
2444984,10
2445612,10
2446236,10
2446860,11
2447492,10
2448112,11
2448740,10
2449364,12
2449988,11
2450620,10
2451240,11
2451868,9
2452444,10
2453072,10
2453704,11
2454320,12
2454952,13
2455584,11
2456204,12
2456832,11
2457460,11
2458092,12
2458720,11
2459336,12
2459964,13
2460588,14
2461212,16
2461840,16
2462456,14
2463088,15
2463712,15
2464336,11
2464964,11
2465584,17
2466212,13
2466840,10
2467464,10
2468092,12
2468716,10
2469344,10
2469972,10
2470592,11
2471220,12
2471844,13
2472468,13
2473096,11
2473716,11
2474344,12
2474968,11
2475592,11
2476220,11
2476840,14
2477468,11
2478100,10
2478720,11
2479348,11
2479972,10
2480604,10
2481232,11
2481856,13
2482484,10
2483108,11
2483732,10
2484364,10
2484984,10
2485612,10
2486236,10
2486860,12
2487488,14
2488112,11
2488740,11
2489372,13
2489992,17
2490620,16
2491244,12
2491876,10
2492504,12
2493128,11
2493756,11
2494384,14
2495008,11
2495636,10
2496256,11
2496884,11
2497508,10
2498132,10
2498764,10
2499384,13
2500012,11
2500640,11
2501264,13
2501892,13
2502516,12
2503148,14
2503776,16
2504400,12
2505028,11
2505652,10
2506276,10
2506908,11
2507528,14
2508156,12
2508784,13
2509408,12
2510036,10
2510660,11
2511292,11
2511924,10
2512544,11
2513172,11
2513800,11
2514428,12
2515060,13
2515680,11
2516308,10
2516932,15
2517560,20
2518188,16
2518808,17
2519436,21
2520064,18
2520688,14
2521316,13
2521940,11
2522572,11
2523200,10
2523824,11
2524456,10
2525080,11
2525704,11
2526336,11
2526952,11
2527584,10
2528208,11
2528832,11
2529460,10
2530080,10
2530708,10
2531340,10
2531960,11
2532592,10
2533216,13
2533844,16
2534476,17
2535096,15
2535724,11
2536352,11
2536976,11
2537604,14
2538224,16
2538856,15
2539480,11
2540104,11
2540732,10
2541352,12
2541984,12
2542612,13
2543232,13
2543864,9
2544436,10
2545068,10
2545700,11
2546320,11
2546952,13
2547576,11
2548204,15
2548836,16
2549456,12
2550088,11
2550712,13
2551336,15
2551968,13
2552584,11
2553216,11
2553840,11
2554464,11
2555096,10
2555720,11
2556352,12
2556984,12
2557600,12
2558232,11
2558856,10
2559488,11
2560120,10
2560740,11
2561368,11
2561992,13
2562612,11
2563240,10
2563860,11
2564488,10
2565112,11
2565736,11
2566364,13
2566988,18
2567616,17
2568244,12
2568864,11
2569492,16
2570116,17
2570744,15
2571372,12
2571992,11
2572620,11
2573244,11
2573868,12
2574496,10
2575112,11
2575744,12
2576368,11
2576988,11
2577620,11
2578240,10
2578872,11
2579500,10
2580120,11
2580748,10
2581372,10
2582000,10
2582632,10
2583248,13
2583876,11
2584500,10
2585124,12
2585752,12
2586376,13
2587004,11
2587628,10
2588252,11
2588880,11
2589496,11
2590124,10
2590756,10
2591376,12
2592004,10
2592628,10
2593256,11
2593884,10
2594504,11
2595132,15
2595756,17
2596380,19
2597012,12
2597632,11
2598260,11
2598884,15
2599508,14
2600140,12
2600760,12
2601388,10
2602020,11
2602640,15
2603268,12
2603892,11
2604520,11
2605152,11
2605768,11
2606400,11
2607024,11
2607648,14
2608276,15
2608896,12
2609524,10
2610148,10
2610772,12
2611404,12
2612024,12
2612652,13
2613280,14
2613896,11
2614528,10
2615152,11
2615780,11
2616412,10
2617032,11
2617660,10
2618284,11
2618908,10
2619536,10
2620160,11
2620788,11
2621416,11
2622040,11
2622668,10
2623288,14
2623916,17
2624548,14
2625164,12
2625796,10
2626416,13
2627044,15
2627672,12
2628288,10
2628916,11
2629540,13
2630164,16
2630792,17
2631408,15
2632040,13
2632660,19
2633284,14
2633912,10
2634532,10
2635160,12
2635788,15
2636408,14
2637036,11
2637660,10
2638288,11
2638916,10
2639536,11
2640164,10
2640788,13
2641412,19
2642044,18
2642660,15
2643292,11
2643912,11
2644536,14
2645164,12
2645784,11
2646412,10
2647032,10
2647660,10
2648288,11
2648912,12
2649540,13
2650168,12
2650792,15
2651420,12
2652044,10
2652672,10
2653304,10
2653920,11
2654548,10
2655172,11
2655796,12
2656428,12
2657048,10
2657676,11
2658300,14
2658928,16
2659556,14
2660180,12
2660808,10
2661440,10
2662056,12
2662684,12
2663308,12
2663936,13
2664564,10
2665180,10
2665812,11
2666432,11
2667052,11
2667684,10
2668300,11
2668932,10
2669552,13
2670176,15
2670804,15
2671428,11
2672056,13
2672684,18
2673300,20
2673932,17
2674552,10
2675184,11
2675812,9
2676380,10
2677012,10
2677636,10
2678264,10
2678896,10
2679512,12
2680140,12
2680764,12
2681388,11
2682020,13
2682640,13
2683268,11
2683892,10
2684516,10
2685144,10
2685768,10
2686396,9
2686968,10
2687592,11
2688220,9
2688792,10
2689420,12
2690044,14
2690664,13
2691296,11
2691916,11
2692548,10
2693176,10
2693792,12
2694420,10
2695044,12
2695672,11
2696300,10
2696920,11
2697548,10
2698172,10
2698796,10
2699424,10
2700048,11
2700676,11
2701300,13
2701924,12
2702556,12
2703180,11
2703808,10
2704440,10
2705056,11
2705684,11
2706308,11
2706936,10
2707564,10
2708184,11
2708812,11
2709436,11
2710060,11
2710688,11
2711308,10
2711936,11
2712560,12
2713184,14
2713816,18
2714436,20
2715064,13
2715696,9
2716260,11
2716892,11
2717516,10
2718144,10
2718776,11
2719392,13
2720024,13
2720644,13
2721272,11
2721904,10
2722520,11
2723148,13
2723772,15
2724396,13
2725024,12
2725648,11
2726276,11
2726900,11
2727524,10
2728152,13
2728776,13
2729404,12
2730032,10
2730656,11
2731284,10
2731908,11
2732536,11
2733168,11
2733784,11
2734416,11
2735040,12
2735660,11
2736292,11
2736912,12
2737540,10
2738164,10
2738788,11
2739420,11
2740044,14
2740672,14
2741300,12
2741920,11
2742548,10
2743172,10
2743804,13
2744432,16
2745056,15
2745684,12
2746308,10
2746932,10
2747560,10
2748176,11
2748804,11
2749428,11
2750052,11
2750684,11
2751308,15
2751936,12
2752568,11
2753184,10
2753816,11
2754440,11
2755068,10
2755700,10
2756320,10
2756948,12
2757572,10
2758196,11
2758828,10
2759448,11
2760076,11
2760700,10
2761328,11
2761956,12
2762580,13
2763212,13
2763840,14
2764464,13
2765096,14
2765716,13
2766340,10
2766972,11
2767592,12
2768220,11
2768844,10
2769468,11
2770096,11
2770712,10
2771344,12
2771972,11
2772592,13
2773220,12
2773844,11
2774476,11
2775104,10
2775728,11
2776356,10
2776980,11
2777604,10
2778236,11
2778856,11
2779484,11
2780108,10
2780736,11
2781364,10
2781984,12
2782616,13
2783244,11
2783864,11
2784496,10
2785120,11
2785748,10
2786376,10
2787000,11
2787628,13
2788252,13
2788876,12
2789508,11
2790128,12
2790756,12
2791380,11
2792004,10
2792632,10
2793256,12
2793884,10
2794516,10
2795136,11
2795768,10
2796392,11
2797020,11
2797652,10
2798272,12
2798900,11
2799524,9
2800100,10
2800732,11
2801352,11
2801980,10
2802604,11
2803228,12
2803856,13
2804472,10
2805104,10
2805728,11
2806352,11
2806980,11
2807600,11
2808228,11
2808860,11
2809480,13
2810108,12
2810732,11
2811364,11
2811992,11
2812616,11
2813248,11
2813872,10
2814496,11
2815124,10
2815744,11
2816376,11
2816996,13
2817620,12
2818248,10
2818864,10
2819496,11
2820124,11
2820744,11
2821372,11
2821996,11
2822628,10
2823256,11
2823872,10
2824504,10
2825128,11
2825752,11
2826380,11
2827000,13
2827628,11
2828252,10
2828876,10
2829504,11
2830120,11
2830748,13
2831380,10
2832000,11
2832628,11
2833252,11
2833880,11
2834508,13
2835128,15
2835756,14
2836384,12
2837008,10
2837636,12
2838256,11
2838884,11
2839508,11
2840132,11
2840764,10
2841384,11
2842012,12
2842644,10
2843264,10
2843892,11
2844516,11
2845148,10
2845776,10
2846400,11
2847028,11
2847652,11
2848276,11
2848908,10
2849528,11
2850156,12
2850780,15
2851404,15
2852036,16
2852656,13
2853284,12
2853916,10
2854536,11
2855164,10
2855788,10
2856420,10
2857048,10
2857672,11
2858300,10
2858924,11
2859548,11
2860180,12
2860800,13
2861428,10
2862052,10
2862680,11
2863308,10
2863928,10
2864560,10
2865188,10
2865808,11
2866440,11
2867064,11
2867696,11
2868324,10
2868944,11
2869572,9
2870144,10
2870772,10
2871404,9
2871972,10
2872608,11
2873228,10
2873860,10
2874488,11
2875104,11
2875736,11
2876360,11
2876984,13
2877612,11
2878232,11
2878860,11
2879484,10
2880112,11
2880740,10
2881360,10
2881992,11
2882620,9
2883188,10
2883820,11
2884444,11
2885072,10
2885704,11
2886320,11
2886948,13
2887572,11
2888200,12
2888828,10
2889448,15
2890076,14
2890700,12
2891324,10
2891952,12
2892572,14
2893200,17
2893824,16
2894448,18
2895076,17
2895700,17
2896328,17
2896960,14
2897576,13
2898204,10
2898828,10
2899456,10
2900088,10
2900704,11
2901332,11
2901956,11
2902580,9
2903160,11
2903784,12
2904412,10
2905036,10
2905660,11
2906292,11
2906912,11
2907540,11
2908172,12
2908792,11
2909420,10
2910044,11
2910676,11
2911304,12
2911928,10
2912560,10
2913180,10
2913808,9
2914384,10
2915008,11
2915636,11
2916264,10
2916888,12
2917516,12
2918136,11
2918768,13
2919388,14
2920012,15
2920644,12
2921264,11
2921892,10
2922524,10
2923144,13
2923772,13
2924400,11
2925028,10
2925656,10
2926280,10
2926908,10
2927532,11
2928160,14
2928788,12
2929408,13
2930036,10
2930660,9
2931232,10
2931868,11
2932488,11
2933116,14
2933740,13
2934368,11
2934996,10
2935620,10
2936252,10
2936884,10
2937504,10
2938136,10
2938760,11
2939392,11
2940020,11
2940640,12
2941268,16
2941896,14
2942520,11
2943152,11
2943768,10
2944400,10
2945032,11
2945648,12
2946276,11
2946900,11
2947532,11
2948160,15
2948780,15
2949408,13
2950032,11
2950660,11
2951292,11
2951912,11
2952540,10
2953164,10
2953788,10
2954420,12
2955040,15
2955668,16
2956300,14
2956920,13
2957548,13
2958172,13
2958804,10
2959432,10
2960052,12
2960680,15
2961300,11
2961924,11
2962556,10
2963176,19
2963808,17
2964428,18
2965052,15
2965684,14
2966304,17
2966932,14
2967564,12
2968184,14
2968812,12
2969436,13
2970068,10
2970696,10
2971320,11
2971948,11
2972572,10
2973196,10
2973824,10
2974448,11
2975076,13
2975700,18
2976324,16
2976952,14
2977576,15
2978204,12
2978836,10
2979456,11
2980084,11
2980708,11
2981340,10
2981968,10
2982584,10
2983216,10
2983840,10
2984464,11
2985092,11
2985712,13
2986340,13
2986964,13
2987588,13
2988220,12
2988840,13
2989468,11
2990100,10
2990720,12
2991348,10
2991972,10
2992604,11
2993236,10
2993856,11
2994484,9
2995060,10
2995696,11
2996324,10
2996944,11
2997572,10
2998200,12
2998824,13
2999452,10
3000072,11
3000700,10
3001328,12
3001952,11
3002580,10
3003204,11
3003836,11
3004468,10
3005088,14
3005720,18
3006344,17
3006972,15
3007604,15
3008224,14
3008852,15
3009476,16
3010100,13
3010732,10
3011352,11
3011980,11
3012608,10
3013232,10
3013860,11
3014488,11
3015116,10
3015748,10
3016368,11
3016996,10
3017624,11
3018248,10
3018876,12
3019496,13
3020128,13
3020752,13
3021376,11
3022008,12
3022624,11
3023256,11
3023888,9
3024452,9
3025032,11
3025660,10
3026292,10
3026916,10
3027540,10
3028172,10
3028792,11
3029424,11
3030056,12
3030672,12
3031304,13
3031928,13
3032560,13
3033188,12
3033808,12
3034436,13
3035060,13
3035688,13
3036316,12
3036936,12
3037564,11
3038192,10
3038816,11
3039448,10
3040072,14
3040700,11
3041332,11
3041952,12
3042580,11
3043204,15
3043836,21
3044464,24
3045088,24
3045720,23
3046344,21
3046968,16
3047596,12
3048216,10
3048844,10
3049468,10
3050096,11
3050724,13
3051352,14
3051984,12
3052612,12
3053232,11
3053860,13
3054488,11
3055112,11
3055744,10
3056360,10
3056992,11
3057616,11
3058240,11
3058868,13
3059488,14
3060120,13
3060752,10
3061368,11
3062000,14
3062624,13
3063256,13
3063888,11
3064504,12
3065136,19
3065760,18
3066384,15
3067016,14
3067636,12
3068264,10
3068892,11
3069516,16
3070148,25
3070768,25
3071400,16
3072032,12
3072652,11
3073284,12
3073904,19
3074532,18
3075164,18
3075784,23
3076412,18
3077036,12
3077660,25
3078292,35
3078912,34
3079540,41
3080164,39
3080788,36
3081416,20
3082040,13
3082668,10
3083300,10
3083920,11
3084548,9
3085120,12
3085756,13
3086388,15
3087008,19
3087636,26
3088260,29
3088892,27
3089520,24
3090140,16
3090768,13
3091392,12
3092016,12
3092648,12
3093264,11
3093892,10
3094516,10
3095140,10
3095772,11
3096396,10
3097028,10
3097656,10
3098280,10
3098908,11
3099532,11
3100164,10
3100792,13
3101412,17
3102044,18
3102668,16
3103292,15
3103924,12
3104544,11
3105172,10
3105804,10
3106424,11
3107052,12
3107680,15
3108308,12
3108940,10
3109560,11
3110192,11
3110816,11
3111440,11
3112072,15
3112688,20
3113320,17
3113944,19
3114568,19
3115196,22
3115816,18
3116448,21
3117076,25
3117696,20
3118324,13
3118952,11
3119580,23
3120212,30
3120832,29
3121460,38
3122084,45
3122708,31
3123340,20
3123960,12
3124588,16
3125212,11
3125836,11
3126468,10
3127088,11
3127716,11
3128348,10
3128968,11
3129596,11
3130220,11
3130852,10
3131484,13
3132104,21
3132736,22
3133360,19
3133984,15
3134616,13
3135232,15
3135864,16
3136488,11
3137112,11
3137740,10
3138360,11
3138988,10
3139620,10
3140240,11
3140868,12
3141492,13
3142124,11
3142756,10
3143376,11
3144008,12
3144628,12
3145252,14
3145884,14
3146504,15
3147136,12
3147760,13
3148384,14
3149016,11
3149640,11
3150268,10
3150900,10
3151520,13
3152152,17
3152776,16
3153408,12
3154036,11
3154656,13
3155284,15
3155908,15
3156536,11
3157164,10
3157784,11
3158416,12
3159040,13
3159664,12
3160296,11
3160920,11
3161552,10
3162184,13
3162800,11
3163432,10
3164056,11
3164680,12
3165312,10
3165928,10
3166560,13
3167184,19
3167808,28
3168440,28
3169056,23
3169688,21
3170316,17
3170936,18
3171568,22
3172192,22
3172824,21
3173452,21
3174072,14
3174704,10
3175328,11
3175956,24
3176584,25
3177208,19
3177836,11
3178464,12
3179088,15
3179720,12
3180336,13
3180968,12
3181596,10
3182216,10
3182848,11
3183472,11
3184104,10
3184732,10
3185352,11
3185984,11
3186608,11
3187232,15
3187860,11
3188480,11
3189108,12
3189736,19
3190360,19
3190992,18
3191612,16
3192244,12
3192876,10
3193496,10
3194128,10
3194756,10
3195388,11
3196020,17
3196640,20
3197272,17
3197896,18
3198520,21
3199152,27
3199772,21
3200404,11
3201032,10
3201648,11
3202276,11
3202900,11
3203528,19
3204156,16
3204776,13
3205404,13
3206028,17
3206656,28
3207288,29
3207904,18
3208532,10
3209156,14
3209780,15
3210408,10
3211032,11
3211660,19
3212284,28
3212912,29
3213540,28
3214164,41
3214796,42
3215424,35
3216040,34
3216672,16
3217292,13
3217924,22
3218552,24
3219168,21
3219800,21
3220424,17
3221048,36
3221676,99
3222296,97
3222924,93
3223548,94
3224176,83
3224804,65
3225428,49
3226060,22
3226688,18
3227312,11
3227940,21
3228564,30
3229188,25
3229820,11
3230440,15
3231068,19
3231692,12
3232316,10
3232948,10
3233568,12
3234196,16
3234828,13
3235448,12
3236076,13
3236700,16
3237332,14
3237960,10
3238584,11
3239212,12
3239836,11
3240460,12
3241092,10
3241712,13
3242340,11
3242964,11
3243588,10
3244220,10
3244840,13
3245468,12
3246100,14
3246720,13
3247348,10
3247972,11
3248604,13
3249236,16
3249856,13
3250484,11
3251108,14
3251736,27
3252364,32
3252984,26
3253612,15
3254236,11
3254864,13
3255492,11
3256112,19
3256744,25
3257372,21
3257992,17
3258620,12
3259248,11
3259876,18
3260508,26
3261128,21
3261756,15
3262384,11
3263008,11
3263640,16
3264256,15
3264888,13
3265512,10
3266136,13
3266764,21
3267384,25
3268012,20
3268644,12
3269264,19
3269892,25
3270520,31
3271148,35
3271780,38
3272400,39
3273028,28
3273656,18
3274280,14
3274908,18
3275528,11
3276160,11
3276784,16
3277408,10
3278036,13
3278660,13
3279288,18
3279916,28
3280536,39
3281164,36
3281784,23
3282412,10
3283040,11
3283660,11
3284292,11
3284912,11
3285532,10
3286164,10
3286784,11
3287412,10
3288032,10
3288656,12
3289284,18
3289904,21
3290532,12
3291160,12
3291776,12
3292404,13
3293028,14
3293656,15
3294284,11
3294904,11
3295532,16
3296156,28
3296776,46
3297408,62
3298024,64
3298652,59
3299276,52
3299896,19
3300524,10
3301144,13
3301772,17
3302396,11
3303020,16
3303648,19
3304272,14
3304900,13
3305528,25
3306152,25
3306780,19
3307404,12
3308036,12
3308664,16
3309280,36
3309908,46
3310532,49
3311156,49
3311784,46
3312408,31
3313036,31
3313660,34
3314288,29
3314916,16
3315540,11
3316172,13
3316800,17
3317416,17
3318044,11
3318668,12
3319296,11
3319928,16
3320544,12
3321176,19
3321800,11
3322420,10
3323052,10
3323672,15
3324300,11
3324924,22
3325552,39
3326180,52
3326804,59
3327436,39
3328064,12
3328684,29
3329312,43
3329932,44
3330564,32
3331192,12
3331808,19
3332436,24
3333060,30
3333684,31
3334312,43
3334932,55
3335560,49
3336184,36
3336808,13
3337436,11
3338060,19
3338688,39
3339316,48
3339936,43
3340564,37
3341188,55
3341816,77
3342444,53
3343064,46
3343692,29
3344316,14
3344940,14
3345568,24
3346184,71
3346812,116
3347496,114
3348164,86
3348788,51
3349412,27
3350036,12
3350668,10
3351288,37
3351916,68
3352540,117
3353216,157
3353900,108
3354572,64
3355192,28
3355820,12
3356440,11
3357068,25
3357692,40
3358320,56
3358952,66
3359572,61
3360204,46
3360832,12
3361448,33
3362076,59
3362700,50
3363328,35
3363956,33
3364576,43
3365204,54
3365828,55
3366448,35
3367076,46
3367696,76
3368324,87
3368944,85
3369568,87
3370200,85
3370824,88
3371452,77
3372080,63
3372704,49
3373332,23
3373956,11
3374588,13
3375216,10
3375832,13
3376464,29
3377088,11
3377712,11
3378340,24
3378960,48
3379588,43
3380212,60
3380836,104
3381516,146
3382188,198
3382860,183
3383536,132
3384204,61
3384828,35
3385456,20
3386080,76
3386708,80
3387332,85
3387956,78
3388584,69
3389208,68
3389836,73
3390460,82
3391088,91
3391716,76
3392344,60
3392972,53
3393600,38
3394216,24
3394844,11
3395468,14
3396100,27
3396728,27
3397344,26
3397976,21
3398600,21
3399224,29
3399852,29
3400472,24
3401100,28
3401724,26
3402352,14
3402980,20
3403604,43
3404232,42
3404860,43
3405476,48
3406108,49
3406732,29
3407360,12
3407988,28
3408608,24
3409236,16
3409860,12
3410484,12
3411112,22
3411736,27
3412364,17
3412988,12
3413616,15
3414244,19
3414868,22
3415500,39
3416128,32
3416752,31
3417380,31
3418008,19
3418628,12
3419260,10
3419880,34
3420512,59
3421132,57
3421756,41
3422388,27
3423008,20
3423636,66
3424268,58
3424888,44
3425516,38
3426140,65
3426772,61
3427400,28
3428024,13
3428652,42
3429276,72
3429904,70
3430532,38
3431152,21
3431780,24
3432404,20
3433028,11
3433660,20
3434280,34
3434908,41
3435540,37
3436160,41
3436788,30
3437416,15
3438044,14
3438676,30
3439296,30
3439928,44
3440552,67
3441176,80
3441804,75
3442424,57
3443052,30
3443676,30
3444300,61
3444928,79
3445548,88
3446176,72
3446804,38
3447424,40
3448052,49
3448676,62
3449304,35
3449936,31
3450552,93
3451184,161
3451860,238
3452532,316
3453212,326
3453884,266
3454556,156
3455236,104
3455908,57
3456528,11
3457156,45
3457776,91
3458404,92
3459028,70
3459652,53
3460280,38
3460904,31
3461532,18
3462164,12
3462784,18
3463412,14
3464036,13
3464664,10
3465296,10
3465912,11
3466540,11
3467164,11
3467788,11
3468420,16
3469040,19
3469668,19
3470292,34
3470916,37
3471548,16
3472168,21
3472796,17
3473428,10
3474048,15
3474676,27
3475300,17
3475932,10
3476564,32
3477184,68
3477816,100
3478492,98
3479112,101
3479796,54
3480416,13
3481044,44
3481676,65
3482296,60
3482924,33
3483544,17
3484168,34
3484796,60
3485416,31
3486044,24
3486668,21
3487292,14
3487924,22
3488544,64
3489172,86
3489804,118
3490476,120
3491152,87
3491776,51
3492400,31
3493028,31
3493648,23
3494276,11
3494900,23
3495524,14
3496156,13
3496780,34
3497408,51
3498040,54
3498656,49
3499284,57
3499908,56
3500540,65
3501172,52
3501792,30
3502424,15
3503044,29
3503668,57
3504300,35
3504920,55
3505548,79
3506180,74
3506800,79
3507432,69
3508056,70
3508684,59
3509316,44
3509936,26
3510564,20
3511188,17
3511816,15
3512448,36
3513064,45
3513696,53
3514320,19
3514944,13
3515572,14
3516192,12
3516824,27
3517452,62
3518072,56
3518704,51
3519328,69
3519960,47
3520592,19
3521208,12
3521840,16
3522464,51
3523088,63
3523716,48
3524336,45
3524964,45
3525588,25
3526212,55
3526840,43
3527464,13
3528092,40
3528724,16
3529344,118
3530024,198
3530700,148
3531372,64
3532000,13
3532620,33
3533252,93
3533880,184
3534556,240
3535232,222
3535912,147
3536588,58
3537212,13
3537836,53
3538460,103
3539144,137
3539812,140
3540488,138
3541168,144
3541844,138
3542520,96
3543152,47
3543768,15
3544396,28
3545020,37
3545644,33
3546272,30
3546896,28
3547524,36
3548148,24
3548772,21
3549404,26
3550028,46
3550660,64
3551292,56
3551912,42
3552544,29
3553168,19
3553800,12
3554428,24
3555048,13
3555680,14
3556304,13
3556928,11
3557556,29
3558176,62
3558808,76
3559436,56
3560056,63
3560684,63
3561308,50
3561940,56
3562572,52
3563192,25
3563824,79
3564448,94
3565072,83
3565700,88
3566320,100
3567000,79
3567632,75
3568248,62
3568880,31
3569504,13
3570132,23
3570764,18
3571384,27
3572012,11
3572636,30
3573264,21
3573892,16
3574512,23
3575144,20
3575768,26
3576392,27
3577024,24
3577640,18
3578272,35
3578904,63
3579520,71
3580152,38
3580776,58
3581408,49
3582040,15
3582660,10
3583292,11
3583916,15
3584544,27
3585172,39
3585792,23
3586420,17
3587044,35
3587668,43
3588296,63
3588916,60
3589544,63
3590172,52
3590792,63
3591420,59
3592048,13
3592676,25
3593304,23
3593928,29
3594556,67
3595180,88
3595808,115
3596488,88
3597112,18
3597740,11
3598372,12
3598992,12
3599624,15
3600248,25
3600876,19
3601504,58
3602128,81
3602756,80
3603380,65
3604004,43
3604636,18
3605256,12
3605884,35
3606508,72
3607128,94
3607760,64
3608376,30
3609004,51
3609636,15
3610252,42
3610884,81
3611504,92
3612136,35
3612764,47
3613384,107
3614064,171
3614744,116
3615420,36
3616044,63
3616668,60
3617292,68
3617920,38
3618536,13
3619164,31
3619792,19
3620416,36
3621044,99
3621664,122
3622344,68
3622976,16
3623592,15
3624220,31
3624848,53
3625476,44
3626104,26
3626728,14
3627356,32
3627980,43
3628604,22
3629236,10
3629856,14
3630484,21
3631116,10
3631736,35
3632368,41
3632988,18
3633620,23
3634248,40
3634872,20
3635504,13
3636128,27
3636748,22
3637380,12
3638000,39
3638628,33
3639252,62
3639876,57
3640508,30
3641128,24
3641756,59
3642388,110
3643060,126
3643736,142
3644412,173
3645092,154
3645772,110
3646444,84
3647064,40
3647692,98
3648312,159
3648992,147
3649672,122
3650348,108
3651024,106
3651704,140
3652380,122
3653056,90
3653688,48
3654304,12
3654936,17
3655560,17
3656188,11
3656820,14
3657440,59
3658068,88
3658692,47
3659320,13
3659948,24
3660568,21
3661200,11
3661820,17
3662448,11
3663076,27
3663704,41
3664332,35
3664964,32
3665584,40
3666216,37
3666840,11
3667464,11
3668092,11
3668712,9
3669292,18
3669920,12
3670544,27
3671176,57
3671792,87
3672424,32
3673048,18
3673672,19
3674300,10
3674920,24
3675548,39
3676180,106
3676852,84
3677476,15
3678104,47
3678728,89
3679356,114
3680032,108
3680704,88
3681328,43
3681948,38
3682576,42
3683200,64
3683828,162
3684512,152
3685180,48
3685808,50
3686436,76
3687052,49
3687680,26
3688304,28
3688932,63
3689564,56
3690184,11
3690812,22
3691436,13
3692060,17
3692688,42
3693312,17
3693940,39
3694564,89
3695188,79
3695820,70
3696440,39
3697068,21
3697700,54
3698320,58
3698948,28
3699572,11
3700204,11
3700832,31
3701448,51
3702080,37
3702704,11
3703328,12
3703956,10
3704576,32
3705204,56
3705832,18
3706456,57
3707084,85
3707704,68
3708332,27
3708964,58
3709584,48
3710216,42
3710840,67
3711468,62
3712100,38
3712720,17
3713348,21
3713972,45
3714596,17
3715224,10
3715844,11
3716472,111
3717156,135
3717828,126
3718504,138
3719184,133
3719860,92
3720484,15
3721108,108
3721788,124
3722464,62
3723088,14
3723716,14
3724348,18
3724968,25
3725596,13
3726220,45
3726852,75
3727484,82
3728104,106
3728784,128
3729460,91
3730080,87
3730708,138
3731384,82
3732008,14
3732636,50
3733256,130
3733936,126
3734620,152
3735292,136
3735972,154
3736652,121
3737324,101
3738004,77
3738628,18
3739248,64
3739876,47
3740500,45
3741132,64
3741760,71
3742384,75
3743016,59
3743640,43
3744264,37
3744892,12
3745512,13
3746144,12
3746768,22
3747392,58
3748024,49
3748640,16
3749268,16
3749900,34
3750520,27
3751148,9
3751724,27
3752360,51
3752988,56
3753608,52
3754236,29
3754864,10
3755496,17
3756124,19
3756744,12
3757376,29
3758000,23
3758624,45
3759256,76
3759872,43
3760504,13
3761128,13
3761756,13
3762384,44
3763008,72
3763640,50
3764268,45
3764888,66
3765516,93
3766144,83
3766772,34
3767404,39
3768024,142
3768708,193
3769384,186
3770060,176
3770736,106
3771416,53
3772040,35
3772668,19
3773296,29
3773924,45
3774556,44
3775176,21
3775808,21
3776432,35
3777056,33
3777684,51
3778304,43
3778932,15
3779556,17
3780184,20
3780812,18
3781432,45
3782064,17
3782692,38
3783312,24
3783944,27
3784568,47
3785196,50
3785828,22
3786448,31
3787076,32
3787704,14
3788328,11
3788960,20
3789576,25
3790204,15
3790828,12
3791452,15
3792084,39
3792708,36
3793336,78
3793968,37
3794584,27
3795216,62
3795840,64
3796468,69
3797100,70
3797720,67
3798352,74
3798976,35
3799604,12
3800232,50
3800852,69
3801484,44
3802108,62
3802736,144
3803420,87
3804040,53
3804672,65
3805300,135
3805972,82
3806600,41
3807224,185
3807900,143
3808580,79
3809200,64
3809824,77
3810452,36
3811072,28
3811704,93
3812328,98
3812952,53
3813584,18
3814200,31
3814832,45
3815464,34
3816084,33
3816712,23
3817336,27
3817968,61
3818596,29
3819216,12
3819848,47
3820472,65
3821096,68
3821728,108
3822396,104
3823076,56
3823704,15
3824324,25
3824952,38
3825580,42
3826204,46
3826836,24
3827456,19
3828088,14
3828712,11
3829336,33
3829968,42
3830592,19
3831224,19
3831852,13
3832472,27
3833104,71
3833728,32
3834360,20
3834992,11
3835612,33
3836244,30
3836868,16
3837492,12
3838124,38
3838744,30
3839376,42
3840008,76
3840628,94
3841260,50
3841880,13
3842512,14
3843140,23
3843760,32
3844388,26
3845012,18
3845640,12
3846268,12
3846888,23
3847516,27
3848140,28
3848764,35
3849396,54
3850016,40
3850644,13
3851276,34
3851896,65
3852524,85
3853148,119
3853832,93
3854452,31
3855072,29
3855700,12
3856324,70
3856948,103
3857632,78
3858248,55
3858876,61
3859508,34
3860128,30
3860756,39
3861380,37
3862012,30
3862644,26
3863264,41
3863892,51
3864520,47
3865144,19
3865772,10
3866392,33
3867020,52
3867644,52
3868272,55
3868900,25
3869524,12
3870156,19
3870788,10
3871408,35
3872036,32
3872660,12
3873284,77
3873916,50
3874536,22
3875168,68
3875792,115
3876468,90
3877096,18
3877720,83
3878348,39
3878980,18
3879600,56
3880232,64
3880856,25
3881480,57
3882108,14
3882728,15
3883356,17
3883984,12
3884608,31
3885240,21
3885856,49
3886488,69
3887116,37
3887736,16
3888368,22
3888992,39
3889624,23
3890252,56
3890872,48
3891504,43
3892128,40
3892752,32
3893380,11
3894000,27
3894628,64
3895252,16
3895876,36
3896508,24
3897128,37
3897756,31
3898388,11
3899008,27
3899636,62
3900264,56
3900892,29
3901524,20
3902144,22
3902776,31
3903400,25
3904024,13
3904652,36
3905272,28
3905900,16
3906528,41
3907152,41
3907780,83
3908400,105
3909080,52
3909712,10
3910328,41
3910960,48
3911584,57
3912208,67
3912840,60
3913456,54
3914088,44
3914712,56
3915336,109
3916020,165
3916692,171
3917368,136
3918052,20
3918672,162
3919356,245
3920036,191
3920708,180
3921384,194
3922068,169
3922740,152
3923420,87
3924044,18
3924664,19
3925292,22
3925920,28
3926544,32
3927172,29
3927792,55
3928424,59
3929048,45
3929672,54
3930300,68
3930920,65
3931552,23
3932184,18
3932800,26
3933428,21
3934052,11
3934684,32
3935312,60
3935936,86
3936568,41
3937192,26
3937816,50
3938444,40
3939064,50
3939696,53
3940320,43
3940944,19
3941572,95
3942192,100
3942876,48
3943500,20
3944120,13
3944748,56
3945372,164
3946048,240
3946724,160
3947396,66
3948024,13
3948652,36
3949272,28
3949900,12
3950528,12
3951152,29
3951784,24
3952400,14
3953028,27
3953652,42
3954276,61
3954908,89
3955532,99
3956164,80
3956792,89
3957412,63
3958044,43
3958668,31
3959296,15
3959928,105
3960600,137
3961272,107
3961956,53
3962576,29
3963204,11
3963828,10
3964456,11
3965084,14
3965704,23
3966336,13
3966960,28
3967584,96
3968216,146
3968892,117
3969568,63
3970196,28
3970816,53
3971444,47
3972068,59
3972692,48
3973324,11
3973944,35
3974572,33
3975204,14
3975824,27
3976452,35
3977076,14
3977708,23
3978340,34
3978960,25
3979588,13
3980216,13
3980840,47
3981468,62
3982088,65
3982716,74
3983344,128
3984020,132
3984696,107
3985372,87
3985992,65
3986624,46
3987240,40
3987868,114
3988552,101
3989220,66
3989848,32
3990472,23
3991096,13
3991728,36
3992348,36
3992976,20
3993608,37
3994224,56
3994856,61
3995480,119
3996160,174
3996840,153
3997516,107
3998196,57
3998824,43
3999440,22
4000072,15
4000692,35
4001316,58
4001944,63
4002568,61
4003196,62
4003820,75
4004444,125
4005128,105
4005796,60
4006416,52
4007044,72
4007664,85
4008292,18
4008916,96
4009540,164
4010224,194
4010892,198
4011568,214
4012248,174
4012924,68
4013548,88
4014180,160
4014852,128
4015528,54
4016156,50
4016776,43
4017404,26
4018028,28
4018660,11
4019288,10
4019904,26
4020532,41
4021156,20
4021780,39
4022408,14
4023032,34
4023660,52
4024284,41
4024908,26
4025540,20
4026160,37
4026788,39
4027420,14
4028040,19
4028668,11
4029292,19
4029924,10
4030556,20
4031176,38
4031808,37
4032432,27
4033056,32
4033684,41
4034304,35
4034932,37
4035556,19
4036180,31
4036812,40
4037432,13
4038060,33
4038692,27
4039312,59
4039944,97
4040568,89
4041196,59
4041828,54
4042448,75
4043076,63
4043704,17
4044328,13
4044956,11
4045576,32
4046204,15
4046828,15
4047452,13
4048084,25
4048704,57
4049336,88
4049964,84
4050584,63
4051212,52
4051836,42
4052468,16
4053100,22
4053720,42
4054352,52
4054976,31
4055600,14
4056228,9
4056796,26
4057432,47
4058056,81
4058680,104
4059360,85
4059984,57
4060616,31
4061244,20
4061864,23
4062492,15
4063120,33
4063748,19
4064380,46
4065000,35
4065628,18
4066252,10
4066876,41
4067508,92
4068128,136
4068808,153
4069488,128
4070164,112
4070844,121
4071520,151
4072196,16
4072824,117
4073504,190
4074172,208
4074852,166
4075532,84
4076152,44
4076784,55
4077408,74
4078040,77
4078668,96
4079288,85
4079920,18
4080544,17
4081168,19
4081796,28
4082416,45
4083044,43
4083672,35
4084296,29
4084928,36
4085544,58
4086176,72
4086808,77
4087424,55
4088056,27
4088680,12
4089308,33
4089940,38
4090560,53
4091192,55
4091816,44
4092440,30
4093072,15
4093692,11
4094320,20
4094948,15
4095572,12
4096208,10
4096820,17
4097448,21
4098076,49
4098692,35
4099320,18
4099944,14
4100572,27
4101200,45
4101816,65
4102444,59
4103064,56
4103688,59
4104316,28
4104936,33
4105564,76
4106188,87
4106808,49
4107440,24
4108056,59
4108684,109
4109364,77
4109984,38
4110612,45
4111236,21
4111864,11
4112492,46
4113112,78
4113740,95
4114364,94
4114988,101
4115668,121
4116340,114
4117016,93
4117644,42
4118264,27
4118892,53
4119516,19
4120140,41
4120768,48
4121384,36
4122016,14
4122644,44
4123264,49
4123892,81
4124516,44
4125144,27
4125772,53
4126392,81
4127020,97
4127644,64
4128268,55
4128896,57
4129512,27
4130144,29
4130764,49
4131388,55
4132020,35
4132640,21
4133268,22
4133896,78
4134520,102
4135200,113
4135868,95
4136488,23
4137116,22
4137736,16
4138364,17
4138988,32
4139612,35
4140240,53
4140856,67
4141484,75
4142116,56
4142736,23
4143364,34
4143988,98
4144620,107
4145300,66
4145920,47
4146548,32
4147172,13
4147800,13
4148428,32
4149048,47
4149676,62
4150308,50
4150928,18
4151556,108
4152232,189
4152908,170
4153584,110
4154260,19
4154884,10
4155512,40
4156132,65
4156760,18
4157388,23
4158012,61
4158640,75
4159264,54
4159896,43
4160524,26
4161140,19
4161772,16
4162392,31
4163024,35
4163652,27
4164272,33
4164900,12
4165524,24
4166148,38
4166780,46
4167400,30
4168028,13
4168652,50
4169272,79
4169904,51
4170520,27
4171148,27
4171772,25
4172400,16
4173028,11
4173652,19
4174280,20
4174912,21
4175528,53
4176156,47
4176780,20
4177408,60
4178040,47
4178656,15
4179284,38
4179908,10
4180528,11
4181160,22
4181776,21
4182404,26
4183028,16
4183652,10
4184280,27
4184904,17
4185536,11
4186164,11
4186784,38
4187412,50
4188036,34
4188668,22
4189296,15
4189912,48
4190544,89
4191168,121
4191844,98
4192472,53
4193092,28
4193724,11
4194352,17
4194972,22
4195600,39
4196224,29
4196852,30
4197484,23
4198104,16
4198732,10
4199356,16
4199980,16
4200608,20
4201232,21
4201860,11
4202484,27
4203104,13
4203736,18
4204360,10
4204988,19
4205616,35
4206236,23
4206864,12
4207488,11
4208116,21
4208748,28
4209368,11
4209996,34
4210620,61
4211244,105
4211924,137
4212596,92
4213220,27
4213852,36
4214472,15
4215100,33
4215724,27
4216348,21
4216980,70
4217600,115
4218280,111
4218956,74
4219576,51
4220204,53
4220828,67
4221452,59
4222080,34
4222704,33
4223336,128
4224016,78
4224636,15
4225268,11
4225892,34
4226520,22
4227148,40
4227768,91
4228396,77
4229020,45
4229644,14
4230276,10
4230896,11
4231524,18
4232148,10
4232772,25
4233404,24
4234024,21
4234652,57
4235284,58
4235904,32
4236536,63
4237160,60
4237788,23
4238420,22
4239040,65
4239668,93
4240296,73
4240916,42
4241548,56
4242168,60
4242796,38
4243420,29
4244044,12
4244672,56
4245296,55
4245924,35
4246556,10
4247176,15
4247804,25
4248432,27
4249060,55
4249692,78
4250312,84
4250940,81
4251564,67
4252188,27
4252816,23
4253432,12
4254064,18
4254688,39
4255312,66
4255944,99
4256560,74
4257192,83
4257820,89
4258440,124
4259120,139
4259796,112
4260468,57
4261092,13
4261716,23
4262348,10
4262976,22
4263596,35
4264224,27
4264848,21
4265476,15
4266104,24
4266728,53
4267356,40
4267980,31
4268604,41
4269236,42
4269856,43
4270484,48
4271116,55
4271736,85
4272364,93
4272988,38
4273620,10
4274248,11
4274868,14
4275496,48
4276120,68
4276744,53
4277372,43
4277992,12
4278620,30
4279244,121
4279920,193
4280604,184
4281276,160
4281948,137
4282624,110
4283300,80
4283920,45
4284548,22
4285168,12
4285796,11
4286420,24
4287044,49
4287676,52
4288296,64
4288924,74
4289556,48
4290176,18
4290804,13
4291428,22
4292060,26
4292688,11
4293308,18
4293936,27
4294560,40
4295184,53
4295816,24
4296432,35
4297060,27
4297684,19
4298308,11
4298940,10
4299560,10
4300188,15
4300820,38
4301436,15
4302068,16
4302692,29
4303320,26
4303952,13
4304568,13
4305200,17
4305824,21
4306448,48
4307076,76
4307696,69
4308324,15
4308948,36
4309572,42
4310204,52
4310824,43
4311452,32
4312084,12
4312704,16
4313332,27
4313960,49
4314588,86
4315220,70
4315840,27
4316468,10
4317092,11
4317720,19
4318348,10
4318968,26
4319596,28
4320224,28
4320848,16
4321476,20
4322096,45
4322724,13
4323352,27
4323976,44
4324604,60
4325228,73
4325860,64
4326488,83
4327112,57
4327740,19
4328364,42
4328988,41
4329616,77
4330236,95
4330864,72
4331488,59
4332112,14
4332740,33
4333360,34
4333988,33
4334620,30
4335240,13
4335872,37
4336496,38
4337124,64
4337756,60
4338376,46
4339008,29
4339632,11
4340256,15
4340884,34
4341504,17
4342136,14
4342760,27
4343384,41
4344012,53
4344632,37
4345260,12
4345892,38
4346512,88
4347144,77
4347768,59
4348396,48
4349028,26
4349648,15
4350276,29
4350904,23
4351528,54
4352160,41
4352776,24
4353404,40
4354028,22
4354652,50
4355280,31
4355896,102
4356580,153
4357256,132
4357932,99
4358556,63
4359188,25
4359808,12
4360436,14
4361060,41
4361692,37
4362320,37
4362936,33
4363568,29
4364192,36
4364816,35
4365444,30
4366064,36
4366692,42
4367316,17
4367944,36
4368572,55
4369192,52
4369820,41
4370452,21
4371072,11
4371704,16
4372328,32
4372956,53
4373588,60
4374208,53
4374840,16
4375464,29
4376088,48
4376716,70
4377336,58
4377968,31
4378592,15
4379216,12
4379844,12
4380464,25
4381092,17
4381724,11
4382344,11
4382976,24
4383600,32
4384228,26
4384860,12
4385480,24
4386108,13
4386732,23
4387356,21
4387988,28
4388608,28
4389236,11
4389864,11
4390488,10
4391116,22
4391736,44
4392368,24
4392996,36
4393616,49
4394244,41
4394868,12
4395500,32
4396132,18
4396752,18
4397384,37
4398008,47
4398632,46
4399264,32
4399880,27
4400512,12
4401136,17
4401760,30
4402392,35
4403016,43
4403648,36
4404276,28
4404896,34
4405524,35
4406148,25
4406780,60
4407408,51
4408028,26
4408656,19
4409280,54
4409904,14
4410532,10
4411152,13
4411784,15
4412408,15
4413032,39
4413664,50
4414288,37
4414916,27
4415548,30
4416168,18
4416796,10
4417420,11
4418052,12
4418680,10
4419300,40
4419928,70
4420552,52
4421176,33
4421804,34
4422424,87
4423052,94
4423676,100
4424356,100
4425032,40
4425648,25
4426272,50
4426900,48
4427520,63
4428148,71
4428772,53
4429400,34
4430028,12
4430648,26
4431276,49
4431908,42
4432528,23
4433156,39
4433784,53
4434412,38
4435044,30
4435664,35
4436292,31
4436920,43
4437540,21
4438172,13
4438792,63
4439424,69
4440048,51
4440672,45
4441300,63
4441924,67
4442556,29
4443188,10
4443808,19
4444440,29
4445064,45
4445692,43
4446324,34
4446944,18
4447572,14
4448200,27
4448824,21
4449452,20
4450072,13
4450700,16
4451332,11
4451952,14
4452584,20
4453208,19
4453836,10
4454468,25
4455088,33
4455716,15
4456340,15
4456968,24
4457596,32
4458216,35
4458848,23
4459472,17
4460096,19
4460724,11
4461344,11
4461976,14
4462604,17
4463224,11
4463856,26
4464480,31
4465112,21
4465740,11
4466360,17
4466992,33
4467616,61
4468240,69
4468868,44
4469488,13
4470120,30
4470744,12
4471368,13
4472000,18
4472616,42
4473248,41
4473876,19
4474496,11
4475128,29
4475752,51
4476384,77
4477016,103
4477684,106
4478364,65
4478992,14
4479612,49
4480244,44
4480864,19
4481496,13
4482124,15
4482744,32
4483372,31
4483996,29
4484620,27
4485252,10
4485872,38
4486500,57
4487124,44
4487748,26
4488376,27
4489000,17
4489628,15
4490260,14
4490880,11
4491508,43
4492136,63
4492764,92
4493396,97
4494016,99
4494648,89
4495272,63
4495896,32
4496528,20
4497144,19
4497772,35
4498400,46
4499024,31
4499652,16
4500272,45
4500904,55
4501532,49
4502152,43
4502784,28
4503408,40
4504040,40
4504668,36
4505288,38
4505920,39
4506540,14
4507164,14
4507796,42
4508416,47
4509044,29
4509668,18
4510292,25
4510920,32
4511544,16
4512172,24
4512804,51
4513424,83
4514052,85
4514676,32
4515308,15
4515936,16
4516552,10
4517184,21
4517808,13
4518432,27
4519060,16
4519680,10
4520308,10
4520932,22
4521556,31
4522188,24
4522808,32
4523436,41
4524068,59
4524688,49
4525320,26
4525944,14
4526572,20
4527204,71
4527824,71
4528456,51
4529080,25
4529700,19
4530332,19
4530952,25
4531584,75
4532208,81
4532828,57
4533460,23
4534084,11
4534712,11
4535344,13
4535964,12
4536596,25
4537220,31
4537848,51
4538480,80
4539096,102
4539780,94
4540400,141
4541076,38
4541704,11
4542328,37
4542960,92
4543588,114
4544260,160
4544936,176
4545616,97
4546240,60
4546872,81
4547496,93
4548120,77
4548748,77
4549368,58
4549996,30
4550624,11
4551248,20
4551876,45
4552496,42
4553124,49
4553756,52
4554376,40
4555008,30
4555632,27
4556264,28
4556892,49
4557512,52
4558144,45
4558768,19
4559392,13
4560020,14
4560640,15
4561268,41
4561892,43
4562516,38
4563148,46
4563768,44
4564396,32
4565028,30
4565648,18
4566280,11
4566904,11
4567536,16
4568164,12
4568784,14
4569416,17
4570040,11
4570664,25
4571292,34
4571912,17
4572544,11
4573168,18
4573792,21
4574424,13
4575048,15
4575676,14
4576308,11
4576928,19
4577560,40
4578184,54
4578816,43
4579444,35
4580064,28
4580692,25
4581320,29
4581944,41
4582576,48
4583192,12
4583824,26
4584456,19
4585072,33
4585704,33
4586328,14
4586956,24
4587588,82
4588208,87
4588836,61
4589460,45
4590088,11
4590716,30
4591336,46
4591968,51
4592592,25
4593216,23
4593844,67
4594464,65
4595096,51
4595724,62
4596344,45
4596972,47
4597600,88
4598228,54
4598860,60
4599480,61
4600112,123
4600788,148
4601460,142
4602140,132
4602812,108
4603484,78
4604112,39
4604728,28
4605360,18
4605992,10
4606608,23
4607240,33
4607864,29
4608496,31
4609124,30
4609744,26
4610372,23
4610996,28
4611620,37
4612248,39
4612864,38
4613492,36
4614116,41
4614740,35
4615372,24
4615992,16
4616620,20
4617252,12
4617872,13
4618500,15
4619124,21
4619756,11
4620384,15
4621008,30
4621636,18
4622260,10
4622884,11
4623516,10
4624136,17
4624764,31
4625388,38
4626012,28
4626644,22
4627268,25
4627896,19
4628524,15
4629144,12
4629772,10
4630396,15
4631028,41
4631660,78
4632280,75
4632912,51
4633536,21
4634160,18
4634788,36
4635408,48
4636036,75
4636664,85
4637288,54
4637916,39
4638540,38
4639172,26
4639804,10
4640424,13
4641052,27
4641676,30
4642304,29
4642936,12
4643552,11
4644184,11
4644808,11
4645428,29
4646060,22
4646680,23
4647308,28
4647932,34
4648560,17
4649188,15
4649812,11
4650444,17
4651072,27
4651692,74
4652320,85
4652944,67
4653572,29
4654204,23
4654824,33
4655452,18
4656080,16
4656700,19
4657332,11
4657952,43
4658580,38
4659212,50
4659832,57
4660460,55
4661084,56
4661716,50
4662348,38
4662968,22
4663596,13
4664224,10
4664848,13
4665476,10
4666096,17
4666724,11
4667348,10
4667976,13
4668604,16
4669224,21
4669856,21
4670484,24
4671104,26
4671736,25
4672360,47
4672988,58
4673620,49
4674240,33
4674868,14
4675492,10
4676116,21
4676748,18
4677368,17
4677996,20
4678624,60
4679248,28
4679876,57
4680496,91
4681124,53
4681756,44
4682376,51
4683008,39
4683632,11
4684260,34
4684892,56
4685512,49
4686140,35
4686764,29
4687388,12
4688020,10
4688640,11
4689268,47
4689892,64
4690520,49
4691148,31
4691768,31
4692400,26
4693028,34
4693648,35
4694280,14
4694904,15
4695536,11
4696164,18
4696784,11
4697416,28
4698040,33
4698664,24
4699296,10
4699912,11
4700544,25
4701168,20
4701796,13
4702424,12
4703052,15
4703684,30
4704312,21
4704936,11
4705568,23
4706192,38
4706824,32
4707452,44
4708072,58
4708704,56
4709328,49
4709952,45
4710584,19
4711200,11
4711832,27
4712464,23
4713080,35
4713708,39
4714332,39
4714964,38
4715596,28
4716216,18
4716848,17
4717472,11
4718096,9
4718672,21
4719300,33
4719932,12
4720556,10
4721180,31
4721812,46
4722432,35
4723064,13
4723688,11
4724312,11
4724940,10
4725560,12
4726192,17
4726820,10
4727440,14
4728072,16
4728696,25
4729328,26
4729956,34
4730576,63
4731208,32
4731832,36
4732456,62
4733088,87
4733704,84
4734336,79
4734960,40
4735588,13
4736220,35
4736844,59
4737472,61
4738100,11
4738720,55
4739348,15
4739976,21
4740604,60
4741236,127
4741908,124
4742588,84
4743212,69
4743832,53
4744464,29
4745088,31
4745720,26
4746348,13
4746968,20
4747600,46
4748224,41
4748848,18
4749476,10
4750096,23
4750728,19
4751352,25
4751976,41
4752608,22
4753232,10
4753864,19
4754496,20
4755112,33
4755744,40
4756368,34
4757000,27
4757628,28
4758248,25
4758880,32
4759504,43
4760128,43
4760760,27
4761376,14
4762008,18
4762636,23
4763256,14
4763884,17
4764508,11
4765140,25
4765772,35
4766392,61
4767024,73
4767648,88
4768272,69
4768900,48
4769520,33
4770152,12
4770776,13
4771400,12
4772032,13
4772648,28
4773276,27
4773908,18
4774528,20
4775156,35
4775784,40
4776412,30
4777044,12
4777664,13
4778292,23
4778920,27
4779544,22
4780176,14
4780792,11
4781424,12
4782048,16
4782672,22
4783304,31
4783924,46
4784556,83
4785184,90
4785808,56
4786440,15
4787064,35
4787696,64
4788328,58
4788944,71
4789576,73
4790200,56
4790828,25
4791460,10
4792080,11
4792712,11
4793336,12
4793960,27
4794592,20
4795216,15
4795848,12
4796476,10
4797096,12
4797728,24
4798356,17
4798984,12
4799616,13
4800236,27
4800864,52
4801488,50
4802112,47
4802740,39
4803360,26
4803988,12
4804620,28
4805240,39
4805868,68
4806492,65
4807124,16
4807752,38
4808372,73
4809000,98
4809624,105
4810300,97
4810928,64
4811544,16
4812176,17
4812804,47
4813420,51
4814052,43
4814676,30
4815308,23
4815936,25
4816556,19
4817184,11
4817808,13
4818440,14
4819068,11
4819688,12
4820316,21
4820940,19
4821568,12
4822196,25
4822816,30
4823448,15
4824076,18
4824696,27
4825324,15
4825952,11
4826580,19
4827212,24
4827832,13
4828464,33
4829088,40
4829712,14
4830344,58
4830960,40
4831592,44
4832216,39
4832840,28
4833472,35
4834092,54
4834720,33
4835348,26
4835968,31
4836600,14
4837224,22
4837852,18
4838484,10
4839104,11
4839732,16
4840356,15
4840980,17
4841612,24
4842232,19
4842864,11
4843488,13
4844112,11
4844740,16
4845360,19
4845988,13
4846620,12
4847240,17
4847872,19
4848496,20
4849124,13
4849756,12
4850376,13
4851008,11
4851632,12
4852256,14
4852888,21
4853504,29
4854136,48
4854760,47
4855384,33
4856016,23
4856632,13
4857264,19
4857892,42
4858512,51
4859144,47
4859768,25
4860400,25
4861028,35
4861648,37
4862280,26
4862904,15
4863528,14
4864160,27
4864776,25
4865404,17
4866028,11
4866652,10
4867284,23
4867908,41
4868536,59
4869168,46
4869784,18
4870416,16
4871040,12
4871668,37
4872300,58
4872920,32
4873552,11
4874176,20
4874800,11
4875428,18
4876048,61
4876680,107
4877360,106
4878028,78
4878656,42
4879280,20
4879904,12
4880536,14
4881152,12
4881784,15
4882408,31
4883032,31
4883660,34
4884280,19
4884908,11
4885540,34
4886160,39
4886792,13
4887416,47
4888044,62
4888676,52
4889296,48
4889928,73
4890552,68
4891176,53
4891808,42
4892424,67
4893056,70
4893680,30
4894304,55
4894936,70
4895560,70
4896192,77
4896820,92
4897440,108
4898120,66
4898744,25
4899368,21
4900000,13
4900616,32
4901248,44
4901872,46
4902496,28
4903124,15
4903752,25
4904384,30
4905016,34
4905632,40
4906264,39
4906888,26
4907520,23
4908148,12
4908768,12
4909400,11
4910028,14
4910652,28
4911284,35
4911904,39
4912540,24
4913172,17
4913792,20
4914424,19
4915052,21
4915684,17
4916312,24
4916936,17
4917564,27
4918188,10
4918812,28
4919440,28
4920064,19
4920692,12
4921316,13
4921940,15
4922568,22
4923192,21
4923820,21
4924452,14
4925072,20
4925700,69
4926324,79
4926956,63
4927588,59
4928208,51
4928836,32
4929460,11
4930084,48
4930712,82
4931328,85
4931960,76
4932584,40
4933208,12
4933836,34
4934456,41
4935084,29
4935716,22
4936336,11
4936964,20
4937588,44
4938220,61
4938848,50
4939472,43
4940104,21
4940728,18
4941352,46
4941980,31
4942600,29
4943228,39
4943852,41
4944480,23
4945108,10
4945732,15
4946364,43
4946992,47
4947612,29
4948240,10
4948864,18
4949496,18
4950128,28
4950744,40
4951376,33
4952000,17
4952624,11
4953252,10
4953872,10
4954504,14
4955128,20
4955752,30
4956384,36
4957008,11
4957636,31
4958268,66
4958888,63
4959516,25
4960144,16
4960772,51
4961404,14
4962024,16
4962652,27
4963276,32
4963900,14
4964532,12
4965152,12
4965780,16
4966412,18
4967032,28
4967660,29
4968284,27
4968916,23
4969544,21
4970164,11
4970792,12
4971416,17
4972044,45
4972672,32
4973292,17
4973920,12
4974544,32
4975168,27
4975800,24
4976416,13
4977048,12
4977676,28
4978296,56
4978928,49
4979552,30
4980180,59
4980812,94
4981432,88
4982064,47
4982688,19
4983312,13
4983940,27
4984560,16
4985192,10
4985816,13
4986440,13
4987068,22
4987688,59
4988316,55
4988948,20
4989568,11
4990200,10
4990824,13
4991456,11
4992088,14
4992704,35
4993332,45
4993956,41
4994584,15
4995212,22
4995832,29
4996464,19
4997088,11
4997712,12
4998340,17
4998960,17
4999588,13
5000220,12
5000840,16
5001468,11
5002092,16
5002724,11
5003356,10
5003976,11
5004608,17
5005232,15
5005856,12
5006488,10
5007104,13
5007736,12
5008360,12
5008984,11
5009612,18
5010232,16
5010864,16
5011492,24
5012112,29
5012744,11
5013368,26
5014000,25
5014628,14
5015248,50
5015880,48
5016504,23
5017128,16
5017760,12
5018376,15
5019004,42
5019632,39
5020256,21
5020884,15
5021508,10
5022140,10
5022772,14
5023392,28
5024024,29
5024644,35
5025276,36
5025908,16
5026528,15
5027160,24
5027784,21
5028408,15
5029036,12
5029656,13
5030288,29
5030920,24
5031536,26
5032168,38
5032792,31
5033424,15
5034056,20
5034672,14
5035304,50
5035928,46
5036552,26
5037184,10
5037804,21
5038436,31
5039060,37
5039684,23
5040316,14
5040936,40
5041568,21
5042196,12
5042816,14
5043448,39
5044072,57
5044700,79
5045332,80
5045952,75
5046584,65
5047208,14
5047832,49
5048464,82
5049080,62
5049712,37
5050336,32
5050960,40
5051592,42
5052208,50
5052840,30
5053472,11
5054088,35
5054720,71
5055344,55
5055976,13
5056608,10
5057228,11
5057860,13
5058484,16
5059108,10
5059740,10
5060360,16
5060992,14
5061616,17
5062240,29
5062872,49
5063496,37
5064128,41
5064756,72
5065376,66
5066008,51
5066632,25
5067264,29
5067896,33
5068516,17
5069144,10
5069772,15
5070396,42
5071028,30
5071648,17
5072280,40
5072912,75
5073528,23
5074160,30
5074788,31
5075420,12
5076048,48
5076672,113
5077356,114
5078036,73
5078660,58
5079288,41
5079916,39
5080548,20
5081176,10
5081796,31
5082424,57
5083052,71
5083676,64
5084308,40
5084928,41
5085556,46
5086184,43
5086808,30
5087440,15
5088056,12
5088688,11
5089320,13
5089936,21
5090564,32
5091192,25
5091824,11
5092452,10
5093072,11
5093704,13
5094332,11
5094956,27
5095588,45
5096208,60
5096840,24
5097464,39
5098088,66
5098720,89
5099344,73
5099976,57
5100608,42
5101228,25
5101856,11
5102484,16
5103112,19
5103744,14
5104364,10
5104996,11
5105620,11
5106244,12
5106876,10
5107496,15
5108128,12
5108760,15
5109384,23
5110020,17
5110644,14
5111276,11
5111908,12
5112532,10
5113164,10
5113788,10
5114416,14
5115048,17
5115668,24
5116300,20
5116928,11
5117552,17
5118188,17
5118812,17
5119444,18
5120080,11
5120692,10
5121320,19
5121944,44
5122564,36
5123192,15
5123816,17
5124444,17
5125068,18
5125692,12
5126320,10
5126936,13
5127568,20
5128188,18
5128816,12
5129444,11
5130068,16
5130696,20
5131324,24
5131944,16
5132572,19
5133196,24
5133828,44
5134456,29
5135072,15
5135704,12
5136328,25
5136952,41
5137580,56
5138200,61
5138828,38
5139452,22
5140080,21
5140708,21
5141332,23
5141964,21
5142592,11
5143208,19
5143840,38
5144464,29
5145092,35
5145724,48
5146344,38
5146972,11
5147596,14
5148220,60
5148848,82
5149472,47
5150100,29
5150732,30
5151352,32
5151984,25
5152608,25
5153236,20
5153868,24
5154488,33
5155116,29
5155744,11
5156368,13
5156996,12
5157616,11
5158244,15
5158872,17
5159496,11
5160124,28
5160744,29
5161372,26
5162004,22
5162624,20
5163252,18
5163876,23
5164508,21
5165136,11
5165756,17
5166384,36
5167008,51
5167632,50
5168264,51
5168884,72
5169512,62
5170136,53
5170760,16
5171392,36
5172008,42
5172636,51
5173268,70
5173888,76
5174516,78
5175140,105
5175824,119
5176500,111
5177172,70
5177800,24
5178428,21
5179048,38
5179676,31
5180304,32
5180932,24
5181564,10
5182184,25
5182812,22
5183440,23
5184064,11
5184692,12
5185312,31
5185940,47
5186572,30
5187192,26
5187820,38
5188448,15
5189076,55
5189708,62
5190328,69
5190960,45
5191584,11
5192208,32
5192836,46
5193456,73
5194088,48
5194712,12
5195336,13
5195968,10
5196584,21
5197216,55
5197844,70
5198464,57
5199092,17
5199720,51
5200348,107
5201032,117
5201700,100
5202380,76
5203008,56
5203624,22
5204252,15
5204876,31
5205508,28
5206136,28
5206760,28
5207388,32
5208012,35
5208636,25
5209268,10
5209888,11
5210516,22
5211148,16
5211768,11
5212400,10
5213020,11
5213652,11
5214284,11
5214904,19
5215532,16
5216160,11
5216784,11
5217412,14
5218032,27
5218660,17
5219284,12
5219908,50
5220540,16
5221160,11
5221792,21
5222420,11
5223040,34
5223668,46
5224292,35
5224924,37
5225552,17
5226172,13
5226800,10
5227424,18
5228052,19
5228680,10
5229300,10
5229928,10
5230556,11
5231180,19
5231812,32
5232432,34
5233064,37
5233692,34
5234312,21
5234944,11
5235568,25
5236196,44
5236828,38
5237448,21
5238080,13
5238704,14
5239328,24
5239960,14
5240576,12
5241208,35
5241832,47
5242456,58
5243088,55
5243704,42
5244332,33
5244960,22
5245584,20
5246212,36
5246836,54
5247464,49
5248096,16
5248712,35
5249340,57
5249960,71
5250584,114
5251264,146
5251932,132
5252608,114
5253288,85
5253912,52
5254540,22
5255164,21
5255784,31
5256416,31
5257036,31
5257668,32
5258296,43
5258912,39
5259540,33
5260164,57
5260792,80
5261424,52
5262040,36
5262672,13
5263296,27
5263920,18
5264548,16
5265168,30
5265796,78
5266420,109
5267096,77
5267720,57
5268344,34
5268972,11
5269600,10
5270224,15
5270852,10
5271476,12
5272100,21
5272732,22
5273352,25
5273984,18
5274604,11
5275228,19
5275856,16
5276480,12
5277108,11
5277740,18
5278360,16
5278992,11
5279616,12
5280244,10
5280872,10
5281496,10
5282124,10
5282748,10
5283372,11
5284000,16
5284616,17
5285244,12
5285868,10
5286492,15
5287120,17
5287736,21
5288364,16
5288992,13
5289616,20
5290244,39
5290864,44
5291496,35
5292124,11
5292744,11
5293372,32
5294000,33
5294620,23
5295252,12
5295872,47
5296500,29
5297124,11
5297748,12
5298380,16
5299000,17
5299632,37
5300260,66
5300880,57
5301508,37
5302132,39
5302764,52
5303392,52
5304016,37
5304644,12
5305268,30
5305892,40
5306524,26
5307144,19
5307772,15
5308400,20
5309024,16
5309652,11
5310276,15
5310908,17
5311536,12
5312160,14
5312788,14
5313412,10
5314044,14
5314672,10
5315288,15
5315920,32
5316544,49
5317168,43
5317796,15
5318416,11
5319044,12
5319668,15
5320292,11
5320924,23
5321548,12
5322180,17
5322812,20
5323432,32
5324064,25
5324688,18
5325320,64
5325948,69
5326568,64
5327196,50
5327820,28
5328444,12
5329072,15
5329688,19
5330316,17
5330940,12
5331568,11
5332196,11
5332820,18
5333448,20
5334076,12
5334696,13
5335324,9
5335896,10
5336524,12
5337156,16
5337776,17
5338404,10
5339028,16
5339656,35
5340284,42
5340904,24
5341532,12
5342156,17
5342780,13
5343412,16
5344032,15
5344660,11
5345288,14
5345912,27
5346540,19
5347164,20
5347796,44
5348424,65
5349048,36
5349676,13
5350300,31
5350928,12
5351556,24
5352176,13
5352804,29
5353428,27
5354052,15
5354684,11
5355304,11
5355936,23
5356564,16
5357184,14
5357812,22
5358440,32
5359068,22
5359700,10
5360320,16
5360948,19
5361572,10
5362196,10
5362828,12
5363448,11
5364076,14
5364700,26
5365324,33
5365956,33
5366576,21
5367204,14
5367836,13
5368456,12
5369084,11
5369708,11
5370340,14
5370968,10
5371592,11
5372220,12
5372844,10
5373468,12
5374100,14
5374720,15
5375348,14
5375976,12
5376600,71
5377232,80
5377848,56
5378476,29
5379104,12
5379728,18
5380356,37
5380980,65
5381612,77
5382240,66
5382860,49
5383488,46
5384112,56
5384736,72
5385364,72
5385984,45
5386612,23
5387236,13
5387860,24
5388488,10
5389112,28
5389740,81
5390372,118
5391044,104
5391720,63
5392344,19
5392968,41
5393596,46
5394216,67
5394848,51
5395476,21
5396096,15
5396724,17
5397348,11
5397980,18
5398612,16
5399232,12
5399860,33
5400488,29
5401112,13
5401740,19
5402360,51
5402988,57
5403612,51
5404236,33
5404868,15
5405488,12
5406116,23
5406748,26
5407368,25
5407996,21
5408620,15
5409252,12
5409880,14
5410496,15
5411128,13
5411752,11
5412376,12
5413004,11
5413624,11
5414252,11
5414876,10
5415500,12
5416132,16
5416752,16
5417384,11
5418012,10
5418632,13
5419260,11
5419884,11
5420516,16
5421148,24
5421768,38
5422396,48
5423024,48
5423648,48
5424280,55
5424896,68
5425524,66
5426152,56
5426776,27
5427408,13
5428024,15
5428652,53
5429280,117
5429956,96
5430580,81
5431204,49
5431828,39
5432460,162
5433132,201
5433812,211
5434488,221
5435164,176
5435844,122
5436520,82
5437144,58
5437776,33
5438400,33
5439024,47
5439652,32
5440272,19
5440900,10
5441524,17
5442148,15
5442776,18
5443400,20
5444028,23
5444656,19
5445280,24
5445908,25
5446532,26
5447164,23
5447792,20
5448408,21
5449040,17
5449660,15
5450284,14
5450912,14
5451536,15
5452164,11
5452788,11
5453416,10
5454044,10
5454668,9
5455248,10
5455876,12
5456496,13
5457124,11
5457748,10
5458380,11
5459008,14
5459632,12
5460260,10
5460884,11
5461508,11
5462140,10
5462760,11
5463388,11
5464012,13
5464636,12
5465268,10
5465888,11
5466516,11
5467148,10
5467768,10
5468400,11
5469020,11
5469652,11
5470280,10
5470904,11
5471532,20
5472160,19
5472784,14
5473412,10
5474032,16
5474660,21
5475284,17
5475908,13
5476540,18
5477160,21
5477788,20
5478420,16
5479040,13
5479668,10
5480292,12
5480924,19
5481552,38
5482172,48
5482800,33
5483428,27
5484052,23
5484680,31
5485300,53
5485928,84
5486556,51
5487180,17
5487812,57
5488432,17
5489064,37
5489692,40
5490312,13
5490940,17
5491568,48
5492196,58
5492828,58
5493448,50
5494076,67
5494704,97
5495328,107
5496008,78
5496632,60
5497264,31
5497892,35
5498512,38
5499144,17
5499768,19
5500396,26
5501028,15
5501648,13
5502276,11
5502904,11
5503528,11
5504160,18
5504776,19
5505404,12
5506028,11
5506652,18
5507284,25
5507908,29
5508536,22
5509168,16
5509784,22
5510416,34
5511040,29
5511668,18
5512300,16
5512920,28
5513552,30
5514176,21
5514800,19
5515428,14
5516048,12
5516680,16
5517304,17
5517928,19
5518560,18
5519184,15
5519816,16
5520448,19
5521064,17
5521692,11
5522320,13
5522948,15
5523580,14
5524200,16
5524828,11
5525456,11
5526080,13
5526708,10
5527328,15
5527960,21
5528592,32
5529208,26
5529840,16
5530464,19
5531092,69
5531724,26
5532344,38
5532972,48
5533596,28
5534224,21
5534852,41
5535472,29
5536104,11
5536724,13
5537348,25
5537980,41
5538600,33
5539228,59
5539860,80
5540480,61
5541108,26
5541732,14
5542364,44
5542996,11
5543616,30
5544248,36
5544872,32
5545496,31
5546124,39
5546744,27
5547376,10
5548000,15
5548624,11
5549256,10
5549872,14
5550504,15
5551136,12
5551752,14
5552384,33
5553012,36
5553640,25
5554272,11
5554892,10
5555520,16
5556144,14
5556772,12
5557400,10
5558024,11
5558656,14
5559280,17
5559904,12
5560536,11
5561160,11
5561792,12
5562420,10
5563040,11
5563672,12
5564296,12
5564928,11
5565556,10
5566176,14
5566808,12
5567432,11
5568056,10
5568688,15
5569304,15
5569936,16
5570568,26
5571184,28
5571812,30
5572440,35
5573068,35
5573700,14
5574320,11
5574952,11
5575576,16
5576200,16
5576828,26
5577448,23
5578080,22
5578704,23
5579328,39
5579960,34
5580576,11
5581208,19
5581836,25
5582456,34
5583084,51
5583712,31
5584340,13
5584972,38
5585592,61
5586224,71
5586848,75
5587472,74
5588104,58
5588720,27
5589352,33
5589976,43
5590600,29
5591232,11
5591848,35
5592480,38
5593108,18
5593728,11
5594356,11
5594984,11
5595612,15
5596244,22
5596864,15
5597492,15
5598120,11
5598744,13
5599376,26
5599992,33
5600628,28
5601252,10
5601876,10
5602504,12
5603124,16
5603752,27
5604384,36
5605000,11
5605628,36
5606256,31
5606884,32
5607516,42
5608136,34
5608764,22
5609388,22
5610012,46
5610644,30
5611264,19
5611896,13
5612520,13
5613144,21
5613772,25
5614392,13
5615024,20
5615652,14
5616272,17
5616900,36
5617524,45
5618156,51
5618788,16
5619408,39
5620036,50
5620660,15
5621284,11
5621916,38
5622536,71
5623168,52
5623792,42
5624416,27
5625044,20
5625672,10
5626300,18
5626932,14
5627552,11
5628184,12
5628808,11
5629436,11
5630068,10
5630688,11
5631320,12
5631948,15
5632572,12
5633204,10
5633824,11
5634452,13
5635080,12
5635704,13
5636332,12
5636956,31
5637588,25
5638220,11
5638840,13
5639468,10
5640092,11
5640716,11
5641348,16
5641968,28
5642596,25
5643220,13
5643844,11
5644476,10
5645096,12
5645724,9
5646296,13
5646928,16
5647556,20
5648176,23
5648804,21
5649432,16
5650056,11
5650684,19
5651308,14
5651940,11
5652572,10
5653192,19
5653820,28
5654444,12
5655068,21
5655696,24
5656320,52
5656948,76
5657576,68
5658200,53
5658828,34
5659448,14
5660076,31
5660708,75
5661328,120
5662008,83
5662632,56
5663256,52
5663884,48
5664504,35
5665132,26
5665756,13
5666380,12
5667012,10
5667632,29
5668260,27
5668892,11
5669512,11
5670144,11
5670768,34
5671396,72
5672028,90
5672648,67
5673276,48
5673904,37
5674528,32
5675156,35
5675776,36
5676408,32
5677032,18
5677656,12
5678288,10
5678904,28
5679536,41
5680164,29
5680784,32
5681412,29
5682040,17
5682668,12
5683300,12
5683920,12
5684548,28
5685172,27
5685796,22
5686428,21
5687048,15
5687676,23
5688304,41
5688928,43
5689556,22
5690184,20
5690812,22
5691444,16
5692064,20
5692696,14
5693320,15
5693952,11
5694580,18
5695200,20
5695828,13
5696456,19
5697080,17
5697708,12
5698328,19
5698956,41
5699580,51
5700208,52
5700836,28
5701460,25
5702092,29
5702724,30
5703344,27
5703976,23
5704600,23
5705224,13
5705856,10
5706472,11
5707104,14
5707728,35
5708352,35
5708984,33
5709600,36
5710232,48
5710864,35
5711480,14
5712112,49
5712736,77
5713368,92
5713996,64
5714616,17
5715248,39
5715872,41
5716496,41
5717124,11
5717744,51
5718376,28
5719000,14
5719628,28
5720260,40
5720880,40
5721512,33
5722144,16
5722760,10
5723392,10
5724016,17
5724648,15
5725276,16
5725896,40
5726528,46
5727152,39
5727776,23
5728408,31
5729032,29
5729664,13
5730288,23
5730912,61
5731544,76
5732168,53
5732800,45
5733432,34
5734052,27
5734684,19
5735308,14
5735936,12
5736564,11
5737184,13
5737812,21
5738436,14
5739060,16
5739692,21
5740312,28
5740940,15
5741564,10
5742192,11
5742820,14
5743444,15
5744076,28
5744708,48
5745328,55
5745956,58
5746580,48
5747208,18
5747836,52
5748456,76
5749088,79
5749712,52
5750336,27
5750968,28
5751584,23
5752216,27
5752844,16
5753464,16
5754096,43
5754720,46
5755352,31
5755980,14
5756600,17
5757232,29
5757856,33
5758480,24
5759112,11
5759732,13
5760364,14
5760984,23
5761608,13
5762236,10
5762856,18
5763484,33
5764116,30
5764736,19
5765364,15
5765988,17
5766620,18
5767248,22
5767864,27
5768496,22
5769116,11
5769740,43
5770372,32
5770992,29
5771620,18
5772244,11
5772868,24
5773500,39
5774120,64
5774748,51
5775380,20
5776000,16
5776628,15
5777252,11
5777880,10
5778512,11
5779128,10
5779760,19
5780384,13
5781008,11
5781636,10
5782256,15
5782884,11
5783508,29
5784132,57
5784764,74
5785384,40
5786016,20
5786644,12
5787264,11
5787892,37
5788516,65
5789148,69
5789776,52
5790396,28
5791024,32
5791652,13
5792276,16
5792904,25
5793528,37
5794156,47
5794780,68
5795408,64
5796036,57
5796656,31
5797284,11
5797916,11
5798536,16
5799164,13
5799788,10
5800420,18
5801052,24
5801672,17
5802300,11
5802924,13
5803548,20
5804180,30
5804800,33
5805428,21
5806052,11
5806680,12
5807308,11
5807928,11
5808560,12
5809188,11
5809808,12
5810440,12
5811064,27
5811696,29
5812324,12
5812944,11
5813572,15
5814200,21
5814824,15
5815456,10
5816072,16
5816704,17
5817328,13
5817952,15
5818580,37
5819208,20
5819836,17
5820468,20
5821088,17
5821720,22
5822344,20
5822972,13
5823604,11
5824224,11
5824852,11
5825476,15
5826100,13
5826732,17
5827352,33
5827980,32
5828608,20
5829232,17
5829860,11
5830488,12
5831116,11
5831748,10
5832368,10
5832996,11
5833624,17
5834248,26
5834876,14
5835496,49
5836128,86
5836752,90
5837376,87
5838008,64
5838624,12
5839256,39
5839888,81
5840504,86
5841132,40
5841756,12
5842388,19
5843020,23
5843640,22
5844268,22
5844892,20
5845516,19
5846148,16
5846768,16
5847396,11
5848024,11
5848648,10
5849276,10
5849896,11
5850524,9
5851100,11
5851728,23
5852360,24
5852976,19
5853604,13
5854236,10
5854856,22
5855488,32
5856112,32
5856740,22
5857372,12
5857992,15
5858620,16
5859244,11
5859872,14
5860500,19
5861120,12
5861748,15
5862376,23
5863000,11
5863628,29
5864248,37
5864876,23
5865508,11
5866128,12
5866760,13
5867384,11
5868016,27
5868644,28
5869264,17
5869896,16
5870520,21
5871144,20
5871776,10
5872396,17
5873024,12
5873652,10
5874276,11
5874908,19
5875532,19
5876164,13
5876796,18
5877416,18
5878048,11
5878676,12
5879304,11
5879936,12
5880552,13
5881184,16
5881808,15
5882432,19
5883064,12
5883680,11
5884312,22
5884944,25
5885564,11
5886192,15
5886820,14
5887452,11
5888084,10
5888704,13
5889332,15
5889956,11
5890580,15
5891208,11
5891832,46
5892464,77
5893088,75
5893712,65
5894344,51
5894964,25
5895592,11
5896224,19
5896840,31
5897472,29
5898096,14
5898728,21
5899356,30
5899976,28
5900604,23
5901232,11
5901856,28
5902484,23
5903104,14
5903736,10
5904360,17
5904984,14
5905612,18
5906232,36
5906864,60
5907492,72
5908112,57
5908744,23
5909368,19
5909996,24
5910628,18
5911248,30
5911880,47
5912504,49
5913128,49
5913760,35
5914376,15
5915008,11
5915632,11
5916256,16
5916884,14
5917508,16
5918140,17
5918772,22
5919392,27
5920024,25
5920644,18
5921276,13
5921904,13
5922528,16
5923156,19
5923784,19
5924408,26
5925036,35
5925656,35
5926288,23
5926916,12
5927536,13
5928168,27
5928792,68
5929420,104
5930104,92
5930720,62
5931352,11
5931976,57
5932600,49
5933232,34
5933848,51
5934480,53
5935112,33
5935728,20
5936360,21
5936984,11
5937616,19
5938244,22
5938864,29
5939496,29
5940120,26
5940740,21
5941372,10
5941992,13
5942620,14
5943244,11
5943868,24
5944500,45
5945120,51
5945748,22
5946380,13
5947000,18
5947628,21
5948252,25
5948884,39
5949516,47
5950136,54
5950768,42
5951392,15
5952016,11
5952644,22
5953264,57
5953892,101
5954576,107
5955244,72
5955868,38
5956492,14
5957124,10
5957756,10
5958376,10
5959008,14
5959632,12
5960256,10
5960884,16
5961504,27
5962136,15
5962764,53
5963384,54
5964016,58
5964640,38
5965268,12
5965900,36
5966520,67
5967152,91
5967776,68
5968400,44
5969028,30
5969648,22
5970276,15
5970904,15
5971528,21
5972156,20
5972776,22
5973408,29
5974036,36
5974656,15
5975288,11
5975912,11
5976544,11
5977176,11
5977796,11
5978424,18
5979048,30
5979672,25
5980304,20
5980920,17
5981552,11
5982176,19
5982800,26
5983428,20
5984048,13
5984676,10
5985308,11
5985928,19
5986556,30
5987184,31
5987816,27
5988444,19
5989064,52
5989696,51
5990320,19
5990944,18
5991576,23
5992196,18
5992824,14
5993448,12
5994076,10
5994704,18
5995328,43
5995960,43
5996592,29
5997208,19
5997840,13
5998464,23
5999096,26
5999724,30
6000344,28
6000976,22
6001600,17
6002224,11
6002852,19
6003472,29
6004100,27
6004728,24
6005352,21
6005980,23
6006608,27
6007236,16
6007868,10
6008488,12
6009116,31
6009744,41
6010372,20
6011004,14
6011624,12
6012256,11
6012880,11
6013504,12
6014136,21
6014756,22
6015384,19
6016016,39
6016640,68
6017268,47
6017892,37
6018524,42
6019156,32
6019776,13
6020408,14
6021032,20
6021656,35
6022288,31
6022904,26
6023532,21
6024160,11
6024784,24
6025412,29
6026032,30
6026664,11
6027292,16
6027912,12
6028544,13
6029168,11
6029796,13
6030428,23
6031048,35
6031680,53
6032304,55
6032928,51
6033560,28
6034176,10
6034808,25
6035432,38
6036056,45
6036688,43
6037304,32
6037936,23
6038568,11
6039184,16
6039816,28
6040444,43
6041076,26
6041708,20
6042328,31
6042956,13
6043580,13
6044208,12
6044836,18
6045456,29
6046084,25
6046712,30
6047336,28
6047968,15
6048592,18
6049224,21
6049852,11
6050472,21
6051104,24
6051728,10
6052360,11
6052992,16
6053608,30
6054240,30
6054864,38
6055488,51
6056120,35
6056736,11
6057368,15
6058000,15
6058616,11
6059248,10
6059872,10
6060504,15
6061136,16
6061752,12
6062388,14
6063012,11
6063636,12
6064268,16
6064888,14
6065516,13
6066144,13
6066768,21
6067400,22
6068016,30
6068644,27
6069276,14
6069896,14
6070528,24
6071152,21
6071784,16
6072416,11
6073032,30
6073664,52
6074288,43
6074912,17
6075544,12
6076160,12
6076792,25
6077416,18
6078044,39
6078676,17
6079300,13
6079932,13
6080568,12
6081184,17
6081816,11
6082440,16
6083068,13
6083700,11
6084320,23
6084948,43
6085576,48
6086200,37
6086832,37
6087448,12
6088080,11
6088704,12
6089328,14
6089960,13
6090584,13
6091212,10
6091844,10
6092464,13
6093096,29
6093720,46
6094344,33
6094976,29
6095592,18
6096224,35
6096848,45
6097472,37
6098104,23
6098720,40
6099352,64
6099980,74
6100600,61
6101232,12
6101856,10
6102488,49
6103116,53
6103736,14
6104368,31
6104992,44
6105616,60
6106244,69
6106864,78
6107496,86
6108120,61
6108744,32
6109376,11
6109996,22
6110628,34
6111260,41
6111880,28
6112512,13
6113140,18
6113772,14
6114400,10
6115024,14
6115656,25
6116280,16
6116904,11
6117536,12
6118156,30
6118788,60
6119412,85
6120036,66
6120668,25
6121292,17
6121924,40
6122556,33
6123176,25
6123808,24
6124436,11
6125064,11
6125696,20
6126316,24
6126948,10
6127572,16
6128196,11
6128828,11
6129448,35
6130080,57
6130708,84
6131328,77
6131960,19
6132588,46
6133216,90
6133848,106
6134524,88
6135152,41
6135776,48
6136404,12
6137036,28
6137656,28
6138288,16
6138920,55
6139544,71
6140176,64
6140804,41
6141436,28
6142068,24
6142692,21
6143324,18
6143952,21
6144580,17
6145208,11
6145824,31
6146452,33
6147084,54
6147704,29
6148332,12
6148956,17
6149588,30
6150216,28
6150840,60
6151468,82
6152092,65
6152716,41
6153348,26
6153968,22
6154596,11
6155220,19
6155844,21
6156476,14
6157096,11
6157724,12
6158356,10
6158976,20
6159608,14
6160232,11
6160860,10
6161492,12
6162112,11
6162740,12
6163368,11
6163988,14
6164620,10
6165240,13
6165868,24
6166492,27
6167116,11
6167748,10
6168368,29
6168996,44
6169628,22
6170248,12
6170876,18
6171500,15
6172132,25
6172764,40
6173384,40
6174016,31
6174640,15
6175264,16
6175896,11
6176512,11
6177144,36
6177768,43
6178392,40
6179024,22
6179640,11
6180272,18
6180900,29
6181520,16
6182152,13
6182776,21
6183404,23
6184036,28
6184656,20
6185288,13
6185908,21
6186536,19
6187164,10
6187784,14
6188416,26
6189040,43
6189664,45
6190296,37
6190920,32
6191552,34
6192180,27
6192800,17
6193428,11
6194056,10
6194688,10
6195316,10
6195936,10
6196564,12
6197192,11
6197816,13
6198444,24
6199064,30
6199696,29
6200324,11
6200944,23
6201576,16
6202200,9
6202780,10
6203416,13
6204032,17
6204664,20
6205288,11
6205920,12
6206548,10
6207168,14
6207800,43
6208424,81
6209048,63
6209676,34
6210296,39
6210928,33
6211552,17
6212176,21
6212804,45
6213424,41
6214056,25
6214688,12
6215304,10
6215936,13
6216560,14
6217192,23
6217820,28
6218440,23
6219072,11
6219696,25
6220320,28
6220952,28
6221568,17
6222200,11
6222824,11
6223448,11
6224080,11
6224696,19
6225328,20
6225956,14
6226576,13
6227204,11
6227828,10
6228460,16
6229092,26
6229712,27
6230344,21
6230968,13
6231592,15
6232224,23
6232840,23
6233472,22
6234096,13
6234720,10
6235352,9
6235924,13
6236560,15
6237188,10
6237808,11
6238440,16
6239064,21
6239696,19
6240324,12
6240944,14
6241576,12
6242200,12
6242824,11
6243452,19
6244072,16
6244704,12
6245328,25
6245952,27
6246584,35
6247200,33
6247828,27
6248460,16
6249080,17
6249708,13
6250332,16
6250964,21
6251592,11
6252216,12
6252844,20
6253468,19
6254092,14
6254724,12
6255344,14
6255976,30
6256600,27
6257224,18
6257856,14
6258476,11
6259104,11
6259736,10
6260360,14
6260992,14
6261616,21
6262248,19
