tempo_arduino_micro_s,valor_ADC
500,10
1004,10
1504,10
2000,10
2508,21
3000,25
3508,13
4000,12
4508,16
5000,14
5500,16
6000,14
6500,13
7004,13
7500,20
8000,21
8500,20
9000,18
9500,16
10000,11
10516,12
11036,13
11564,10
12084,11
12612,10
13132,10
13660,10
14180,10
14708,10
15228,11
15756,11
16276,11
16796,11
17316,10
17836,10
18356,11
18876,11
19396,11
19916,10
20436,11
20956,13
21476,14
21996,11
22516,11
23036,10
23564,10
24084,12
24612,11
25132,10
25660,10
26180,10
26708,13
27228,15
27756,17
28276,13
28804,11
29324,10
29852,10
30372,10
30900,10
31420,10
31948,10
32472,10
32996,10
33516,10
34044,10
34564,11
35092,11
35612,10
36140,10
36660,12
37188,12
37708,10
38236,11
38760,11
39284,12
39804,15
40332,15
40852,15
41372,13
41892,10
42412,14
42932,15
43452,14
43972,10
44492,11
45012,13
45532,16
46052,16
46572,16
47092,17
47612,11
48140,11
48660,12
49188,10
49708,10
50236,10
50756,10
51284,10
51804,11
52332,11
52852,10
53380,11
53900,10
54428,11
54948,10
55476,11
55996,10
56524,10
57044,12
57572,14
58096,15
58620,10
59140,10
59668,13
60188,13
60716,12
61240,12
61764,15
62284,15
62812,15
63332,13
63860,10
64384,10
64908,10
65428,12
65948,13
66468,15
66988,14
67508,15
68028,10
68548,10
69068,10
69588,10
70108,10
70628,10
71148,10
71668,11
72192,10
72716,10
73236,10
73764,10
74284,10
74812,10
75332,10
75860,12
76384,11
76908,11
77428,14
77956,17
78476,15
79004,17
79528,16
80052,15
80572,13
81100,10
81620,10
82148,10
82668,10
83196,10
83720,11
84244,14
84764,13
85292,14
85812,16
86340,13
86860,13
87388,10
87908,12
88436,13
88956,10
89484,10
90004,11
90524,12
91044,10
91564,10
92084,11
92604,12
93124,14
93644,10
94164,11
94684,12
95204,12
95724,10
96248,10
96764,10
97292,11
97812,10
98340,10
98860,13
99388,17
99908,16
100436,15
101000,16
101584,13
102156,11
102736,10
103304,12
103880,14
104456,13
105024,10
105600,11
106168,11
106744,11
107312,11
107896,11
108464,18
109040,16
109624,13
110192,10
110768,10
111336,13
111920,13
112492,14
113072,13
113640,11
114216,9
114740,11
115312,14
115896,15
116464,11
117048,11
117616,11
118200,10
118768,10
119344,10
119928,12
120500,11
121080,9
121596,10
122176,9
122696,11
123272,13
123840,14
124416,17
125000,18
125568,22
126152,19
126724,15
127304,12
127876,11
128456,11
129040,10
129608,11
130184,11
130752,10
131328,10
131896,9
132420,10
132992,11
133576,10
134152,11
134720,13
135304,14
135872,14
136456,13
137024,11
137608,10
138176,11
138744,10
139328,11
139896,15
140480,14
141048,11
141632,11
142200,11
142784,9
143304,10
143876,11
144456,11
145024,11
145608,10
146176,9
146700,11
147276,11
147856,14
148424,19
149000,19
149584,16
150156,14
150736,12
151308,11
151888,11
152460,12
153040,13
153616,11
154184,9
154708,12
155280,11
155864,11
156432,14
157016,9
157536,13
158112,15
158684,13
159260,10
159840,12
160412,18
160992,17
161560,19
162144,17
162712,16
163288,11
163872,11
164440,13
165016,16
165584,10
166160,9
166676,10
167256,10
167824,12
168400,13
168976,11
169544,11
170120,12
170688,13
171272,13
171840,14
172424,13
172992,11
173568,11
174152,10
174720,11
175304,14
175872,18
176456,13
177024,11
177608,13
178184,14
178752,12
179336,15
179904,18
180488,23
181056,19
181632,12
182200,12
182776,10
183360,11
183928,16
184512,16
185080,11
185664,10
186232,10
186808,10
187376,11
187952,11
188536,11
189104,16
189688,16
190256,14
190840,11
191408,10
191988,10
192568,10
193140,12
193720,18
194288,17
194872,18
195440,17
196024,13
196592,11
197168,19
197752,19
198324,16
198904,13
199472,12
200056,15
200624,15
201200,14
201784,11
202352,11
202936,10
203508,10
204088,10
204660,14
205240,19
205808,18
206376,15
206952,15
207520,18
208104,13
208672,10
209248,10
209816,10
210392,11
210976,10
211544,11
212128,14
212696,13
213280,11
213848,10
214432,12
215000,15
215580,15
216160,15
216728,13
217312,11
217884,14
218464,14
219032,13
219608,10
220192,11
220760,11
221344,11
221912,11
222496,11
223068,13
223648,11
224220,10
224792,17
225376,22
225944,18
226528,13
227096,12
227680,13
228248,11
228824,11
229408,10
229980,11
230560,12
231128,11
231704,13
232272,11
232856,10
233424,14
234004,11
234584,11
235152,10
235736,10
236312,10
236896,10
237464,12
238040,18
238624,18
239196,11
239776,11
240348,11
240928,11
241496,11
242080,11
242648,12
243224,13
243808,10
244380,11
244960,13
245528,12
246112,9
246628,10
247208,9
247724,10
248296,10
248880,11
249448,10
250032,11
250600,12
251184,12
251756,10
252336,10
252908,10
253480,12
254064,11
254636,11
255216,11
255788,10
256368,11
256944,12
257512,9
258028,11
258600,11
259176,11
259744,11
260328,14
260896,11
261480,10
262048,11
262624,12
263208,11
263776,13
264360,20
264928,11
265512,16
266084,15
266664,12
267232,12
267808,11
268392,10
268964,11
269544,11
270112,14
270696,12
271268,11
271844,11
272424,11
272992,10
273576,12
274148,17
274728,17
275296,11
275880,11
276448,15
277028,14
277608,13
278176,13
278760,12
279332,14
279912,13
280484,14
281056,11
281640,13
282208,13
282784,11
283356,11
283936,12
284508,16
285088,16
285656,13
286232,11
286816,12
287384,12
287968,11
288540,11
289120,11
289688,10
290264,9
290784,11
291356,14
291936,15
292504,13
293088,12
293660,12
294240,9
294760,10
295336,10
295908,11
296484,15
297064,17
297632,14
298216,13
298788,11
299368,9
299888,10
300464,11
301036,10
301612,11
302192,11
302764,17
303344,9
303864,12
304440,14
305020,14
305600,11
306172,10
306748,11
307328,10
307900,10
308480,10
309048,11
309632,11
310204,11
310780,11
311360,12
311932,11
312512,10
313084,11
313664,10
314232,11
314816,12
315400,12
315972,14
316552,11
317124,10
317704,9
318224,11
318800,11
319380,11
319956,14
320540,15
321108,13
321688,11
322256,13
322840,14
323408,14
323992,12
324564,11
325136,10
325720,10
326292,10
326872,9
327392,10
327968,9
328484,10
329064,10
329632,10
330200,9
330716,10
331292,11
331872,11
332440,13
333024,17
333592,25
334168,19
334736,16
335312,13
335896,14
336468,13
337048,10
337616,11
338200,16
338768,14
339352,10
339920,14
340496,20
341080,24
341648,19
342232,17
342804,15
343384,11
343952,11
344532,13
345112,16
345684,15
346264,16
346832,16
347416,11
347988,15
348568,21
349136,15
349712,14
350296,20
350868,16
351448,12
352020,10
352600,13
353168,12
353748,14
354328,14
354900,15
355480,14
356052,14
356632,13
357204,12
357784,11
358356,10
358932,11
359512,10
360084,11
360664,10
361232,11
361816,11
362384,17
362964,15
363544,14
364112,11
364696,11
365268,12
365848,11
366420,11
367000,9
367520,10
368092,10
368672,10
369240,13
369824,14
370392,13
370976,11
371548,11
372128,11
372700,10
373276,11
373856,11
374424,16
375008,18
375580,15
376160,15
376732,11
377308,11
377888,11
378460,10
379040,10
379612,11
380192,10
380764,10
381344,13
381916,13
382492,11
383072,10
383644,10
384224,11
384800,12
385384,15
385952,14
386528,15
387112,11
387684,10
388264,16
388836,13
389416,11
389988,11
390568,15
391136,18
391716,13
392296,11
392868,10
393448,9
393968,10
394544,11
395116,13
395696,11
396276,12
396852,13
397432,14
398004,15
398584,13
399156,10
399736,11
400316,12
400892,11
401472,15
402044,14
402624,11
403196,10
403776,11
404356,10
404936,12
405512,19
406084,17
406664,16
407236,11
407816,9
408336,11
408912,9
409432,10
410008,10
410584,11
411152,13
411728,17
412296,15
412880,10
413448,11
414024,12
414592,11
415176,9
415696,12
416264,15
416848,16
417416,12
417992,12
418560,13
419144,11
419716,11
420296,9
420812,11
421384,23
421960,18
422528,11
423112,14
423680,11
424264,9
424780,10
425360,9
425876,10
426448,10
427032,11
427604,10
428184,10
428752,12
429336,11
429908,11
430488,9
431004,10
431580,10
432160,11
432728,11
433312,14
433880,18
434464,16
435036,15
435616,11
436192,12
436768,11
437352,12
437924,18
438504,17
439072,18
439656,16
440228,12
440804,11
441384,11
441956,13
442536,15
443108,14
443688,11
444256,11
444840,10
445408,10
445988,10
446568,10
447140,10
447720,10
448300,10
448880,9
449396,11
449976,10
450548,11
451124,11
451704,11
452272,10
452856,9
453376,11
453952,11
454524,12
455104,14
455676,13
456252,11
456832,11
457404,16
457984,15
458556,15
459136,14
459708,12
460284,10
460864,10
461432,11
462008,15
462576,16
463160,11
463732,15
464312,19
464884,14
465456,11
466040,10
466608,15
467192,21
467764,23
468344,20
468916,19
469492,16
470072,16
470644,10
471224,11
471796,13
472376,19
472948,21
473528,19
474100,15
474676,16
475256,15
475828,11
476408,10
476988,10
477568,10
478140,11
478716,10
479296,11
479872,11
480448,13
481020,13
481600,11
482168,11
482752,10
483324,11
483900,10
484480,10
485048,17
485632,25
486204,18
486784,11
487364,17
487936,19
488520,23
489088,16
489672,11
490244,11
490824,13
491396,14
491976,14
492560,15
493132,15
493712,15
494284,16
494864,13
495436,10
496016,10
496584,10
497164,11
497744,11
498316,11
498896,12
499468,11
500048,9
500568,10
501144,11
501716,11
502292,11
502872,13
503444,10
504024,11
504596,11
505176,9
505696,10
506272,9
506792,12
507364,15
507944,16
508516,15
509096,13
509668,11
510248,9
510768,10
511344,11
511924,9
512448,9
512964,11
513536,10
514112,10
514680,11
515264,11
515832,11
516416,10
516984,13
517568,15
518136,16
518716,14
519296,11
519864,11
520448,11
521016,11
521600,12
522168,13
522748,12
523328,14
523900,13
524480,11
525048,10
525632,10
526200,12
526784,10
527356,11
527932,11
528512,10
529080,13
529664,15
530232,14
530816,9
531336,13
531912,13
532488,12
533060,12
533640,14
534208,13
534792,10
535364,10
535944,9
536464,10
537040,11
537616,11
538184,15
538768,13
539336,13
539920,12
540492,10
541072,11
541644,10
542220,14
542800,21
543368,19
543952,15
544524,18
545104,19
545676,14
546256,11
546832,13
547404,10
547984,11
548556,10
549136,9
549656,10
550232,9
550752,10
551328,9
551848,10
552420,10
553000,10
553568,10
554152,13
554724,15
555304,15
555876,15
556456,11
557028,10
557604,11
558184,14
558756,11
559336,11
559908,10
560488,12
561068,13
561644,11
562224,11
562796,10
563376,12
563948,14
564528,13
565096,11
565680,11
566252,13
566828,15
567408,14
567980,12
568560,10
569140,11
569720,11
570292,10
570868,11
571448,11
572020,11
572600,10
573172,10
573752,11
574332,11
574912,11
575484,10
576060,11
576640,10
577208,11
577792,11
578364,15
578944,16
579516,12
580092,11
580672,11
581244,11
581824,11
582396,11
582976,11
583556,10
584136,11
584720,10
585292,11
585872,14
586444,13
587024,9
587544,10
588120,9
588640,10
589216,11
589784,11
590364,12
590944,10
591516,12
592096,11
592676,10
593256,10
593828,12
594404,11
594984,11
595556,10
596136,12
596708,13
597288,17
597868,24
598448,27
599028,23
599604,15
600184,13
600756,12
601336,14
601916,10
602496,11
603076,11
603652,10
604232,10
604804,10
605384,13
605956,12
606536,10
607116,13
607696,11
608280,11
608852,14
609432,15
610004,11
610584,12
611156,13
611740,14
612316,10
612892,10
613472,10
614048,12
614624,11
615200,12
615784,11
616356,10
616932,14
617512,20
618084,22
618664,14
619236,11
619816,10
620388,14
620968,18
621544,23
622124,25
622704,16
623276,14
623856,14
624436,11
625016,14
625596,16
626172,21
626752,22
627324,24
627904,20
628476,14
629056,12
629636,11
630216,11
630800,17
631372,18
631952,15
632528,11
633104,11
633684,10
634264,9
634784,10
635356,10
635936,10
636512,10
637088,11
637660,12
638240,14
638820,18
639400,19
639980,17
640556,13
641136,14
641704,14
642288,12
642856,14
643440,15
644008,12
644584,10
645168,11
645736,11
646320,12
646892,11
647472,10
648044,11
648624,16
649196,18
649772,11
650352,11
650924,16
651504,22
652076,18
652656,13
653228,10
653804,12
654384,14
654956,12
655536,11
656108,16
656688,13
657256,9
657780,15
658352,17
658928,16
659512,14
660080,11
660664,12
661232,11
661816,12
662384,16
662968,13
663540,11
664116,12
664696,12
665268,11
665848,11
666416,10
666992,11
667560,14
668136,12
668720,10
669288,14
669872,16
670444,15
671024,9
671544,12
672120,12
672688,12
673264,14
673848,12
674416,11
675000,10
675572,10
676152,12
676724,15
677304,10
677872,14
678452,18
679032,15
679604,10
680184,10
680752,11
681336,10
681904,10
682484,11
683064,15
683636,13
684216,11
684788,10
685368,12
685940,12
686520,11
687088,11
687668,13
688248,13
688816,13
689400,11
689972,10
690552,9
691072,10
691648,11
692232,11
692804,10
693384,11
693956,10
694536,9
695056,11
695632,9
696152,11
696728,12
697304,10
697884,14
698464,18
699032,14
699616,9
700136,12
700712,12
701292,11
701872,11
702444,12
703020,11
703600,14
704172,13
704752,11
705324,10
705904,11
706476,13
707052,11
707632,15
708204,27
708784,30
709356,25
709936,17
710508,11
711088,11
711660,18
712236,22
712816,16
713388,10
713968,16
714548,17
715128,14
715708,11
716284,10
716864,12
717436,15
718016,15
718588,12
719168,10
719740,12
720320,16
720888,13
721464,14
722048,13
722616,13
723200,13
723768,14
724352,15
724924,15
725496,16
726080,14
726652,14
727232,13
727804,13
728384,13
728956,10
729536,11
730120,13
730692,12
731272,11
731844,10
732424,12
732996,10
733576,13
734148,20
734724,18
735304,10
735876,14
736456,16
737028,12
737608,11
738184,11
738768,10
739344,11
739916,15
740496,18
741068,15
741648,9
742168,10
742744,14
743320,15
743900,11
744480,10
745052,11
745632,19
746204,18
746784,10
747356,11
747936,13
748516,13
749092,12
749672,11
750244,13
750824,12
751396,14
751976,14
752556,13
753132,12
753712,10
754284,11
754864,10
755436,10
756016,11
756596,11
757176,13
757756,11
758336,10
758912,11
759484,10
760064,11
760644,11
761224,10
761796,10
762372,11
762952,10
763524,11
764104,10
764676,10
765256,11
765836,10
766416,11
767000,11
767576,11
768156,13
768724,11
769304,10
769872,11
770456,10
771028,11
771604,15
772184,15
772756,13
773336,12
773916,13
774496,14
775072,16
775652,18
776232,16
776804,17
777384,15
777956,12
778536,11
779116,10
779696,11
780276,12
780852,15
781432,16
782004,13
782584,16
783156,21
783736,14
784316,11
784892,13
785472,10
786044,11
786624,11
787196,11
787780,10
788356,10
788936,11
789520,15
790092,22
790672,27
791244,24
791824,15
792404,13
792984,12
793556,13
794132,12
794712,10
795284,11
795864,10
796436,10
797016,11
797596,11
798172,10
798752,10
799324,10
799904,10
800480,12
801056,13
801628,14
802208,13
802780,16
803356,15
803936,12
804508,11
805088,11
805660,11
806240,10
806812,12
807384,13
807968,11
808540,10
809120,14
809692,17
810272,16
810844,11
811424,10
812004,10
812580,14
813160,14
813732,11
814312,10
814892,10
815472,9
815992,11
816572,11
817148,13
817724,13
818304,11
818876,10
819460,11
820032,13
820608,12
821176,11
821752,11
822336,11
822904,14
823488,17
824056,12
824640,11
825208,12
825784,15
826352,19
826928,16
827512,16
828084,12
828664,11
829236,11
829816,10
830384,13
830964,15
831544,16
832116,14
832696,16
833264,14
833848,10
834416,10
835000,13
835568,17
836144,19
836728,14
837300,10
837880,11
838452,10
839032,10
839604,11
840180,11
840760,11
841328,12
841912,11
842484,10
843064,10
843636,11
844216,11
844784,11
845364,11
845944,11
846516,11
847096,10
847668,11
848248,10
848816,10
849392,10
849976,10
850544,12
851128,11
851700,10
852280,9
852800,10
853376,10
853948,11
854524,11
855104,10
855676,11
856256,13
856828,13
857408,13
857980,14
858560,13
859128,11
859708,11
860288,14
860856,13
861440,12
862008,11
862592,10
863164,12
863740,14
864320,17
864892,13
865472,10
866040,11
866624,11
867192,11
867776,11
868360,10
868932,11
869512,10
870084,14
870664,13
871232,11
871816,9
872336,10
872912,11
873488,11
874060,10
874640,10
875212,11
875792,12
876364,14
876944,13
877516,12
878092,12
878672,11
879244,13
879824,11
880404,10
880984,11
881552,11
882132,11
882712,10
883284,10
883864,11
884432,10
885016,11
885588,11
886168,12
886740,11
887316,11
887896,10
888468,10
889048,10
889620,11
890200,11
890772,14
891348,13
891928,10
892500,10
893080,10
893652,10
894232,9
894752,9
895276,11
895852,11
896436,10
897008,11
897584,11
898168,10
898740,11
899320,10
899892,11
900472,12
901044,13
901620,14
902200,15
902772,17
903352,15
903924,11
904504,12
905076,10
905656,9
906176,11
906748,14
907328,14
907900,11
908480,10
909052,11
909632,9
910152,12
910728,9
911248,10
911824,11
912408,11
912980,11
913560,11
914132,10
914712,9
915232,11
915808,11
916380,12
916956,12
917536,10
918108,11
918688,10
919260,13
919840,12
920420,11
921000,11
921580,10
922156,10
922736,11
923308,15
923888,16
924460,12
925040,9
925560,11
926136,12
926708,10
927284,10
927864,10
928436,11
929016,13
929588,12
930168,11
930740,11
931316,14
931896,14
932468,12
933048,11
933620,11
934200,9
934720,10
935296,11
935868,10
936444,10
937024,11
937596,13
938176,11
938752,12
939328,14
939908,11
940488,12
941072,12
941644,13
942224,10
942796,10
943376,11
943956,10
944536,11
945116,10
945692,10
946272,11
946844,10
947424,10
948004,10
948584,11
949156,13
949732,11
950312,14
950888,12
951464,14
952036,12
952616,11
953196,10
953776,10
954356,10
954932,10
955512,11
956088,10
956664,10
957244,10
957824,11
958404,10
958980,10
959564,10
960136,10
960712,10
961284,14
961864,15
962436,11
963016,9
963536,10
964108,11
964688,12
965260,12
965840,13
966412,14
966992,12
967564,10
968144,11
968728,13
969300,12
969880,11
970452,11
971032,12
971604,11
972184,9
972704,10
973276,12
973856,11
974428,11
975008,10
975580,12
976160,15
976740,19
977320,19
977892,15
978468,11
979048,11
979620,10
980200,11
980772,13
981352,13
981932,10
982508,10
983088,10
983660,11
984240,12
984812,10
985392,9
985912,10
986488,10
987056,11
987636,12
988216,14
988788,12
989368,10
989940,10
990520,10
991092,10
991672,11
992252,11
992828,11
993408,11
993980,10
994560,11
995132,11
995712,11
996292,10
996868,10
997448,10
998020,15
998600,14
999172,15
999752,14
1000332,10
1000956,12
1001588,12
1002208,15
1002836,19
1003460,15
1004084,10
1004712,10
1005332,10
1005960,11
1006584,13
1007204,13
1007836,11
1008460,11
1009088,10
1009716,10
1010336,11
1010964,12
1011588,9
1012168,9
1012744,10
1013368,10
1013996,10
1014620,10
1015252,11
1015880,10
1016500,12
1017128,12
1017752,9
1018324,10
1018956,10
1019576,11
1020204,11
1020828,13
1021452,14
1022084,9
1022652,10
1023284,12
1023912,15
1024536,13
1025164,10
1025780,12
1026408,12
1027032,11
1027652,10
1028280,10
1028900,16
1029528,19
1030160,14
1030776,11
1031404,12
1032024,13
1032652,14
1033280,15
1033896,19
1034524,16
1035148,13
1035776,15
1036404,12
1037024,12
1037652,12
1038272,12
1038896,13
1039524,10
1040144,10
1040772,10
1041392,10
1042012,11
1042644,10
1043264,13
1043892,11
1044520,11
1045136,11
1045764,11
1046384,10
1047016,11
1047644,14
1048264,12
1048892,10
1049512,12
1050136,17
1050764,10
1051384,14
1052012,13
1052636,10
1053256,13
1053888,11
1054504,10
1055132,12
1055760,11
1056384,11
1057012,11
1057636,15
1058264,15
1058892,12
1059512,10
1060140,10
1060764,11
1061384,10
1062016,11
1062632,10
1063260,10
1063884,10
1064504,10
1065136,12
1065752,19
1066380,18
1067004,16
1067624,13
1068252,11
1068876,11
1069504,11
1070132,10
1070752,11
1071380,10
1072004,11
1072632,11
1073260,10
1073880,11
1074508,11
1075132,10
1075756,10
1076384,11
1077008,15
1077636,15
1078260,15
1078880,11
1079512,11
1080136,12
1080764,11
1081392,11
1082008,11
1082636,11
1083260,11
1083888,10
1084520,10
1085136,11
1085764,9
1086336,10
1086964,10
1087592,10
1088216,11
1088844,10
1089464,12
1090088,13
1090716,10
1091336,11
1091964,15
1092588,18
1093208,16
1093836,14
1094456,14
1095084,13
1095712,11
1096328,10
1096960,11
1097580,10
1098212,11
1098840,11
1099464,11
1100092,10
1100716,10
1101340,9
1101920,11
1102544,10
1103172,11
1103796,13
1104420,13
1105052,12
1105672,11
1106300,11
1106924,11
1107548,11
1108176,10
1108792,11
1109420,10
1110052,10
1110672,11
1111300,12
1111924,12
1112556,12
1113184,11
1113808,11
1114436,11
1115060,13
1115684,13
1116312,14
1116936,12
1117564,9
1118136,11
1118768,11
1119396,10
1120016,14
1120644,17
1121268,15
1121892,11
1122520,11
1123144,11
1123772,9
1124344,10
1124976,14
1125604,10
1126228,10
1126860,10
1127488,10
1128104,10
1128732,10
1129356,10
1129984,11
1130612,10
1131232,13
1131860,11
1132484,11
1133108,12
1133736,10
1134352,11
1134984,12
1135608,11
1136232,12
1136860,13
1137484,11
1138112,13
1138740,10
1139360,13
1139988,14
1140612,13
1141240,13
1141872,10
1142488,11
1143116,10
1143740,12
1144364,14
1144992,12
1145616,11
1146244,12
1146868,13
1147492,14
1148120,14
1148744,11
1149376,11
1150004,10
1150624,11
1151252,10
1151876,9
1152456,8
1153032,10
1153656,11
1154284,10
1154904,13
1155536,12
1156164,10
1156784,12
1157412,15
1158036,13
1158660,12
1159292,10
1159912,11
1160540,10
1161164,11
1161788,13
1162416,13
1163032,11
1163660,10
1164284,10
1164912,11
1165540,10
1166164,10
1166792,10
1167420,10
1168040,10
1168668,10
1169288,10
1169916,11
1170548,10
1171168,12
1171796,13
1172420,17
1173044,16
1173676,20
1174296,15
1174924,10
1175548,12
1176176,14
1176804,10
1177428,14
1178060,17
1178688,15
1179304,15
1179936,11
1180560,11
1181188,12
1181820,11
1182440,12
1183068,11
1183692,11
1184316,10
1184944,10
1185568,10
1186196,11
1186828,10
1187448,12
1188076,11
1188700,10
1189328,11
1189960,10
1190576,11
1191204,10
1191828,11
1192456,11
1193084,10
1193704,11
1194332,12
1194956,11
1195580,16
1196212,20
1196832,21
1197460,17
1198092,12
1198712,12
1199340,17
1199968,13
1200596,11
1201228,11
1201848,12
1202476,10
1203100,10
1203724,10
1204356,10
1204976,11
1205604,10
1206228,10
1206852,10
1207480,10
1208104,11
1208732,11
1209364,10
1209984,11
1210612,10
1211236,12
1211868,13
1212496,13
1213112,15
1213744,15
1214368,11
1214992,12
1215624,10
1216240,10
1216868,10
1217492,11
1218116,10
1218744,10
1219368,12
1219996,14
1220628,14
1221248,11
1221876,11
1222500,11
1223132,10
1223760,10
1224384,11
1225012,10
1225636,12
1226260,11
1226892,12
1227512,12
1228144,11
1228768,11
1229392,10
1230020,11
1230640,13
1231268,12
1231896,13
1232520,14
1233148,15
1233772,13
1234400,12
1235028,10
1235648,11
1236276,10
1236900,10
1237524,13
1238152,13
1238772,13
1239400,15
1240024,17
1240644,15
1241276,11
1241896,11
1242524,10
1243152,12
1243776,13
1244404,10
1245028,10
1245656,10
1246288,12
1246904,12
1247532,14
1248156,13
1248780,12
1249412,10
1250032,9
1250608,10
1251232,10
1251852,11
1252484,10
1253104,10
1253732,10
1254356,12
1254984,10
1255612,10
1256232,9
1256808,11
1257440,11
1258064,13
1258692,12
1259312,13
1259940,11
1260572,10
1261192,10
1261820,11
1262444,12
1263076,13
1263704,10
1264328,11
1264956,11
1265580,11
1266204,11
1266836,10
1267456,10
1268084,9
1268656,11
1269288,11
1269916,10
1270536,11
1271164,13
1271788,14
1272412,16
1273044,15
1273668,14
1274296,12
1274924,11
1275544,10
1276172,11
1276796,11
1277428,12
1278060,12
1278680,11
1279312,12
1279936,13
1280560,12
1281188,10
1281804,11
1282432,11
1283056,12
1283676,12
1284308,10
1284928,10
1285560,11
1286188,10
1286808,13
1287436,11
1288056,10
1288684,11
1289316,10
1289936,12
1290564,11
1291184,11
1291808,11
1292436,10
1293056,10
1293684,11
1294304,10
1294928,10
1295560,13
1296176,13
1296804,11
1297432,10
1298048,11
1298676,11
1299300,12
1299928,11
1300556,13
1301176,13
1301804,15
1302428,18
1303052,16
1303680,13
1304296,11
1304924,9
1305496,10
1306128,11
1306756,11
1307376,11
1308004,10
1308628,11
1309252,13
1309880,11
1310504,11
1311132,10
1311764,12
1312384,13
1313012,11
1313632,11
1314260,10
1314888,10
1315504,11
1316132,10
1316756,10
1317380,12
1318012,14
1318632,12
1319260,10
1319884,10
1320504,11
1321132,11
1321748,12
1322380,12
1323000,15
1323624,15
1324252,17
1324872,12
1325500,11
1326132,11
1326752,11
1327380,11
1328000,12
1328628,11
1329260,10
1329880,11
1330508,10
1331132,10
1331756,11
1332384,11
1333000,10
1333628,11
1334252,10
1334876,12
1335504,10
1336120,11
1336748,10
1337376,10
1338000,11
1338628,11
1339248,10
1339880,11
1340508,10
1341128,10
1341756,11
1342380,10
1343004,11
1343632,15
1344248,17
1344876,14
1345500,11
1346124,14
1346752,15
1347368,16
1347996,11
1348624,10
1349240,11
1349872,13
1350496,11
1351124,11
1351752,13
1352368,13
1352996,17
1353616,13
1354244,9
1354820,11
1355444,11
1356072,10
1356696,10
1357320,12
1357948,13
1358568,11
1359196,11
1359820,10
1360444,11
1361072,11
1361688,15
1362316,13
1362940,10
1363560,10
1364188,12
1364812,11
1365440,11
1366068,10
1366688,11
1367316,14
1367940,17
1368568,23
1369196,16
1369816,12
1370444,13
1371068,14
1371692,13
1372320,11
1372936,10
1373564,9
1374136,10
1374760,11
1375388,10
1376008,12
1376636,11
1377260,10
1377884,10
1378512,11
1379128,12
1379760,12
1380388,10
1381008,11
1381636,12
1382260,11
1382892,10
1383520,10
1384136,9
1384712,10
1385336,11
1385964,11
1386592,12
1387216,12
1387844,10
1388468,11
1389092,11
1389720,12
1390336,12
1390964,12
1391588,13
1392212,14
1392844,10
1393460,11
1394092,12
1394720,10
1395336,13
1395964,15
1396588,13
1397216,12
1397844,10
1398464,12
1399092,11
1399716,10
1400340,11
1400968,11
1401584,11
1402212,9
1402784,11
1403416,11
1404044,9
1404612,11
1405244,12
1405868,11
1406492,10
1407120,12
1407744,17
1408376,15
1408996,10
1409620,11
1410248,10
1410864,11
1411492,10
1412124,10
1412744,13
1413372,11
1413996,12
1414624,16
1415256,15
1415872,12
1416500,10
1417124,10
1417748,10
1418376,10
1418992,11
1419624,12
1420244,13
1420868,11
1421496,9
1422068,13
1422700,13
1423324,11
1423948,11
1424580,12
1425200,13
1425828,10
1426460,12
1427080,12
1427708,11
1428332,11
1428964,11
1429592,10
1430212,10
1430840,10
1431464,12
1432088,14
1432720,12
1433336,14
1433968,16
1434588,12
1435212,11
1435840,11
1436456,13
1437088,18
1437716,11
1438336,11
1438964,11
1439588,11
1440220,10
1440848,11
1441464,11
1442092,11
1442712,14
1443336,12
1443964,14
1444584,19
1445212,20
1445832,19
1446456,12
1447084,10
1447704,11
1448332,10
1448952,13
1449576,13
1450208,11
1450832,11
1451460,11
1452088,10
1452712,16
1453340,14
1453964,11
1454596,10
1455224,10
1455840,11
1456472,13
1457096,11
1457716,11
1458348,9
1458916,10
1459548,10
1460172,14
1460796,12
1461424,13
1462044,12
1462672,13
1463300,13
1463920,16
1464548,15
1465172,15
1465804,15
1466432,13
1467048,11
1467680,11
1468304,10
1468932,10
1469560,10
1470184,12
1470812,11
1471436,11
1472064,12
1472692,12
1473312,11
1473940,10
1474572,10
1475188,12
1475820,14
1476444,14
1477072,14
1477700,10
1478320,11
1478948,11
1479572,11
1480200,11
1480828,12
1481448,10
1482076,10
1482700,11
1483324,10
1483952,10
1484572,10
1485200,11
1485828,11
1486448,11
1487076,10
1487700,15
1488328,17
1488956,14
1489576,12
1490204,10
1490828,10
1491456,9
1492036,11
1492660,12
1493288,14
1493912,15
1494536,12
1495164,10
1495784,11
1496412,9
1496984,10
1497608,11
1498236,10
1498856,11
1499484,11
1500108,11
1500732,13
1501364,15
1501984,13
1502612,11
1503244,10
1503864,11
1504496,10
1505116,9
1505696,10
1506324,10
1506944,10
1507572,10
1508196,11
1508828,12
1509456,10
1510080,11
1510708,13
1511332,13
1511960,12
1512588,14
1513208,13
1513836,10
1514460,11
1515084,13
1515716,10
1516336,12
1516964,11
1517596,14
1518216,13
1518844,11
1519468,10
1520100,10
1520728,12
1521352,11
1521980,11
1522604,10
1523228,11
1523856,12
1524480,11
1525108,11
1525732,10
1526356,11
1526988,10
1527608,11
1528236,11
1528868,12
1529488,13
1530120,10
1530744,12
1531372,14
1532004,11
1532624,11
1533256,9
1533828,10
1534464,10
1535092,9
1535660,13
1536296,16
1536916,13
1537540,11
1538168,10
1538792,11
1539420,9
1539992,10
1540616,11
1541244,10
1541864,11
1542492,11
1543116,11
1543740,11
1544368,10
1544984,10
1545612,11
1546236,12
1546864,13
1547492,12
1548116,13
1548748,12
1549376,10
1550000,13
1550628,12
1551252,10
1551880,12
1552508,10
1553128,11
1553756,10
1554380,10
1555004,13
1555636,10
1556256,13
1556884,15
1557516,12
1558136,12
1558764,12
1559388,15
1560020,12
1560648,10
1561264,11
1561892,14
1562516,18
1563140,28
1563772,22
1564392,11
1565020,14
1565644,19
1566268,26
1566896,24
1567520,27
1568148,19
1568776,12
1569400,11
1570028,10
1570652,10
1571280,10
1571908,10
1572528,11
1573156,11
1573780,13
1574408,12
1575036,10
1575656,11
1576288,11
1576912,11
1577536,10
1578164,10
1578784,14
1579416,15
1580044,14
1580664,11
1581292,11
1581916,10
1582548,11
1583180,10
1583800,11
1584432,11
1585056,13
1585680,13
1586308,10
1586928,11
1587560,16
1588180,17
1588804,15
1589432,10
1590056,9
1590632,12
1591264,12
1591888,11
1592520,11
1593136,11
1593768,10
1594396,10
1595016,12
1595648,13
1596272,11
1596900,10
1597532,10
1598152,13
1598780,16
1599408,15
1600032,11
1600660,10
1601276,10
1601908,12
1602528,12
1603152,11
1603780,13
1604400,22
1605028,19
1605656,13
1606272,10
1606904,12
1607528,11
1608156,10
1608784,11
1609400,11
1610032,9
1610604,10
1611236,10
1611864,10
1612488,11
1613116,10
1613740,12
1614364,14
1614992,14
1615612,11
1616240,12
1616864,11
1617484,11
1618116,10
1618736,11
1619364,10
1619992,11
1620612,11
1621240,12
1621864,15
1622492,15
1623120,16
1623744,14
1624372,14
1624996,13
1625620,11
1626248,10
1626864,11
1627492,11
1628116,9
1628692,11
1629324,10
1629944,11
1630572,11
1631196,9
1631772,11
1632408,10
1633024,10
1633652,11
1634276,12
1634900,10
1635532,10
1636152,10
1636780,16
1637412,18
1638032,17
1638664,15
1639284,12
1639912,11
1640540,10
1641156,13
1641784,11
1642408,11
1643028,11
1643656,13
1644272,12
1644900,13
1645520,12
1646144,15
1646772,14
1647388,15
1648016,13
1648644,10
1649260,11
1649888,11
1650512,11
1651140,10
1651768,12
1652388,13
1653020,11
1653640,10
1654272,13
1654900,11
1655520,11
1656148,11
1656768,11
1657392,11
1658020,11
1658640,13
1659268,11
1659888,10
1660512,10
1661140,10
1661764,11
1662392,15
1663020,12
1663640,11
1664268,11
1664892,10
1665520,11
1666148,10
1666764,12
1667392,15
1668016,15
1668636,17
1669268,15
1669884,12
1670512,10
1671136,11
1671760,11
1672388,10
1673004,10
1673636,10
1674264,10
1674880,11
1675508,11
1676132,10
1676760,12
1677388,11
1678008,12
1678636,11
1679260,13
1679884,13
1680512,12
1681128,11
1681756,11
1682380,10
1683000,12
1683628,12
1684244,15
1684876,13
1685496,11
1686120,10
1686748,10
1687368,12
1688000,12
1688628,10
1689248,10
1689876,10
1690496,13
1691124,15
1691756,14
1692376,16
1693004,12
1693628,10
1694248,13
1694876,10
1695496,17
1696124,15
1696744,10
1697368,10
1697996,14
1698616,20
1699244,14
1699872,11
1700488,11
1701116,10
1701740,11
1702368,12
1702996,12
1703616,11
1704244,10
1704868,12
1705488,14
1706120,12
1706736,13
1707364,13
1707988,12
1708612,11
1709240,10
1709864,12
1710492,11
1711120,10
1711744,11
1712372,10
1712996,12
1713624,12
1714256,10
1714872,10
1715500,10
1716124,11
1716748,15
1717380,12
1718000,9
1718576,13
1719208,13
1719832,18
1720460,16
1721080,15
1721708,13
1722328,11
1722952,12
1723580,12
1724200,12
1724828,11
1725456,11
1726072,11
1726704,12
1727328,11
1727956,13
1728588,10
1729208,11
1729836,10
1730460,10
1731080,12
1731712,12
1732328,11
1732956,11
1733580,12
1734204,11
1734832,10
1735456,13
1736084,10
1736712,10
1737336,11
1737964,11
1738588,12
1739220,13
1739848,11
1740464,10
1741096,13
1741716,11
1742340,10
1742972,10
1743592,12
1744220,10
1744844,13
1745464,14
1746096,12
1746712,12
1747340,12
1747964,12
1748592,15
1749220,15
1749844,12
1750472,11
1751104,11
1751720,13
1752348,10
1752972,10
1753600,10
1754232,11
1754848,10
1755476,11
1756100,10
1756724,11
1757356,10
1757976,11
1758604,10
1759228,10
1759856,13
1760488,13
1761108,11
1761740,10
1762368,12
1762984,11
1763612,10
1764236,10
1764864,10
1765492,10
1766112,13
1766740,13
1767364,10
1767988,15
1768616,24
1769232,27
1769860,20
1770484,13
1771108,10
1771736,14
1772360,12
1772988,9
1773560,11
1774184,13
1774812,11
1775436,11
1776064,10
1776696,11
1777312,11
1777940,10
1778564,10
1779196,13
1779824,19
1780448,16
1781076,13
1781700,11
1782324,11
1782956,10
1783576,12
1784204,10
1784828,10
1785456,11
1786084,10
1786708,12
1787340,11
1787968,11
1788592,16
1789220,15
1789844,11
1790472,11
1791100,11
1791720,11
1792352,10
1792972,10
1793596,10
1794224,10
1794848,13
1795476,12
1796104,10
1796728,11
1797356,10
1797980,10
1798608,10
1799240,10
1799856,11
1800484,11
1801108,10
1801732,11
1802364,10
1802984,10
1803612,10
1804232,10
1804856,11
1805484,11
1806104,11
1806732,10
1807356,11
1807976,12
1808608,12
1809232,11
1809860,11
1810488,12
1811104,13
1811736,11
1812360,11
1812988,10
1813616,9
1814188,10
1814820,14
1815444,13
1816068,11
1816700,10
1817320,13
1817948,14
1818572,14
1819196,15
1819824,18
1820448,19
1821076,12
1821708,10
1822328,11
1822956,11
1823580,17
1824212,15
1824840,11
1825456,10
1826084,9
1826656,10
1827284,10
1827912,10
1828536,11
1829164,12
1829788,10
1830412,11
1831040,14
1831656,14
1832288,11
1832912,10
1833536,11
1834164,10
1834784,11
1835412,11
1836044,10
1836664,11
1837292,11
1837920,11
1838548,13
1839180,14
1839800,14
1840432,12
1841056,12
1841676,11
1842308,10
1842928,10
1843556,11
1844180,12
1844804,10
1845432,10
1846048,11
1846676,11
1847304,10
1847928,11
1848556,13
1849180,10
1849808,10
1850436,10
1851056,11
1851684,12
1852308,15
1852936,12
1853564,10
1854184,13
1854812,12
1855436,11
1856060,13
1856688,15
1857304,13
1857932,13
1858556,11
1859184,11
1859812,11
1860436,9
1861016,10
1861644,10
1862264,11
1862892,11
1863516,12
1864148,12
1864776,11
1865396,10
1866024,11
1866648,11
1867272,15
1867900,10
1868520,16
1869148,17
1869772,17
1870396,20
1871028,14
1871648,11
1872276,9
1872848,11
1873480,11
1874108,10
1874728,11
1875356,10
1875988,10
1876608,11
1877236,10
1877860,14
1878492,14
1879120,12
1879744,13
1880372,10
1880996,17
1881620,20
1882252,20
1882872,21
1883500,13
1884128,12
1884752,11
1885380,12
1886000,23
1886628,17
1887260,10
1887880,12
1888508,11
1889132,10
1889764,12
1890392,13
1891008,18
1891640,27
1892264,28
1892888,19
1893516,14
1894136,13
1894768,11
1895388,10
1896012,10
1896640,10
1897264,11
1897892,10
1898524,12
1899144,13
1899772,12
1900396,11
1901028,11
1901660,14
1902280,15
1902908,12
1903532,11
1904160,11
1904788,11
1905408,17
1906036,21
1906660,11
1907284,19
1907916,26
1908536,24
1909164,15
1909796,11
1910416,11
1911044,11
1911668,13
1912300,11
1912932,10
1913552,12
1914184,14
1914808,12
1915432,11
1916064,19
1916680,36
1917312,46
1917936,37
1918560,26
1919192,16
1919816,15
1920448,12
1921076,28
1921696,32
1922324,47
1922948,54
1923576,42
1924204,28
1924824,18
1925452,16
1926076,31
1926700,48
1927328,48
1927944,36
1928572,28
1929196,20
1929820,11
1930448,14
1931072,16
1931700,11
1932332,12
1932952,13
1933580,11
1934204,13
1934836,14
1935464,10
1936084,10
1936712,11
1937336,11
1937960,11
1938588,10
1939208,10
1939836,14
1940460,12
1941084,10
1941716,10
1942340,10
1942972,10
1943600,10
1944220,10
1944848,10
1945472,10
1946104,10
1946736,11
1947352,11
1947980,11
1948604,12
1949228,13
1949856,11
1950480,12
1951108,13
1951732,10
1952356,25
1952988,29
1953612,18
1954240,13
1954868,12
1955488,12
1956116,12
1956740,18
1957372,16
1958000,14
1958624,16
1959252,12
1959876,12
1960500,10
1961132,12
1961752,15
1962380,15
1963004,16
1963632,21
1964260,12
1964884,12
1965516,20
1966144,14
1966768,12
1967396,13
1968020,18
1968644,19
1969272,16
1969892,16
1970520,16
1971144,17
1971768,16
1972396,12
1973016,12
1973644,12
1974268,12
1974896,17
1975524,16
1976148,13
1976780,10
1977408,12
1978024,12
1978656,11
1979280,11
1979908,13
1980540,13
1981160,15
1981788,11
1982412,13
1983036,10
1983668,10
1984288,11
1984916,13
1985544,12
1986168,27
1986796,39
1987420,43
1988048,54
1988680,44
1989296,43
1989924,32
1990548,20
1991172,18
1991804,22
1992424,38
1993052,32
1993676,47
1994300,41
1994932,14
1995552,57
1996180,81
1996812,100
1997480,94
1998108,89
1998732,83
1999360,72
1999992,51
2000608,31
2001240,28
2001864,35
2002488,54
2003116,66
2003736,39
2004364,13
2004988,12
2005616,15
2006244,14
2006868,11
2007500,10
2008128,11
2008744,14
2009372,14
2009996,10
2010624,13
2011256,13
2011872,12
2012500,12
2013124,11
2013748,11
2014376,10
2015000,12
2015628,12
2016252,12
2016880,13
2017508,11
2018132,10
2018760,11
2019392,13
2020008,19
2020636,17
2021260,12
2021892,10
2022520,10
2023136,11
2023768,14
2024392,15
2025016,13
2025644,12
2026264,12
2026892,11
2027516,10
2028144,11
2028772,12
2029400,11
2030028,11
2030660,12
2031280,13
2031908,14
2032536,11
2033160,10
2033788,10
2034408,11
2035036,10
2035664,11
2036288,11
2036916,10
2037536,14
2038168,13
2038796,12
2039416,12
2040048,10
2040668,10
2041300,11
2041932,12
2042552,17
2043184,13
2043808,10
2044432,11
2045064,10
2045680,12
2046308,10
2046936,13
2047560,12
2048192,11
2048804,12
2049432,12
2050060,10
2050676,11
2051304,11
2051928,11
2052556,11
2053184,10
2053800,11
2054428,11
2055048,12
2055676,18
2056304,16
2056920,12
2057552,10
2058172,11
2058796,15
2059424,15
2060048,15
2060676,18
2061296,20
2061920,21
2062548,18
2063172,19
2063800,10
2064428,14
2065044,19
2065676,18
2066296,13
2066928,12
2067556,10
2068176,11
2068804,12
2069424,19
2070048,16
2070676,21
2071296,16
2071924,25
2072548,31
2073172,29
2073800,26
2074416,19
2075044,15
2075672,10
2076288,11
2076920,14
2077540,21
2078172,45
2078800,47
2079416,46
2080048,45
2080668,43
2081292,43
2081920,56
2082536,52
2083164,37
2083788,17
2084412,10
2085040,14
2085656,21
2086284,25
2086908,13
2087536,19
2088164,20
2088788,22
2089416,29
2090044,32
2090664,25
2091292,14
2091912,14
2092544,20
2093172,20
2093792,15
2094420,11
2095044,13
2095664,10
2096296,11
2096912,13
2097540,14
2098164,10
2098788,11
2099416,13
2100036,11
2100668,11
2101296,10
2101912,11
2102540,10
2103164,10
2103792,13
2104424,17
2105040,12
2105668,12
2106292,21
2106916,20
2107544,19
2108160,23
2108788,14
2109412,10
2110036,12
2110668,10
2111288,11
2111916,10
2112548,11
2113168,11
2113796,10
2114420,11
2115048,15
2115676,14
2116296,13
2116924,11
2117548,11
2118172,10
2118800,9
2119372,12
2120004,11
2120628,10
2121252,11
2121880,11
2122496,13
2123128,11
2123752,12
2124376,12
2125004,11
2125624,11
2126252,10
2126880,10
2127496,10
2128128,13
2128752,17
2129380,19
2130008,18
2130628,16
2131260,11
2131880,11
2132504,12
2133132,13
2133752,13
2134380,11
2135004,10
2135628,11
2136260,12
2136880,11
2137508,10
2138140,10
2138760,12
2139388,10
2140012,11
2140644,17
2141272,14
2141888,10
2142516,10
2143140,11
2143764,12
2144396,12
2145016,25
2145644,37
2146268,39
2146892,40
2147520,43
2148136,39
2148768,25
2149396,22
2150016,11
2150644,18
2151268,34
2151896,54
2152528,72
2153144,79
2153772,77
2154396,58
2155020,34
2155648,9
2156220,10
2156852,12
2157476,13
2158100,11
2158728,18
2159352,20
2159980,26
2160608,26
2161232,17
2161860,10
2162480,11
2163108,12
2163740,18
2164360,21
2164988,35
2165612,66
2166240,89
2166872,113
2167540,150
2168216,162
2168896,125
2169572,80
2170200,43
2170824,17
2171448,48
2172076,46
2172696,21
2173324,29
2173948,84
2174576,124
2175256,176
2175932,222
2176604,264
2177280,259
2177948,194
2178620,77
2179244,12
2179864,22
2180492,22
2181116,25
2181740,16
2182368,29
2182992,45
2183620,28
2184252,22
2184872,17
2185500,10
2186124,13
2186756,15
2187384,17
2188004,16
2188632,10
2189256,13
2189880,12
2190508,14
2191128,18
2191756,15
2192380,14
2193008,13
2193636,11
2194260,11
2194888,13
2195520,12
2196136,12
2196764,11
2197388,12
2198020,19
2198648,19
2199272,13
2199900,10
2200528,11
2201152,11
2201780,10
2202400,10
2203028,10
2203656,11
2204276,12
2204904,11
2205528,10
2206156,10
2206788,10
2207408,13
2208036,18
2208660,22
2209284,16
2209916,10
2210536,12
2211168,12
2211792,15
2212416,13
2213044,14
2213664,12
2214292,11
2214924,10
2215544,11
2216172,11
2216796,10
2217428,11
2218056,11
2218676,13
2219304,14
2219928,17
2220552,18
2221180,18
2221800,17
2222428,13
2223052,10
2223676,11
2224308,10
2224928,14
2225556,13
2226188,10
2226808,11
2227436,10
2228060,11
2228692,11
2229320,14
2229944,11
2230572,10
2231196,11
2231824,13
2232456,11
2233072,11
2233700,9
2234272,10
2234904,11
2235532,10
2236152,15
2236784,23
2237408,25
2238032,21
2238664,14
2239280,11
2239912,24
2240544,44
2241160,40
2241788,22
2242412,22
2243040,31
2243672,31
2244288,17
2244916,10
2245540,10
2246164,17
2246796,18
2247416,17
2248044,29
2248668,42
2249292,39
2249924,20
2250544,10
2251172,24
2251804,27
2252424,36
2253056,36
2253676,24
2254304,18
2254936,25
2255552,28
2256180,14
2256804,19
2257428,21
2258056,28
2258672,64
2259304,72
2259928,88
2260548,64
2261180,46
2261800,36
2262428,17
2263056,21
2263680,29
2264308,14
2264932,15
2265560,26
2266192,16
2266812,14
2267440,30
2268064,41
2268688,44
2269316,10
2269936,12
2270564,19
2271188,21
2271816,25
2272448,50
2273064,81
2273692,93
2274324,78
2274944,46
2275572,25
2276196,11
2276828,19
2277456,20
2278080,22
2278708,12
2279332,13
2279956,15
2280588,14
2281208,18
2281836,18
2282460,15
2283084,11
2283716,11
2284336,13
2284964,12
2285596,11
2286216,13
2286844,12
2287468,12
2288100,11
2288728,10
2289352,12
2289980,11
2290604,13
2291232,13
2291860,11
2292480,12
2293108,10
2293736,12
2294360,14
2294988,14
2295608,15
2296236,15
2296868,11
2297488,11
2298116,11
2298740,13
2299372,15
2300000,14
2300620,12
2301248,10
2301872,10
2302496,11
2303128,12
2303748,11
2304380,10
2305000,11
2305624,13
2306252,10
2306872,12
2307500,11
2308128,12
2308752,15
2309380,16
2310004,13
2310636,12
2311264,11
2311880,10
2312512,11
2313136,12
2313760,15
2314388,16
2315008,13
2315636,11
2316260,13
2316884,11
2317512,10
2318136,11
2318764,10
2319396,10
2320016,10
2320644,10
2321268,11
2321896,13
2322524,16
2323144,18
2323772,15
2324396,15
2325020,12
2325652,12
2326272,13
2326900,11
2327524,11
2328148,10
2328780,10
2329400,11
2330032,11
2330660,14
2331280,15
2331908,11
2332532,10
2333164,11
2333792,10
2334416,11
2335044,10
2335668,10
2336292,10
2336924,10
2337544,10
2338172,11
2338796,13
2339420,12
2340052,13
2340676,12
2341304,11
2341932,10
2342552,12
2343180,9
2343752,11
2344388,11
2345020,10
2345640,12
2346268,11
2346892,14
2347524,12
2348152,13
2348772,12
2349400,12
2350028,10
2350652,10
2351280,10
2351904,11
2352536,13
2353164,11
2353784,11
2354416,13
2355040,16
2355672,17
2356300,16
2356920,15
2357548,15
2358172,11
2358796,10
2359428,11
2360048,16
2360676,17
2361300,13
2361924,10
2362556,11
2363176,13
2363808,11
2364436,12
2365056,11
2365688,11
2366312,11
2366940,10
2367572,13
2368192,17
2368820,26
2369444,13
2370068,10
2370696,10
2371320,10
2371948,12
2372572,23
2373200,43
2373828,34
2374448,14
2375076,23
2375708,36
2376328,42
2376956,24
2377580,11
2378212,19
2378840,34
2379464,37
2380096,32
2380720,32
2381344,18
2381972,17
2382592,20
2383220,11
2383844,12
2384472,11
2385100,29
2385720,53
2386348,73
2386980,92
2387600,87
2388228,61
2388852,53
2389484,18
2390112,50
2390736,78
2391368,89
2391992,111
2392668,110
2393348,116
2394020,126
2394692,90
2395320,50
2395936,25
2396568,11
2397200,13
2397816,12
2398448,12
2399072,13
2399704,13
2400336,18
2400952,19
2401580,21
2402204,21
2402828,13
2403460,10
2404080,12
2404708,12
2405332,11
2405956,11
2406588,12
2407208,14
2407836,13
2408464,13
2409088,13
2409716,11
2410340,11
2410972,14
2411600,12
2412220,12
2412848,11
2413472,10
2414096,11
2414724,10
2415344,13
2415976,12
2416600,12
2417224,11
2417852,10
2418472,11
2419100,12
2419732,13
2420352,14
2420980,13
2421604,13
2422236,12
2422868,10
2423488,12
2424116,13
2424740,11
2425368,15
2425996,14
2426616,13
2427244,13
2427868,11
2428492,10
2429124,10
2429744,11
2430376,10
2431004,10
2431624,11
2432256,14
2432880,11
2433508,11
2434140,14
2434760,12
2435388,10
2436012,10
2436636,10
2437268,14
2437888,16
2438516,11
2439140,10
2439764,11
2440396,10
2441016,12
2441644,11
2442276,10
2442896,15
2443524,15
2444148,13
2444780,14
2445412,14
2446032,13
2446664,13
2447288,16
2447912,16
2448544,18
2449160,15
2449788,11
2450416,15
2451040,12
2451668,11
2452296,11
2452924,11
2453556,11
2454176,11
2454808,11
2455432,11
2456064,11
2456692,10
2457312,11
2457944,10
2458564,10
2459188,10
2459816,10
2460440,12
2461068,12
2461692,10
2462320,12
2462948,11
2463572,10
2464204,11
2464832,19
2465448,17
2466076,16
2466700,13
2467328,12
2467956,10
2468576,11
2469204,19
2469828,25
2470452,18
2471080,11
2471696,11
2472328,15
2472948,15
2473576,20
2474204,17
2474828,10
2475460,11
2476088,10
2476712,12
2477344,16
2477968,19
2478596,26
2479228,26
2479848,41
2480476,40
2481100,32
2481724,20
2482356,24
2482976,25
2483604,12
2484236,46
2484856,56
2485484,55
2486108,51
2486736,68
2487368,80
2487984,67
2488616,53
2489236,35
2489864,19
2490492,12
2491112,11
2491740,12
2492368,11
2492992,13
2493620,10
2494240,11
2494868,10
2495500,12
2496120,18
2496748,11
2497372,10
2498000,12
2498632,10
2499248,10
2499876,11
2500500,11
2501124,10
2501756,10
2502376,11
2503008,16
2503632,15
2504256,11
2504884,11
2505504,14
2506136,12
2506764,10
2507384,11
2508012,14
2508640,16
2509268,11
2509900,10
2510520,14
2511148,13
2511772,13
2512400,13
2513028,10
2513648,17
2514276,23
2514900,27
2515524,21
2516156,12
2516776,10
2517408,11
2518036,16
2518656,25
2519288,29
2519908,26
2520540,26
2521172,22
2521792,11
2522420,18
2523044,16
2523668,10
2524300,10
2524920,11
2525548,11
2526172,16
2526800,12
2527428,10
2528048,11
2528676,11
2529308,10
2529928,11
2530556,11
2531184,12
2531812,14
2532444,21
2533064,24
2533696,18
2534320,11
2534944,10
2535572,15
2536192,16
2536824,13
2537448,15
2538072,18
2538704,10
2539320,11
2539952,10
2540584,10
2541204,10
2541832,12
2542456,15
2543084,11
2543716,10
2544336,11
2544964,11
2545588,10
2546216,11
2546844,10
2547464,13
2548092,11
2548720,11
2549344,15
2549972,15
2550600,12
2551228,24
2551860,26
2552480,24
2553108,18
2553736,22
2554364,27
2554996,21
2555616,15
2556248,12
2556872,22
2557496,17
2558128,10
2558748,10
2559376,13
2560012,10
2560628,10
2561256,11
2561876,11
2562508,10
2563136,11
2563752,15
2564380,11
2565004,11
2565632,11
2566260,10
2566880,11
2567508,13
2568132,14
2568752,11
2569380,12
2570000,14
2570628,11
2571252,10
2571872,9
2572452,10
2573080,11
2573708,10
2574332,12
2574960,16
2575588,25
2576212,27
2576840,22
2577468,21
2578088,17
2578716,16
2579340,16
2579968,15
2580600,16
2581216,13
2581844,10
2582468,10
2583088,10
2583720,10
2584336,12
2584964,12
2585588,10
2586212,10
2586840,10
2587464,13
2588092,29
2588720,24
2589344,11
2589972,16
2590596,17
2591228,13
2591856,14
2592476,17
2593104,13
2593728,15
2594352,14
2594980,10
2595600,11
2596228,10
2596852,11
2597476,10
2598104,10
2598728,11
2599356,11
2599988,10
2600608,11
2601236,10
2601860,10
2602492,11
2603120,11
2603736,13
2604368,17
2604992,17
2605616,17
2606244,12
2606864,11
2607492,11
2608116,11
2608740,10
2609372,10
2609996,10
2610624,11
2611252,10
2611872,24
2612500,43
2613124,44
2613752,39
2614384,24
2615000,22
2615628,15
2616252,14
2616880,14
2617508,19
2618128,17
2618756,20
2619380,47
2620004,60
2620636,50
2621260,52
2621892,57
2622520,46
2623144,30
2623772,17
2624396,14
2625024,14
2625652,12
2626268,10
2626900,10
2627520,10
2628140,11
2628772,16
2629392,13
2630020,12
2630644,11
2631264,11
2631896,10
2632516,12
2633148,13
2633776,11
2634392,13
2635020,14
2635644,18
2636272,14
2636904,11
2637520,16
2638148,16
2638772,15
2639396,14
2640024,11
2640640,11
2641268,11
2641892,10
2642516,11
2643144,14
2643760,14
2644388,11
2645016,10
2645640,11
2646268,11
2646892,11
2647520,11
2648148,11
2648768,12
2649396,10
2650020,13
2650644,12
2651272,11
2651888,12
2652516,11
2653140,13
2653764,13
2654392,14
2655012,15
2655640,10
2656268,11
2656888,13
2657516,10
2658140,10
2658768,11
2659396,10
2660016,13
2660644,13
2661268,10
2661892,13
2662524,13
2663140,17
2663768,13
2664392,11
2665012,13
2665644,10
2666260,11
2666888,13
2667512,15
2668136,17
2668764,12
2669388,12
2670016,15
2670644,12
2671264,13
2671892,11
2672516,10
2673144,11
2673776,12
2674392,11
2675020,10
2675644,11
2676268,18
2676896,22
2677512,19
2678140,13
2678764,10
2679388,10
2680016,10
2680640,11
2681268,10
2681896,10
2682520,11
2683148,11
2683772,10
2684400,10
2685028,11
2685648,12
2686276,10
2686900,12
2687524,13
2688152,13
2688772,10
2689400,11
2690024,11
2690644,12
2691276,21
2691896,21
2692524,19
2693152,20
2693768,12
2694396,11
2695020,11
2695652,10
2696280,12
2696904,11
2697532,10
2698156,12
2698780,15
2699408,17
2700032,18
2700660,14
2701284,13
2701908,11
2702540,10
2703160,16
2703788,17
2704420,13
2705040,12
2705668,11
2706292,11
2706920,13
2707548,14
2708168,16
2708796,10
2709420,15
2710044,20
2710672,18
2711296,13
2711924,10
2712548,9
2713120,10
2713756,10
2714376,11
2715004,10
2715628,10
2716252,11
2716880,11
2717496,11
2718124,13
2718756,10
2719376,13
2720004,15
2720628,31
2721256,29
2721884,18
2722504,17
2723132,20
2723756,16
2724380,11
2725008,11
2725624,13
2726256,13
2726876,11
2727500,9
2728080,11
2728700,14
2729332,11
2729956,10
2730576,10
2731208,10
2731824,12
2732452,12
2733084,12
2733704,11
2734332,11
2734956,17
2735588,19
2736216,16
2736832,11
2737464,11
2738088,13
2738708,13
2739340,12
2739960,11
2740588,11
2741212,11
2741836,11
2742464,10
2743084,10
2743712,11
2744340,10
2744960,12
2745588,14
2746212,15
2746840,16
2747472,15
2748088,16
2748720,11
2749344,11
2749968,11
2750596,10
2751216,11
2751844,11
2752472,10
2753092,14
2753724,13
2754344,11
2754972,11
2755604,12
2756224,11
2756852,15
2757476,15
2758108,11
2758736,10
2759356,10
2759984,11
2760608,11
2761232,11
2761860,13
2762480,15
2763108,14
2763732,18
2764360,21
2764988,16
2765608,11
2766236,12
2766864,12
2767484,14
2768112,13
2768736,11
2769364,13
2769992,11
2770608,12
2771240,19
2771864,13
2772484,11
2773116,22
2773736,23
2774368,17
2774992,11
2775616,11
2776244,10
2776864,15
2777492,17
2778124,14
2778744,13
2779372,12
2779996,12
2780628,11
2781260,12
2781880,12
2782508,11
2783136,11
2783760,12
2784392,10
2785008,11
2785636,13
2786260,10
2786884,10
2787512,11
2788132,12
2788760,13
2789388,12
2790008,14
2790636,15
2791260,14
2791892,11
2792520,11
2793136,11
2793768,12
2794392,14
2795016,15
2795644,11
2796264,11
2796892,12
2797516,11
2798140,11
2798772,16
2799392,15
2800020,15
2800652,11
2801272,11
2801900,11
2802524,15
2803156,14
2803784,13
2804408,12
2805036,11
2805660,11
2806284,14
2806916,14
2807536,11
2808164,12
2808788,11
2809412,11
2810044,10
2810664,11
2811292,12
2811924,10
2812544,12
2813172,11
2813800,12
2814428,10
2815060,11
2815680,13
2816312,15
2816932,13
2817556,10
2818184,10
2818808,15
2819436,14
2820060,13
2820684,16
2821312,13
2821928,11
2822560,10
2823188,10
2823808,11
2824436,11
2825060,11
2825688,10
2826320,10
2826936,13
2827564,17
2828188,17
2828812,17
2829440,10
2830056,11
2830684,10
2831308,13
2831932,17
2832564,18
2833184,21
2833812,19
2834444,12
2835064,14
2835692,20
2836316,15
2836948,10
2837576,12
2838200,14
2838828,10
2839452,11
2840076,17
2840708,14
2841328,14
2841956,11
2842580,11
2843204,10
2843832,12
2844456,13
2845084,13
2845716,12
2846336,13
2846968,15
2847588,13
2848220,13
2848848,10
2849472,14
2850100,13
2850724,11
2851348,10
2851976,11
2852600,15
2853228,11
2853852,15
2854476,16
2855108,10
2855728,11
2856356,10
2856988,10
2857608,11
2858236,11
2858860,12
2859492,12
2860124,13
2860744,11
2861376,11
2862000,11
2862624,11
2863256,10
2863872,13
2864504,15
2865128,16
2865752,12
2866384,10
2867000,10
2867632,10
2868260,10
2868880,11
2869508,10
2870132,10
2870760,11
2871388,10
2872008,13
2872636,16
2873260,15
2873884,14
2874512,13
2875136,12
2875764,10
2876388,11
2877012,10
2877644,10
2878264,11
2878892,11
2879524,10
2880144,11
2880772,10
2881392,10
2882024,12
2882652,12
2883272,11
2883900,11
2884520,11
2885144,11
2885772,10
2886392,10
2887020,10
2887644,11
2888268,15
2888896,14
2889520,11
2890148,10
2890776,10
2891400,10
2892028,10
2892652,10
2893280,11
2893912,10
2894528,11
2895156,14
2895780,11
2896404,10
2897032,12
2897656,12
2898284,10
2898908,10
2899532,10
2900160,10
2900776,10
2901408,10
2902036,12
2902656,13
2903284,11
2903908,10
2904540,10
2905168,11
2905792,13
2906420,14
2907044,13
2907668,11
2908300,12
2908920,12
2909548,11
2910172,15
2910796,12
2911428,10
2912048,11
2912676,10
2913304,10
2913928,11
2914556,10
2915180,11
2915812,12
2916444,12
2917064,14
2917696,12
2918320,11
2918944,10
2919572,10
2920192,11
2920820,12
2921444,12
2922068,11
2922696,10
2923320,12
2923948,12
2924580,10
2925200,11
2925828,10
2926452,10
2927084,10
2927712,10
2928336,11
2928964,12
2929588,12
2930212,11
2930844,10
2931464,11
2932092,11
2932716,17
2933340,20
2933972,13
2934596,10
2935228,10
2935856,10
2936480,11
2937108,15
2937732,13
2938364,13
2938996,14
2939616,14
2940244,11
2940868,10
2941496,10
2942124,10
2942744,11
2943376,12
2944004,10
2944620,11
2945252,11
2945876,11
2946508,12
2947136,14
2947756,12
2948384,12
2949012,11
2949640,11
2950268,10
2950888,12
2951516,11
2952140,10
2952764,11
2953392,10
2954016,11
2954644,11
2955276,10
2955896,11
2956524,9
2957096,12
2957732,11
2958364,10
2958984,11
2959612,10
2960236,11
2960868,10
2961496,11
2962116,12
2962744,12
2963368,11
2963992,12
2964620,14
2965240,16
2965868,15
2966492,15
2967116,13
2967748,10
2968368,11
2968996,10
2969628,10
2970244,10
2970876,10
2971500,10
2972128,13
2972756,12
2973376,10
2974004,10
2974628,11
2975252,11
2975884,12
2976504,11
2977132,10
2977756,10
2978380,9
2978960,11
2979584,13
2980212,17
2980836,15
2981460,10
2982088,10
2982712,11
2983340,10
2983972,10
2984592,11
2985220,9
2985792,12
2986428,13
2987060,13
2987680,14
2988308,13
2988932,10
2989564,11
2990192,10
2990816,12
2991444,11
2992068,10
2992692,11
2993320,10
2993944,11
2994572,11
2995196,11
2995824,13
2996456,11
2997080,12
2997708,13
2998340,16
2998960,16
2999588,14
3000216,11
3000840,13
3001468,16
3002088,15
3002716,12
3003344,11
3003968,11
3004596,10
3005216,11
3005848,11
3006476,10
3007096,11
3007728,10
3008352,11
3008980,12
3009612,12
3010232,13
3010864,16
3011488,18
3012112,13
3012740,10
3013360,10
3013988,11
3014616,11
3015240,11
3015868,11
3016488,14
3017116,15
3017748,16
3018368,10
3019000,13
3019624,13
3020256,12
3020884,10
3021504,11
3022132,11
3022756,11
3023384,10
3024012,11
3024632,13
3025260,14
3025888,15
3026512,12
3027144,12
3027760,12
3028392,11
3029024,10
3029640,12
3030272,14
3030896,14
3031528,11
3032160,10
3032776,11
3033408,15
3034032,21
3034656,19
3035284,13
3035904,13
3036536,11
3037160,11
3037784,12
3038416,10
3039032,11
3039664,11
3040296,10
3040912,11
3041540,11
3042168,11
3042796,14
3043428,14
3044048,13
3044676,12
3045300,12
3045924,14
3046556,10
3047176,12
3047804,14
3048432,15
3049056,15
3049684,12
3050308,10
3050940,11
3051568,12
3052192,15
3052820,14
3053444,10
3054076,12
3054708,16
3055328,15
3055960,14
3056584,12
3057208,11
3057836,10
3058456,11
3059088,11
3059716,10
3060336,10
3060968,10
3061592,11
3062224,13
3062852,11
3063472,13
3064104,10
3064728,11
3065352,14
3065984,11
3066600,10
3067232,11
3067856,11
3068480,11
3069112,11
3069732,11
3070360,13
3070996,14
3071616,16
3072252,11
3072872,10
3073504,11
3074132,12
3074752,12
3075380,10
3076004,10
3076628,11
3077256,12
3077872,11
3078504,11
3079128,11
3079752,11
3080380,10
3081000,13
3081628,10
3082256,10
3082880,11
3083508,12
3084132,11
3084764,11
3085392,13
3086016,13
3086644,14
3087268,15
3087892,13
3088524,13
3089144,11
3089772,11
3090396,10
3091020,11
3091652,10
3092272,11
3092900,11
3093532,10
3094152,11
3094780,11
3095408,11
3096036,11
3096668,11
3097288,11
3097916,11
3098540,11
3099164,11
3099796,10
3100416,12
3101044,12
3101672,12
3102296,9
3102876,10
3103500,11
3104132,11
3104752,11
3105380,13
3106008,14
3106632,13
3107260,14
3107892,12
3108512,11
3109140,10
3109768,11
3110396,11
3111028,10
3111648,11
3112280,10
3112904,11
3113528,11
3114156,10
3114776,13
3115408,14
3116036,10
3116656,11
3117288,11
3117912,10
3118540,10
3119172,10
3119792,11
3120424,13
3121048,12
3121672,11
3122300,10
3122920,11
3123552,11
3124172,13
3124796,11
3125428,10
3126048,12
3126676,13
3127308,12
3127928,13
3128560,13
3129184,16
3129812,15
3130444,12
3131064,11
3131692,12
3132320,11
3132944,11
3133572,12
3134192,12
3134824,11
3135448,10
3136072,11
3136700,10
3137320,11
3137948,10
3138580,12
3139200,13
3139828,10
3140452,11
3141084,11
3141716,10
3142336,11
3142968,15
3143592,16
3144216,11
3144844,12
3145464,11
3146096,10
3146720,13
3147344,15
3147972,15
3148592,13
3149224,12
3149856,10
3150472,10
3151104,10
3151728,10
3152360,10
3152988,10
3153608,11
3154236,11
3154864,12
3155488,11
3156116,9
3156684,9
3157264,10
3157896,11
3158528,11
3159156,10
3159776,11
3160408,11
3161032,11
3161656,11
3162284,9
3162852,9
3163436,10
3164064,10
3164688,10
3165320,10
3165936,10
3166568,12
3167192,15
3167816,14
3168448,14
3169072,14
3169704,15
3170332,12
3170952,12
3171584,11
3172208,11
3172840,11
3173468,10
3174088,12
3174720,11
3175344,11
3175968,12
3176600,13
3177216,13
3177848,12
3178472,11
3179096,13
3179728,15
3180344,13
3180976,14
3181604,10
3182224,11
3182856,11
3183480,13
3184112,13
3184740,10
3185360,11
3185992,11
3186616,13
3187240,17
3187868,14
3188488,14
3189116,12
3189744,14
3190368,11
3191000,12
3191624,11
3192256,12
3192888,11
3193508,11
3194140,14
3194764,15
3195396,13
3196028,12
3196648,14
3197280,13
3197904,13
3198528,14
3199160,11
3199780,12
3200412,11
3201040,10
3201656,11
3202284,10
3202908,11
3203536,11
3204164,11
3204784,11
3205412,10
3206036,12
3206660,11
3207292,10
3207912,11
3208540,10
3209164,10
3209788,10
3210416,11
3211032,11
3211664,13
3212292,12
3212912,11
3213540,10
3214164,10
3214796,10
3215424,10
3216040,11
3216672,11
3217292,13
3217924,13
3218552,10
3219168,10
3219800,13
3220424,15
3221048,15
3221676,10
3222296,13
3222924,13
3223552,10
3224176,16
3224804,21
3225428,21
3226060,24
3226688,23
3227312,20
3227940,13
3228564,11
3229188,13
3229820,12
3230440,12
3231068,12
3231692,11
3232316,11
3232948,10
3233568,13
3234196,11
3234828,10
3235448,11
3236076,12
3236700,9
3237280,10
3237908,10
3238528,11
3239156,14
3239780,13
3240412,14
3241040,12
3241656,12
3242288,11
3242912,12
3243532,12
3244164,11
3244784,12
3245416,11
3246040,11
3246664,11
3247292,10
3247912,11
3248544,9
3249116,11
3249744,12
3250372,10
3250992,11
3251624,11
3252252,12
3252872,21
3253500,20
3254124,20
3254756,18
3255388,16
3256008,13
3256636,10
3257260,10
3257888,12
3258516,10
3259136,12
3259768,10
3260392,12
3261016,13
3261648,13
3262264,12
3262896,11
3263524,10
3264144,11
3264772,11
3265396,10
3266028,10
3266660,10
3267280,11
3267908,10
3268532,11
3269156,12
3269788,10
3270408,11
3271036,10
3271664,10
3272288,11
3272916,12
3273544,13
3274176,11
3274804,11
3275424,10
3276056,11
3276680,12
3277312,21
3277940,19
3278560,18
3279188,17
3279808,17
3280432,14
3281060,10
3281676,11
3282304,11
3282928,13
3283548,13
3284176,10
3284796,10
3285428,11
3286056,13
3286672,14
3287300,11
3287924,11
3288552,11
3289180,13
3289800,13
3290428,11
3291048,11
3291672,11
3292300,10
3292920,10
3293548,11
3294168,11
3294792,12
3295420,14
3296040,15
3296668,12
3297296,10
3297912,10
3298540,11
3299164,16
3299792,19
3300420,22
3301040,23
3301668,18
3302292,21
3302920,16
3303548,10
3304168,11
3304796,9
3305368,11
3305992,16
3306620,16
3307240,19
3307868,19
3308492,22
3309112,12
3309744,11
3310360,14
3310988,13
3311612,12
3312240,11
3312868,10
3313492,10
3314120,11
3314752,11
3315372,11
3316000,11
3316624,11
3317252,10
3317884,11
3318504,11
3319132,10
3319756,10
3320380,10
3321008,12
3321624,12
3322252,13
3322876,11
3323504,11
3324132,11
3324756,19
3325388,28
3326016,31
3326640,27
3327268,19
3327892,13
3328520,13
3329148,13
3329764,14
3330392,11
3331016,10
3331640,11
3332268,10
3332888,11
3333516,11
3334140,12
3334760,11
3335392,11
3336012,11
3336644,11
3337272,11
3337888,13
3338516,13
3339140,12
3339768,10
3340400,12
3341016,19
3341644,15
3342268,16
3342888,19
3343520,24
3344136,21
3344764,11
3345388,12
3346012,13
3346640,11
3347256,10
3347888,11
3348516,12
3349136,16
3349764,16
3350388,10
3351016,13
3351648,11
3352268,11
3352896,11
3353520,11
3354144,19
3354772,23
3355392,23
3356020,25
3356644,14
3357268,31
3357900,36
3358520,31
3359152,27
3359780,20
3360400,11
3361028,12
3361652,20
3362280,24
3362908,33
3363528,39
3364156,57
3364780,74
3365404,58
3366032,44
3366648,21
3367276,13
3367900,11
3368524,19
3369152,23
3369768,30
3370396,31
3371024,34
3371648,43
3372276,110
3372952,139
3373624,132
3374304,124
3374980,94
3375604,63
3376236,30
3376856,23
3377484,19
3378108,11
3378732,17
3379360,40
3379980,55
3380612,41
3381236,34
3381856,45
3382484,57
3383108,55
3383736,43
3384364,35
3384984,46
3385612,37
3386232,25
3386864,13
3387492,12
3388112,23
3388740,29
3389364,32
3389988,14
3390620,52
3391240,25
3391868,25
3392496,35
3393116,12
3393748,19
3394368,11
3395000,20
3395628,13
3396248,40
3396876,77
3397500,91
3398128,51
3398760,11
3399376,20
3400004,12
3400628,28
3401252,21
3401880,12
3402496,28
3403124,52
3403748,16
3404372,12
3405004,42
3405624,43
3406252,50
3406880,54
3407496,109
3408180,112
3408852,48
3409472,12
3410100,36
3410720,55
3411348,52
3411980,33
3412600,17
3413228,37
3413852,48
3414484,48
3415112,34
3415728,56
3416360,61
3416984,75
3417608,69
3418236,86
3418856,107
3419536,102
3420216,69
3420840,25
3421468,25
3422092,27
3422720,11
3423348,28
3423968,20
3424600,35
3425224,37
3425848,31
3426476,18
3427096,22
3427728,27
3428352,25
3428976,29
3429604,33
3430228,22
3430860,27
3431492,24
3432112,20
3432740,20
3433364,20
3433992,27
3434620,26
3435240,47
3435868,94
3436492,87
3437116,73
3437748,47
3438368,43
3439000,29
3439628,16
3440248,16
3440876,30
3441500,33
3442128,14
3442760,12
3443376,18
3444004,11
3444628,12
3445252,13
3445884,15
3446504,31
3447132,85
3447756,144
3448432,146
3449108,116
3449780,94
3450400,105
3451080,107
3451748,77
3452376,55
3453004,22
3453624,11
3454252,15
3454876,19
3455504,10
3456132,60
3456752,84
3457380,62
3458004,44
3458624,30
3459256,11
3459872,19
3460500,51
3461132,14
3461752,15
3462380,13
3463004,19
3463636,27
3464264,37
3464888,51
3465516,57
3466140,72
3466764,103
3467448,87
3468064,41
3468692,11
3469324,34
3469944,45
3470572,51
3471196,66
3471828,63
3472460,66
3473080,64
3473708,65
3474332,65
3474960,47
3475588,26
3476208,18
3476836,41
3477460,27
3478084,23
3478716,23
3479336,21
3479968,31
3480600,38
3481216,25
3481848,27
3482468,24
3483100,15
3483728,10
3484344,11
3484976,13
3485596,13
3486220,13
3486852,32
3487472,46
3488100,43
3488724,41
3489348,32
3489976,20
3490592,22
3491224,49
3491852,48
3492472,50
3493100,38
3493724,12
3494356,31
3494988,54
3495608,82
3496236,84
3496860,73
3497484,44
3498116,14
3498736,18
3499364,26
3499988,11
3500616,17
3501244,26
3501864,39
3502496,30
3503124,13
3503744,16
3504376,11
3505000,11
3505628,10
3506260,11
3506880,23
3507508,51
3508136,72
3508760,69
3509388,78
3510008,75
3510640,61
3511260,30
3511888,17
3512520,23
3513136,38
3513768,33
3514396,16
3515016,11
3515648,20
3516272,49
3516900,51
3517532,34
3518152,28
3518784,33
3519408,35
3520032,23
3520660,13
3521280,16
3521908,42
3522532,73
3523156,48
3523788,15
3524408,13
3525036,21
3525668,40
3526288,44
3526916,41
3527540,47
3528172,48
3528800,25
3529416,29
3530048,60
3530672,65
3531296,44
3531924,70
3532544,143
3533228,143
3533904,131
3534572,96
3535196,37
3535824,20
3536448,39
3537076,86
3537696,98
3538324,79
3538956,75
3539576,69
3540204,44
3540828,26
3541460,15
3542088,12
3542708,26
3543336,14
3543960,11
3544584,22
3545212,14
3545832,55
3546460,56
3547084,37
3547708,12
3548340,20
3548960,11
3549588,26
3550220,42
3550840,61
3551472,19
3552096,50
3552724,72
3553356,61
3553976,53
3554604,35
3555228,12
3555852,41
3556484,83
3557104,106
3557788,44
3558416,30
3559032,36
3559664,82
3560288,84
3560916,60
3561548,11
3562168,41
3562796,68
3563424,92
3564048,62
3564676,15
3565296,51
3565924,65
3566552,69
3567176,73
3567804,55
3568424,40
3569052,30
3569684,36
3570304,29
3570936,19
3571560,14
3572188,17
3572820,33
3573440,31
3574072,21
3574696,15
3575320,20
3575952,71
3576572,55
3577200,23
3577824,13
3578448,10
3579080,28
3579696,27
3580328,24
3580960,51
3581576,93
3582208,75
3582832,65
3583464,60
3584096,34
3584712,13
3585340,39
3585964,65
3586588,65
3587216,37
3587832,27
3588464,37
3589088,31
3589712,11
3590340,35
3590960,39
3591588,32
3592220,22
3592840,21
3593468,15
3594092,18
3594724,31
3595356,35
3595976,13
3596608,11
3597232,11
3597856,11
3598484,16
3599104,13
3599736,34
3600360,54
3600984,54
3601612,48
3602232,45
3602860,47
3603492,46
3604112,23
3604740,17
3605364,16
3605992,21
3606624,10
3607240,19
3607868,13
3608492,11
3609116,12
3609744,28
3610360,53
3610992,55
3611616,45
3612236,34
3612868,28
3613488,13
3614116,23
3614748,10
3615368,32
3615996,44
3616620,29
3617252,13
3617880,31
3618496,57
3619128,53
3619752,19
3620376,21
3621004,66
3621624,112
3622304,105
3622988,84
3623608,33
3624236,23
3624860,41
3625484,21
3626116,32
3626736,73
3627364,105
3628048,123
3628716,156
3629396,144
3630068,82
3630688,27
3631316,72
3631944,50
3632572,47
3633204,42
3633824,17
3634456,49
3635080,41
3635708,11
3636340,42
3636960,85
3637588,96
3638212,76
3638836,37
3639468,19
3640088,42
3640716,31
3641340,15
3641968,84
3642596,104
3643272,91
3643900,61
3644532,54
3645152,36
3645784,11
3646404,41
3647028,100
3647712,119
3648380,92
3649004,57
3649636,36
3650256,23
3650884,33
3651508,39
3652132,35
3652760,50
3653384,40
3654012,26
3654636,35
3655264,23
3655892,34
3656516,66
3657148,111
3657828,74
3658448,61
3659076,70
3659700,89
3660328,83
3660956,57
3661576,33
3662208,64
3662832,54
3663456,29
3664084,10
3664708,23
3665340,32
3665968,17
3666592,13
3667220,20
3667844,27
3668476,15
3669104,70
3669728,42
3670360,13
3670984,9
3671556,17
3672192,34
3672808,127
3673488,125
3674172,78
3674792,25
3675424,35
3676048,48
3676680,30
3677308,107
3677980,172
3678660,100
3679340,49
3679960,38
3680592,31
3681220,11
3681844,13
3682472,12
3683092,26
3683720,46
3684348,24
3684972,10
3685600,13
3686224,14
3686856,44
3687484,64
3688104,76
3688732,79
3689356,60
3689984,69
3690612,48
3691232,28
3691860,27
3692484,109
3693160,108
3693832,121
3694508,96
3695128,88
3695756,14
3696376,75
3697004,133
3697688,112
3698356,68
3698980,29
3699604,44
3700228,36
3700860,20
3701480,13
3702108,40
3702732,31
3703356,21
3703988,37
3704608,11
3705236,22
3705868,42
3706488,34
3707116,28
3707744,12
3708372,56
3709004,96
3709624,104
3710304,61
3710928,27
3711552,12
3712184,24
3712800,51
3713428,28
3714060,16
3714680,22
3715308,70
3715932,93
3716564,83
3717192,41
3717812,19
3718440,56
3719064,43
3719688,35
3720316,17
3720936,44
3721564,37
3722192,14
3722816,15
3723444,10
3724064,19
3724692,45
3725324,65
3725944,51
3726576,11
3727200,11
3727828,27
3728460,28
3729080,63
3729708,97
3730332,89
3730956,60
3731588,24
3732208,25
3732836,76
3733460,49
3734084,33
3734716,40
3735336,28
3735968,28
3736596,21
3737216,12
3737848,12
3738468,39
3739100,61
3739732,48
3740352,30
3740980,18
3741604,41
3742228,30
3742860,21
3743480,27
3744112,17
3744732,36
3745360,33
3745988,24
3746608,37
3747236,43
3747868,24
3748488,49
3749116,56
3749740,33
3750372,35
3751004,126
3751676,130
3752356,118
3753036,75
3753656,20
3754284,45
3754908,114
3755588,124
3756268,99
3756888,102
3757568,90
3758200,58
3758816,44
3759448,54
3760072,53
3760696,27
3761324,32
3761944,139
3762628,147
3763308,101
3763980,14
3764608,97
3765232,187
3765908,307
3766588,370
3767260,258
3767932,104
3768612,18
3769232,87
3769860,96
3770492,126
3771164,129
3771844,148
3772524,124
3773196,115
3773876,115
3774556,110
3775228,72
3775856,13
3776480,75
3777104,83
3777732,60
3778352,41
3778984,25
3779612,28
3780232,68
3780860,66
3781488,15
3782116,38
3782748,72
3783368,78
3784000,27
3784620,31
3785248,25
3785876,12
3786496,43
3787124,17
3787752,20
3788376,23
3789008,20
3789624,42
3790252,71
3790884,24
3791504,70
3792136,109
3792812,92
3793432,16
3794064,39
3794680,36
3795312,27
3795932,44
3796560,63
3797188,71
3797808,90
3798440,50
3799068,43
3799688,124
3800368,80
3800992,35
3801616,65
3802244,119
3802916,185
3803596,260
3804276,217
3804948,61
3805576,55
3806200,139
3806876,148
3807556,132
3808228,120
3808900,107
3809580,82
3810200,92
3810824,85
3811452,24
3812072,39
3812704,68
3813328,42
3813952,42
3814584,65
3815200,67
3815832,56
3816464,27
3817080,21
3817708,37
3818336,34
3818964,46
3819596,12
3820216,61
3820848,78
3821472,82
3822096,64
3822724,58
3823344,43
3823976,11
3824600,49
3825228,65
3825860,58
3826480,57
3827112,45
3827744,20
3828364,28
3828996,12
3829620,39
3830252,67
3830884,21
3831504,17
3832136,17
3832760,37
3833384,55
3834016,23
3834636,31
3835268,63
3835892,49
3836520,28
3837152,16
3837776,12
3838408,20
3839040,34
3839660,41
3840292,17
3840916,17
3841540,16
3842172,26
3842792,59
3843420,108
3844104,93
3844720,27
3845348,31
3845972,102
3846656,130
3847328,18
3847952,56
3848584,71
3849208,77
3849832,116
3850512,92
3851128,120
3851808,106
3852488,55
3853112,34
3853740,68
3854372,114
3855044,115
3855720,18
3856344,67
3856968,51
3857596,52
3858216,38
3858844,49
3859476,120
3860148,97
3860776,41
3861400,37
3862024,14
3862652,56
3863272,60
3863904,71
3864528,75
3865152,67
3865784,46
3866400,15
3867028,13
3867660,42
3868280,96
3868908,115
3869584,150
3870260,114
3870940,73
3871560,39
3872192,13
3872820,11
3873440,14
3874068,11
3874692,14
3875324,20
3875956,10
3876576,22
3877204,22
3877828,40
3878456,23
3879084,10
3879704,27
3880332,14
3880960,12
3881584,53
3882216,100
3882892,110
3883572,75
3884200,35
3884816,46
3885444,112
3886128,155
3886796,140
3887476,68
3888096,53
3888720,79
3889352,51
3889968,34
3890600,33
3891228,11
3891848,22
3892476,27
3893100,18
3893732,17
3894360,27
3894984,49
3895612,36
3896240,11
3896864,15
3897492,20
3898112,15
3898740,89
3899368,117
3900044,210
3900724,187
3901396,116
3902068,68
3902696,17
3903320,40
3903952,12
3904584,35
3905200,52
3905828,56
3906456,54
3907080,37
3907708,18
3908328,14
3908956,43
3909584,44
3910208,42
3910840,13
3911456,20
3912088,34
3912716,34
3913336,30
3913968,17
3914592,18
3915220,19
3915852,14
3916472,15
3917104,31
3917728,43
3918352,43
3918984,29
3919600,16
3920232,19
3920856,32
3921480,27
3922112,11
3922728,11
3923356,10
3923988,10
3924608,24
3925236,30
3925864,25
3926492,21
3927124,75
3927744,138
3928428,88
3929048,51
3929672,26
3930300,34
3930920,12
3931552,18
3932180,104
3932852,73
3933476,48
3934100,20
3934728,19
3935356,86
3935976,164
3936660,155
3937336,57
3937960,45
3938588,41
3939212,11
3939840,38
3940472,108
3941140,130
3941816,103
3942500,84
3943120,85
3943748,46
3944372,23
3944996,66
3945624,61
3946240,31
3946872,29
3947496,13
3948120,13
3948748,44
3949368,111
3950048,162
3950732,124
3951404,88
3952032,58
3952660,42
3953280,29
3953908,14
3954532,23
3955164,65
3955796,67
3956416,58
3957048,37
3957672,23
3958296,53
3958928,36
3959544,12
3960176,21
3960800,30
3961424,27
3962052,10
3962672,33
3963304,37
3963932,36
3964552,16
3965184,49
3965808,105
3966488,138
3967172,88
3967792,31
3968424,15
3969056,30
3969672,12
3970300,29
3970924,24
3971556,11
3972188,28
3972808,39
3973436,47
3974060,33
3974684,51
3975316,58
3975936,21
3976564,23
3977188,58
3977816,76
3978444,81
3979064,91
3979696,107
3980376,124
3981044,106
3981720,66
3982352,33
3982968,21
3983600,12
3984224,57
3984852,112
3985536,157
3986204,159
3986884,145
3987564,93
3988184,63
3988816,39
3989440,16
3990064,9
3990640,12
3991268,11
3991900,16
3992524,11
3993148,15
3993780,11
3994400,18
3995028,24
3995660,10
3996280,11
3996908,17
3997532,40
3998164,13
3998796,29
3999416,34
4000048,24
4000668,17
4001292,16
4001920,21
4002536,55
4003164,81
4003788,44
4004412,48
4005044,59
4005664,30
4006292,11
4006924,10
4007544,20
4008172,14
4008796,10
4009428,18
4010056,22
4010676,22
4011304,23
4011928,27
4012552,80
4013184,83
4013800,74
4014432,64
4015052,65
4015676,20
4016308,72
4016928,104
4017608,47
4018232,12
4018848,30
4019480,27
4020104,21
4020732,23
4021364,10
4021984,39
4022612,37
4023236,32
4023860,33
4024492,14
4025112,11
4025740,11
4026364,16
4026992,26
4027620,25
4028244,25
4028876,25
4029504,12
4030128,11
4030756,24
4031384,14
4032008,16
4032636,42
4033256,91
4033884,128
4034568,135
4035236,116
4035912,99
4036536,67
4037160,59
4037788,24
4038408,65
4039036,107
4039720,102
4040388,111
4041064,204
4041744,190
4042420,160
4043096,143
4043772,114
4044452,27
4045080,11
4045700,13
4046332,41
4046960,26
4047584,35
4048216,26
4048836,17
4049460,23
4050092,54
4050712,72
4051344,49
4051964,19
4052592,38
4053224,28
4053844,11
4054476,13
4055108,24
4055728,20
4056356,11
4056980,21
4057604,42
4058236,26
4058856,32
4059488,45
4060112,35
4060736,22
4061368,15
4061984,16
4062616,27
4063244,10
4063864,11
4064496,11
4065120,12
4065748,20
4066380,28
4067000,10
4067632,27
4068256,33
4068880,37
4069508,24
4070128,12
4070760,21
4071384,45
4072008,39
4072636,16
4073256,23
4073888,21
4074516,14
4075136,20
4075768,31
4076392,29
4077024,49
4077652,56
4078272,75
4078904,91
4079528,96
4080152,53
4080784,16
4081400,54
4082032,48
4082656,69
4083280,32
4083908,23
4084528,11
4085156,18
4085788,31
4086408,63
4087036,62
4087664,50
4088296,31
4088928,14
4089544,13
4090176,11
4090800,13
4091424,15
4092056,16
4092676,44
4093304,94
4093932,90
4094556,78
4095188,49
4095816,14
4096448,38
4097076,32
4097692,15
4098320,22
4098944,43
4099572,22
4100200,22
4100816,17
4101444,16
4102064,39
4102688,82
4103316,96
4103936,84
4104564,45
4105184,14
4105808,31
4106436,62
4107056,97
4107684,92
4108312,64
4108928,38
4109556,23
4110180,29
4110808,31
4111440,28
4112056,43
4112684,43
4113304,12
4113928,41
4114556,91
4115176,81
4115804,27
4116428,23
4117052,29
4117684,10
4118304,18
4118932,25
4119564,11
4120184,26
4120812,27
4121436,14
4122064,22
4122696,13
4123312,12
4123940,19
4124564,14
4125188,19
4125820,15
4126440,24
4127068,43
4127692,14
4128316,11
4128944,34
4129560,40
4130192,21
4130812,11
4131440,15
4132068,13
4132692,12
4133320,11
4133948,13
4134568,15
4135196,17
4135820,24
4136452,35
4137080,28
4137696,31
4138324,24
4138948,25
4139572,16
4140200,18
4140816,19
4141444,49
4142068,35
4142692,34
4143320,73
4143948,61
4144576,49
4145208,57
4145824,50
4146452,40
4147076,18
4147708,37
4148336,66
4148952,84
4149584,53
4150208,27
4150832,24
4151460,32
4152080,33
4152708,45
4153332,74
4153956,101
4154640,87
4155256,33
4155884,35
4156516,75
4157136,107
4157816,185
4158496,165
4159172,90
4159800,53
4160424,42
4161044,22
4161676,14
4162296,71
4162924,71
4163548,55
4164168,27
4164796,20
4165416,90
4166044,133
4166728,98
4167344,59
4167972,14
4168596,30
4169220,64
4169852,128
4170524,82
4171148,67
4171772,36
4172400,27
4173028,38
4173652,46
4174280,22
4174908,21
4175528,22
4176156,29
4176780,50
4177408,69
4178040,93
4178656,79
4179284,42
4179908,27
4180528,47
4181160,40
4181776,47
4182404,51
4183028,12
4183652,29
4184280,17
4184904,14
4185532,11
4186164,14
4186784,16
4187412,12
4188036,9
4188616,20
4189244,20
4189864,11
4190492,27
4191116,37
4191748,27
4192376,14
4193000,13
4193628,14
4194252,46
4194876,33
4195504,12
4196128,38
4196756,44
4197388,44
4198008,32
4198636,23
4199260,29
4199888,36
4200520,49
4201136,23
4201764,33
4202388,23
4203012,13
4203644,27
4204264,47
4204892,61
4205516,81
4206140,70
4206768,80
4207384,54
4208016,13
4208636,17
4209264,22
4209892,15
4210516,16
4211148,54
4211776,48
4212400,20
4213028,13
4213652,13
4214280,13
4214908,14
4215528,39
4216156,41
4216784,41
4217408,14
4218036,10
4218656,17
4219284,22
4219916,11
4220536,39
4221164,21
4221788,18
4222420,25
4223048,48
4223672,38
4224304,16
4224924,36
4225548,58
4226176,45
4226800,23
4227428,15
4228052,13
4228676,15
4229304,17
4229920,12
4230552,28
4231180,12
4231800,16
4232428,21
4233052,32
4233684,31
4234312,28
4234928,15
4235560,12
4236184,11
4236808,13
4237436,26
4238056,25
4238684,13
4239312,15
4239936,17
4240564,22
4241184,46
4241812,46
4242444,24
4243064,27
4243692,22
4244316,12
4244948,13
4245576,11
4246200,37
4246828,29
4247452,11
4248076,19
4248708,55
4249328,83
4249960,57
4250580,55
4251204,35
4251836,10
4252456,14
4253084,11
4253716,16
4254336,26
4254968,21
4255592,11
4256220,12
4256852,40
4257472,41
4258100,11
4258724,12
4259348,12
4259980,27
4260600,65
4261228,101
4261908,54
4262528,21
4263156,60
4263780,57
4264408,39
4265040,36
4265656,14
4266284,40
4266908,60
4267532,74
4268160,71
4268776,67
4269408,52
4270032,23
4270656,12
4271284,30
4271904,63
4272536,31
4273164,20
4273784,34
4274412,26
4275036,29
4275668,32
4276300,48
4276920,33
4277548,13
4278172,10
4278796,11
4279428,10
4280048,17
4280676,42
4281300,28
4281924,11
4282552,41
4283176,53
4283804,19
4284436,10
4285056,12
4285684,29
4286308,32
4286940,43
4287572,39
4288192,19
4288820,14
4289444,11
4290068,27
4290696,44
4291316,30
4291944,11
4292568,16
4293192,11
4293820,11
4294440,32
4295068,20
4295700,10
4296320,28
4296948,25
4297572,10
4298204,20
4298836,14
4299456,21
4300088,12
4300712,23
4301336,59
4301964,73
4302584,35
4303212,41
4303836,59
4304460,25
4305092,42
4305712,67
4306340,64
4306972,48
4307592,21
4308220,21
4308844,19
4309476,86
4310104,96
4310728,51
4311356,19
4311984,38
4312608,36
4313236,24
4313856,13
4314484,26
4315108,31
4315736,25
4316364,18
4316984,17
4317612,26
4318244,42
4318864,42
4319496,17
4320120,48
4320748,66
4321380,70
4322000,72
4322628,60
4323252,44
4323876,35
4324504,32
4325120,12
4325752,12
4326376,13
4327000,17
4327628,26
4328248,26
4328876,17
4329508,14
4330128,15
4330756,11
4331380,26
4332012,33
4332644,32
4333264,27
4333892,23
4334520,23
4335144,25
4335772,38
4336392,42
4337020,17
4337648,31
4338272,39
4338900,43
4339524,73
4340156,83
4340788,88
4341408,69
4342040,53
4342664,13
4343292,15
4343924,18
4344544,26
4345172,23
4345796,12
4346420,13
4347052,18
4347672,15
4348304,12
4348928,26
4349552,46
4350184,50
4350808,50
4351436,34
4352068,30
4352684,26
4353316,17
4353940,34
4354564,59
4355196,24
4355816,13
4356444,37
4357068,55
4357692,34
4358324,50
4358944,34
4359572,38
4360204,36
4360824,40
4361452,33
4362076,13
4362708,9
4363284,13
4363908,10
4364540,28
4365164,26
4365792,40
4366424,47
4367040,31
4367668,10
4368292,23
4368916,16
4369548,21
4370168,32
4370796,54
4371424,59
4372048,58
4372676,16
4373296,13
4373924,10
4374556,35
4375176,58
4375808,40
4376432,13
4377060,18
4377692,22
4378312,12
4378940,20
4379564,25
4380192,13
4380820,10
4381440,13
4382068,15
4382696,10
4383320,11
4383948,18
4384568,34
4385200,30
4385828,18
4386448,11
4387076,31
4387704,52
4388332,55
4388964,34
4389584,16
4390216,24
4390840,35
4391464,25
4392092,11
4392712,21
4393344,13
4393968,17
4394592,38
4395224,14
4395848,11
4396476,23
4397108,11
4397728,59
4398360,66
4398984,39
4399616,30
4400244,49
4400864,65
4401492,84
4402120,87
4402744,61
4403376,22
4403992,29
4404620,45
4405244,14
4405872,23
4406500,20
4407124,30
4407756,54
4408388,66
4409008,79
4409636,134
4410312,153
4410984,112
4411656,26
4412280,83
4412908,144
4413592,147
4414260,140
4414940,99
4415568,71
4416184,75
4416816,43
4417436,11
4418060,12
4418692,16
4419312,23
4419940,43
4420564,32
4421192,25
4421820,27
4422440,47
4423068,29
4423700,36
4424320,17
4424948,38
4425572,69
4426200,52
4426832,31
4427452,11
4428080,25
4428704,52
4429328,58
4429956,52
4430576,43
4431204,41
4431828,21
4432456,14
4433084,16
4433704,19
4434332,14
4434964,30
4435584,54
4436212,61
4436840,57
4437468,73
4438100,50
4438720,45
4439348,43
4439976,26
4440600,30
4441228,37
4441848,32
4442476,22
4443100,11
4443728,15
4444356,16
4444976,24
4445604,49
4446236,54
4446856,48
4447484,51
4448112,48
4448740,28
4449372,15
4449992,11
4450620,12
4451248,13
4451872,23
4452500,39
4453120,34
4453752,55
4454376,52
4455000,31
4455632,11
4456252,16
4456880,36
4457508,48
4458128,40
4458756,41
4459384,25
4460012,37
4460644,16
4461264,82
4461896,115
4462572,100
4463244,67
4463872,38
4464496,12
4465128,28
4465756,48
4466376,34
4467008,17
4467632,41
4468256,59
4468884,22
4469504,15
4470136,64
4470760,117
4471436,125
4472116,82
4472736,42
4473360,13
4473992,11
4474608,12
4475240,19
4475864,17
4476488,15
4477120,14
4477736,12
4478368,11
4479000,11
4479620,28
4480252,24
4480876,33
4481504,46
4482132,62
4482752,47
4483380,24
4484004,37
4484628,36
4485260,32
4485880,41
4486508,59
4487132,64
4487756,51
4488384,52
4489008,54
4489636,38
4490268,15
4490888,33
4491516,31
4492140,27
4492772,13
4493404,11
4494024,16
4494656,12
4495280,17
4495904,30
4496536,18
4497152,15
4497780,23
4498408,13
4499032,25
4499660,42
4500280,64
4500912,57
4501540,51
4502160,44
4502792,43
4503416,29
4504048,16
4504676,30
4505296,54
4505928,64
4506548,58
4507172,46
4507804,32
4508424,55
4509052,135
4509736,164
4510404,154
4511080,119
4511760,62
4512384,13
4513012,62
4513636,90
4514268,60
4514896,31
4515512,12
4516144,21
4516768,48
4517392,59
4518020,25
4518640,28
4519268,64
4519892,70
4520516,45
4521148,16
4521768,11
4522396,11
4523028,18
4523648,26
4524276,29
4524900,40
4525532,64
4526164,38
4526784,16
4527412,31
4528036,56
4528660,43
4529292,26
4529912,52
4530544,122
4531224,110
4531900,100
4532576,62
4533200,59
4533824,51
4534452,38
4535072,44
4535704,33
4536332,20
4536952,11
4537584,37
4538208,41
4538836,58
4539468,82
4540088,48
4540716,33
4541344,21
4541968,11
4542600,22
4543216,35
4543848,15
4544472,10
4545096,19
4545724,44
4546344,53
4546976,46
4547604,38
4548224,22
4548852,18
4549476,14
4550108,11
4550740,12
4551360,12
4551988,11
4552616,11
4553240,11
4553872,16
4554488,14
4555116,21
4555744,19
4556368,10
4557000,16
4557616,26
4558244,17
4558876,18
4559496,57
4560128,29
4560752,11
4561380,31
4562012,42
4562632,24
4563260,17
4563884,11
4564508,12
4565140,10
4565760,11
4566388,12
4567016,17
4567640,21
4568272,37
4568888,41
4569516,28
4570148,14
4570768,11
4571400,28
4572024,33
4572656,25
4573284,17
4573904,19
4574536,33
4575160,41
4575784,45
4576416,38
4577032,25
4577664,43
4578288,17
4578912,33
4579544,24
4580168,11
4580796,42
4581428,72
4582048,53
4582680,39
4583304,42
4583936,54
4584568,75
4585188,64
4585816,27
4586440,12
4587068,10
4587700,39
4588320,79
4588948,109
4589632,97
4590248,65
4590876,27
4591504,23
4592132,50
4592764,62
4593384,62
4594012,39
4594640,40
4595264,35
4595892,10
4596512,11
4597140,10
4597772,14
4598392,13
4599024,20
4599648,27
4600280,15
4600908,29
4601528,20
4602160,13
4602784,21
4603408,21
4604036,27
4604656,13
4605288,10
4605912,17
4606536,31
4607168,35
4607788,34
4608420,18
4609048,11
4609664,26
4610292,41
4610916,16
4611544,47
4612172,73
4612792,59
4613420,69
4614044,61
4614668,35
4615300,16
4615920,21
4616548,47
4617172,41
4617796,30
4618428,40
4619048,25
4619676,12
4620308,24
4620928,43
4621556,72
4622180,112
4622864,92
4623484,68
4624104,54
4624732,36
4625356,20
4625980,11
4626612,10
4627232,17
4627860,45
4628492,42
4629112,24
4629740,63
4630364,107
4631048,143
4631724,116
4632396,101
4633072,86
4633704,55
4634320,25
4634948,17
4635572,23
4636196,17
4636828,10
4637448,16
4638076,30
4638704,31
4639328,15
4639960,11
4640584,17
4641212,29
4641844,25
4642464,17
4643092,57
4643716,73
4644348,53
4644976,38
4645600,40
4646228,24
4646856,20
4647480,12
4648108,24
4648728,27
4649356,41
4649980,58
4650608,52
4651236,22
4651860,16
4652492,14
4653120,20
4653744,31
4654376,46
4655000,39
4655624,12
4656252,20
4656872,25
4657500,18
4658128,11
4658752,16
4659380,23
4660000,17
4660628,12
4661260,13
4661880,34
4662508,110
4663184,90
4663808,49
4664440,33
4665056,19
4665688,17
4666312,47
4666936,90
4667564,64
4668184,39
4668812,13
4669436,41
4670064,73
4670696,60
4671320,12
4671952,35
4672584,46
4673200,18
4673828,14
4674452,12
4675080,11
4675708,20
4676328,23
4676956,21
4677584,12
4678208,13
4678836,14
4679456,19
4680088,10
4680716,14
4681336,17
4681964,11
4682588,14
4683220,17
4683852,24
4684472,42
4685104,41
4685728,24
4686352,12
4686980,14
4687600,20
4688228,22
4688852,15
4689476,16
4690108,10
4690728,11
4691356,11
4691988,10
4692608,13
4693236,11
4693860,21
4694492,32
4695124,30
4695744,14
4696376,11
4697000,15
4697624,12
4698252,12
4698872,11
4699504,40
4700128,64
4700752,65
4701384,66
4702004,52
4702632,41
4703264,31
4703884,22
4704516,14
4705140,9
4705720,13
4706352,14
4706968,12
4707600,15
4708224,11
4708856,11
4709484,22
4710104,36
4710736,43
4711360,20
4711984,10
4712616,12
4713236,22
4713864,17
4714488,23
4715112,36
4715744,18
4716368,14
4717000,11
4717628,14
4718248,21
4718876,23
4719504,12
4720136,13
4720764,10
4721384,19
4722012,19
4722636,25
4723264,41
4723892,28
4724512,27
4725140,47
4725772,72
4726392,70
4727024,62
4727648,47
4728280,19
4728908,11
4729528,14
4730160,58
4730784,58
4731408,32
4732040,11
4732660,33
4733288,53
4733916,59
4734540,71
4735172,58
4735792,21
4736424,10
4737056,10
4737672,13
4738304,20
4738928,21
4739556,17
4740188,14
4740808,13
4741436,23
4742064,27
4742688,14
4743316,10
4743936,12
4744568,15
4745192,13
4745816,26
4746448,28
4747064,23
4747696,24
4748324,16
4748944,12
4749576,10
4750200,20
4750832,26
4751464,20
4752080,18
4752708,11
4753332,19
4753956,19
4754588,28
4755208,32
4755836,17
4756464,11
4757088,12
4757716,19
4758344,29
4758976,14
4759604,10
4760224,27
4760856,21
4761480,24
4762112,13
4762740,11
4763360,11
4763988,13
4764616,17
4765240,32
4765868,24
4766488,12
4767116,21
4767748,18
4768368,17
4768996,11
4769620,11
4770252,17
4770884,10
4771504,24
4772136,13
4772760,23
4773384,48
4774016,48
4774632,47
4775264,39
4775888,12
4776512,12
4777144,12
4777760,16
4778388,10
4779020,12
4779640,18
4780272,11
4780896,17
4781528,13
4782156,13
4782776,11
4783408,12
4784032,10
4784656,11
4785284,14
4785904,18
4786536,14
4787160,12
4787788,16
4788420,14
4789040,11
4789672,16
4790304,17
4790924,13
4791552,14
4792180,28
4792812,29
4793444,15
4794064,41
4794696,35
4795320,32
4795944,51
4796576,31
4797196,18
4797828,59
4798452,67
4799080,49
4799708,44
4800336,38
4800964,41
4801596,28
4802216,15
4802844,17
4803468,16
4804100,10
4804728,10
4805352,11
4805980,14
4806608,21
4807228,19
4807860,10
4808480,16
4809108,17
4809740,14
4810360,12
4810988,19
4811616,15
4812244,24
4812876,14
4813496,11
4814124,11
4814748,16
4815372,12
4816000,24
4816624,28
4817252,37
4817876,31
4818504,11
4819132,20
4819752,15
4820384,12
4821012,14
4821632,27
4822264,37
4822888,31
4823516,21
4824148,14
4824768,28
4825400,26
4826024,64
4826648,84
4827276,58
4827896,32
4828528,19
4829152,21
4829776,31
4830408,26
4831024,35
4831656,17
4832288,12
4832904,16
4833536,23
4834160,42
4834788,44
4835420,48
4836040,42
4836668,21
4837292,32
4837920,37
4838548,39
4839168,33
4839800,22
4840424,12
4841048,18
4841676,28
4842296,62
4842924,37
4843556,10
4844176,15
4844804,39
4845428,36
4846060,26
4846692,18
4847312,13
4847944,10
4848568,13
4849192,13
4849824,14
4850440,10
4851072,31
4851696,33
4852320,29
4852952,16
4853576,20
4854208,28
4854836,25
4855456,20
4856088,12
4856712,20
4857340,12
4857972,16
4858592,15
4859224,13
4859848,24
4860472,27
4861104,40
4861724,40
4862356,35
4862988,30
4863608,36
4864240,37
4864864,28
4865492,23
4866124,12
4866744,12
4867372,12
4867996,18
4868620,24
4869252,26
4869872,12
4870500,12
4871128,11
4871752,13
4872380,14
4873000,17
4873628,19
4874260,20
4874880,25
4875508,42
4876136,53
4876764,39
4877396,12
4878016,32
4878648,34
4879272,41
4879896,53
4880528,38
4881144,13
4881772,37
4882400,45
4883024,13
4883652,28
4884272,41
4884904,59
4885532,68
4886152,61
4886784,13
4887408,15
4888040,15
4888668,12
4889288,17
4889920,22
4890540,18
4891168,17
4891796,19
4892416,23
4893048,21
4893672,11
4894296,19
4894928,23
4895544,21
4896176,19
4896804,23
4897424,19
4898052,20
4898680,12
4899308,17
4899940,10
4900560,17
4901192,17
4901816,27
4902440,19
4903068,11
4903688,32
4904320,41
4904944,51
4905568,70
4906200,70
4906824,45
4907456,19
4908088,21
4908708,11
4909340,37
4909964,62
4910596,73
4911228,82
4911848,64
4912480,65
4913108,90
4913732,82
4914364,60
4914984,38
4915620,19
4916248,13
4916864,15
4917492,39
4918116,35
4918748,43
4919376,46
4919996,49
4920624,48
4921248,33
4921872,20
4922500,18
4923120,29
4923748,21
4924372,14
4925000,29
4925628,48
4926248,57
4926876,42
4927508,18
4928128,12
4928756,22
4929380,29
4930008,23
4930636,15
4931256,13
4931884,15
4932508,21
4933132,23
4933760,13
4934384,12
4935016,17
4935640,24
4936264,17
4936892,10
4937512,11
4938144,65
4938772,90
4939392,69
4940024,21
4940648,11
4941276,16
4941908,28
4942528,61
4943156,81
4943784,62
4944408,43
4945036,28
4945656,18
4946284,63
4946908,59
4947532,53
4948164,32
4948784,11
4949412,20
4950044,40
4950664,46
4951296,39
4951920,36
4952548,38
4953180,24
4953800,13
4954428,12
4955052,17
4955680,32
4956308,34
4956928,28
4957556,37
4958184,53
4958808,75
4959436,62
4960056,55
4960684,54
4961316,22
4961936,13
4962564,10
4963188,11
4963820,11
4964448,18
4965072,24
4965704,29
4966328,26
4966952,24
4967580,31
4968200,36
4968828,26
4969452,16
4970076,30
4970708,48
4971332,19
4971960,47
4972592,64
4973212,56
4973840,47
4974464,34
4975092,13
4975724,10
4976344,11
4976972,11
4977596,19
4978220,28
4978852,25
4979472,13
4980100,15
4980724,13
4981348,11
4981980,11
4982604,11
4983236,18
4983864,24
4984488,19
4985116,19
4985744,17
4986372,15
4987004,11
4987624,19
4988252,21
4988880,24
4989504,13
4990132,31
4990752,21
4991384,19
4992016,32
4992632,24
4993260,12
4993888,24
4994516,29
4995148,38
4995768,41
4996400,40
4997024,33
4997648,30
4998276,26
4998896,15
4999524,12
5000148,14
5000772,13
5001404,16
5002024,24
5002652,29
5003284,27
5003904,14
5004536,11
5005160,15
5005788,19
5006420,22
5007040,16
5007672,37
5008296,33
5008920,38
5009548,29
5010168,26
5010800,79
5011424,107
5012100,106
5012780,58
5013400,21
5014024,15
5014656,38
5015272,55
5015904,28
5016528,14
5017156,12
5017788,10
5018408,25
5019036,51
5019668,56
5020288,52
5020916,51
5021540,48
5022172,34
5022804,11
5023424,14
5024056,18
5024676,12
5025300,11
5025932,10
5026552,15
5027184,20
5027808,20
5028432,28
5029064,29
5029680,11
5030312,11
5030944,11
5031564,11
5032192,13
5032820,11
5033448,11
5034080,15
5034700,15
5035332,15
5035956,12
5036584,12
5037216,10
5037832,12
5038464,10
5039088,14
5039716,17
5040344,14
5040972,10
5041600,13
5042228,11
5042848,11
5043480,15
5044104,28
5044732,30
5045364,19
5045984,14
5046616,12
5047240,11
5047864,11
5048496,14
5049112,27
5049744,34
5050372,31
5050992,37
5051624,43
5052248,35
5052880,30
5053508,16
5054128,13
5054760,17
5055384,12
5056008,10
5056640,10
5057256,11
5057888,11
5058512,11
5059136,11
5059768,9
5060336,9
5060916,10
5061544,15
5062168,13
5062800,10
5063416,10
5064048,12
5064672,12
5065296,11
5065928,12
5066544,10
5067176,11
5067808,10
5068428,10
5069060,11
5069684,10
5070316,10
5070948,11
5071568,15
5072200,19
5072824,17
5073448,15
5074080,17
5074696,20
5075328,24
5075952,18
5076576,10
5077208,17
5077832,22
5078464,17
5079096,27
5079712,31
5080344,24
5080968,17
5081600,20
5082228,27
5082848,27
5083480,19
5084104,13
5084728,14
5085360,11
5085976,10
5086608,11
5087240,10
5087860,11
5088492,12
5089116,10
5089748,15
5090376,21
5090996,16
5091628,10
5092252,11
5092880,11
5093508,11
5094128,14
5094760,11
5095388,10
5096012,11
5096640,12
5097264,11
5097896,11
5098528,12
5099148,16
5099780,14
5100404,11
5101036,15
5101668,20
5102288,25
5102920,23
5103544,13
5104168,9
5104748,21
5105376,26
5106008,27
5106632,39
5107256,35
5107888,24
5108508,11
5109140,30
5109772,34
5110392,33
5111024,18
5111652,19
5112284,41
5112916,44
5113536,34
5114172,20
5114796,12
5115424,19
5116056,12
5116676,25
5117308,33
5117936,50
5118564,59
5119196,31
5119824,17
5120456,11
5121084,28
5121700,30
5122332,17
5122952,23
5123584,20
5124212,12
5124832,21
5125460,11
5126080,19
5126704,30
5127332,27
5127952,21
5128580,32
5129204,40
5129828,25
5130456,34
5131080,33
5131708,11
5132340,16
5132960,33
5133588,40
5134212,34
5134840,21
5135472,14
5136088,15
5136716,13
5137340,11
5137964,29
5138592,47
5139212,38
5139840,37
5140464,33
5141088,31
5141716,20
5142340,11
5142972,24
5143600,24
5144224,17
5144852,11
5145476,15
5146108,23
5146736,20
5147360,11
5147988,14
5148612,17
5149236,25
5149868,22
5150488,13
5151116,16
5151744,21
5152368,42
5152996,32
5153620,21
5154252,21
5154880,13
5155496,11
5156128,17
5156752,54
5157384,71
5158012,48
5158632,25
5159260,12
5159884,11
5160512,18
5161140,48
5161760,61
5162388,31
5163020,26
5163640,27
5164268,14
5164892,11
5165520,16
5166152,22
5166768,27
5167400,20
5168024,15
5168648,19
5169276,18
5169896,10
5170524,11
5171152,13
5171776,23
5172404,17
5173024,13
5173652,11
5174284,10
5174904,12
5175532,15
5176156,13
5176788,12
5177420,12
5178040,15
5178668,27
5179292,25
5179916,15
5180548,10
5181168,26
5181800,31
5182424,15
5183044,11
5183676,18
5184296,10
5184924,11
5185556,18
5186176,21
5186804,51
5187428,73
5188060,74
5188688,70
5189312,57
5189940,37
5190568,20
5191192,12
5191820,11
5192440,11
5193068,11
5193692,13
5194316,25
5194948,18
5195568,11
5196200,13
5196828,10
5197448,12
5198076,10
5198700,12
5199332,10
5199964,12
5200584,14
5201216,11
5201840,17
5202464,24
5203092,16
5203712,12
5204340,14
5204964,17
5205588,17
5206220,14
5206840,12
5207468,11
5208100,12
5208720,12
5209348,15
5209976,25
5210604,31
5211236,34
5211856,36
5212488,25
5213112,24
5213736,21
5214364,19
5214984,10
5215616,13
5216240,33
5216864,53
5217492,50
5218116,56
5218748,48
5219380,26
5220000,11
5220628,17
5221256,12
5221884,13
5222516,14
5223136,19
5223764,24
5224388,35
5225012,22
5225644,11
5226264,10
5226892,11
5227516,12
5228144,15
5228772,20
5229400,13
5230028,21
5230660,23
5231280,29
5231912,27
5232536,32
5233160,23
5233792,11
5234408,24
5235036,50
5235664,52
5236288,46
5236916,40
5237536,15
5238168,15
5238796,24
5239416,24
5240048,11
5240672,15
5241300,19
5241932,19
5242552,15
5243184,13
5243808,13
5244428,10
5245060,12
5245680,17
5246308,19
5246932,24
5247556,19
5248184,22
5248804,23
5249432,11
5250060,22
5250680,23
5251308,13
5251932,15
5252560,43
5253188,66
5253808,37
5254436,18
5255056,17
5255684,26
5256312,24
5256936,17
5257564,36
5258188,61
5258812,35
5259444,28
5260064,22
5260692,13
5261324,10
5261944,19
5262572,22
5263196,20
5263828,15
5264456,19
5265080,12
5265708,14
5266332,11
5266956,11
5267584,12
5268200,25
5268832,23
5269452,14
5270076,14
5270708,10
5271328,11
5271956,18
5272588,18
5273208,16
5273836,17
5274460,29
5275092,38
5275720,34
5276336,27
5276968,20
5277592,12
5278216,15
5278844,20
5279464,12
5280092,13
5280716,19
5281340,17
5281968,10
5282584,12
5283212,15
5283836,11
5284464,10
5285092,14
5285716,20
5286344,13
5286976,16
5287592,27
5288220,42
5288844,38
5289472,25
5290104,11
5290720,14
5291348,15
5291972,13
5292596,12
5293228,12
5293848,20
5294476,26
5295100,22
5295728,14
5296356,13
5296980,18
5297608,27
5298240,38
5298856,30
5299488,17
5300112,29
5300740,34
5301372,28
5301992,13
5302620,17
5303244,16
5303868,12
5304500,13
5305120,18
5305748,13
5306380,10
5307000,17
5307628,29
5308252,31
5308884,25
5309512,25
5310132,20
5310760,13
5311388,13
5312012,11
5312640,16
5313256,14
5313888,13
5314512,12
5315136,13
5315764,16
5316384,16
5317012,11
5317644,10
5318264,11
5318896,11
5319520,12
5320148,11
5320780,12
5321400,11
5322028,17
5322656,19
5323280,11
5323908,10
5324528,11
5325160,11
5325780,19
5326404,21
5327032,15
5327648,11
5328280,11
5328908,10
5329528,10
5330156,11
5330780,12
5331408,31
5332036,28
5332656,17
5333284,17
5333908,30
5334536,29
5335164,11
5335784,19
5336412,38
5337036,57
5337660,59
5338288,56
5338912,45
5339540,15
5340172,30
5340792,45
5341420,61
5342048,61
5342676,49
5343308,22
5343928,19
5344560,21
5345184,40
5345808,50
5346436,51
5347056,40
5347684,20
5348308,10
5348932,14
5349564,16
5350184,10
5350816,12
5351444,11
5352064,11
5352692,13
5353316,17
5353948,14
5354576,10
5355196,16
5355824,12
5356448,10
5357072,11
5357704,10
5358324,11
5358952,14
5359576,11
5360200,10
5360828,10
5361448,11
5362076,15
5362708,14
5363328,11
5363956,14
5364580,10
5365212,11
5365840,12
5366464,12
5367092,14
5367716,20
5368340,23
5368968,26
5369592,26
5370220,26
5370848,19
5371472,15
5372100,12
5372720,12
5373352,13
5373980,10
5374600,12
5375232,11
5375856,20
5376488,17
5377116,17
5377736,13
5378364,14
5378988,12
5379612,11
5380240,16
5380864,34
5381492,32
5382116,22
5382740,20
5383368,10
5383992,15
5384620,23
5385252,34
5385872,25
5386500,11
5387124,18
5387756,10
5388384,10
5389008,24
5389636,39
5390260,23
5390884,21
5391512,27
5392136,27
5392764,13
5393388,13
5394012,33
5394644,33
5395268,11
5395896,14
5396524,24
5397144,26
5397772,32
5398396,43
5399028,37
5399660,26
5400280,16
5400908,13
5401536,14
5402160,11
5402788,12
5403408,15
5404036,10
5404664,11
5405288,13
5405916,10
5406540,10
5407172,12
5407804,14
5408424,11
5409052,11
5409676,15
5410304,15
5410932,11
5411552,14
5412180,23
5412804,17
5413428,12
5414060,15
5414680,15
5415308,13
5415932,12
5416560,13
5417188,12
5417812,11
5418444,17
5419072,27
5419696,33
5420324,21
5420948,13
5421572,10
5422204,10
5422824,13
5423452,13
5424080,12
5424700,13
5425332,12
5425952,12
5426584,27
5427212,29
5427832,25
5428460,18
5429084,13
5429716,12
5430344,15
5430964,17
5431592,21
5432216,12
5432844,11
5433472,13
5434092,10
5434720,13
5435344,14
5435972,12
5436600,10
5437224,12
5437856,11
5438484,16
5439104,15
5439736,11
5440360,17
5440988,20
5441616,11
5442232,11
5442864,13
5443488,16
5444112,10
5444740,10
5445360,17
5445988,28
5446612,15
5447236,12
5447868,10
5448488,13
5449116,11
5449744,22
5450368,19
5450996,12
5451620,43
5452252,45
5452880,20
5453496,12
5454124,11
5454748,12
5455372,16
5456000,11
5456624,11
5457252,10
5457876,10
5458500,11
5459132,10
5459752,11
5460380,12
5461012,16
5461632,21
5462260,23
5462888,12
5463516,10
5464148,9
5464716,13
5465348,23
5465976,36
5466604,38
5467236,32
5467856,31
5468488,13
5469108,10
5469732,19
5470364,19
5470984,17
5471612,21
5472240,15
5472864,16
5473492,14
5474116,13
5474748,10
5475376,10
5476000,23
5476628,17
5477252,16
5477884,29
5478516,28
5479136,19
5479764,56
5480388,62
5481012,30
5481644,18
5482264,11
5482892,27
5483516,48
5484144,54
5484776,48
5485400,22
5486028,12
5486660,18
5487280,15
5487912,11
5488536,12
5489160,10
5489788,10
5490408,11
5491036,15
5491664,35
5492284,53
5492916,44
5493536,35
5494168,21
5494796,14
5495416,11
5496044,11
5496668,16
5497300,17
5497932,20
5498552,33
5499184,29
5499808,16
5500432,15
5501064,18
5501680,10
5502312,11
5502936,10
5503564,19
5504196,16
5504816,23
5505444,29
5506072,19
5506696,17
5507324,11
5507952,21
5508580,20
5509212,10
5509832,12
5510460,14
5511084,10
5511708,28
5512340,38
5512960,33
5513588,20
5514216,14
5514840,10
5515472,14
5516088,18
5516720,15
5517352,18
5517972,30
5518600,29
5519224,20
5519856,16
5520488,11
5521104,10
5521736,11
5522360,11
5522984,11
5523616,16
5524232,24
5524864,12
5525488,18
5526112,25
5526744,25
5527368,25
5527996,22
5528628,13
5529248,15
5529880,10
5530504,21
5531132,27
5531764,22
5532384,15
5533012,10
5533636,25
5534260,36
5534892,42
5535512,37
5536144,25
5536768,23
5537392,23
5538020,13
5538644,16
5539276,29
5539904,16
5540528,13
5541156,11
5541780,11
5542408,13
5543036,26
5543656,39
5544288,37
5544912,41
5545536,33
5546168,23
5546784,13
5547416,14
5548044,16
5548664,18
5549296,15
5549920,11
5550552,10
5551180,11
5551800,11
5552432,11
5553056,12
5553680,11
5554308,11
5554928,15
5555560,25
5556184,24
5556808,17
5557436,10
5558056,12
5558688,15
5559320,10
5559936,11
5560568,15
5561192,19
5561824,12
5562456,16
5563072,18
5563704,17
5564328,21
5564952,11
5565584,15
5566200,17
5566832,25
5567460,41
5568084,46
5568712,39
5569336,39
5569968,43
5570596,39
5571216,26
5571844,11
5572468,22
5573100,19
5573728,10
5574352,11
5574984,12
5575608,14
5576232,17
5576860,10
5577480,14
5578112,14
5578736,13
5579360,23
5579992,36
5580616,33
5581248,23
5581876,18
5582496,11
5583124,19
5583752,15
5584380,21
5585012,23
5585632,23
5586260,39
5586888,87
5587512,86
5588140,77
5588760,57
5589392,28
5590020,10
5590640,23
5591272,57
5591896,89
5592524,72
5593156,58
5593776,49
5594408,44
5595032,45
5595656,19
5596288,10
5596904,16
5597536,22
5598160,24
5598784,19
5599416,20
5600032,28
5600664,25
5601292,25
5601912,28
5602540,17
5603164,10
5603796,11
5604428,11
5605048,11
5605676,13
5606304,21
5606928,42
5607556,54
5608176,47
5608804,33
5609428,11
5610052,19
5610684,11
5611304,16
5611936,13
5612564,20
5613184,26
5613812,11
5614440,11
5615068,10
5615700,12
5616320,11
5616948,12
5617572,21
5618200,20
5618828,27
5619448,25
5620076,14
5620700,11
5621328,19
5621956,29
5622576,18
5623204,11
5623836,11
5624456,16
5625084,11
5625712,11
5626340,13
5626972,15
5627592,11
5628224,10
5628848,24
5629472,38
5630104,19
5630720,21
5631352,41
5631980,55
5632604,54
5633236,46
5633860,44
5634488,35
5635116,26
5635736,14
5636364,17
5636988,21
5637620,16
5638248,17
5638868,11
5639496,12
5640120,11
5640744,11
5641372,12
5641992,12
5642620,13
5643244,10
5643868,17
5644500,16
5645124,10
5645752,14
5646380,10
5647000,10
5647628,17
5648256,32
5648884,32
5649512,23
5650136,17
5650764,11
5651392,23
5652016,15
5652644,13
5653264,14
5653892,10
5654516,12
5655140,12
5655772,14
5656396,22
5657024,50
5657656,58
5658272,54
5658900,37
5659524,29
5660152,18
5660784,20
5661404,55
5662032,74
5662660,49
5663284,21
5663912,20
5664532,44
5665160,57
5665784,39
5666408,19
5667040,44
5667664,60
5668296,58
5668924,24
5669544,11
5670176,15
5670800,19
5671428,24
5672060,26
5672680,14
5673312,11
5673936,28
5674560,32
5675188,24
5675808,20
5676440,13
5677068,14
5677688,14
5678320,13
5678944,14
5679572,23
5680204,11
5680824,11
5681452,13
5682076,14
5682704,13
5683332,13
5683952,13
5684580,12
5685204,12
5685828,10
5686460,20
5687080,13
5687708,17
5688340,18
5688960,18
5689588,31
5690216,30
5690844,27
5691476,14
5692096,12
5692728,11
5693352,13
5693976,20
5694608,15
5695224,11
5695856,17
5696480,19
5697104,15
5697732,14
5698352,17
5698984,28
5699612,20
5700232,11
5700864,12
5701488,14
5702116,21
5702748,24
5703368,35
5704000,37
5704624,34
5705248,41
5705876,60
5706496,39
5707128,11
5707752,24
5708376,40
5709008,46
5709624,47
5710256,34
5710888,16
5711504,10
5712136,10
5712760,11
5713392,15
5714020,24
5714640,24
5715268,15
5715896,10
5716520,11
5717148,24
5717768,35
5718400,63
5719024,88
5719648,73
5720280,48
5720904,28
5721536,17
5722168,11
5722784,45
5723416,93
5724044,87
5724676,31
5725308,11
5725928,18
5726560,29
5727184,27
5727808,10
5728440,16
5729064,34
5729696,27
5730324,20
5730944,16
5731576,12
5732204,11
5732836,10
5733464,10
5734088,10
5734720,11
5735344,12
5735968,9
5736544,10
5737172,15
5737800,17
5738424,17
5739048,14
5739676,18
5740296,14
5740924,16
5741548,25
5742172,20
5742804,15
5743428,11
5744056,11
5744688,12
5745304,14
5745932,19
5746556,23
5747188,14
5747820,10
5748440,11
5749068,16
5749696,25
5750320,26
5750952,22
5751568,11
5752200,11
5752824,16
5753448,22
5754080,38
5754704,45
5755336,39
5755964,12
5756584,16
5757216,13
5757840,13
5758472,10
5759100,11
5759720,24
5760352,55
5760976,62
5761600,64
5762228,64
5762848,57
5763476,44
5764104,22
5764728,14
5765356,12
5765980,21
5766612,31
5767240,37
5767856,28
5768488,34
5769108,23
5769736,17
5770364,34
5770984,44
5771612,13
5772236,23
5772860,19
5773492,10
5774112,11
5774740,14
5775372,16
5775992,16
5776620,13
5777244,15
5777876,32
5778504,28
5779128,35
5779760,50
5780384,40
5781008,30
5781636,28
5782256,34
5782884,29
5783508,12
5784136,23
5784764,14
5785384,27
5786016,45
5786644,52
5787264,59
5787892,29
5788516,32
5789148,30
5789776,20
5790396,17
5791024,10
5791652,16
5792276,13
5792904,26
5793528,25
5794156,11
5794784,24
5795408,34
5796036,17
5796656,20
5797284,31
5797916,20
5798536,21
5799164,33
5799788,26
5800420,19
5801052,12
5801672,12
5802300,11
5802924,19
5803548,63
5804180,75
5804800,65
5805428,48
5806052,48
5806680,37
5807308,24
5807928,12
5808560,25
5809188,13
5809808,12
5810436,11
5811064,12
5811696,19
5812324,25
5812944,21
5813576,35
5814200,33
5814824,19
5815456,12
5816072,10
5816704,21
5817328,37
5817952,31
5818580,18
5819204,16
5819836,11
5820468,10
5821088,14
5821720,16
5822344,38
5822976,43
5823604,36
5824224,24
5824852,21
5825476,15
5826100,11
5826732,20
5827352,39
5827980,48
5828608,58
5829232,56
5829860,45
5830484,30
5831116,21
5831748,10
5832368,12
5832996,16
5833624,43
5834248,55
5834876,45
5835496,31
5836128,20
5836756,10
5837380,14
5838012,33
5838632,24
5839264,11
5839892,14
5840512,15
5841140,9
5841712,11
5842348,11
5842980,20
5843600,42
5844228,37
5844852,16
5845484,18
5846116,15
5846736,11
5847368,11
5847988,10
5848616,16
5849244,14
5849864,16
5850492,22
5851116,27
5851744,20
5852376,15
5853000,19
5853628,19
5854260,58
5854880,77
5855512,48
5856136,33
5856764,21
5857396,13
5858016,23
5858644,49
5859268,77
5859892,48
5860524,28
5861144,11
5861772,11
5862404,11
5863024,15
5863652,11
5864280,12
5864908,11
5865540,13
5866160,11
5866792,15
5867416,15
5868040,19
5868668,11
5869288,11
5869916,11
5870544,14
5871168,16
5871800,11
5872420,23
5873048,32
5873680,23
5874300,22
5874932,21
5875556,11
5876188,10
5876820,16
5877440,14
5878072,11
5878696,17
5879320,23
5879952,11
5880572,15
5881200,16
5881828,24
5882452,11
5883084,34
5883704,42
5884336,63
5884968,49
5885584,17
5886216,15
5886840,23
5887472,27
5888104,11
5888720,23
5889348,24
5889972,13
5890596,29
5891228,36
5891848,15
5892476,19
5893104,46
5893728,44
5894360,22
5894984,11
5895616,13
5896244,11
5896864,21
5897496,39
5898120,46
5898752,61
5899380,67
5900000,53
5900628,57
5901256,46
5901880,17
5902508,14
5903128,31
5903760,32
5904384,20
5905008,13
5905636,13
5906260,10
5906892,23
5907520,30
5908144,23
5908776,15
5909400,22
5910024,43
5910652,49
5911272,37
5911904,14
5912528,10
5913152,26
5913784,51
5914400,33
5915032,16
5915664,11
5916280,25
5916912,29
5917536,37
5918168,53
5918796,36
5919416,27
5920048,28
5920668,14
5921292,14
5921920,10
5922544,22
5923172,14
5923800,11
5924424,28
5925052,52
5925672,64
5926304,41
5926932,30
5927552,32
5928184,12
5928808,24
5929436,32
5930068,28
5930688,12
5931320,11
5931944,19
5932568,25
5933200,18
5933816,13
5934448,12
5935072,18
5935696,27
5936328,30
5936944,28
5937576,24
5938208,23
5938824,25
5939456,13
5940080,12
5940708,12
5941340,10
5941960,11
5942588,11
5943212,15
5943836,31
5944468,30
5945088,14
5945716,11
5946340,12
5946964,23
5947596,28
5948216,31
5948848,43
5949476,32
5950096,21
5950724,21
5951352,13
5951984,15
5952616,21
5953232,15
5953860,13
5954488,23
5955112,22
5955740,11
5956360,14
5956988,14
5957616,16
5958240,35
5958868,37
5959496,26
5960124,19
5960756,26
5961376,22
5962008,17
5962632,40
5963260,36
5963892,27
5964512,13
5965144,11
5965768,14
5966388,12
5967020,17
5967640,32
5968272,29
5968900,15
5969520,12
5970152,11
5970776,30
5971404,24
5972036,18
5972656,11
5973284,16
5973912,23
5974536,20
5975168,54
5975784,67
5976416,30
5977040,13
5977664,31
5978296,44
5978912,62
5979544,80
5980176,53
5980792,25
5981424,17
5982048,13
5982680,15
5983308,16
5983928,10
5984560,22
5985184,19
5985808,13
5986436,10
5987056,13
5987688,11
5988312,11
5988936,12
5989568,18
5990184,11
5990816,16
5991448,14
5992068,10
5992696,15
5993320,12
5993952,11
5994580,10
5995200,11
5995832,13
5996456,11
5997080,11
5997712,18
5998328,24
5998960,22
5999584,21
6000208,13
6000840,13
6001456,13
6002088,14
6002716,29
6003336,33
6003964,45
6004588,41
6005220,31
6005852,40
6006472,32
6007104,13
6007728,19
6008352,42
6008984,41
6009600,21
6010228,17
6010856,30
6011480,36
6012112,35
6012732,22
6013360,15
6013992,30
6014616,25
6015248,39
6015876,38
6016508,41
6017136,60
6017760,54
6018388,32
6019016,33
6019640,27
6020272,29
6020888,22
6021520,11
6022148,34
6022768,60
6023396,76
6024024,69
6024652,71
6025284,85
6025904,89
6026536,76
6027160,63
6027784,43
6028416,18
6029032,11
6029664,37
6030288,73
6030912,78
6031544,15
6032164,30
6032792,45
6033424,68
6034044,67
6034672,53
6035300,20
6035928,45
6036560,72
6037180,69
6037812,32
6038436,33
6039060,17
6039692,28
6040312,36
6040944,36
6041568,13
6042196,23
6042824,20
6043448,19
6044076,25
6044708,16
6045328,14
6045960,22
6046584,31
6047216,27
6047844,23
6048464,15
6049092,10
6049720,14
6050344,13
6050976,14
6051592,19
6052224,31
6052852,31
6053476,31
6054108,31
6054732,29
6055364,23
6055992,12
6056616,15
6057248,21
6057876,25
6058504,18
6059136,11
6059756,13
6060388,22
6061012,48
6061636,43
6062268,34
6062888,43
6063516,47
6064148,28
6064768,11
6065396,25
6066024,40
6066652,41
6067284,28
6067904,36
6068536,40
6069160,21
6069784,13
6070416,15
6071032,11
6071664,12
6072288,12
6072916,10
6073544,10
6074168,12
6074800,11
6075432,22
6076048,44
6076680,48
6077308,48
6077940,47
6078568,36
6079192,26
6079824,14
6080452,15
6081076,11
6081708,10
6082328,17
6082960,50
6083584,62
6084208,50
6084836,32
6085460,16
6086092,18
6086724,46
6087344,86
6087976,94
6088600,61
6089224,37
6089856,29
6090472,20
6091104,13
6091728,13
6092352,27
6092984,40
6093600,57
6094232,59
6094864,43
6095480,29
6096112,21
6096736,17
6097364,12
6097996,34
6098616,35
6099248,15
6099872,13
6100496,11
6101124,12
6101744,12
6102376,18
6103000,15
6103628,15
6104260,13
6104880,13
6105512,25
6106144,24
6106760,19
6107392,27
6108016,12
6108648,37
6109276,32
6109896,39
6110528,31
6111152,24
6111780,38
6112412,24
6113032,14
6113664,11
6114288,13
6114912,12
6115544,10
6116168,11
6116800,11
6117428,15
6118048,30
6118680,36
6119308,38
6119936,51
6120568,42
6121192,34
6121824,19
6122448,15
6123072,19
6123704,14
6124324,47
6124952,50
6125584,41
6126208,49
6126840,33
6127464,23
6128096,21
6128724,23
6129344,22
6129976,30
6130600,30
6131228,15
6131856,11
6132480,21
6133112,27
6133736,28
6134364,20
6134996,17
6135624,15
6136256,27
6136888,36
6137508,31
6138140,34
6138768,11
6139400,44
6140032,31
6140652,10
6141284,17
6141908,38
6142536,37
6143168,21
6143788,23
6144424,33
6145052,86
6145672,77
6146300,45
6146924,20
6147552,10
6148184,31
6148800,66
6149428,117
6150104,91
6150720,28
6151352,29
6151968,40
6152600,25
6153228,25
6153848,43
6154476,28
6155100,12
6155732,11
6156364,10
6156984,11
6157612,15
6158236,18
6158860,12
6159492,22
6160112,17
6160740,16
6161364,13
6161988,21
6162620,22
6163240,21
6163868,19
6164500,16
6165120,13
6165748,17
6166372,40
6167004,46
6167636,26
6168256,11
6168884,19
6169512,17
6170136,21
6170764,20
6171384,26
6172012,25
6172640,15
6173264,11
6173892,10
6174512,21
6175144,24
6175772,13
6176392,17
6177020,15
6177644,24
6178276,19
6178908,12
6179528,25
6180160,22
6180780,25
6181408,26
6182036,21
6182656,20
6183284,23
6183912,10
6184536,11
6185168,14
6185784,39
6186412,36
6187044,10
6187664,16
6188292,14
6188920,13
6189548,29
6190180,32
6190800,32
6191432,25
6192056,13
6192680,28
6193308,41
6193928,35
6194560,18
6195184,20
6195808,27
6196440,20
6197064,14
6197696,14
6198324,17
6198944,11
6199576,27
6200200,22
6200832,19
6201460,11
6202080,11
6202708,15
6203336,55
6203960,92
6204592,24
6205212,25
6205840,39
6206472,51
6207092,31
6207724,33
6208348,38
6208976,25
6209608,48
6210224,52
6210856,54
6211480,51
6212104,44
6212736,46
6213352,24
6213984,18
6214608,43
6215232,45
6215864,31
6216484,25
6217112,24
6217744,11
6218360,29
6218992,30
6219616,20
6220248,11
6220880,16
6221496,25
6222128,43
6222752,45
6223376,31
6224008,11
6224624,21
6225256,11
6225880,35
6226504,39
6227136,15
6227756,16
6228384,29
6229016,40
6229636,48
6230264,53
6230892,43
6231520,32
6232152,17
6232772,14
6233404,12
6234028,31
6234652,36
6235284,20
6235904,10
6236536,11
6237160,13
6237784,12
6238416,16
6239032,19
6239664,12
6240296,23
6240912,31
6241544,13
6242168,19
6242796,36
6243428,52
6244048,47
6244676,38
6245304,21
6245928,15
6246560,26
6247176,24
6247804,12
6248428,17
6249052,25
6249680,12
6250304,11
6250932,16
6251564,24
6252184,24
6252812,28
6253436,25
6254068,21
6254700,11
6255320,12
6255952,25
6256576,27
6257200,15
6257828,11
6258448,15
6259080,24
6259704,20
6260328,13
6260960,35
6261584,48
6262216,33
