tempo_arduino_micro_s,valor_ADC
500,29
1004,26
1504,27
2000,28
2508,23
3000,14
3508,16
4000,17
4508,20
5000,26
5500,27
6000,25
6500,18
7004,14
7500,15
8000,14
8500,15
9000,22
9500,18
10000,19
10516,22
11036,16
11564,15
12084,21
12612,27
13132,33
13660,41
14180,43
14708,40
15228,34
15756,30
16276,33
16796,35
17316,22
17836,13
18356,10
18876,15
19396,14
19916,17
20436,19
20956,20
21476,18
21996,12
22516,13
23036,17
23564,27
24084,23
24612,11
25132,12
25660,15
26180,20
26708,19
27228,19
27756,16
28276,29
28804,29
29324,26
29852,31
30372,38
30900,37
31420,41
31948,41
32468,31
32996,24
33516,22
34044,18
34564,14
35092,10
35612,16
36140,15
36660,18
37188,17
37708,16
38236,16
38760,11
39284,13
39804,15
40332,16
40852,18
41372,20
41892,27
42412,29
42932,29
43452,23
43972,20
44492,16
45012,18
45532,21
46052,21
46572,22
47092,27
47612,30
48140,34
48660,38
49188,28
49708,23
50236,18
50760,10
51284,12
51804,15
52332,18
52852,18
53380,19
53900,19
54428,20
54948,23
55476,18
55996,11
56524,10
57044,11
57572,10
58096,11
58620,18
59140,24
59668,29
60188,27
60716,22
61240,15
61764,19
62284,22
62812,25
63332,32
63860,38
64384,41
64908,33
65428,33
65948,32
66468,30
66988,26
67508,15
68028,10
68548,12
69068,16
69588,16
70108,18
70628,16
71148,16
71672,18
72192,22
72716,21
73236,15
73764,10
74284,10
74812,13
75332,31
75860,32
76384,32
76908,30
77428,26
77956,20
78480,17
79004,25
79528,31
80052,33
80572,42
81100,51
81620,60
82148,57
82668,45
83196,37
83720,29
84244,18
84764,15
85292,12
85812,16
86340,21
86860,22
87388,24
87908,31
88436,32
88956,25
89484,17
90004,15
90524,11
91044,12
91564,18
92084,30
92604,39
93124,32
93644,18
94164,18
94684,26
95204,25
95724,23
96248,19
96764,14
97292,22
97812,34
98340,41
98860,39
99388,28
99908,28
100436,27
101000,16
101584,11
102156,17
102736,14
103304,16
103880,17
104456,18
105024,17
105600,18
106168,17
106744,19
107312,22
107896,31
108464,33
109040,37
109624,34
110192,27
110768,22
111336,16
111920,15
112492,17
113072,21
113640,36
114216,44
114800,48
115368,44
115952,35
116520,27
117104,20
117672,11
118248,12
118832,16
119400,15
119984,17
120556,18
121136,17
121704,13
122288,10
122856,11
123436,10
124016,11
124584,24
125168,29
125736,25
126320,26
126892,26
127464,20
128048,19
128616,17
129192,18
129760,27
130344,45
130912,46
131496,46
132064,38
132640,29
133224,33
133792,28
134368,13
134936,11
135520,16
136088,15
136664,17
137240,18
137808,18
138392,12
138960,11
139544,12
140112,11
140696,13
141268,26
141840,33
142424,32
142992,26
143576,17
144144,17
144728,17
145296,18
145872,19
146448,23
147016,25
147600,26
148168,26
148752,30
149324,27
149904,25
150472,24
151048,23
151632,15
152204,15
152784,14
153356,18
153936,18
154512,17
155088,11
155672,11
156244,15
156824,25
157392,19
157976,13
158548,19
159128,23
159700,23
160276,18
160856,17
161424,17
162000,17
162568,17
163144,16
163716,10
164296,10
164872,18
165440,33
166016,47
166584,48
167160,37
167728,25
168312,14
168880,17
169456,14
170032,17
170600,18
171184,20
171756,19
172336,18
172904,18
173488,13
174056,13
174636,17
175216,26
175784,26
176368,23
176936,22
177520,17
178088,17
178664,18
179248,21
179816,21
180392,30
180960,34
181544,34
182112,32
182696,26
183264,21
183840,11
184424,11
184992,13
185568,14
186140,15
186720,17
187288,19
187864,21
188448,17
189016,18
189600,17
190168,17
190752,17
191324,23
191904,32
192476,28
193048,24
193632,22
194200,17
194784,18
195352,23
195936,26
196504,34
197080,41
197664,40
198232,40
198816,36
199384,24
199968,20
200540,14
201120,11
201688,11
202264,15
202848,16
203420,17
204000,17
204568,18
205152,12
205720,10
206288,11
206864,11
207432,9
207956,15
208532,21
209112,23
209680,23
210264,17
210832,19
211408,18
211992,19
212560,23
213144,22
213712,29
214296,28
214864,27
215448,25
216016,26
216592,28
217176,25
217748,18
218328,15
218896,17
219480,15
220048,19
220624,18
221208,21
221776,26
222360,23
222932,19
223512,15
224084,13
224664,11
225232,15
225812,17
226392,19
226960,25
227544,16
228112,20
228696,22
229264,18
229840,18
230424,25
230992,35
231568,43
232140,40
232720,33
233292,29
233872,28
234444,25
235016,16
235600,16
236168,16
236752,16
237324,16
237904,19
238476,23
239056,30
239632,18
240204,11
240784,11
241352,11
241936,13
242504,20
243088,23
243660,26
244232,17
244816,22
245384,24
245968,22
246536,20
247120,25
247688,24
248272,15
248848,14
249416,20
250000,26
250568,22
251152,22
251724,25
252304,20
252876,15
253452,18
254032,24
254604,24
255184,20
255756,24
256336,21
256912,13
257488,14
258064,17
258632,20
259208,19
259776,17
260352,18
260920,17
261504,17
262072,18
262648,23
263232,27
263800,34
264384,35
264952,40
265536,36
266108,28
266688,17
267256,10
267832,11
268416,11
268984,16
269568,17
270136,18
270720,18
271288,19
271868,18
272448,22
273016,19
273600,13
274168,12
274752,13
275324,22
275904,26
276476,26
277052,20
277632,15
278204,19
278784,18
279356,22
279936,25
280508,30
281084,35
281664,35
282232,30
282816,27
283388,22
283968,13
284540,11
285120,10
285688,16
286264,16
286848,16
287416,18
288000,17
288568,13
289144,10
289712,10
290288,13
290872,15
291444,15
292024,23
292592,27
293176,17
293748,15
294328,24
294900,26
295472,27
296056,27
296624,29
297208,33
297776,42
298360,45
298928,23
299504,15
300088,14
300660,10
301240,10
301812,12
302392,16
302964,25
303544,24
304116,19
304692,16
305272,13
305844,12
306424,12
306996,10
307576,13
308152,29
308732,35
309312,30
309884,23
310464,19
311036,16
311616,19
312196,26
312776,26
313352,27
313924,34
314504,38
315076,34
315656,28
316236,20
316816,14
317388,11
317964,10
318544,20
319116,25
319696,26
320276,24
320856,18
321424,14
322000,16
322584,24
323152,26
323736,27
324304,30
324888,25
325456,26
326040,22
326612,21
327184,16
327768,19
328336,25
328912,24
329480,27
330064,38
330632,42
331216,43
331792,36
332364,26
332944,24
333512,21
334088,12
334656,11
335232,16
335800,15
336376,17
336960,18
337528,17
338104,14
338672,11
339256,12
339824,13
340408,13
340976,18
341552,22
342136,25
342708,26
343288,21
343856,18
344440,16
345008,19
345584,21
346168,21
346740,27
347320,34
347892,35
348472,36
349044,28
349624,23
350192,18
350772,12
351352,10
351924,17
352504,15
353080,16
353664,16
354232,18
354812,17
355392,15
355964,17
356544,24
357116,24
357696,20
358276,19
358856,19
359440,24
360008,16
360592,17
361164,18
361744,20
362312,21
362896,24
363464,32
364044,31
364624,35
365196,32
365776,15
366348,17
366928,21
367500,21
368080,14
368656,16
369224,14
369808,17
370376,22
370960,24
371532,23
372112,23
372684,23
373256,18
373840,18
374408,17
374992,17
375564,22
376144,31
376716,32
377296,19
377872,18
378444,19
379024,24
379596,32
380176,34
380748,27
381328,33
381908,31
382484,20
383064,23
383636,17
384216,10
384792,11
385376,16
385944,16
386520,18
387104,17
387676,19
388256,17
388828,17
389408,13
389980,11
390560,12
391128,16
391708,22
392288,19
392860,16
393440,15
394012,17
394592,20
395164,23
395740,28
396320,26
396892,20
397472,19
398044,27
398624,33
399196,30
399780,30
400356,17
400928,11
401512,13
402084,16
402664,20
403236,19
403816,17
404388,16
404964,15
405544,12
406116,11
406696,12
407268,18
407848,22
408420,27
409000,24
409572,24
410148,18
410728,17
411296,21
411872,22
412440,27
413024,26
413592,23
414168,19
414752,18
415320,22
415904,33
416476,45
417056,39
417624,30
418208,22
418776,19
419352,16
419936,19
420504,22
421088,24
421656,19
422240,21
422808,17
423384,15
423968,11
424536,10
425120,16
425688,17
426272,17
426840,19
427424,14
427996,17
428572,17
429152,17
429724,15
430304,27
430872,42
431456,45
432028,40
432600,37
433184,31
433756,20
434336,14
434908,11
435488,15
436056,17
436640,18
437208,18
437784,17
438368,18
438940,24
439520,23
440092,16
440672,13
441240,15
441820,25
442400,29
442968,27
443552,18
444124,18
444704,21
445276,22
445856,24
446428,31
447004,41
447584,45
448156,46
448736,40
449304,34
449888,24
450456,14
451036,10
451616,11
452184,17
452768,16
453340,22
453920,17
454492,17
455072,10
455644,12
456220,11
456800,10
457368,11
457952,15
458524,22
459104,24
459676,20
460252,17
460832,15
461400,17
461984,19
462556,19
463136,30
463708,38
464288,46
464856,50
465436,45
466016,33
466584,25
467168,12
467740,11
468320,13
468892,15
469464,19
470048,25
470620,26
471200,28
471768,27
472352,14
472924,11
473504,11
474076,11
474652,11
475232,18
475804,18
476384,22
476964,27
477544,17
478116,20
478692,27
479272,38
479848,51
480424,47
480996,38
481576,33
482148,26
482728,26
483296,24
483872,15
484456,15
485028,14
485608,15
486180,15
486760,16
487336,18
487916,19
488496,19
489068,27
489648,38
490220,34
490800,28
491380,25
491960,22
492540,19
493116,15
493696,17
494268,18
494848,21
495416,24
496000,27
496568,34
497148,42
497728,43
498296,27
498880,19
499452,17
500032,15
500604,11
501184,9
501704,16
502276,15
502856,16
503428,16
504008,18
504580,14
505160,11
505732,11
506312,9
506832,10
507404,10
507984,19
508556,41
509136,52
509716,49
510296,40
510876,24
511452,17
512036,19
512604,24
513184,37
513752,44
514336,44
514904,34
515488,23
516056,23
516632,19
517216,15
517784,18
518368,24
518940,23
519520,18
520092,18
520664,17
521248,23
521816,29
522400,25
522968,14
523552,9
524072,11
524648,16
525220,24
525792,24
526376,18
526948,16
527528,16
528096,18
528680,20
529248,18
529832,24
530404,27
530976,32
531560,37
532132,32
532712,27
533288,21
533872,12
534444,10
535016,18
535600,22
536172,20
536752,19
537324,17
537904,13
538472,15
539056,22
539628,26
540204,18
540784,19
541356,21
541936,25
542516,24
543096,21
543668,18
544244,15
544824,25
545392,25
545976,22
546544,23
547128,33
547700,49
548280,50
548852,47
549428,41
550008,25
550580,12
551160,23
551732,18
552312,17
552884,17
553460,16
554040,17
554612,13
555192,10
555764,11
556344,13
556916,16
557496,24
558068,30
558644,27
559224,29
559796,23
560376,17
560956,15
561536,17
562108,17
562684,22
563264,27
563832,28
564416,33
564988,40
565568,36
566140,31
566720,23
567292,14
567868,10
568448,15
569016,15
569600,16
570168,18
570752,16
571324,13
571900,13
572480,12
573052,11
573632,14
574204,17
574784,25
575356,36
575936,42
576520,33
577092,20
577672,16
578240,17
578824,17
579392,18
579976,28
580548,42
581124,45
581704,42
582276,32
582856,23
583428,14
584008,9
584524,16
585104,18
585676,15
586252,18
586832,26
587404,26
587984,21
588556,18
589136,14
589716,10
590292,10
590872,11
591444,16
592024,22
592592,23
593176,24
593756,15
594336,16
594916,20
595492,20
596072,24
596644,30
597224,34
597796,35
598376,35
598956,25
599532,24
600112,22
600684,15
601264,13
601836,16
602416,14
602988,22
603568,22
604140,22
604716,14
605296,10
605868,10
606448,12
607028,15
607608,24
608188,39
608764,35
609344,25
609916,17
610496,16
611068,18
611648,17
612228,18
612808,22
613392,34
613968,42
614548,46
615116,38
615696,28
616264,25
616848,15
617420,10
617996,11
618576,16
619148,16
619728,17
620308,18
620888,21
621464,16
622044,12
622624,11
623196,11
623776,14
624352,17
624928,19
625500,33
626080,35
626660,24
627236,15
627816,19
628388,30
628968,35
629548,38
630128,41
630708,44
631284,39
631864,25
632436,15
633016,14
633588,14
634172,22
634748,18
635328,18
635912,16
636488,16
637064,17
637636,22
638216,22
638796,22
639376,26
639956,28
640532,30
641112,30
641684,18
642264,11
642832,14
643416,25
643984,28
644564,28
645144,23
645712,22
646296,21
646868,26
647448,29
648020,32
648600,29
649172,30
649748,32
650328,30
650900,23
651480,16
652052,17
652632,17
653204,15
653780,17
654360,18
654932,14
655512,22
656084,32
656664,32
657232,33
657808,29
658376,34
658956,35
659536,26
660104,26
660688,16
661256,19
661840,23
662408,29
662992,38
663568,41
664140,51
664720,50
665292,39
665872,33
666440,30
667024,15
667592,10
668168,12
668752,15
669324,18
669904,19
670476,22
671056,22
671624,15
672208,11
672784,12
673356,14
673936,15
674504,18
675088,25
675660,27
676240,21
676808,18
677384,16
677968,18
678540,18
679120,20
679692,27
680272,33
680844,40
681424,38
682000,31
682568,26
683152,24
683724,14
684304,12
684876,14
685456,14
686028,19
686604,23
687184,29
687756,23
688336,15
688904,11
689488,10
690060,11
690640,19
691216,18
691784,26
692368,37
692940,33
693520,21
694092,18
694672,17
695244,22
695820,29
696400,36
696972,38
697552,34
698124,33
698704,33
699276,37
699856,30
700432,16
701004,10
701584,16
702156,14
702736,16
703316,16
703896,18
704476,13
705052,10
705632,14
706204,11
706784,13
707356,20
707936,28
708508,32
709084,35
709664,22
710236,15
710816,18
711388,28
711968,37
712548,36
713128,37
713700,44
714276,49
714856,46
715428,38
716008,30
716588,14
717168,11
717744,11
718324,20
718904,18
719476,16
720056,18
720624,24
721208,14
721780,10
722360,11
722932,11
723508,11
724088,17
724656,29
725240,39
725812,43
726392,32
726964,18
727540,16
728120,21
728692,25
729272,35
729844,45
730424,41
730996,40
731576,37
732148,24
732724,19
733304,16
733876,12
734456,10
735036,16
735616,16
736196,16
736772,16
737352,18
737920,20
738504,18
739076,13
739656,9
740176,10
740752,13
741324,21
741900,24
742480,24
743052,21
743632,21
744204,17
744784,17
745356,21
745936,22
746520,20
747092,19
747672,39
748244,43
748824,31
749392,30
749976,24
750556,15
751132,13
751712,18
752288,16
752864,16
753436,16
754016,18
754596,15
755172,12
755756,14
756328,27
756904,31
757476,26
758056,18
758636,14
759216,16
759796,19
760372,16
760952,16
761524,16
762104,18
762684,18
763264,23
763844,25
764420,26
765000,27
765572,23
766152,23
766728,17
767304,13
767884,12
768468,18
769048,16
769616,17
770200,17
770772,19
771352,17
771924,13
772504,11
773076,10
773652,10
774232,15
774804,29
775384,33
775956,29
776536,24
777116,15
777692,17
778272,21
778840,22
779424,29
779996,44
780576,49
781156,45
781736,37
782308,32
782884,29
783464,19
784036,13
784616,16
785188,21
785768,17
786348,16
786924,17
787504,17
788076,14
788656,14
789228,15
789808,16
790380,16
790964,22
791540,39
792116,44
792696,33
793272,24
793852,15
794428,19
795008,21
795580,25
796156,29
796736,29
797312,35
797888,35
798464,30
799040,26
799620,23
800200,22
800784,15
801356,21
801936,22
802504,19
803088,19
803660,20
804240,16
804808,11
805384,12
805968,16
806540,20
807120,19
807692,28
808272,44
808844,43
809424,32
810000,21
810572,16
811152,18
811724,22
812304,20
812876,20
813456,29
814028,29
814604,36
815184,39
815756,39
816340,32
816916,13
817496,12
818076,15
818652,15
819232,17
819804,19
820384,18
820952,14
821536,10
822104,10
822688,10
823256,12
823832,21
824416,24
824984,28
825560,22
826132,19
826712,17
827284,15
827856,20
828440,25
829008,27
829592,32
830164,35
830744,36
831316,35
831896,35
832476,34
833048,27
833632,15
834200,10
834784,14
835352,16
835936,17
836504,17
837080,21
837664,30
838236,23
838816,16
839388,11
839968,10
840540,13
841120,25
841688,35
842264,41
842848,35
843420,24
844000,16
844568,22
845152,28
845720,29
846296,30
846880,31
847448,35
848032,38
848600,37
849184,33
849756,27
850336,16
850908,10
851484,15
852064,16
852632,18
853216,16
853784,18
854368,16
854940,14
855516,12
856096,11
856668,10
857248,16
857820,27
858400,33
858972,37
859552,32
860124,19
860700,15
861280,19
861848,24
862432,27
863004,35
863584,36
864156,39
864732,39
865312,31
865884,27
866464,24
867036,16
867616,12
868196,17
868776,16
869348,16
869924,17
870504,18
871072,18
871656,20
872228,27
872808,17
873376,11
873956,11
874536,11
875108,15
875688,28
876260,29
876840,17
877408,17
877992,17
878564,18
879140,18
879720,14
880292,22
880872,32
881440,41
882024,37
882596,36
883172,23
883752,15
884324,12
884904,16
885476,15
886056,17
886628,18
887208,16
887780,14
888356,22
888936,26
889508,19
890088,20
890668,24
891248,22
891828,18
892404,16
892984,13
893556,17
894136,21
894708,20
895288,21
895868,18
896452,18
897032,34
897604,45
898184,48
898756,39
899336,29
899908,14
900488,9
901008,10
901584,15
902168,14
902740,18
903320,19
903892,21
904472,23
905044,26
905624,20
906192,16
906772,14
907352,15
907924,21
908504,16
909076,19
909656,19
910228,18
910804,16
911384,17
911956,18
912536,20
913108,26
913688,30
914268,35
914848,33
915420,29
915996,23
916576,14
917148,11
917728,12
918300,15
918880,16
919460,18
920036,18
920616,20
921188,14
921768,12
922340,11
922920,11
923492,13
924072,16
924644,21
925220,22
925800,24
926372,24
926952,16
927532,15
928112,19
928688,25
929264,24
929848,24
930420,28
931000,35
931572,33
932152,24
932732,20
933312,14
933896,12
934468,12
935048,17
935620,16
936200,22
936780,24
937360,26
937940,22
938516,15
939096,11
939672,10
940248,11
940828,18
941408,27
941980,26
942556,18
943136,17
943708,18
944288,16
944860,17
945440,19
946012,21
946592,26
947164,33
947740,40
948320,40
948892,37
949472,30
950044,24
950624,24
951204,26
951780,22
952360,19
952932,25
953512,23
954088,20
954664,16
955236,12
955816,12
956396,10
956972,13
957552,22
958128,33
958704,27
959284,27
959868,20
960444,17
961020,27
961600,27
962168,17
962752,11
963324,15
963904,29
964476,40
965056,35
965640,31
966212,33
966792,28
967364,25
967944,22
968516,20
969096,18
969668,18
970244,19
970824,21
971396,15
971976,11
972552,10
973132,14
973708,22
974288,25
974864,27
975436,26
976016,23
976588,17
977168,16
977740,18
978320,19
978900,20
979476,25
980056,39
980628,40
981208,37
981788,27
982368,26
982948,21
983524,12
984104,10
984676,17
985256,15
985828,17
986408,17
986976,16
987560,13
988132,17
988708,19
989288,18
989860,20
990440,20
991012,24
991592,34
992172,26
992744,22
993328,18
993900,18
994480,17
995052,20
995632,27
996212,33
996792,37
997364,27
997940,32
998520,31
999092,29
999672,19
1000244,10
1000868,11
1001496,18
1002120,21
1002748,20
1003372,17
1004000,17
1004628,15
1005248,13
1005876,16
1006500,28
1007124,31
1007752,26
1008368,20
1009000,18
1009620,17
1010244,20
1010872,24
1011496,28
1012124,31
1012756,36
1013376,37
1014004,35
1014628,28
1015260,20
1015888,23
1016504,16
1017136,12
1017760,11
1018380,17
1019012,16
1019632,19
1020260,17
1020884,17
1021508,19
1022140,17
1022760,13
1023388,12
1024020,14
1024636,25
1025264,32
1025884,33
1026512,24
1027140,16
1027760,24
1028388,24
1029008,25
1029636,31
1030264,33
1030880,42
1031508,37
1032132,22
1032752,18
1033380,16
1034000,17
1034628,19
1035248,17
1035872,16
1036500,19
1037124,20
1037752,17
1038380,14
1039000,12
1039628,10
1040252,11
1040880,17
1041508,22
1042128,21
1042756,21
1043376,17
1044000,17
1044628,16
1045244,23
1045872,24
1046496,23
1047116,17
1047748,24
1048368,28
1048996,26
1049624,24
1050240,18
1050868,14
1051488,21
1052116,15
1052748,16
1053368,18
1053996,21
1054620,11
1055244,10
1055872,14
1056488,16
1057116,27
1057740,44
1058364,45
1058992,32
1059608,21
1060240,17
1060860,18
1061488,24
1062116,30
1062740,33
1063368,28
1063996,26
1064616,30
1065244,23
1065868,24
1066496,15
1067124,10
1067744,12
1068372,17
1068996,17
1069616,17
1070244,16
1070864,15
1071492,18
1072116,23
1072736,23
1073368,23
1073988,22
1074620,21
1075248,18
1075864,22
1076492,18
1077112,16
1077744,25
1078372,29
1078992,32
1079620,43
1080244,48
1080868,48
1081496,40
1082112,35
1082740,26
1083364,12
1083988,12
1084616,17
1085232,16
1085864,21
1086492,22
1087112,17
1087740,10
1088364,12
1088992,11
1089620,10
1090236,12
1090868,21
1091492,27
1092112,29
1092740,31
1093360,17
1093988,18
1094612,22
1095236,25
1095864,24
1096480,30
1097108,40
1097740,42
1098360,40
1098988,33
1099612,23
1100240,16
1100872,13
1101488,16
1102116,22
1102740,26
1103364,17
1103996,16
1104616,14
1105244,12
1105868,10
1106492,11
1107120,22
1107744,34
1108372,22
1109004,18
1109624,22
1110252,15
1110876,19
1111508,28
1112136,37
1112756,46
1113384,50
1114008,44
1114632,31
1115260,16
1115880,15
1116508,13
1117132,11
1117756,11
1118388,16
1119008,17
1119636,18
1120268,19
1120888,15
1121516,11
1122140,11
1122768,12
1123396,14
1124016,25
1124644,27
1125268,25
1125896,15
1126524,18
1127140,25
1127772,23
1128392,18
1129016,14
1129644,14
1130260,35
1130892,48
1131512,49
1132140,45
1132768,33
1133392,15
1134020,11
1134652,14
1135272,16
1135900,18
1136524,18
1137156,18
1137784,11
1138404,12
1139032,14
1139656,17
1140280,27
1140908,32
1141528,36
1142156,33
1142780,22
1143408,17
1144036,23
1144660,23
1145292,24
1145920,27
1146540,28
1147168,32
1147792,37
1148420,33
1149048,26
1149672,17
1150300,10
1150924,11
1151548,17
1152180,16
1152796,20
1153428,22
1154056,19
1154672,19
1155300,19
1155924,15
1156552,14
1157180,18
1157800,25
1158428,26
1159048,22
1159680,17
1160308,18
1160928,20
1161556,22
1162180,29
1162804,34
1163432,33
1164052,31
1164680,27
1165304,26
1165928,22
1166556,15
1167180,13
1167812,19
1168440,17
1169056,17
1169684,18
1170308,17
1170936,14
1171564,16
1172184,17
1172812,11
1173436,13
1174060,27
1174688,42
1175312,39
1175940,23
1176564,19
1177188,18
1177820,30
1178444,27
1179072,19
1179700,11
1180320,16
1180948,29
1181572,41
1182204,41
1182832,34
1183448,21
1184080,17
1184700,19
1185324,16
1185956,18
1186576,19
1187204,19
1187828,15
1188452,17
1189080,18
1189704,17
1190332,25
1190964,34
1191584,38
1192212,36
1192836,31
1193468,19
1194096,18
1194712,23
1195344,23
1195968,34
1196592,39
1197224,34
1197840,37
1198468,27
1199092,19
1199716,12
1200348,10
1200972,13
1201600,20
1202228,17
1202848,16
1203476,18
1204100,15
1204728,15
1205360,14
1205976,11
1206604,11
1207228,13
1207852,24
1208480,22
1209104,19
1209732,17
1210356,15
1210980,18
1211608,20
1212232,22
1212860,31
1213492,34
1214112,35
1214740,27
1215364,21
1215996,19
1216628,10
1217248,11
1217876,15
1218500,15
1219124,20
1219756,19
1220376,19
1221004,11
1221628,11
1222256,11
1222884,11
1223508,26
1224140,43
1224772,44
1225392,43
1226020,25
1226644,21
1227272,33
1227900,35
1228520,28
1229152,21
1229772,15
1230396,21
1231024,36
1231644,38
1232272,35
1232896,21
1233520,13
1234148,16
1234772,19
1235400,17
1236028,16
1236648,17
1237276,19
1237900,26
1238528,24
1239160,13
1239776,11
1240404,11
1241028,14
1241652,21
1242280,21
1242896,19
1243524,16
1244148,17
1244772,19
1245400,19
1246024,27
1246652,36
1247284,36
1247904,30
1248536,24
1249156,23
1249788,15
1250416,12
1251032,14
1251660,16
1252284,19
1252908,22
1253540,20
1254160,19
1254788,17
1255412,11
1256036,10
1256664,10
1257288,11
1257920,16
1258548,18
1259168,22
1259796,17
1260420,16
1261052,18
1261680,28
1262304,33
1262932,35
1263556,40
1264180,43
1264812,36
1265432,28
1266060,20
1266684,12
1267312,11
1267940,20
1268564,16
1269196,16
1269824,16
1270448,19
1271076,13
1271700,17
1272328,21
1272956,24
1273576,29
1274208,30
1274832,34
1275456,30
1276084,22
1276704,15
1277336,19
1277964,19
1278584,26
1279216,31
1279840,33
1280472,31
1281100,24
1281716,21
1282344,27
1282968,23
1283588,16
1284216,11
1284836,17
1285468,17
1286088,19
1286708,19
1287340,14
1287960,11
1288588,11
1289212,10
1289832,18
1290464,20
1291084,23
1291712,18
1292340,11
1292960,18
1293588,21
1294208,25
1294840,25
1295468,30
1296088,38
1296716,36
1297336,27
1297960,18
1298588,19
1299208,17
1299836,10
1300460,20
1301084,18
1301712,18
1302328,20
1302960,18
1303588,19
1304208,25
1304836,29
1305460,21
1306092,11
1306720,11
1307336,12
1307964,20
1308588,35
1309212,38
1309844,18
1310464,19
1311092,22
1311716,25
1312340,28
1312968,35
1313584,43
1314212,45
1314840,35
1315456,32
1316084,21
1316708,10
1317336,11
1317964,16
1318584,16
1319212,17
1319832,17
1320456,20
1321084,12
1321700,14
1322332,15
1322952,21
1323576,26
1324204,28
1324824,28
1325452,28
1326072,26
1326696,17
1327324,17
1327948,27
1328576,34
1329208,46
1329824,47
1330452,41
1331076,29
1331704,31
1332336,32
1332952,20
1333580,21
1334200,19
1334824,16
1335452,16
1336072,18
1336700,19
1337320,11
1337944,15
1338572,14
1339192,11
1339820,10
1340448,16
1341072,29
1341700,39
1342324,35
1342952,23
1343580,15
1344200,21
1344828,16
1345448,21
1346068,26
1346700,42
1347320,53
1347948,45
1348568,26
1349192,18
1349820,10
1350440,13
1351068,20
1351696,17
1352312,19
1352940,17
1353564,17
1354192,10
1354824,11
1355440,11
1356068,11
1356692,17
1357316,21
1357948,26
1358568,27
1359196,21
1359820,16
1360444,20
1361072,26
1361688,27
1362316,27
1362940,34
1363560,39
1364188,41
1364812,29
1365440,25
1366068,24
1366688,15
1367316,11
1367940,16
1368568,16
1369196,15
1369816,17
1370444,15
1371068,11
1371692,13
1372320,13
1372936,14
1373564,17
1374188,24
1374812,27
1375440,25
1376056,21
1376684,15
1377312,19
1377928,23
1378560,29
1379180,35
1379812,40
1380440,45
1381056,39
1381688,28
1382312,25
1382936,17
1383564,10
1384184,11
1384812,15
1385436,16
1386056,20
1386688,24
1387304,18
1387932,11
1388564,10
1389184,13
1389812,16
1390436,15
1391064,22
1391696,20
1392312,14
1392940,16
1393564,24
1394188,30
1394816,34
1395436,33
1396064,38
1396688,33
1397308,21
1397940,22
1398560,36
1399188,37
1399820,21
1400440,19
1401068,23
1401692,16
1402320,23
1402948,19
1403568,18
1404196,11
1404820,11
1405444,13
1406076,11
1406696,15
1407324,22
1407952,32
1408576,46
1409204,42
1409824,22
1410452,17
1411080,27
1411696,29
1412328,33
1412952,38
1413580,35
1414208,31
1414832,25
1415460,24
1416084,20
1416708,13
1417340,10
1417960,17
1418588,16
1419212,17
1419836,20
1420464,13
1421088,11
1421716,10
1422348,10
1422968,23
1423596,29
1424220,41
1424852,34
1425480,19
1426096,18
1426724,20
1427348,21
1427972,21
1428604,22
1429224,32
1429852,37
1430476,44
1431100,39
1431732,34
1432352,26
1432980,16
1433612,14
1434228,16
1434860,14
1435480,17
1436112,17
1436740,18
1437360,18
1437988,16
1438612,10
1439236,11
1439868,16
1440488,18
1441116,24
1441740,27
1442360,26
1442988,16
1443608,16
1444236,18
1444860,22
1445480,29
1446108,41
1446732,46
1447360,44
1447988,32
1448608,28
1449236,23
1449860,12
1450488,11
1451116,14
1451736,15
1452364,16
1452988,17
1453612,18
1454240,12
1454864,11
1455492,10
1456116,11
1456740,21
1457368,29
1457992,31
1458620,27
1459248,26
1459868,15
1460500,16
1461120,19
1461752,21
1462380,24
1463000,25
1463628,29
1464252,39
1464876,34
1465508,30
1466128,25
1466756,23
1467380,29
1468004,19
1468632,15
1469256,19
1469888,27
1470516,20
1471136,17
1471768,25
1472392,29
1473020,25
1473648,18
1474272,25
1474900,33
1475524,26
1476148,16
1476776,18
1477392,19
1478024,24
1478648,22
1479268,26
1479900,35
1480524,46
1481152,42
1481780,36
1482400,32
1483028,22
1483652,10
1484280,15
1484908,14
1485524,17
1486156,26
1486776,46
1487400,49
1488028,32
1488644,20
1489276,10
1489896,13
1490520,15
1491152,11
1491768,13
1492396,14
1493028,16
1493648,16
1494276,22
1494900,26
1495532,29
1496160,29
1496776,36
1497404,39
1498028,31
1498652,27
1499280,22
1499904,16
1500532,12
1501156,17
1501780,16
1502408,18
1503032,23
1503660,25
1504292,15
1504912,11
1505540,12
1506164,12
1506796,13
1507424,20
1508044,20
1508672,18
1509296,19
1509920,16
1510548,21
1511168,21
1511796,19
1512420,25
1513044,35
1513676,45
1514296,45
1514924,29
1515556,23
1516176,14
1516804,11
1517428,12
1518056,20
1518688,19
1519308,19
1519936,17
1520560,16
1521184,13
1521812,12
1522432,11
1523060,15
1523684,24
1524308,34
1524940,30
1525560,23
1526188,17
1526820,22
1527440,28
1528068,27
1528692,27
1529324,36
1529952,49
1530576,49
1531204,37
1531828,31
1532456,28
1533084,13
1533704,11
1534336,17
1534960,15
1535584,17
1536216,16
1536836,17
1537464,11
1538096,12
1538712,18
1539340,21
1539964,24
1540592,30
1541220,30
1541840,31
1542468,27
1543092,15
1543712,27
1544344,33
1544960,33
1545588,39
1546212,39
1546836,43
1547468,36
1548088,25
1548716,18
1549348,16
1549968,15
1550596,17
1551220,21
1551852,17
1552480,18
1553104,19
1553732,15
1554356,12
1554980,12
1555612,10
1556232,13
1556860,15
1557484,26
1558108,28
1558736,29
1559360,21
1559988,16
1560620,18
1561240,21
1561868,23
1562492,32
1563120,39
1563752,47
1564368,42
1564996,31
1565620,25
1566244,13
1566872,10
1567492,15
1568120,15
1568740,17
1569364,18
1569996,17
1570616,13
1571244,11
1571876,10
1572496,11
1573124,11
1573748,15
1574380,21
1575008,20
1575632,15
1576264,16
1576884,17
1577508,21
1578140,18
1578760,21
1579388,41
1580016,48
1580640,37
1581268,31
1581892,26
1582524,18
1583152,11
1583772,15
1584404,21
1585024,17
1585656,17
1586284,21
1586904,19
1587536,12
1588156,13
1588780,16
1589412,27
1590032,27
1590660,29
1591288,33
1591912,27
1592540,18
1593164,24
1593796,27
1594428,26
1595048,29
1595676,37
1596304,43
1596932,34
1597564,24
1598184,20
1598812,17
1599436,14
1600064,13
1600692,12
1601308,15
1601936,16
1602568,16
1603180,17
1603812,11
1604436,10
1605064,11
1605692,12
1606312,16
1606940,17
1607564,29
1608192,32
1608824,23
1609440,17
1610068,18
1610692,19
1611316,21
1611944,26
1612560,35
1613192,39
1613816,39
1614436,30
1615068,25
1615688,25
1616320,19
1616948,14
1617568,19
1618196,15
1618820,17
1619448,19
1620080,20
1620696,17
1621324,18
1621948,18
1622572,19
1623200,19
1623816,17
1624444,27
1625068,31
1625692,29
1626320,15
1626944,20
1627572,17
1628204,19
1628824,29
1629452,31
1630076,37
1630704,41
1631336,33
1631956,29
1632584,18
1633208,12
1633832,16
1634464,18
1635080,17
1635712,17
1636336,17
1636960,16
1637588,18
1638216,24
1638844,32
1639472,27
1640092,24
1640720,27
1641340,32
1641968,30
1642596,22
1643212,17
1643840,16
1644464,21
1645084,33
1645712,46
1646336,52
1646964,49
1647584,39
1648208,30
1648836,27
1649452,17
1650080,12
1650708,14
1651328,15
1651956,17
1652576,16
1653204,18
1653832,18
1654456,19
1655084,17
1655704,16
1656328,23
1656956,29
1657576,45
1658204,46
1658828,28
1659452,16
1660080,25
1660696,34
1661324,33
1661948,34
1662576,39
1663204,33
1663828,35
1664456,31
1665084,31
1665700,28
1666328,18
1666952,14
1667580,15
1668208,15
1668824,17
1669452,21
1670072,31
1670696,30
1671324,19
1671944,12
1672572,10
1673196,10
1673816,11
1674448,12
1675064,19
1675692,24
1676320,22
1676936,20
1677568,17
1678188,23
1678820,27
1679448,35
1680064,41
1680692,41
1681312,34
1681932,26
1682560,15
1683180,11
1683812,11
1684432,16
1685056,16
1685684,16
1686304,19
1686932,14
1687560,10
1688176,10
1688808,13
1689428,15
1690060,18
1690688,29
1691304,31
1691932,28
1692552,20
1693184,17
1693812,25
1694432,26
1695060,19
1695680,19
1696304,27
1696932,34
1697552,29
1698180,21
1698804,22
1699424,18
1700052,19
1700676,18
1701304,18
1701932,18
1702552,21
1703180,22
1703804,14
1704432,13
1705060,24
1705680,18
1706308,12
1706928,10
1707552,15
1708180,16
1708800,15
1709428,17
1710052,19
1710676,24
1711304,24
1711924,29
1712552,30
1713184,31
1713800,31
1714432,28
1715056,24
1715684,19
1716312,12
1716936,12
1717564,16
1718188,16
1718812,18
1719440,17
1720064,17
1720692,15
1721316,14
1721940,13
1722568,12
1723184,15
1723812,19
1724444,29
1725064,31
1725692,28
1726316,19
1726944,15
1727576,22
1728192,27
1728820,33
1729444,42
1730064,43
1730692,44
1731312,36
1731940,36
1732564,20
1733184,12
1733816,13
1734432,17
1735060,20
1735688,20
1736312,17
1736940,12
1737564,9
1738144,12
1738772,18
1739392,25
1740020,28
1740644,33
1741276,34
1741904,28
1742520,19
1743152,17
1743776,20
1744396,25
1745028,26
1745648,28
1746276,31
1746900,34
1747524,29
1748152,24
1748768,24
1749396,19
1750028,12
1750648,15
1751276,15
1751900,17
1752532,17
1753160,19
1753780,17
1754408,17
1755032,21
1755656,21
1756284,22
1756904,29
1757532,36
1758156,33
1758780,24
1759412,17
1760032,17
1760660,20
1761288,17
1761904,13
1762532,15
1763156,35
1763784,49
1764416,47
1765032,40
1765660,19
1766284,10
1766916,10
1767544,15
1768160,16
1768788,17
1769412,17
1770036,20
1770664,19
1771280,20
1771912,19
1772536,13
1773160,14
1773788,21
1774412,23
1775040,24
1775668,24
1776288,16
1776916,19
1777540,25
1778172,30
1778800,33
1779420,36
1780048,40
1780672,33
1781296,25
1781924,16
1782544,10
1783172,10
1783796,14
1784420,20
1785048,17
1785672,16
1786304,17
1786932,11
1787552,11
1788180,10
1788804,12
1789436,21
1790064,25
1790688,34
1791320,33
1791944,25
1792568,18
1793196,15
1793816,18
1794444,19
1795068,19
1795692,29
1796320,34
1796944,32
1797572,22
1798200,14
1798824,16
1799452,18
1800076,20
1800704,20
1801336,20
1801952,19
1802580,17
1803204,16
1803824,12
1804456,15
1805072,16
1805700,13
1806324,13
1806944,16
1807576,18
1808200,20
1808828,26
1809456,21
1810072,17
1810700,17
1811324,21
1811952,28
1812584,36
1813200,35
1813828,35
1814452,30
1815076,24
1815704,20
1816320,14
1816952,12
1817576,17
1818200,16
1818828,17
1819448,18
1820076,19
1820708,12
1821328,11
1821956,12
1822580,12
1823212,14
1823840,26
1824460,29
1825088,29
1825712,26
1826332,16
1826964,18
1827584,21
1828212,20
1828836,32
1829460,32
1830088,38
1830712,43
1831340,36
1831972,28
1832592,13
1833220,10
1833844,12
1834476,16
1835104,17
1835724,17
1836352,18
1836976,13
1837600,15
1838228,14
1838848,11
1839476,15
1840100,17
1840724,29
1841356,43
1841976,41
1842604,23
1843236,18
1843852,29
1844484,40
1845104,34
1845732,37
1846364,38
1846984,39
1847612,31
1848236,28
1848860,22
1849488,14
1850104,14
1850736,17
1851360,15
1851980,16
1852612,16
1853232,17
1853860,10
1854492,12
1855112,15
1855740,17
1856368,26
1856996,37
1857624,35
1858240,30
1858868,25
1859492,16
1860116,23
1860744,31
1861364,30
1861992,33
1862616,33
1863240,39
1863868,38
1864488,32
1865116,33
1865744,22
1866368,11
1866996,11
1867620,17
1868252,15
1868880,17
1869496,17
1870124,17
1870748,13
1871372,11
1872000,13
1872616,21
1873248,27
1873872,27
1874496,25
1875124,22
1875744,18
1876372,18
1877004,22
1877624,23
1878252,21
1878876,29
1879508,38
1880140,42
1880760,37
1881388,28
1882016,26
1882636,21
1883268,11
1883888,16
1884516,15
1885140,17
1885764,17
1886392,18
1887016,15
1887644,13
1888276,14
1888896,12
1889524,13
1890148,23
1890776,28
1891408,30
1892024,27
1892656,17
1893280,18
1893904,19
1894532,16
1895152,13
1895780,30
1896404,45
1897028,45
1897656,32
1898272,24
1898904,16
1899532,10
1900152,11
1900780,16
1901408,17
1902036,16
1902668,16
1903288,17
1903920,11
1904544,13
1905168,16
1905796,12
1906416,16
1907044,32
1907668,44
1908292,48
1908924,44
1909544,17
1910176,24
1910804,29
1911424,33
1912056,32
1912680,32
1913308,34
1913940,36
1914560,33
1915192,29
1915816,24
1916440,16
1917072,17
1917688,18
1918316,18
1918944,20
1919568,18
1920200,11
1920816,12
1921444,18
1922072,27
1922688,23
1923320,18
1923940,33
1924572,45
1925200,42
1925824,26
1926452,16
1927072,24
1927696,25
1928324,24
1928944,32
1929572,34
1930196,41
1930820,40
1931448,31
1932072,19
1932700,9
1933276,10
1933904,17
1934532,14
1935152,17
1935784,26
1936412,30
1937032,15
1937660,11
1938284,11
1938912,10
1939544,12
1940160,20
1940792,32
1941416,35
1942040,30
1942668,17
1943288,17
1943916,17
1944544,21
1945168,22
1945796,19
1946416,19
1947044,24
1947672,29
1948292,31
1948920,29
1949544,17
1950172,15
1950804,18
1951424,16
1952052,17
1952676,18
1953300,17
1953928,13
1954544,14
1955176,15
1955800,16
1956424,18
1957052,23
1957672,27
1958300,26
1958932,25
1959552,23
1960184,20
1960804,18
1961436,19
1962064,29
1962688,38
1963316,43
1963940,37
1964568,35
1965196,26
1965816,14
1966444,12
1967068,19
1967692,21
1968320,16
1968936,16
1969568,17
1970196,14
1970816,15
1971444,11
1972068,10
1972696,13
1973324,14
1973944,21
1974572,20
1975196,22
1975820,20
1976448,16
1977072,19
1977700,19
1978324,21
1978948,28
1979576,33
1980192,37
1980824,29
1981452,26
1982072,29
1982700,23
1983324,12
1983956,16
1984588,16
1985208,20
1985836,17
1986460,19
1987084,14
1987712,16
1988336,17
1988964,17
1989588,24
1990212,35
1990844,41
1991464,46
1992092,35
1992724,16
1993344,17
1993972,24
1994596,32
1995228,38
1995856,42
1996480,44
1997108,41
1997732,31
1998356,27
1998988,18
1999608,11
2000236,11
2000860,16
2001484,16
2002112,16
2002728,17
2003360,15
2003988,12
2004608,14
2005236,17
2005860,19
2006492,19
2007120,29
2007736,31
2008364,23
2008988,17
2009612,15
2010240,18
2010856,19
2011484,25
2012108,34
2012732,38
2013364,40
2013984,39
2014612,32
2015244,24
2015864,11
2016492,11
2017116,17
2017748,17
2018376,17
2019000,18
2019628,17
2020252,11
2020876,10
2021508,10
2022128,16
2022756,23
2023380,30
2024004,37
2024632,28
2025256,15
2025884,21
2026516,24
2027136,26
2027768,26
2028388,27
2029020,31
2029648,37
2030272,38
2030900,30
2031524,29
2032148,26
2032780,18
2033400,16
2034028,19
2034652,16
2035276,16
2035908,16
2036528,17
2037156,10
2037788,10
2038408,11
2039036,19
2039660,43
2040292,55
2040924,42
2041544,32
2042176,29
2042800,17
2043424,17
2044052,17
2044672,21
2045304,31
2045928,39
2046552,42
2047184,40
2047804,30
2048436,25
2049060,20
2049676,19
2050304,22
2050924,16
2051552,16
2052180,19
2052796,23
2053428,17
2054048,11
2054672,15
2055300,19
2055920,27
2056548,30
2057172,33
2057792,27
2058420,20
2059036,17
2059668,17
2060296,17
2060912,24
2061540,31
2062164,43
2062792,51
2063420,44
2064040,27
2064664,23
2065288,17
2065916,10
2066544,10
2067168,16
2067796,15
2068420,17
2069044,18
2069672,24
2070288,21
2070916,15
2071540,19
2072164,17
2072792,16
2073416,19
2074044,24
2074672,25
2075296,19
2075924,17
2076548,17
2077176,19
2077804,20
2078424,27
2079052,29
2079676,27
2080300,31
2080928,28
2081544,27
2082172,18
2082796,11
2083416,10
2084048,17
2084664,16
2085292,17
2085920,17
2086536,15
2087164,11
2087788,12
2088416,12
2089044,12
2089660,21
2090288,35
2090912,34
2091536,24
2092164,18
2092784,17
2093412,22
2094036,22
2094660,25
2095288,34
2095904,40
2096536,41
2097164,35
2097784,26
2098412,22
2099036,10
2099664,10
2100296,12
2100912,16
2101540,17
2102164,15
2102788,16
2103420,12
2104040,19
2104668,14
2105292,14
2105912,14
2106544,11
2107160,18
2107788,23
2108412,26
2109040,21
2109668,18
2110292,17
2110920,16
2111552,21
2112172,39
2112800,44
2113420,54
2114052,54
2114680,47
2115296,37
2115924,18
2116548,10
2117172,15
2117800,16
2118416,19
2119048,21
2119668,25
2120292,17
2120924,13
2121548,13
2122176,14
2122804,17
2123424,25
2124052,28
2124676,24
2125308,19
2125936,15
2126556,16
2127184,19
2127808,22
2128432,27
2129060,31
2129680,31
2130308,27
2130932,22
2131556,21
2132184,11
2132808,11
2133436,11
2134064,18
2134680,17
2135312,16
2135936,17
2136564,25
2137192,26
2137816,17
2138444,13
2139068,11
2139692,13
2140320,22
2140936,27
2141568,29
2142192,22
2142816,15
2143444,19
2144068,23
2144696,25
2145324,30
2145944,30
2146572,33
2147196,34
2147828,36
2148456,36
2149076,25
2149704,18
2150328,20
2150952,18
2151580,16
2152200,17
2152828,16
2153452,10
2154076,13
2154704,25
2155320,33
2155952,30
2156580,31
2157200,35
2157828,30
2158452,22
2159084,18
2159712,16
2160332,17
2160960,19
2161580,23
2162204,32
2162836,39
2163456,45
2164084,38
2164708,29
2165332,21
2165960,11
2166576,10
2167208,15
2167836,14
2168456,18
2169084,20
2169708,24
2170340,15
2170968,17
2171584,13
2172216,15
2172840,21
2173460,26
2174092,20
2174712,19
2175344,16
2175968,21
2176592,30
2177220,27
2177840,28
2178468,31
2179096,31
2179716,33
2180344,36
2180968,32
2181596,28
2182224,18
2182848,11
2183476,11
2184100,16
2184724,17
2185352,17
2185968,16
2186600,12
2187224,13
2187844,17
2188476,28
2189096,42
2189724,41
2190356,38
2190976,22
2191604,13
2192228,18
2192860,27
2193488,37
2194108,30
2194736,29
2195360,40
2195984,48
2196612,43
2197232,31
2197860,23
2198484,23
2199108,13
2199740,10
2200360,16
2200988,14
2201620,16
2202236,17
2202868,21
2203492,19
2204120,19
2204752,17
2205368,13
2206000,15
2206624,17
2207248,22
2207876,21
2208496,19
2209124,16
2209748,18
2210372,19
2211004,26
2211624,38
2212256,43
2212884,48
2213504,42
2214132,26
2214756,16
2215384,11
2216016,11
2216632,10
2217260,15
2217884,17
2218508,19
2219140,22
2219760,15
2220388,14
2221012,10
2221636,17
2222268,32
2222888,37
2223516,35
2224148,36
2224768,27
2225396,17
2226020,20
2226652,21
2227280,22
2227904,24
2228532,28
2229156,28
2229780,31
2230412,25
2231032,23
2231664,21
2232288,13
2232912,10
2233540,12
2234160,16
2234788,16
2235420,15
2236040,17
2236668,11
2237296,10
2237924,11
2238556,10
2239176,12
2239808,16
2240432,31
2241056,34
2241684,28
2242304,18
2242932,16
2243556,21
2244180,25
2244808,31
2245424,33
2246056,37
2246684,40
2247304,35
2247932,35
2248556,32
2249188,15
2249816,10
2250440,15
2251068,15
2251692,17
2252316,17
2252948,18
2253564,11
2254196,14
2254816,22
2255440,21
2256068,22
2256684,24
2257316,27
2257944,30
2258560,24
2259188,15
2259812,24
2260444,33
2261072,34
2261696,37
2262324,40
2262948,41
2263572,34
2264204,27
2264824,23
2265452,15
2266076,13
2266700,12
2267328,16
2267952,19
2268580,21
2269212,21
2269832,19
2270460,17
2271084,17
2271716,15
2272348,12
2272968,16
2273596,26
2274220,29
2274844,26
2275472,18
2276096,17
2276724,21
2277348,22
2277972,22
2278604,26
2279224,30
2279852,27
2280484,22
2281104,21
2281732,24
2282356,18
2282988,13
2283616,17
2284236,14
2284864,18
2285488,21
2286112,21
2286740,17
2287360,17
2287988,17
2288616,16
2289240,16
2289868,26
2290488,32
2291120,33
2291748,25
2292368,17
2292996,19
2293624,17
2294252,16
2294884,24
2295504,35
2296132,43
2296756,42
2297380,32
2298012,22
2298632,17
2299260,14
2299884,11
2300508,15
2301140,15
2301764,17
2302392,17
2303024,17
2303644,12
2304276,14
2304896,13
2305528,13
2306156,18
2306776,29
2307404,30
2308028,27
2308652,22
2309280,15
2309896,18
2310524,24
2311148,25
2311772,35
2312404,41
2313024,37
2313656,35
2314284,26
2314904,26
2315532,18
2316156,12
2316784,12
2317416,15
2318036,16
2318664,16
2319288,18
2319912,13
2320540,12
2321160,19
2321788,26
2322412,39
2323036,40
2323664,40
2324288,31
2324920,19
2325548,16
2326168,18
2326796,19
2327420,26
2328052,41
2328680,53
2329304,55
2329932,50
2330556,31
2331180,15
2331812,14
2332432,15
2333060,12
2333684,19
2334308,18
2334940,17
2335564,16
2336192,18
2336824,16
2337440,14
2338068,14
2338692,15
2339320,23
2339952,31
2340568,31
2341200,37
2341824,31
2342448,18
2343076,26
2343696,24
2344324,17
2344948,13
2345572,17
2346204,29
2346828,36
2347460,31
2348088,29
2348712,23
2349344,14
2349968,14
2350596,17
2351228,16
2351848,18
2352480,18
2353104,13
2353728,11
2354360,14
2354976,21
2355608,26
2356236,26
2356856,35
2357484,39
2358108,31
2358740,23
2359368,16
2359984,16
2360616,21
2361240,24
2361864,38
2362492,43
2363112,42
2363744,28
2364368,22
2364992,23
2365620,13
2366240,12
2366868,17
2367500,14
2368120,18
2368748,16
2369372,18
2370004,11
2370632,12
2371252,13
2371880,15
2372504,21
2373128,25
2373756,24
2374376,23
2375008,19
2375632,17
2376256,19
2376884,24
2377504,23
2378132,26
2378764,30
2379384,32
2380012,37
2380636,31
2381268,27
2381900,16
2382520,12
2383148,13
2383776,18
2384400,16
2385028,16
2385648,17
2386276,16
2386900,11
2387524,11
2388156,12
2388776,21
2389408,27
2390036,34
2390656,36
2391288,26
2391912,17
2392540,18
2393172,19
2393792,20
2394420,23
2395044,35
2395672,46
2396300,50
2396920,42
2397548,32
2398176,23
2398800,13
2399428,10
2400048,14
2400676,17
2401304,16
2401928,17
2402556,19
2403180,17
2403812,15
2404440,13
2405064,13
2405692,15
2406320,17
2406944,28
2407572,32
2408192,29
2408820,21
2409444,16
2410068,17
2410696,22
2411320,23
2411948,31
2412580,32
2413200,39
2413828,31
2414452,26
2415084,11
2415712,10
2416336,15
2416964,23
2417588,19
2418212,17
2418844,19
2419464,24
2420092,11
2420716,11
2421340,11
2421972,11
2422596,15
2423224,30
2423856,38
2424472,40
2425104,37
2425728,17
2426356,18
2426988,21
2427608,19
2428236,11
2428860,13
2429484,26
2430116,40
2430736,37
2431368,39
2431992,30
2432616,19
2433248,13
2433872,16
2434500,19
2435132,21
2435752,20
2436384,13
2437008,11
2437636,13
2438268,14
2438888,18
2439516,16
2440144,27
2440764,27
2441396,25
2442016,22
2442644,16
2443276,16
2443896,19
2444524,22
2445152,23
2445780,30
2446412,42
2447032,44
2447664,33
2448288,26
2448912,16
2449540,13
2450160,18
2450788,15
2451416,17
2452040,18
2452668,19
2453288,19
2453916,14
2454548,11
2455168,10
2455800,15
2456424,25
2457056,32
2457684,29
2458300,18
2458932,17
2459552,28
2460176,28
2460804,30
2461424,34
2462052,38
2462676,41
2463300,39
2463928,28
2464552,27
2465180,18
2465812,10
2466432,11
2467060,16
2467684,18
2468312,24
2468944,23
2469560,16
2470188,11
2470812,12
2471436,11
2472068,10
2472688,11
2473316,16
2473940,25
2474564,31
2475192,28
2475816,15
2476444,21
2477076,23
2477696,29
2478324,32
2478948,31
2479580,31
2480212,29
2480832,28
2481460,25
2482084,20
2482708,11
2483336,13
2483952,14
2484584,17
2485208,15
2485828,17
2486460,15
2487080,24
2487708,27
2488340,31
2488960,37
2489588,33
2490212,29
2490844,27
2491472,15
2492092,18
2492720,25
2493344,27
2493968,24
2494596,25
2495216,31
2495848,32
2496472,28
2497096,24
2497724,24
2498344,24
2498972,13
2499604,10
2500224,15
2500852,15
2501476,16
2502108,17
2502736,16
2503356,11
2503984,11
2504608,12
2505232,11
2505860,11
2506480,21
2507108,33
2507736,41
2508360,40
2508992,18
2509608,19
2510236,22
2510868,19
2511488,21
2512116,27
2512740,29
2513372,36
2514000,31
2514624,23
2515252,12
2515876,11
2516500,13
2517132,18
2517752,17
2518384,17
2519008,17
2519632,14
2520264,10
2520880,10
2521508,12
2522140,16
2522760,17
2523388,25
2524016,23
2524644,16
2525276,14
2525896,17
2526528,19
2527152,20
2527776,16
2528408,12
2529024,26
2529656,43
2530276,47
2530904,41
2531532,30
2532152,17
2532784,13
2533412,17
2534032,17
2534664,28
2535288,23
2535916,18
2536548,10
2537168,10
2537800,10
2538424,10
2539048,11
2539680,15
2540296,20
2540924,27
2541548,25
2542172,22
2542804,18
2543428,18
2544060,21
2544688,21
2545312,33
2545944,39
2546568,33
2547196,21
2547828,18
2548448,18
2549080,12
2549704,10
2550328,16
2550960,17
2551576,21
2552208,19
2552840,15
2553456,11
2554088,11
2554712,11
2555344,12
2555976,16
2556596,22
2557228,29
2557852,29
2558476,25
2559108,15
2559728,17
2560364,19
2560984,22
2561604,31
2562232,34
2562848,37
2563476,36
2564108,28
2564724,27
2565356,17
2565976,10
2566608,15
2567236,14
2567856,20
2568484,17
2569104,18
2569732,13
2570364,10
2570984,11
2571612,11
2572236,18
2572856,23
2573484,34
2574104,39
2574732,29
2575356,16
2575980,19
2576608,25
2577232,31
2577860,34
2578492,38
2579112,36
2579740,37
2580364,33
2580996,29
2581624,21
2582240,12
2582872,11
2583496,15
2584120,16
2584748,20
2585368,20
2585996,19
2586620,14
2587248,15
2587876,15
2588500,13
2589128,17
2589756,24
2590376,31
2591008,33
2591628,26
2592260,17
2592888,23
2593504,30
2594132,32
2594756,35
2595380,38
2596012,40
2596632,41
2597260,32
2597884,22
2598512,11
2599140,13
2599764,11
2600396,15
2601024,17
2601640,17
2602268,17
2602892,13
2603524,11
2604152,12
2604768,10
2605400,14
2606024,20
2606648,31
2607276,36
2607896,34
2608528,21
2609148,14
2609776,25
2610404,28
2611028,30
2611660,39
2612288,40
2612912,41
2613540,30
2614164,23
2614792,18
2615420,14
2616040,13
2616668,16
2617292,14
2617916,16
2618548,18
2619168,22
2619800,16
2620428,12
2621048,13
2621676,16
2622300,23
2622928,33
2623560,42
2624176,35
2624804,23
2625424,18
2626052,18
2626680,26
2627296,28
2627924,35
2628548,41
2629168,45
2629796,48
2630416,40
2631044,33
2631664,23
2632288,11
2632916,11
2633540,15
2634172,15
2634800,18
2635416,17
2636048,19
2636668,16
2637300,16
2637928,16
2638544,12
2639176,19
2639800,25
2640424,21
2641052,26
2641672,26
2642300,16
2642924,16
2643544,16
2644172,16
2644792,32
2645420,48
2646048,56
2646672,55
2647300,42
2647924,30
2648552,13
2649180,18
2649800,25
2650428,17
2651052,16
2651676,19
2652304,17
2652920,11
2653552,11
2654172,13
2654796,13
2655428,10
2656048,22
2656676,35
2657304,36
2657920,23
2658548,17
2659172,19
2659804,20
2660432,19
2661056,25
2661684,36
2662308,42
2662936,35
2663564,22
2664184,14
2664812,21
2665432,19
2666056,15
2666684,22
2667304,18
2667932,17
2668560,16
2669176,18
2669804,13
2670428,21
2671056,24
2671684,16
2672304,17
2672932,19
2673556,22
2674180,21
2674812,18
2675432,16
2676060,17
2676684,16
2677304,19
2677936,28
2678552,40
2679180,47
2679804,46
2680432,35
2681060,26
2681684,17
2682312,11
2682940,11
2683560,16
2684188,16
2684812,17
2685440,17
2686068,14
2686688,11
2687316,11
2687940,13
2688564,16
2689192,20
2689816,28
2690444,27
2691068,28
2691688,20
2692320,15
2692940,17
2693572,17
2694200,19
2694816,28
2695444,28
2696068,23
2696696,21
2697324,19
2697944,18
2698572,13
2699196,12
2699820,16
2700448,14
2701072,16
2701700,17
2702324,17
2702948,12
2703580,10
2704204,13
2704832,13
2705460,17
2706080,25
2706708,34
2707332,34
2707960,29
2708588,17
2709208,17
2709836,19
2710460,19
2711084,20
2711712,30
2712328,33
2712960,40
2713584,35
2714208,26
2714836,21
2715460,12
2716092,11
2716720,16
2717336,14
2717968,22
2718592,24
2719220,20
2719852,14
2720472,13
2721100,14
2721724,14
2722348,14
2722976,21
2723592,22
2724220,19
2724844,20
2725468,16
2726096,16
2726712,17
2727340,21
2727968,32
2728592,39
2729220,47
2729844,44
2730472,40
2731100,30
2731720,20
2732348,10
2732972,13
2733596,17
2734228,20
2734848,21
2735476,17
2736100,12
2736724,10
2737352,13
2737972,13
2738600,14
2739228,15
2739848,21
2740476,24
2741100,19
2741728,17
2742356,16
2742976,21
2743604,27
2744228,27
2744856,35
2745484,38
2746104,45
2746732,42
2747356,33
2747980,23
2748612,14
2749232,15
2749860,16
2750492,14
2751112,17
2751744,17
2752368,18
2752996,11
2753624,14
2754248,31
2754876,27
2755500,17
2756124,18
2756752,22
2757376,23
2758004,18
2758628,16
2759252,18
2759884,18
2760504,18
2761132,26
2761764,28
2762384,29
2763012,34
2763636,33
2764268,25
2764900,18
2765520,11
2766148,11
2766772,18
2767392,16
2768024,16
2768640,16
2769268,16
2769892,13
2770516,13
2771144,10
2771768,14
2772396,16
2773028,26
2773648,31
2774276,27
2774904,24
2775532,16
2776164,16
2776784,18
2777412,17
2778040,25
2778664,35
2779292,42
2779912,46
2780544,32
2781168,19
2781792,11
2782420,12
2783044,12
2783676,16
2784308,16
2784928,17
2785556,17
2786180,12
2786812,11
2787440,12
2788056,16
2788688,25
2789308,27
2789932,33
2790564,34
2791184,27
2791812,20
2792436,16
2793060,18
2793688,20
2794312,22
2794940,29
2795572,38
2796192,41
2796820,35
2797444,28
2798072,21
2798704,16
2799324,11
2799952,15
2800580,15
2801204,19
2801832,17
2802448,17
2803080,11
2803704,11
2804328,14
2804956,18
2805580,17
2806212,18
2806840,26
2807456,31
2808088,27
2808712,16
2809340,23
2809972,30
2810592,33
2811220,36
2811844,41
2812468,40
2813100,36
2813720,28
2814348,27
2814976,18
2815600,14
2816232,15
2816852,19
2817480,15
2818112,17
2818728,17
2819356,16
2819980,13
2820608,14
2821236,14
2821856,19
2822484,21
2823108,29
2823732,31
2824360,31
2824976,29
2825608,16
2826228,22
2826852,24
2827484,28
2828108,36
2828736,38
2829364,44
2829984,32
2830612,25
2831236,27
2831868,21
2832496,12
2833112,15
2833744,16
2834368,19
2834992,17
2835620,18
2836240,15
2836868,20
2837492,16
2838116,12
2838748,11
2839372,13
2840000,19
2840628,20
2841248,18
2841876,17
2842500,21
2843132,22
2843760,20
2844380,19
2845008,28
2845632,39
2846256,45
2846884,38
2847504,35
2848132,27
2848756,17
2849380,10
2850008,19
2850632,28
2851260,27
2851892,22
2852512,19
2853140,11
2853764,12
2854396,12
2855028,10
2855648,14
2856280,24
2856904,28
2857528,27
2858156,23
2858776,17
2859408,19
2860036,23
2860656,25
2861288,28
2861912,25
2862544,33
2863172,39
2863792,41
2864424,37
2865048,27
2865672,20
2866304,16
2866920,15
2867552,17
2868172,17
2868796,18
2869424,15
2870048,14
2870676,12
2871308,10
2871928,12
2872556,21
2873180,33
2873812,36
2874440,29
2875056,22
2875688,16
2876312,22
2876936,26
2877564,23
2878184,30
2878812,38
2879436,43
2880060,35
2880688,28
2881308,20
2881940,15
2882568,12
2883184,18
2883812,15
2884436,17
2885064,18
2885692,16
2886312,12
2886940,14
2887564,11
2888196,10
2888824,14
2889440,23
2890068,27
2890692,29
2891316,26
2891944,16
2892564,18
2893192,22
2893816,25
2894436,36
2895068,41
2895692,37
2896320,33
2896948,27
2897568,25
2898196,16
2898820,10
2899448,11
2900080,16
2900696,16
2901324,17
2901948,16
2902572,14
2903204,10
2903824,11
2904452,10
2905076,14
2905700,17
2906332,32
2906956,45
2907584,39
2908216,21
2908832,15
2909460,17
2910084,18
2910712,22
2911344,30
2911964,33
2912596,37
2913220,37
2913844,27
2914472,21
2915088,13
2915720,11
2916344,15
2916968,14
2917596,16
2918224,16
2918852,20
2919484,19
2920104,16
2920732,12
2921356,10
2921988,12
2922616,25
2923236,38
2923864,31
2924488,19
2925112,17
2925740,17
2926360,20
2926988,19
2927616,18
2928240,29
2928868,34
2929492,37
2930124,34
2930752,30
2931372,24
2932000,16
2932624,14
2933252,22
2933884,19
2934504,19
2935132,16
2935756,19
2936384,17
2937012,16
2937632,15
2938260,16
2938892,22
2939512,28
2940144,31
2940768,25
2941400,19
2942028,15
2942648,20
2943280,25
2943904,31
2944528,32
2945160,37
2945776,43
2946404,39
2947028,29
2947652,22
2948284,12
2948904,11
2949532,15
2950164,18
2950784,17
2951412,17
2952036,18
2952664,23
2953296,22
2953912,15
2954540,10
2955164,11
2955788,10
2956420,17
2957040,20
2957668,18
2958292,15
2958916,16
2959548,22
2960168,27
2960796,27
2961424,36
2962048,46
2962676,46
2963300,30
2963928,11
2964560,11
2965176,11
2965804,11
2966428,19
2967052,20
2967684,16
2968304,17
2968932,19
2969560,13
2970184,12
2970812,14
2971432,14
2972060,19
2972692,26
2973312,29
2973940,26
2974564,19
2975196,16
2975824,18
2976448,22
2977076,23
2977700,28
2978324,39
2978952,41
2979576,40
2980204,33
2980828,30
2981452,22
2982080,14
2982704,12
2983332,17
2983964,14
2984584,18
2985212,19
2985836,20
2986468,18
2987096,20
2987720,16
2988348,11
2988972,16
2989596,31
2990228,34
2990848,30
2991476,18
2992100,17
2992724,20
2993356,18
2993976,19
2994604,32
2995236,39
2995856,43
2996484,33
2997108,22
2997736,14
2998368,10
2998988,10
2999616,15
3000240,17
3000868,18
3001496,19
3002116,16
3002744,11
3003372,12
3003996,10
3004624,10
3005248,15
3005880,24
3006508,33
3007128,39
3007760,32
3008384,19
3009012,16
3009644,18
3010264,24
3010892,28
3011516,40
3012144,53
3012772,52
3013392,39
3014024,28
3014648,19
3015272,15
3015904,15
3016528,20
3017156,15
3017788,18
3018408,25
3019036,24
3019664,26
3020292,16
3020924,10
3021544,11
3022172,13
3022800,21
3023424,29
3024052,31
3024672,28
3025300,19
3025932,16
3026552,21
3027184,24
3027808,30
3028440,35
3029068,43
3029688,46
3030320,39
3030944,35
3031568,18
3032200,10
3032820,11
3033448,17
3034072,21
3034696,19
3035328,16
3035944,13
3036576,17
3037204,14
3037824,13
3038456,14
3039080,17
3039712,29
3040344,33
3040960,27
3041588,18
3042212,17
3042836,17
3043468,22
3044088,33
3044716,45
3045340,48
3045968,41
3046596,34
3047216,35
3047844,29
3048476,18
3049096,16
3049724,17
3050348,18
3050980,18
3051612,16
3052232,20
3052860,12
3053484,13
3054112,17
3054740,14
3055360,18
3055992,21
3056616,21
3057240,23
3057872,24
3058488,16
3059120,18
3059752,22
3060372,19
3061000,19
3061628,31
3062256,44
3062888,45
3063508,24
3064140,21
3064764,19
3065388,12
3066020,14
3066640,19
3067272,17
3067896,26
3068520,28
3069152,15
3069776,10
3070408,13
3071036,12
3071660,10
3072292,13
3072912,22
3073540,28
3074172,36
3074792,37
3075420,23
3076044,16
3076668,17
3077296,17
3077912,26
3078544,37
3079172,43
3079792,39
3080420,32
3081044,27
3081676,18
3082304,17
3082920,17
3083552,17
3084176,21
3084804,24
3085432,21
3086052,13
3086680,11
3087304,13
3087928,15
3088556,23
3089176,29
3089804,26
3090428,20
3091056,15
3091688,17
3092312,23
3092940,25
3093572,30
3094192,32
3094824,36
3095448,33
3096072,33
3096700,27
3097320,25
3097952,19
3098572,11
3099196,10
3099828,16
3100448,16
3101076,17
3101708,17
3102328,19
3102960,12
3103584,11
3104216,11
3104844,14
3105464,22
3106092,29
3106716,32
3107344,26
3107972,18
3108592,19
3109224,23
3109848,29
3110472,30
3111100,37
3111720,43
3112352,42
3112980,34
3113600,23
3114228,23
3114852,15
3115484,11
3116116,13
3116736,19
3117368,21
3117992,18
3118616,19
3119248,29
3119864,24
3120496,18
3121120,16
3121744,20
3122372,24
3122992,33
3123624,29
3124252,19
3124872,15
3125500,17
3126124,17
3126756,21
3127384,22
3128008,35
3128636,41
3129260,42
3129884,36
3130516,30
3131136,25
3131768,12
3132392,11
3133016,16
3133648,15
3134264,17
3134896,16
3135524,16
3136144,11
3136772,11
3137396,11
3138028,11
3138656,11
3139276,15
3139904,22
3140528,25
3141152,29
3141780,18
3142400,17
3143028,17
3143656,17
3144280,25
3144908,31
3145528,38
3146160,42
3146788,36
3147408,36
3148040,26
3148664,13
3149296,14
3149924,16
3150544,17
3151176,16
3151800,18
3152424,16
3153052,17
3153672,15
3154304,13
3154928,11
3155552,17
3156180,29
3156808,30
3157436,24
3158068,16
3158688,16
3159320,19
3159944,19
3160576,21
3161204,31
3161824,38
3162456,41
3163080,36
3163704,29
3164336,25
3164952,17
3165584,12
3166212,16
3166832,16
3167464,17
3168088,17
3168716,19
3169348,24
3169968,22
3170600,15
3171224,17
3171848,19
3172476,21
3173096,28
3173728,27
3174356,17
3174980,17
3175612,21
3176232,23
3176864,20
3177492,16
3178112,13
3178744,10
3179368,20
3180000,33
3180628,34
3181248,31
3181880,20
3182504,17
3183128,19
3183760,19
3184380,20
3185008,17
3185636,18
3186260,14
3186888,10
3187512,12
3188144,10
3188772,15
3189392,27
3190024,32
3190648,31
3191280,23
3191912,15
3192532,20
3193164,20
3193788,21
3194412,29
3195044,34
3195664,39
3196296,37
3196920,29
3197544,21
3198176,12
3198800,10
3199432,13
3200064,16
3200680,17
3201308,17
3201928,18
3202556,12
3203184,11
3203808,11
3204436,11
3205060,17
3205684,29
3206312,33
3206932,30
3207560,32
3208184,24
3208804,16
3209436,17
3210060,22
3210688,22
3211316,30
3211936,39
3212564,36
3213188,30
3213820,27
3214448,21
3215064,10
3215696,11
3216320,18
3216940,17
3217572,16
3218192,17
3218820,16
3219444,11
3220068,10
3220696,11
3221320,13
3221952,19
3222580,27
3223200,30
3223828,27
3224452,19
3225084,18
3225712,23
3226336,25
3226964,27
3227588,37
3228212,40
3228840,34
3229456,23
3230088,11
3230712,12
3231336,11
3231968,13
3232592,12
3233220,16
3233852,18
3234472,25
3235100,26
3235728,18
3236356,10
3236988,12
3237608,11
3238236,10
3238860,10
3239484,19
3240116,20
3240736,17
3241364,17
3241996,16
3242616,20
3243244,23
3243868,21
3244500,30
3245128,34
3245752,33
3246384,28
3247008,29
3247632,27
3248260,14
3248880,13
3249508,19
3250132,15
3250756,20
3251388,21
3252008,20
3252636,15
3253268,10
3253888,10
3254516,10
3255144,13
3255772,24
3256404,29
3257024,28
3257652,20
3258276,18
3258900,19
3259532,16
3260152,21
3260784,29
3261408,43
3262032,43
3262664,33
3263280,26
3263912,26
3264544,25
3265160,12
3265792,10
3266416,16
3267044,17
3267676,17
3268296,23
3268924,22
3269548,14
3270176,14
3270804,11
3271424,11
3272056,14
3272680,25
3273304,30
3273936,30
3274552,29
3275184,19
3275816,15
3276436,16
3277068,20
3277688,36
3278316,43
3278944,48
3279560,46
3280188,37
3280808,33
3281432,21
3282060,12
3282676,15
3283308,16
3283928,16
3284548,16
3285176,22
3285800,33
3286428,29
3287056,15
3287672,13
3288300,15
3288924,14
3289552,19
3290180,19
3290800,25
3291428,18
3292052,15
3292676,19
3293308,19
3293928,26
3294556,38
3295180,41
3295804,40
3296432,36
3297048,29
3297680,27
3298300,16
3298928,15
3299556,19
3300180,14
3300808,16
3301436,16
3302056,19
3302684,13
3303308,13
3303936,13
3304568,11
3305184,16
3305812,26
3306436,31
3307056,35
3307688,34
3308304,22
3308932,17
3309556,22
3310180,31
3310808,44
3311432,47
3312060,43
3312688,36
3313312,22
3313940,14
3314564,16
3315192,17
3315824,11
3316440,19
3317068,21
3317692,19
3318316,17
3318948,16
3319568,17
3320196,19
3320820,17
3321444,18
3322072,16
3322696,27
3323324,28
3323956,34
3324576,34
3325204,20
3325828,19
3326460,27
3327088,31
3327708,44
3328336,46
3328960,45
3329580,37
3330208,30
3330832,24
3331460,12
3332084,10
3332704,15
3333332,16
3333956,16
3334584,16
3335212,19
3335832,22
3336460,18
3337084,11
3337712,11
3338340,10
3338960,17
3339588,23
3340212,19
3340832,18
3341464,17
3342080,17
3342708,21
3343332,24
3343956,28
3344584,32
3345208,40
3345836,39
3346468,26
3347088,18
3347716,18
3348340,13
3348972,10
3349600,17
3350216,20
3350844,24
3351468,23
3352092,20
3352724,10
3353344,11
3353972,15
3354596,16
3355220,19
3355852,32
3356472,33
3357100,25
3357732,18
3358352,17
3358984,22
3359604,23
3360236,23
3360864,23
3361480,30
3362108,37
3362732,39
3363352,27
3363984,24
3364600,21
3365228,20
3365852,27
3366476,23
3367104,16
3367720,22
3368348,27
3368976,18
3369596,15
3370228,13
3370852,12
3371480,12
3372112,14
3372728,22
3373360,22
3373984,20
3374608,16
3375236,17
3375856,24
3376484,25
3377108,24
3377732,30
3378364,38
3378984,40
3379612,26
3380244,10
3380860,11
3381492,10
3382112,14
3382744,22
3383372,17
3383992,17
3384620,16
3385244,17
3385868,16
3386496,15
3387112,14
3387744,15
3388368,22
3388992,25
3389620,26
3390240,25
3390868,21
3391496,16
3392120,17
3392748,17
3393372,16
3394000,27
3394628,38
3395248,46
3395876,50
3396500,34
3397124,22
3397756,12
3398376,11
3399008,11
3399632,19
3400256,19
3400884,16
3401504,23
3402132,20
3402764,14
3403384,14
3404012,12
3404636,10
3405264,12
3405896,20
3406512,27
3407140,25
3407764,20
3408388,16
3409020,17
3409640,20
3410268,23
3410892,35
3411516,41
3412144,39
3412764,33
3413392,25
3414020,22
3414640,13
3415268,11
3415892,12
3416524,16
3417152,16
3417776,16
3418404,16
3419028,13
3419656,19
3420284,25
3420904,25
3421532,26
3422156,22
3422780,33
3423412,25
3424032,15
3424660,18
3425288,24
3425912,28
3426540,29
3427164,32
3427796,38
3428428,38
3429048,34
3429680,27
3430304,19
3430928,11
3431556,12
3432176,11
3432804,16
3433428,15
3434052,18
3434684,16
3435304,18
3435936,10
3436564,14
3437184,23
3437812,21
3438440,22
3439068,27
3439700,20
3440320,26
3440948,48
3441572,37
3442196,20
3442828,23
3443448,33
3444076,44
3444700,54
3445324,56
3445952,51
3446568,39
3447200,33
3447828,17
3448448,11
3449076,11
3449700,16
3450332,17
3450960,18
3451576,16
3452208,15
3452832,15
3453456,15
3454084,13
3454704,22
3455336,27
3455960,23
3456584,24
3457212,22
3457832,20
3458460,16
3459092,22
3459712,27
3460340,27
3460964,38
3461596,39
3462224,33
3462848,28
3463476,24
3464100,21
3464724,12
3465352,10
3465976,17
3466604,16
3467228,17
3467852,18
3468484,18
3469104,14
3469732,15
3470364,10
3470984,10
3471612,12
3472240,17
3472868,25
3473496,35
3474120,34
3474748,21
3475372,17
3475996,23
3476628,32
3477248,38
3477876,47
3478504,50
3479128,43
3479756,36
3480376,34
3481004,21
3481636,10
3482252,18
3482884,22
3483504,15
3484136,16
3484764,16
3485384,16
3486012,10
3486636,11
3487260,11
3487892,12
3488512,16
3489140,24
3489764,26
3490388,27
3491016,20
3491640,17
3492268,20
3492900,20
3493520,24
3494148,28
3494772,31
3495404,38
3496032,35
3496656,33
3497284,29
3497908,20
3498532,14
3499164,16
3499784,16
3500412,16
3501040,21
3501660,24
3502292,24
3502916,23
3503548,15
3504176,20
3504800,32
3505428,25
3506052,24
3506684,25
3507316,20
3507936,16
3508564,17
3509188,19
3509812,16
3510444,12
3511064,21
3511696,35
3512324,45
3512944,38
3513576,30
3514200,13
3514832,11
3515460,10
3516080,19
3516712,22
3517336,20
3517960,19
3518592,16
3519208,11
3519840,13
3520468,22
3521088,36
3521720,49
3522336,39
3522968,30
3523596,21
3524216,17
3524844,19
3525468,24
3526096,24
3526724,20
3527344,18
3527972,27
3528596,35
3529224,40
3529852,30
3530472,25
3531100,15
3531724,11
3532352,11
3532980,17
3533600,16
3534228,17
3534856,18
3535476,13
3536104,11
3536728,10
3537356,13
3537988,18
3538608,18
3539236,19
3539860,19
3540484,15
3541116,16
3541736,16
3542368,17
3542992,21
3543616,22
3544244,31
3544864,38
3545492,40
3546124,34
3546744,30
3547372,19
3548000,13
3548628,22
3549260,18
3549880,14
3550508,17
3551136,17
3551760,17
3552392,10
3553008,10
3553636,11
3554260,14
3554884,19
3555516,26
3556136,30
3556768,31
3557396,26
3558016,18
3558648,18
3559272,26
3559900,28
3560532,35
3561152,39
3561784,34
3562404,23
3563028,10
3563660,12
3564280,16
3564908,11
3565532,11
3566156,16
3566788,18
3567408,19
3568036,18
3568668,20
3569288,17
3569916,11
3570544,14
3571172,11
3571804,20
3572424,40
3573056,35
3573680,25
3574304,19
3574936,16
3575552,23
3576184,23
3576808,26
3577432,34
3578064,41
3578684,41
3579312,45
3579944,39
3580564,31
3581196,19
3581820,15
3582452,15
3583084,15
3583704,17
3584336,20
3584960,18
3585584,12
3586212,10
3586832,13
3587460,16
3588084,19
3588708,21
3589340,27
3589960,25
3590592,21
3591220,17
3591840,18
3592468,19
3593092,19
3593724,23
3594356,28
3594976,33
3595604,39
3596232,30
3596856,17
3597484,10
3598104,17
3598732,15
3599356,15
3599984,15
3600616,22
3601240,21
3601868,17
3602500,10
3603120,12
3603752,11
3604376,11
3605000,15
3605628,24
3606248,28
3606876,27
3607500,27
3608124,17
3608752,15
3609372,18
3610000,21
3610624,26
3611248,30
3611876,36
3612500,41
3613128,37
3613760,34
3614376,21
3615004,11
3615628,11
3616260,16
3616888,16
3617504,17
3618136,19
3618760,17
3619380,20
3620012,22
3620632,20
3621260,16
3621884,14
3622512,20
3623140,19
3623764,17
3624396,15
3625024,16
3625640,17
3626272,20
3626892,28
3627524,36
3628152,41
3628776,39
3629408,28
3630032,19
3630656,16
3631284,10
3631904,11
3632536,16
3633164,15
3633784,18
3634412,22
3635040,25
3635668,14
3636300,12
3636920,11
3637548,11
3638172,11
3638796,16
3639428,22
3640048,27
3640676,16
3641300,19
3641924,23
3642556,19
3643176,17
3643808,13
3644436,30
3645056,41
3645684,39
3646308,35
3646940,34
3647572,25
3648192,13
3648820,11
3649444,16
3650068,16
3650696,19
3651312,21
3651944,21
3652568,15
3653192,14
3653820,16
3654440,21
3655068,27
3655700,32
3656320,28
3656948,24
3657572,18
3658204,21
3658836,28
3659456,26
3660088,24
3660712,38
3661336,48
3661964,41
3662584,37
3663212,32
3663840,26
3664464,15
3665092,12
3665712,16
3666344,16
3666972,16
3667592,18
3668220,17
3668848,17
3669476,13
3670108,10
3670728,10
3671356,17
3671984,35
3672608,43
3673240,38
3673856,22
3674488,17
3675112,18
3675736,21
3676368,27
3676984,30
3677616,33
3678248,37
3678864,42
3679496,32
3680120,19
3680752,17
3681380,13
3682000,13
3682628,17
3683252,15
3683876,17
3684508,20
3685128,23
3685756,16
3686384,12
3687008,13
3687640,11
3688260,11
3688892,22
3689520,26
3690136,23
3690768,20
3691392,15
3692020,16
3692648,16
3693272,19
3693900,24
3694524,34
3695148,44
3695780,44
3696400,31
3697028,26
3697652,17
3698276,11
3698904,11
3699528,16
3700160,16
3700788,16
3701408,18
3702036,15
3702660,11
3703292,11
3703920,10
3704544,13
3705172,21
3705800,33
3706424,32
3707052,26
3707672,21
3708300,16
3708928,18
3709552,22
3710180,30
3710808,37
3711436,39
3712068,39
3712688,30
3713316,22
3713940,16
3714564,13
3715196,10
3715816,17
3716448,16
3717072,16
3717696,17
3718324,17
3718944,13
3719572,13
3720204,15
3720824,17
3721452,21
3722076,25
3722708,28
3723340,30
3723960,24
3724592,15
3725216,17
3725840,19
3726468,18
3727088,27
3727720,38
3728344,40
3728964,40
3729596,34
3730216,30
3730848,13
3731476,11
3732096,13
3732724,17
3733348,16
3733980,16
3734612,16
3735232,15
3735860,11
3736488,12
3737112,15
3737744,15
3738360,16
3738988,13
3739612,11
3740236,22
3740868,30
3741488,29
3742116,22
3742748,19
3743368,28
3743996,36
3744624,43
3745252,43
3745884,38
3746504,29
3747136,17
3747760,11
3748384,11
3749012,14
3749632,14
3750260,16
3750888,17
3751512,17
3752140,10
3752760,11
3753392,13
3754020,15
3754640,15
3755272,19
3755896,28
3756528,33
3757156,26
3757776,17
3758408,17
3759032,18
3759656,20
3760288,23
3760904,31
3761536,37
3762160,42
3762784,43
3763416,36
3764040,21
3764668,12
3765300,10
3765920,16
3766548,17
3767176,18
3767804,19
3768436,23
3769056,16
3769684,12
3770308,10
3770932,11
3771564,20
3772184,35
3772812,31
3773436,21
3774064,18
3774696,18
3775320,21
3775952,23
3776584,23
3777200,24
3777828,25
3778452,30
3779080,36
3779708,32
3780328,29
3780956,15
3781584,11
3782208,11
3782836,16
3783456,18
3784088,17
3784716,16
3785336,12
3785968,11
3786592,10
3787224,9
3787800,13
3788428,16
3789060,23
3789680,27
3790312,24
3790944,16
3791560,15
3792188,17
3792812,25
3793436,32
3794068,39
3794688,35
3795316,26
3795944,22
3796568,19
3797196,26
3797816,16
3798448,13
3799076,19
3799696,17
3800328,20
3800952,33
3801580,25
3802212,12
3802832,10
3803464,11
3804088,11
3804712,12
3805344,16
3805960,17
3806592,21
3807216,20
3807840,18
3808472,17
3809096,21
3809728,25
3810356,28
3810976,35
3811608,32
3812232,34
3812860,36
3813492,34
3814112,21
3814744,13
3815368,11
3815992,17
3816624,17
3817240,21
3817872,20
3818504,15
3819120,11
3819752,15
3820376,13
3821008,15
3821636,20
3822256,23
3822888,24
3823512,19
3824136,17
3824768,22
3825384,25
3826016,21
3826640,17
3827264,13
3827892,21
3828512,34
3829144,45
3829776,44
3830392,37
3831024,21
3831652,14
3832284,15
3832916,14
3833536,17
3834168,18
3834796,18
3835420,15
3836052,14
3836672,12
3837304,12
3837932,14
3838556,21
3839192,29
3839816,29
3840452,22
3841080,16
3841696,17
3842324,19
3842948,22
3843576,27
3844208,34
3844824,41
3845452,39
3846076,29
3846700,25
3847332,22
3847952,15
3848580,9
3849156,15
3849784,16
3850412,16
3851032,17
3851660,17
3852284,12
3852912,13
3853540,13
3854164,13
3854796,23
3855424,35
3856044,33
3856672,31
3857296,29
3857924,18
3858552,16
3859176,25
3859808,31
3860432,47
3861056,49
3861684,40
3862304,41
3862936,36
3863564,27
3864184,14
3864812,17
3865440,18
3866068,17
3866700,18
3867320,18
3867948,16
3868576,12
3869200,13
3869828,12
3870448,11
3871076,11
3871704,12
3872328,22
3872956,26
3873576,25
3874204,17
3874836,16
3875456,20
3876084,18
3876708,22
3877340,35
3877972,42
3878592,49
3879220,34
3879848,29
3880472,22
3881100,11
3881720,11
3882348,15
3882972,14
3883600,17
3884228,16
3884848,17
3885476,10
3886108,11
3886728,17
3887356,23
3887984,25
3888616,26
3889248,25
3889864,23
3890496,23
3891120,16
3891744,17
3892376,18
3892992,20
3893624,28
3894248,35
3894872,49
3895500,54
3896120,41
3896748,29
3897380,14
3898000,12
3898628,18
3899252,19
3899884,16
3900516,16
3901136,18
3901768,25
3902392,27
3903016,20
3903648,13
3904264,11
3904896,13
3905520,14
3906144,15
3906776,18
3907400,18
3908028,16
3908660,22
3909280,25
3909908,26
3910536,33
3911164,31
3911796,26
3912416,20
3913044,27
3913668,31
3914296,17
3914924,10
3915544,15
3916176,17
3916804,16
3917424,17
3918052,18
3918680,13
3919308,13
3919940,12
3920560,11
3921192,12
3921816,16
3922440,18
3923068,20
3923688,26
3924316,24
3924944,25
3925568,16
3926200,23
3926816,31
3927448,47
3928076,50
3928696,49
3929328,36
3929952,27
3930584,25
3931212,17
3931832,15
3932464,18
3933088,15
3933712,25
3934340,26
3934960,21
3935588,15
3936216,14
3936836,11
3937468,10
3938088,11
3938716,15
3939348,24
3939968,34
3940596,33
3941220,19
3941852,16
3942484,22
3943104,29
3943732,40
3944356,41
3944980,40
3945608,37
3946228,31
3946856,31
3947480,22
3948104,15
3948732,12
3949352,16
3949984,20
3950612,19
3951232,19
3951864,13
3952488,14
3953116,15
3953748,16
3954368,18
3954996,21
3955624,31
3956248,32
3956876,26
3957496,18
3958128,16
3958752,18
3959376,23
3960004,25
3960624,32
3961256,30
3961884,30
3962504,31
3963136,33
3963760,27
3964388,15
3965020,10
3965640,15
3966268,16
3966896,26
3967520,22
3968152,18
3968768,13
3969396,16
3970020,15
3970644,12
3971276,18
3971896,29
3972524,32
3973156,26
3973776,22
3974404,17
3975028,26
3975660,24
3976288,16
3976912,11
3977544,15
3978168,27
3978792,39
3979424,34
3980040,29
3980668,23
3981296,19
3981920,17
3982548,20
3983172,16
3983804,18
3984436,16
3985056,15
3985684,11
3986308,11
3986940,11
3987572,16
3988192,21
3988824,26
3989448,26
3990072,18
3990700,16
3991320,15
3991952,20
3992584,22
3993204,19
3993836,27
3994460,36
3995088,41
3995716,40
3996336,29
3996964,15
3997588,11
3998216,11
3998848,17
3999464,17
4000096,17
4000716,17
4001340,17
4001968,10
4002592,12
4003220,12
4003848,12
4004472,13
4005100,17
4005724,18
4006356,24
4006984,20
4007608,17
4008236,18
4008860,17
4009484,19
4010116,16
4010736,19
4011364,16
4011992,13
4012616,17
4013244,21
4013864,19
4014496,15
4015124,16
4015744,21
4016372,19
4016996,19
4017628,17
4018256,16
4018872,13
4019504,15
4020128,15
4020752,15
4021380,20
4022000,28
4022628,27
4023252,24
4023876,22
4024508,14
4025128,18
4025756,22
4026388,26
4027008,33
4027636,38
4028260,42
4028892,37
4029520,29
4030144,24
4030772,15
4031400,9
4031972,11
4032608,16
4033224,15
4033856,17
4034480,16
4035104,11
4035732,10
4036352,14
4036980,15
4037604,18
4038228,23
4038860,26
4039480,24
4040108,17
4040740,14
4041360,21
4041988,21
4042612,23
4043244,26
4043876,30
4044496,34
4045128,32
4045748,25
4046372,20
4047004,16
4047624,11
4048252,11
4048876,17
4049500,16
4050132,17
4050756,17
4051388,17
4052016,14
4052636,15
4053264,15
4053888,11
4054520,12
4055148,19
4055768,27
4056396,26
4057020,20
4057648,17
4058276,15
4058896,17
4059524,17
4060148,19
4060776,27
4061404,35
4062032,41
4062660,29
4063292,19
4063912,12
4064544,9
4065116,11
4065752,17
4066380,15
4067000,17
4067632,16
4068256,19
4068880,17
4069508,19
4070128,19
4070760,13
4071384,13
4072008,23
4072636,24
4073256,23
4073888,21
4074516,16
4075136,19
4075768,21
4076392,22
4077024,32
4077652,34
4078272,37
4078904,35
4079528,19
4080152,13
4080780,10
4081400,10
4082028,12
4082656,17
4083280,19
4083908,16
4084528,19
4085156,13
4085788,10
4086408,11
4087036,11
4087664,15
4088296,19
4088924,26
4089544,33
4090176,27
4090800,21
4091424,16
4092056,15
4092676,15
4093308,14
4093932,18
4094556,24
4095188,29
4095816,26
4096448,24
4097076,20
4097692,10
4098320,10
4098940,16
4099568,15
4100196,16
4100812,17
4101440,17
4102064,12
4102688,11
4103316,13
4103936,12
4104564,11
4105184,20
4105808,28
4106436,32
4107056,33
4107684,35
4108312,22
4108928,21
4109556,31
4110180,27
4110808,35
4111436,39
4112056,37
4112684,23
4113304,21
4113928,18
4114556,12
4115176,12
4115804,16
4116428,16
4117052,16
4117684,15
4118304,16
4118932,19
4119564,26
4120184,23
4120812,19
4121436,26
4122064,34
4122696,34
4123312,28
4123940,16
4124564,23
4125188,27
4125820,24
4126440,24
4127068,32
4127692,26
4128316,27
4128944,25
4129560,29
4130188,29
4130812,19
4131440,11
4132068,14
4132692,15
4133320,17
4133952,19
4134568,17
4135196,11
4135820,12
4136452,13
4137080,16
4137696,19
4138324,26
4138948,29
4139572,28
4140200,22
4140816,17
4141444,20
4142068,24
4142692,22
4143320,21
4143944,29
4144576,38
4145204,42
4145824,33
4146452,27
4147076,21
4147708,15
4148336,11
4148952,16
4149584,16
4150208,18
4150832,24
4151460,22
4152080,12
4152708,13
4153332,11
4153956,13
4154588,20
4155212,29
4155840,33
4156468,26
4157088,18
4157716,17
4158340,20
4158972,28
4159600,26
4160224,28
4160852,29
4161472,31
4162096,33
4162724,24
4163340,26
4163972,16
4164592,13
4165216,13
4165844,17
4166468,16
4167096,18
4167724,18
4168344,14
4168972,13
4169592,11
4170224,12
4170852,16
4171472,17
4172100,21
4172724,19
4173348,21
4173980,18
4174600,17
4175228,17
4175852,17
4176476,15
4177104,31
4177728,50
4178356,56
4178988,50
4179608,40
4180236,33
4180860,18
4181488,12
4182116,15
4182736,15
4183364,16
4183988,17
4184612,19
4185240,21
4185864,20
4186492,13
4187116,10
4187740,11
4188372,17
4188992,21
4189624,17
4190252,17
4190872,17
4191500,19
4192128,25
4192756,23
4193384,25
4194008,40
4194636,51
4195260,54
4195884,37
4196512,16
4197136,15
4197764,21
4198388,14
4199016,17
4199644,17
4200268,18
4200896,16
4201524,16
4202144,19
4202772,18
4203396,14
4204024,13
4204656,17
4205272,25
4205900,23
4206524,20
4207148,18
4207780,16
4208400,26
4209028,30
4209652,27
4210276,36
4210904,39
4211528,38
4212160,25
4212788,20
4213408,21
4214036,11
4214660,9
4215240,11
4215868,15
4216488,18
4217116,18
4217740,19
4218372,14
4219004,10
4219624,16
4220252,19
4220876,23
4221500,15
4222132,16
4222752,15
4223380,13
4224012,16
4224628,16
4225260,17
4225880,17
4226512,20
4227140,30
4227760,31
4228388,33
4229012,22
4229640,22
4230268,24
4230888,22
4231516,15
4232140,17
4232764,15
4233396,18
4234016,17
4234644,16
4235276,11
4235896,11
4236524,11
4237152,12
4237780,15
4238412,14
4239032,17
4239664,17
4240288,17
4240908,17
4241540,17
4242160,17
4242788,16
4243412,11
4244036,19
4244664,30
4245288,36
4245916,29
4246548,26
4247168,13
4247796,11
4248424,13
4249052,17
4249684,15
4250304,17
4250932,17
4251556,13
4252180,12
4252808,13
4253424,14
4254056,17
4254680,24
4255304,34
4255936,39
4256552,36
4257184,23
4257812,17
4258432,25
4259060,29
4259688,35
4260316,40
4260944,34
4261568,29
4262196,21
4262820,23
4263444,29
4264072,19
4264688,17
4265316,15
4265940,14
4266564,18
4267192,18
4267812,17
4268440,14
4269072,11
4269688,11
4270316,10
4270940,12
4271572,20
4272200,33
4272824,36
4273452,26
4274076,16
4274700,17
4275332,20
4275952,23
4276580,27
4277204,36
4277828,41
4278460,42
4279080,32
4279708,20
4280340,13
4280960,10
4281588,11
4282212,18
4282844,15
4283472,17
4284088,15
4284720,18
4285344,11
4285968,19
4286596,32
4287216,46
4287844,46
4288472,35
4289096,24
4289724,14
4290344,16
4290972,16
4291604,15
4292224,17
4292852,21
4293476,31
4294108,40
4294736,44
4295360,42
4295988,34
4296616,28
4297240,14
4297868,11
4298488,12
4299116,15
4299744,16
4300368,18
4301000,18
4301616,13
4302244,11
4302872,10
4303492,11
4304120,11
4304744,15
4305372,22
4306000,29
4306624,29
4307252,23
4307876,16
4308500,17
4309128,21
4309748,27
4310376,40
4311000,49
4311624,52
4312252,43
4312872,37
4313504,23
4314132,10
4314752,11
4315380,17
4316008,15
4316636,18
4317268,22
4317888,21
4318516,10
4319144,12
4319768,11
4320400,10
4321016,17
4321644,25
4322268,31
4322892,34
4323520,24
4324144,17
4324772,17
4325404,16
4326024,20
4326652,33
4327276,40
4327908,41
4328536,41
4329160,33
4329788,24
4330412,16
4331036,10
4331668,10
4332288,15
4332916,17
4333540,17
4334164,17
4334796,18
4335416,17
4336048,13
4336676,12
4337296,14
4337924,17
4338548,24
4339180,27
4339812,26
4340432,19
4341064,17
4341688,22
4342312,21
4342944,22
4343560,34
4344188,40
4344816,42
4345436,35
4346068,29
4346692,22
4347324,12
4347952,10
4348576,17
4349204,15
4349832,18
4350460,18
4351092,16
4351712,11
4352344,11
4352964,12
4353588,12
4354220,17
4354840,23
4355468,32
4356092,34
4356720,29
4357348,20
4357972,16
4358604,17
4359232,17
4359852,16
4360480,28
4361104,33
4361732,35
4362364,30
4362984,26
4363612,20
4364236,12
4364860,11
4365488,19
4366108,15
4366736,19
4367364,18
4367984,16
4368612,10
4369236,13
4369868,13
4370500,14
4371120,24
4371752,35
4372376,37
4373000,38
4373628,23
4374248,16
4374876,29
4375504,38
4376128,30
4376756,26
4377376,29
4378008,22
4378636,26
4379256,36
4379884,37
4380512,19
4381140,10
4381772,12
4382392,17
4383024,22
4383648,24
4384272,22
4384900,15
4385520,13
4386148,11
4386772,11
4387396,19
4388028,24
4388648,31
4389276,23
4389908,20
4390528,18
4391156,17
4391784,20
4392412,25
4393044,22
4393664,27
4394292,40
4394916,45
4395544,41
4396172,38
4396792,29
4397424,19
4398048,15
4398672,19
4399304,16
4399920,17
4400552,16
4401184,17
4401804,17
4402432,16
4403056,12
4403688,13
4404316,18
4404936,23
4405564,31
4406188,36
4406812,32
4407444,17
4408064,17
4408692,18
4409316,25
4409940,38
4410572,38
4411192,38
4411824,37
4412452,28
4413072,19
4413704,13
4414328,11
4414956,11
4415588,16
4416208,16
4416836,20
4417460,23
4418084,15
4418716,14
4419336,13
4419964,11
4420588,14
4421216,19
4421844,23
4422468,26
4423100,25
4423728,17
4424352,15
4424980,22
4425604,25
4426232,25
4426860,35
4427480,46
4428108,46
4428736,37
4429360,27
4429988,17
4430608,12
4431236,10
4431864,16
4432488,16
4433116,19
4433740,17
4434372,17
4435000,11
4435624,21
4436252,18
4436876,14
4437508,13
4438140,23
4438760,34
4439392,33
4440016,21
4440640,17
4441268,18
4441888,22
4442516,27
4443148,35
4443768,44
4444400,38
4445024,35
4445652,30
4446284,26
4446904,19
4447532,11
4448160,12
4448784,16
4449412,15
4450032,17
4450660,16
4451288,17
4451912,12
4452540,11
4453160,11
4453792,13
4454420,19
4455040,31
4455668,31
4456292,28
4456924,22
4457552,15
4458176,19
4458808,24
4459432,29
4460056,33
4460688,36
4461304,41
4461936,36
4462560,21
4463184,12
4463816,9
4464384,12
4465016,17
4465640,19
4466264,17
4466892,17
4467512,25
4468144,20
4468772,12
4469392,11
4470024,12
4470648,12
4471276,27
4471908,49
4472528,42
4473160,21
4473784,16
4474408,22
4475040,32
4475656,36
4476288,31
4476912,33
4477536,33
4478168,35
4478792,31
4479424,28
4480056,22
4480672,12
4481300,11
4481924,15
4482552,16
4483180,16
4483800,17
4484428,19
4485052,17
4485676,15
4486308,15
4486928,14
4487556,12
4488180,23
4488804,29
4489436,25
4490060,16
4490688,18
4491316,16
4491936,17
4492568,17
4493192,27
4493820,40
4494452,42
4495072,41
4495704,29
4496328,23
4496948,14
4497580,10
4498200,11
4498828,16
4499456,14
4500080,17
4500708,17
4501336,15
4501964,13
4502596,20
4503216,21
4503848,15
4504472,22
4505096,29
4505728,20
4506344,16
4506972,16
4507596,16
4508220,18
4508848,20
4509464,27
4510096,38
4510724,36
4511344,35
4511972,35
4512600,25
4513228,17
4513860,10
4514480,11
4515108,15
4515732,15
4516360,16
4516988,18
4517608,17
4518236,10
4518860,11
4519484,11
4520116,10
4520736,13
4521364,19
4521996,27
4522616,31
4523244,24
4523868,17
4524500,16
4525128,18
4525752,22
4526384,29
4527008,33
4527632,36
4528260,40
4528880,32
4529508,27
4530132,25
4530756,13
4531388,11
4532008,18
4532636,15
4533268,18
4533888,23
4534516,23
4535140,18
4535772,19
4536404,18
4537024,14
4537652,15
4538276,21
4538900,23
4539532,26
4540152,24
4540784,16
4541408,17
4542032,21
4542664,24
4543280,29
4543912,31
4544544,42
4545164,42
4545792,35
4546416,33
4547048,17
4547676,10
4548296,14
4548924,15
4549548,16
4550176,16
4550804,16
4551424,11
4552056,11
4552680,16
4553304,15
4553932,14
4554552,18
4555184,24
4555816,18
4556432,13
4557064,18
4557688,26
4558320,30
4558948,30
4559568,31
4560200,37
4560824,36
4561448,35
4562076,26
4562696,26
4563324,25
4563948,16
4564576,11
4565204,15
4565828,16
4566460,18
4567088,17
4567712,18
4568340,11
4568964,12
4569596,9
4570176,12
4570800,23
4571428,39
4572056,39
4572680,44
4573312,48
4573928,19
4574560,28
4575184,39
4575808,37
4576440,33
4577060,30
4577688,27
4578320,22
4578940,19
4579568,19
4580196,20
4580824,14
4581456,14
4582076,17
4582708,16
4583332,16
4583956,18
4584588,16
4585208,14
4585840,15
4586464,17
4587088,17
4587720,17
4588336,21
4588964,22
4589596,18
4590216,17
4590844,18
4591468,17
4592100,17
4592732,22
4593352,39
4593984,44
4594608,40
4595232,31
4595860,27
4596480,27
4597108,16
4597736,10
4598360,15
4598992,15
4599608,17
4600240,19
4600868,18
4601488,15
4602120,15
4602744,19
4603372,17
4604004,12
4604624,15
4605256,20
4605880,24
4606504,20
4607136,16
4607752,18
4608388,21
4609008,19
4609632,25
4610260,36
4610884,44
4611512,41
4612140,29
4612760,29
4613388,23
4614012,11
4614644,10
4615272,15
4615892,16
4616520,21
4617144,19
4617768,19
4618396,10
4619016,12
4619644,15
4620268,15
4620892,17
4621524,19
4622144,26
4622776,30
4623404,25
4624024,16
4624652,22
4625276,25
4625908,25
4626536,26
4627160,32
4627792,39
4628416,37
4629040,35
4629668,34
4630288,27
4630916,20
4631544,22
4632168,20
4632796,17
4633420,24
4634052,20
4634684,14
4635304,12
4635932,13
4636560,17
4637188,26
4637820,28
4638440,32
4639068,36
4639696,29
4640320,20
4640948,16
4641568,17
4642196,18
4642828,34
4643448,55
4644076,50
4644700,42
4645332,39
4645960,30
4646580,17
4647208,11
4647832,11
4648456,19
4649084,23
4649704,23
4650332,17
4650956,19
4651580,22
4652212,34
4652832,41
4653460,31
4654092,24
4654712,24
4655344,17
4655968,13
4656600,14
4657228,20
4657848,25
4658476,22
4659104,21
4659728,26
4660356,30
4660976,31
4661604,27
4662228,19
4662852,16
4663484,11
4664104,10
4664732,16
4665364,16
4665984,16
4666612,17
4667240,16
4667868,16
4668500,16
4669120,16
4669752,13
4670376,11
4671000,11
4671628,17
4672248,21
4672876,16
4673500,15
4674124,16
4674756,17
4675376,17
4676004,22
4676636,38
4677256,45
4677884,49
4678508,42
4679140,31
4679772,18
4680392,12
4681020,19
4681644,15
4682268,18
4682900,20
4683520,18
4684148,16
4684776,11
4685400,11
4686028,14
4686648,21
4687276,23
4687908,24
4688528,29
4689156,26
4689784,28
4690412,18
4691044,17
4691664,19
4692292,21
4692920,21
4693544,29
4694172,39
4694792,40
4695424,27
4696048,26
4696672,15
4697300,11
4697928,11
4698556,16
4699188,16
4699808,15
4700440,17
4701064,17
4701696,11
4702324,12
4702944,15
4703576,21
4704200,18
4704824,21
4705456,25
4706072,27
4706704,27
4707336,18
4707956,16
4708584,20
4709212,27
4709844,40
4710476,38
4711096,33
4711724,26
4712348,24
4712972,28
4713604,20
4714224,14
4714856,13
4715480,18
4716104,17
4716736,16
4717352,18
4717984,17
4718616,15
4719232,16
4719864,20
4720488,18
4721116,21
4721748,31
4722368,34
4723000,27
4723624,16
4724248,21
4724876,26
4725496,22
4726128,19
4726752,28
4727376,36
4728008,36
4728624,33
4729256,27
4729884,19
4730504,11
4731136,11
4731760,18
4732392,15
4733020,16
4733640,17
4734272,17
4734896,11
4735520,15
4736152,15
4736768,13
4737396,16
4738020,23
4738644,23
4739276,24
4739896,20
4740524,15
4741156,14
4741776,18
4742404,20
4743028,26
4743660,32
4744292,32
4744912,35
4745544,24
4746168,15
4746792,12
4747424,18
4748044,11
4748672,16
4749300,16
4749924,16
4750556,18
4751180,12
4751812,12
4752444,14
4753064,17
4753692,41
4754320,56
4754948,43
4755580,24
4756200,12
4756832,17
4757456,17
4758080,17
4758708,22
4759328,25
4759960,32
4760592,38
4761208,38
4761840,32
4762464,24
4763092,24
4763724,20
4764344,17
4764972,16
4765596,15
4766224,16
4766856,17
4767472,22
4768104,16
4768728,12
4769352,14
4769980,14
4770600,13
4771232,23
4771860,27
4772480,29
4773108,29
4773736,20
4774364,16
4774996,19
4775616,20
4776248,25
4776872,33
4777496,38
4778128,41
4778744,33
4779376,31
4780004,22
4780628,12
4781260,11
4781880,19
4782512,17
4783140,16
4783760,16
4784392,14
4785016,10
4785648,11
4786276,11
4786896,13
4787528,18
4788152,27
4788776,28
4789408,25
4790028,18
4790656,18
4791284,23
4791908,27
4792540,25
4793168,33
4793796,38
4794428,40
4795048,42
4795680,38
4796304,31
4796936,15
4797568,10
4798184,14
4798816,16
4799444,17
4800068,16
4800700,16
4801320,11
4801948,11
4802580,10
4803200,11
4803828,15
4804452,23
4805084,29
4805712,30
4806332,21
4806964,17
4807588,22
4808212,24
4808840,17
4809464,14
4810096,25
4810720,37
4811344,43
4811972,36
4812592,25
4813224,13
4813852,10
4814472,12
4815100,15
4815724,15
4816356,17
4816984,18
4817608,18
4818236,10
4818860,11
4819484,11
4820116,12
4820736,19
4821364,26
4821988,33
4822616,30
4823244,24
4823864,15
4824496,21
4825124,28
4825744,35
4826372,38
4827000,39
4827628,34
4828260,28
4828880,22
4829508,22
4830132,18
4830760,11
4831388,11
4832008,15
4832636,16
4833260,17
4833888,18
4834516,12
4835140,10
4835772,13
4836404,12
4837024,17
4837656,26
4838280,33
4838912,30
4839540,26
4840160,17
4840788,23
4841412,26
4842040,25
4842668,28
4843288,43
4843916,45
4844544,40
4845168,29
4845796,16
4846424,12
4847052,10
4847684,14
4848304,22
4848936,19
4849560,17
4850184,18
4850816,16
4851432,11
4852064,11
4852688,11
4853312,17
4853944,17
4854560,22
4855192,29
4855824,29
4856444,30
4857072,23
4857696,17
4858324,19
4858956,23
4859576,35
4860208,45
4860832,44
4861456,44
4862088,30
4862704,26
4863336,21
4863964,15
4864592,13
4865220,17
4865840,15
4866468,16
4867100,18
4867720,19
4868348,16
4868976,14
4869604,11
4870236,20
4870856,27
4871484,32
4872112,32
4872736,25
4873368,15
4873984,19
4874616,23
4875240,20
4875864,24
4876492,31
4877112,37
4877744,33
4878372,30
4878992,22
4879624,21
4880248,15
4880876,15
4881508,18
4882128,15
4882756,17
4883384,17
4884008,18
4884636,10
4885256,12
4885884,10
4886512,11
4887136,17
4887764,36
4888392,42
4889020,38
4889652,26
4890272,17
4890900,21
4891524,23
4892156,24
4892788,26
4893408,30
4894040,28
4894664,32
4895288,31
4895920,23
4896536,18
4897168,12
4897800,10
4898416,17
4899044,15
4899672,17
4900304,17
4900932,20
4901552,15
4902184,13
4902808,11
4903432,12
4904064,15
4904680,21
4905312,21
4905936,19
4906560,22
4907192,16
4907808,16
4908440,16
4909072,22
4909696,35
4910328,45
4910952,42
4911584,31
4912216,22
4912836,20
4913468,11
4914092,16
4914716,14
4915348,14
4915968,16
4916596,17
4917220,18
4917844,11
4918472,12
4919088,11
4919720,11
4920348,10
4920968,13
4921596,26
4922220,32
4922852,35
4923480,23
4924100,16
4924728,19
4925352,24
4925976,26
4926604,38
4927224,42
4927852,41
4928480,36
4929100,26
4929732,16
4930352,9
4930928,11
4931560,17
4932184,17
4932812,18
4933432,17
4934060,17
4934692,12
4935312,14
4935944,13
4936568,11
4937196,18
4937828,30
4938448,44
4939076,37
4939700,23
4940324,16
4940956,22
4941576,28
4942204,25
4942828,26
4943452,30
4944084,36
4944708,41
4945336,33
4945968,29
4946584,18
4947212,11
4947836,11
4948468,16
4949096,16
4949720,17
4950352,16
4950976,13
4951600,22
4952232,17
4952848,12
4953480,12
4954104,15
4954728,24
4955360,23
4955984,21
4956616,19
4957244,15
4957864,17
4958492,17
4959120,20
4959748,32
4960380,45
4961000,49
4961628,43
4962252,35
4962876,34
4963508,18
4964128,12
4964756,18
4965388,18
4966008,19
4966636,17
4967260,21
4967892,26
4968520,27
4969136,21
4969768,16
4970392,17
4971016,19
4971644,27
4972264,33
4972892,23
4973516,17
4974140,16
4974772,16
4975392,18
4976024,24
4976652,31
4977272,37
4977900,36
4978528,25
4979156,17
4979788,14
4980408,13
4981036,16
4981664,21
4982288,15
4982916,18
4983536,21
4984168,23
4984792,18
4985416,16
4986048,15
4986664,14
4987296,19
4987924,24
4988544,24
4989176,24
4989800,21
4990432,16
4991060,21
4991680,23
4992312,24
4992936,32
4993560,38
4994192,44
4994808,37
4995436,30
4996064,28
4996688,17
4997316,10
4997936,11
4998564,14
4999196,16
4999816,17
5000444,17
5001068,13
5001700,11
5002332,10
5002952,11
5003580,12
5004208,23
5004832,45
5005460,42
5006080,28
5006708,17
5007336,18
5007960,22
5008592,25
5009208,22
5009840,26
5010472,27
5011088,26
5011720,18
5012344,23
5012976,26
5013604,20
5014224,15
5014856,15
5015480,15
5016104,17
5016736,16
5017352,17
5017988,11
5018612,14
5019236,26
5019864,31
5020488,23
5021116,18
5021748,19
5022368,19
5023000,15
5023624,17
5024256,21
5024884,19
5025504,19
5026136,17
5026760,23
5027384,31
5028012,32
5028632,25
5029264,23
5029892,13
5030512,11
5031144,12
5031768,18
5032396,17
5033028,16
5033648,19
5034276,13
5034904,13
5035528,14
5036160,16
5036776,18
5037408,22
5038036,30
5038660,31
5039292,24
5039912,20
5040544,20
5041176,18
5041792,17
5042424,28
5043048,42
5043680,47
5044308,43
5044928,37
5045560,29
5046184,23
5046808,11
5047436,11
5048056,17
5048688,17
5049312,16
5049936,16
5050564,20
5051184,22
5051816,22
5052448,16
5053064,11
5053696,12
5054320,24
5054952,34
5055584,28
5056204,16
5056832,18
5057456,25
5058080,25
5058712,23
5059328,25
5059956,30
5060584,41
5061208,46
5061836,29
5062456,23
5063088,19
5063720,10
5064336,11
5064968,17
5065592,19
5066224,19
5066856,17
5067476,17
5068108,14
5068732,11
5069360,11
5069992,13
5070608,17
5071240,23
5071864,25
5072488,25
5073120,26
5073744,18
5074376,17
5075008,18
5075628,19
5076256,31
5076884,40
5077512,40
5078144,36
5078764,33
5079396,29
5080020,23
5080644,17
5081276,21
5081896,16
5082528,17
5083160,16
5083776,16
5084408,14
5085032,16
5085664,17
5086296,15
5086912,17
5087544,24
5088172,29
5088796,29
5089428,22
5090048,18
5090680,16
5091304,19
5091928,18
5092560,23
5093176,39
5093808,49
5094440,43
5095056,38
5095688,40
5096312,32
5096944,17
5097576,14
5098196,17
5098828,15
5099452,17
5100076,17
5100708,17
5101328,28
5101960,29
5102588,21
5103216,15
5103848,14
5104472,21
5105104,23
5105736,18
5106360,19
5106992,14
5107620,18
5108244,22
5108876,26
5109496,34
5110128,36
5110756,30
5111380,27
5112012,27
5112632,25
5113264,14
5113900,11
5114520,11
5115156,15
5115780,17
5116412,20
5117048,19
5117668,13
5118300,11
5118928,11
5119552,13
5120184,14
5120804,22
5121432,33
5122064,38
5122680,31
5123308,18
5123928,16
5124560,20
5125188,30
5125808,39
5126436,43
5127056,39
5127684,28
5128312,17
5128936,21
5129564,27
5130188,23
5130812,16
5131440,14
5132064,15
5132692,16
5133324,16
5133944,17
5134572,15
5135196,17
5135828,16
5136456,12
5137080,15
5137708,23
5138332,34
5138956,38
5139588,36
5140208,19
5140836,17
5141460,18
5142084,19
5142712,26
5143336,33
5143964,31
5144596,22
5145216,20
5145844,25
5146468,20
5147100,15
5147728,23
5148348,25
5148976,23
5149600,17
5150224,17
5150852,12
5151472,10
5152104,11
5152724,16
5153348,22
5153980,23
5154600,25
5155228,24
5155860,24
5156480,21
5157108,15
5157736,17
5158364,21
5158996,20
5159616,34
5160248,43
5160872,37
5161496,24
5162124,21
5162744,24
5163372,19
5163996,17
5164620,21
5165252,16
5165872,16
5166500,17
5167132,18
5167752,17
5168384,28
5169008,35
5169636,30
5170268,25
5170888,15
5171516,14
5172140,16
5172764,15
5173396,18
5174016,22
5174644,21
5175268,26
5175892,27
5176524,28
5177144,26
5177772,30
5178404,34
5179024,35
5179656,25
5180280,17
5180908,12
5181540,16
5182160,17
5182788,19
5183416,18
5184040,20
5184668,18
5185288,19
5185916,13
5186540,13
5187164,22
5187796,31
5188420,31
5189052,24
5189680,19
5190300,15
5190928,17
5191556,17
5192184,18
5192816,28
5193432,38
5194064,42
5194688,40
5195312,35
5195944,29
5196560,18
5197192,10
5197816,13
5198440,15
5199072,16
5199696,17
5200328,19
5200956,10
5201576,11
5202208,15
5202832,20
5203460,25
5204092,22
5204712,23
5205340,23
5205964,20
5206588,16
5207220,20
5207840,25
5208468,26
5209100,26
5209720,26
5210348,28
5210972,28
5211604,19
5212232,21
5212856,21
5213484,14
5214108,11
5214736,17
5215364,16
5215984,17
5216616,18
5217240,18
5217864,15
5218492,16
5219112,18
5219744,17
5220376,14
5220992,14
5221624,16
5222248,15
5222880,19
5223508,15
5224128,16
5224756,21
5225380,21
5226004,24
5226636,30
5227256,37
5227888,45
5228512,48
5229136,44
5229764,30
5230384,18
5231016,15
5231644,16
5232264,18
5232892,26
5233516,24
5234148,17
5234780,11
5235400,11
5236028,11
5236652,13
5237280,16
5237908,22
5238528,25
5239156,19
5239784,16
5240408,16
5241036,21
5241656,29
5242284,33
5242916,38
5243536,41
5244164,37
5244788,33
5245416,30
5246044,23
5246664,14
5247292,10
5247916,15
5248540,14
5249168,18
5249792,23
5250420,20
5251044,13
5251664,13
5252292,10
5252912,12
5253540,15
5254168,18
5254792,24
5255420,30
5256044,27
5256672,17
5257300,18
5257920,21
5258548,23
5259172,24
5259796,34
5260424,43
5261048,48
5261676,39
5262300,32
5262924,21
5263552,11
5264176,11
5264804,17
5265432,18
5266052,17
5266680,24
5267304,35
5267932,32
5268560,20
5269184,17
5269812,14
5270436,13
5271060,21
5271688,27
5272308,31
5272936,22
5273560,15
5274188,19
5274816,24
5275432,29
5276064,42
5276692,39
5277312,39
5277940,39
5278568,31
5279196,20
5279828,10
5280448,15
5281076,13
5281700,14
5282324,16
5282952,16
5283568,17
5284196,11
5284820,9
5285392,10
5286020,17
5286640,19
5287268,18
5287892,22
5288512,19
5289144,18
5289760,17
5290388,17
5291020,21
5291640,23
5292268,23
5292892,30
5293520,37
5294152,38
5294768,37
5295396,33
5296020,24
5296644,12
5297272,11
5297896,17
5298524,15
5299148,17
5299776,16
5300404,16
5301024,12
5301652,11
5302284,10
5302904,11
5303532,10
5304160,17
5304788,24
5305420,21
5306040,19
5306668,16
5307292,19
5307916,22
5308548,20
5309168,21
5309796,21
5310420,29
5311044,35
5311676,26
5312296,22
5312928,17
5313556,13
5314176,13
5314804,19
5315428,16
5316060,16
5316688,21
5317308,25
5317936,31
5318560,24
5319184,11
5319816,11
5320432,11
5321060,15
5321684,13
5322308,12
5322940,16
5323560,17
5324188,17
5324820,18
5325436,21
5326068,28
5326688,31
5327320,33
5327948,40
5328568,36
5329196,27
5329820,13
5330444,10
5331072,15
5331688,17
5332320,16
5332940,17
5333564,18
5334196,16
5334816,15
5335444,20
5336076,24
5336696,35
5337324,33
5337948,37
5338580,23
5339208,14
5339824,18
5340452,19
5341076,16
5341704,17
5342332,18
5342952,37
5343584,48
5344208,46
5344828,38
5345460,26
5346080,15
5346708,11
5347340,10
5347960,15
5348588,15
5349212,17
5349844,17
5350472,18
5351088,13
5351720,11
5352344,11
5352968,10
5353596,14
5354216,27
5354844,30
5355472,30
5356096,33
5356724,34
5357344,24
5357972,18
5358604,27
5359224,36
5359856,46
5360480,50
5361108,46
5361740,31
5362360,25
5362988,18
5363616,12
5364240,12
5364868,16
5365488,15
5366116,17
5366740,17
5367364,19
5367996,18
5368616,14
5369244,14
5369876,16
5370496,18
5371124,25
5371752,27
5372380,25
5373012,20
5373632,16
5374260,17
5374888,19
5375512,23
5376144,42
5376760,51
5377388,51
5378012,45
5378636,34
5379264,25
5379880,13
5380512,11
5381140,16
5381760,16
5382388,16
5383012,19
5383644,22
5384272,17
5384896,13
5385524,11
5386148,11
5386772,15
5387404,24
5388024,32
5388652,41
5389276,33
5389900,19
5390532,18
5391152,20
5391784,19
5392412,16
5393032,20
5393660,32
5394284,45
5394916,41
5395544,32
5396168,21
5396796,13
5397420,15
5398048,18
5398676,16
5399296,17
5399924,17
5400552,18
5401176,23
5401808,20
5402424,19
5403052,27
5403684,35
5404304,36
5404932,31
5405560,21
5406188,17
5406820,18
5407440,19
5408068,21
5408692,18
5409312,20
5409944,31
5410560,40
5411188,42
5411812,37
5412440,30
5413068,16
5413688,11
5414316,13
5414948,16
5415568,17
5416196,17
5416820,19
5417452,14
5418080,12
5418704,12
5419336,11
5419960,11
5420584,17
5421212,30
5421832,32
5422464,22
5423088,17
5423712,16
5424340,16
5424964,16
5425596,17
5426228,24
5426848,25
5427480,26
5428100,27
5428732,22
5429360,20
5429980,13
5430608,12
5431232,17
5431856,15
5432484,17
5433104,17
5433732,20
5434356,15
5434984,13
5435612,12
5436236,13
5436868,19
5437496,26
5438120,35
5438752,29
5439376,21
5440004,17
5440632,18
5441252,21
5441880,21
5442504,23
5443128,37
5443756,44
5444376,44
5445004,29
5445628,23
5446256,17
5446884,12
5447508,11
5448140,15
5448768,15
5449388,17
5450016,17
5450640,12
5451268,11
5451896,10
5452520,11
5453148,14
5453772,22
5454396,27
5455028,26
5455648,26
5456276,16
5456908,17
5457528,22
5458156,24
5458780,27
5459412,30
5460040,23
5460660,11
5461288,11
5461912,12
5462536,24
5463164,24
5463784,20
5464412,23
5465036,17
5465664,20
5466292,22
5466912,21
5467540,16
5468172,10
5468792,11
5469420,11
5470048,20
5470676,28
5471308,30
5471928,31
5472560,23
5473184,16
5473808,17
5474436,20
5475056,25
5475688,31
5476312,36
5476936,43
5477568,42
5478184,33
5478816,22
5479444,13
5480064,11
5480692,14
5481316,16
5481948,19
5482576,19
5483196,18
5483824,14
5484452,10
5485076,10
5485704,10
5486324,10
5486952,15
5487580,34
5488204,40
5488832,26
5489456,17
5490084,18
5490716,20
5491336,22
5491964,24
5492588,34
5493220,38
5493848,40
5494472,42
5495100,31
5495728,27
5496352,19
5496980,14
5497600,17
5498228,15
5498852,17
5499480,18
5500108,19
5500728,15
5501360,18
5501988,21
5502608,18
5503240,20
5503864,22
5504496,27
5505124,22
5505744,16
5506372,17
5507000,19
5507624,23
5508252,23
5508872,21
5509500,24
5510128,28
5510752,33
5511380,27
5512008,19
5512636,14
5513268,10
5513888,11
5514520,16
5515144,16
5515776,17
5516404,16
5517024,19
5517656,15
5518280,15
5518904,12
5519536,10
5520152,15
5520784,29
5521412,33
5522032,27
5522660,26
5523288,16
5523916,22
5524548,26
5525168,32
5525800,31
5526424,33
5527048,38
5527676,38
5528296,27
5528928,22
5529552,11
5530176,13
5530808,17
5531424,17
5532052,16
5532684,16
5533304,17
5533932,12
5534560,11
5535188,11
5535820,10
5536440,13
5537068,15
5537692,24
5538316,29
5538948,26
5539568,19
5540196,16
5540820,17
5541444,19
5542076,20
5542696,28
5543324,34
5543956,37
5544576,34
5545208,23
5545828,18
5546460,11
5547092,10
5547712,15
5548344,15
5548968,18
5549592,21
5550224,18
5550840,13
5551472,11
5552096,11
5552720,13
5553348,21
5553968,31
5554600,30
5555228,23
5555848,21
5556476,16
5557104,17
5557732,21
5558364,19
5558984,22
5559616,30
5560240,32
5560864,32
5561496,22
5562112,18
5562744,11
5563368,11
5563992,11
5564624,17
5565244,16
5565872,17
5566504,17
5567128,15
5567760,13
5568384,11
5569012,10
5569644,11
5570264,17
5570896,36
5571520,55
5572144,48
5572772,18
5573392,15
5574024,17
5574648,22
5575272,34
5575900,49
5576524,52
5577156,41
5577788,39
5578408,39
5579036,37
5579664,17
5580292,10
5580924,17
5581544,19
5582172,19
5582796,17
5583424,17
5584052,10
5584672,9
5585248,11
5585880,12
5586504,14
5587136,16
5587752,22
5588384,24
5589016,22
5589632,17
5590264,17
5590888,22
5591520,21
5592148,23
5592768,26
5593400,22
5594024,27
5594648,28
5595280,29
5595896,23
5596528,16
5597152,14
5597776,20
5598408,16
5599024,17
5599656,17
5600288,20
5600904,14
5601532,12
5602156,13
5602788,12
5603416,16
5604040,24
5604668,26
5605292,26
5605916,21
5606548,15
5607168,17
5607796,21
5608420,25
5609044,30
5609676,34
5610296,40
5610924,36
5611556,23
5612176,19
5612804,12
5613428,10
5614060,12
5614688,16
5615312,17
5615944,16
5616568,17
5617192,15
5617824,13
5618440,14
5619068,12
5619696,13
5620320,16
5620948,23
5621572,22
5622204,17
5622836,16
5623456,19
5624088,20
5624712,21
5625340,25
5625972,35
5626592,37
5627224,36
5627848,31
5628472,24
5629104,21
5629720,12
5630352,11
5630984,21
5631604,28
5632236,23
5632856,17
5633488,18
5634116,32
5634736,41
5635364,36
5635988,18
5636616,22
5637244,27
5637864,19
5638492,12
5639116,12
5639740,14
5640372,25
5640992,17
5641620,24
5642248,42
5642872,52
5643500,53
5644124,52
5644756,38
5645388,24
5646008,15
5646636,10
5647260,12
5647888,17
5648516,16
5649136,20
5649764,21
5650388,18
5651012,10
5651644,11
5652264,14
5652896,17
5653524,24
5654144,29
5654772,29
5655396,31
5656028,21
5656660,16
5657280,17
5657908,26
5658532,34
5659156,46
5659788,51
5660408,44
5661036,34
5661660,23
5662284,20
5662916,14
5663536,12
5664164,15
5664796,16
5665416,17
5666044,17
5666668,19
5667300,14
5667928,12
5668552,12
5669180,13
5669808,17
5670432,19
5671060,19
5671680,27
5672308,29
5672936,24
5673560,16
5674188,24
5674808,28
5675436,27
5676068,25
5676688,28
5677320,29
5677944,25
5678576,21
5679204,13
5679824,11
5680456,14
5681080,16
5681704,15
5682336,16
5682952,17
5683584,19
5684208,12
5684832,15
5685460,14
5686084,14
5686716,15
5687344,22
5687968,26
5688600,25
5689224,20
5689852,16
5690484,18
5691104,19
5691736,21
5692360,26
5692984,39
5693616,45
5694232,42
5694864,29
5695492,23
5696112,18
5696740,13
5697364,15
5697996,17
5698624,16
5699248,19
5699876,17
5700500,13
5701128,11
5701756,13
5702376,14
5703008,14
5703632,17
5704256,31
5704884,34
5705504,27
5706136,19
5706764,15
5707384,18
5708016,17
5708640,21
5709272,34
5709900,35
5710520,41
5711152,35
5711776,26
5712400,24
5713028,18
5713648,13
5714280,15
5714904,15
5715528,20
5716156,20
5716776,17
5717408,11
5718040,10
5718656,10
5719288,10
5719916,16
5720548,26
5721176,28
5721800,29
5722432,25
5723056,17
5723680,17
5724312,19
5724928,18
5725560,22
5726184,29
5726808,32
5727440,30
5728060,25
5728688,30
5729320,28
5729936,21
5730568,20
5731192,20
5731824,16
5732456,16
5733076,16
5733708,13
5734332,14
5734960,16
5735588,15
5736208,16
5736836,14
5737460,18
5738084,20
5738716,17
5739340,16
5739968,16
5740600,21
5741216,23
5741848,26
5742472,29
5743100,23
5743732,35
5744352,40
5744980,37
5745604,25
5746228,12
5746860,17
5747480,15
5748108,16
5748732,16
5749360,21
5749992,21
5750616,11
5751244,11
5751876,12
5752496,12
5753124,14
5753752,30
5754376,41
5755008,41
5755624,30
5756256,18
5756880,20
5757504,25
5758136,26
5758752,29
5759384,39
5760016,42
5760632,43
5761260,32
5761884,23
5762512,18
5763140,10
5763760,11
5764388,15
5765012,17
5765640,17
5766268,22
5766888,26
5767516,17
5768140,15
5768764,11
5769392,10
5770016,13
5770644,23
5771276,28
5771896,25
5772524,22
5773148,16
5773780,18
5774408,22
5775032,26
5775664,31
5776288,35
5776908,35
5777540,31
5778160,27
5778788,20
5779412,12
5780036,11
5780668,12
5781288,16
5781916,18
5782548,16
5783168,16
5783796,13
5784424,17
5785052,16
5785684,11
5786304,14
5786932,19
5787556,29
5788180,34
5788808,26
5789424,17
5790056,18
5790680,19
5791304,17
5791932,20
5792552,38
5793184,49
5793812,56
5794432,49
5795060,42
5795688,32
5796316,14
5796948,10
5797568,15
5798196,15
5798824,21
5799448,22
5800076,22
5800696,20
5801324,18
5801948,13
5802572,11
5803204,16
5803824,27
5804456,31
5805084,33
5805704,33
5806336,22
5806960,17
5807588,26
5808220,30
5808840,39
5809468,42
5810092,48
5810720,44
5811348,30
5811968,23
5812596,11
5813224,10
5813848,13
5814476,18
5815096,16
5815728,16
5816356,16
5816976,20
5817604,25
5818228,28
5818860,22
5819488,14
5820112,17
5820744,24
5821368,19
5821992,13
5822624,15
5823240,16
5823872,18
5824496,20
5825120,27
5825748,33
5826376,27
5827004,17
5827636,16
5828256,26
5828884,25
5829508,16
5830140,11
5830772,16
5831392,16
5832024,17
5832648,18
5833272,18
5833900,13
5834520,11
5835152,11
5835784,10
5836404,22
5837032,38
5837656,32
5838288,26
5838916,16
5839536,17
5840168,20
5840788,19
5841416,20
5842044,19
5842664,26
5843292,30
5843916,36
5844540,29
5845172,24
5845792,24
5846424,13
5847052,10
5847672,17
5848304,15
5848928,18
5849556,20
5850188,18
5850808,16
5851440,14
5852064,13
5852688,11
5853320,13
5853936,23
5854568,29
5855192,27
5855816,20
5856448,16
5857072,18
5857704,20
5858332,21
5858952,30
5859584,35
5860208,31
5860836,21
5861468,17
5862088,23
5862720,21
5863344,19
5863968,24
5864596,23
5865216,18
5865848,17
5866472,17
5867096,13
5867728,11
5868344,15
5868976,15
5869604,14
5870224,18
5870856,29
5871480,33
5872112,25
5872740,16
5873360,17
5873992,25
5874616,24
5875240,31
5875868,35
5876488,40
5877116,41
5877744,32
5878368,23
5879000,21
5879624,13
5880256,11
5880884,15
5881504,18
5882136,23
5882760,20
5883392,17
5884024,11
5884640,13
5885272,11
5885896,12
5886520,19
5887152,25
5887772,30
5888404,32
5889036,26
5889656,16
5890284,17
5890908,19
5891540,24
5892172,32
5892792,35
5893424,30
5894048,24
5894672,18
5895304,15
5895920,12
5896552,10
5897176,15
5897800,26
5898432,24
5899048,18
5899676,15
5900308,12
5900928,11
5901556,13
5902180,19
5902812,35
5903440,40
5904064,37
5904692,29
5905316,19
5905940,15
5906572,18
5907192,23
5907824,23
5908448,24
5909072,36
5909704,39
5910320,40
5910952,34
5911580,26
5912200,16
5912832,13
5913456,11
5914088,17
5914716,14
5915336,17
5915968,19
5916592,20
5917216,14
5917848,12
5918464,14
5919096,15
5919720,22
5920344,31
5920972,23
5921592,16
5922220,14
5922852,16
5923472,17
5924104,17
5924728,26
5925356,42
5925988,38
5926608,20
5927236,17
5927860,19
5928488,17
5929116,16
5929736,14
5930364,16
5930992,19
5931616,17
5932244,17
5932872,18
5933500,16
5934132,10
5934752,11
5935384,10
5936008,12
5936636,16
5937268,23
5937888,26
5938520,19
5939144,19
5939768,17
5940400,21
5941016,22
5941644,29
5942268,38
5942896,38
5943524,33
5944148,34
5944780,32
5945412,29
5946032,22
5946660,19
5947288,17
5947912,16
5948540,17
5949160,23
5949792,27
5950416,21
5951040,13
5951668,12
5952288,11
5952920,14
5953548,20
5954168,30
5954800,31
5955424,27
5956052,21
5956684,16
5957304,19
5957936,23
5958560,31
5959184,41
5959816,46
5960432,41
5961064,32
5961688,31
5962312,24
5962940,13
5963560,13
5964192,22
5964820,18
5965440,17
5966068,21
5966692,24
5967324,14
5967956,11
5968576,10
5969208,11
5969832,15
5970456,17
5971084,26
5971704,30
5972336,25
5972960,16
5973584,17
5974216,19
5974836,23
5975464,35
5976096,40
5976716,35
5977348,30
5977972,24
5978604,25
5979236,18
5979856,13
5980488,11
5981112,15
5981736,17
5982368,18
5982984,21
5983616,18
5984240,15
5984864,12
5985492,10
5986120,10
5986748,13
5987380,26
5988000,33
5988628,31
5989256,24
5989884,17
5990516,16
5991136,18
5991768,22
5992392,38
5993016,49
5993644,47
5994264,36
5994896,28
5995520,24
5996144,19
5996776,16
5997400,18
5998032,16
5998664,18
5999280,26
5999912,28
6000540,15
6001164,11
6001796,10
6002416,11
6003044,14
6003672,21
6004296,28
6004924,33
6005544,29
6006176,16
6006804,17
6007424,18
6008056,18
6008680,40
6009308,55
6009940,54
6010560,52
6011192,43
6011816,32
6012440,15
6013072,34
6013688,24
6014320,16
6014944,16
6015572,17
6016204,16
6016824,13
6017452,16
6018084,19
6018704,16
6019336,11
6019960,11
6020588,14
6021220,23
6021840,28
6022468,21
6023092,17
6023716,17
6024348,15
6024968,17
6025596,22
6026224,32
6026848,36
6027480,33
6028104,27
6028736,23
6029368,13
6029984,10
6030616,16
6031240,16
6031872,16
6032504,16
6033120,16
6033752,15
6034376,15
6035000,13
6035632,11
6036252,15
6036880,21
6037512,24
6038132,25
6038764,20
6039388,17
6040020,17
6040652,22
6041272,24
6041904,25
6042528,32
6043152,35
6043784,34
6044400,28
6045032,23
6045656,20
6046280,14
6046912,13
6047528,17
6048160,15
6048788,16
6049408,17
6050040,16
6050664,18
6051296,23
6051924,26
6052544,25
6053176,21
6053800,21
6054424,20
6055052,17
6055672,17
6056304,16
6056928,20
6057552,23
6058184,24
6058804,30
6059436,35
6060068,34
6060688,33
6061320,30
6061948,25
6062580,15
6063208,11
6063828,13
6064460,16
6065084,15
6065708,16
6066340,16
6066960,13
6067592,13
6068216,16
6068840,15
6069468,19
6070096,24
6070724,29
6071356,29
6071976,23
6072608,16
6073236,16
6073864,20
6074496,19
6075112,24
6075744,30
6076372,38
6076996,43
6077628,40
6078248,43
6078880,33
6079512,19
6080132,13
6080760,17
6081384,17
6082012,17
6082644,17
6083264,32
6083892,28
6084516,17
6085140,14
6085772,14
6086392,22
6087024,31
6087648,32
6088272,30
6088904,18
6089520,19
6090152,25
6090780,19
6091400,16
6092032,21
6092656,28
6093288,25
6093916,17
6094536,15
6095168,24
6095792,18
6096416,11
6097044,13
6097664,19
6098296,16
6098920,16
6099544,18
6100176,14
6100792,14
6101424,14
6102056,13
6102676,13
6103308,15
6103932,21
6104564,23
6105192,17
6105816,17
6106448,17
6107072,22
6107696,22
6108328,24
6108944,34
6109576,40
6110200,37
6110824,28
6111456,26
6112080,21
6112712,14
6113344,12
6113960,16
6114592,15
6115216,17
6115848,16
6116476,16
6117096,10
6117728,10
6118356,12
6118984,17
6119612,37
6120232,54
6120864,45
6121496,28
6122116,15
6122744,17
6123372,22
6124004,22
6124632,26
6125256,34
6125888,36
6126512,41
6127136,41
6127768,25
6128388,22
6129020,17
6129644,17
6130272,19
6130900,23
6131528,18
6132160,17
6132792,17
6133412,12
6134044,12
6134668,15
6135300,17
6135932,18
6136556,16
6137184,17
6137812,19
6138440,22
6139068,17
6139692,19
6140320,23
6140956,22
6141576,19
6142212,21
6142836,27
6143468,35
6144104,31
6144720,23
6145348,15
6145972,11
6146596,11
6147224,17
6147840,15
6148468,15
6149092,16
6149716,16
6150348,14
6150968,25
6151596,25
6152228,14
6152848,17
6153476,24
6154104,28
6154732,30
6155364,24
6155984,18
6156616,17
6157240,18
6157864,25
6158492,27
6159112,36
6159744,37
6160368,35
6160992,24
6161620,22
6162244,21
6162876,13
6163504,12
6164128,17
6164756,15
6165380,17
6166012,17
6166644,12
6167264,11
6167892,10
6168520,10
6169144,11
6169772,12
6170392,21
6171020,24
6171644,22
6172272,23
6172900,15
6173524,17
6174156,19
6174788,20
6175408,25
6176036,33
6176660,42
6177284,36
6177916,34
6178536,35
6179168,21
6179792,16
6180416,15
6181044,16
6181664,18
6182296,17
6182924,16
6183544,11
6184176,12
6184800,15
6185428,13
6186060,13
6186680,19
6187312,22
6187936,25
6188560,21
6189192,17
6189808,19
6190440,17
6191064,19
6191688,24
6192320,32
6192936,37
6193568,45
6194196,42
6194816,37
6195448,26
6196072,16
6196700,11
6197332,16
6197952,15
6198584,17
6199208,17
6199832,22
6200464,15
6201080,14
6201712,13
6202336,11
6202960,12
6203588,16
6204208,19
6204840,18
6205468,18
6206088,15
6206716,25
6207344,32
6207976,20
6208608,29
6209224,52
6209856,59
6210480,54
6211104,43
6211736,31
6212356,16
6212984,11
6213608,11
6214232,17
6214864,23
6215480,22
6216112,22
6216744,16
6217364,12
6217992,11
6218620,11
6219252,17
6219880,18
6220504,26
6221136,26
6221760,21
6222384,15
6223016,17
6223636,19
6224268,19
6224892,23
6225520,37
6226152,39
6226776,36
6227408,29
6228036,24
6228656,19
6229284,11
6229908,11
6230536,16
6231168,15
6231784,16
6232416,19
6233040,21
6233664,22
6234292,22
6234912,19
6235544,13
6236172,17
6236792,24
6237424,23
6238048,21
6238680,21
6239312,16
6239932,19
6240564,19
6241188,19
6241812,24
6242440,28
6243064,35
6243696,36
6244320,27
6244944,23
6245576,13
6246192,10
6246824,11
6247456,15
6248072,17
6248700,17
6249324,17
6249956,15
6250588,12
6251208,11
6251836,11
6252464,19
6253088,24
6253716,30
6254336,28
6254968,23
6255592,18
6256216,15
6256844,17
6257464,19
6258096,22
6258724,32
6259344,38
6259972,40
6260600,33
6261228,22
6261860,16
6262480,12
