tempo_arduino_micro_s,valor_ADC
500,17
1004,13
1504,14
2000,16
2508,16
3000,18
3508,17
4000,19
4508,19
5000,16
5500,18
6000,20
6500,18
7004,14
7500,10
8000,11
8500,11
9000,14
9500,14
10000,15
10516,16
11036,15
11564,12
12084,15
12612,16
13132,17
13660,13
14180,10
14708,13
15228,14
15756,14
16276,14
16796,13
17316,15
17836,15
18356,18
18876,19
19396,19
19916,19
20436,20
20956,16
21476,17
21996,18
22516,14
23036,11
23564,11
24084,10
24612,11
25132,11
25660,13
26180,13
26708,17
27228,17
27756,14
28276,14
28804,21
29324,22
29852,26
30372,21
30900,11
31420,11
31948,11
32472,14
32996,14
33516,16
34044,22
34564,29
35092,30
35612,21
36140,16
36660,14
37188,22
37708,23
38236,23
38760,21
39284,14
39804,12
40332,11
40852,10
41372,13
41892,14
42412,16
42932,14
43452,14
43972,14
44492,15
45012,12
45532,10
46052,10
46572,11
47092,12
47612,10
48140,10
48660,13
49188,13
49708,14
50236,14
50760,14
51284,15
51804,14
52332,16
52852,17
53380,17
53900,19
54428,19
54948,18
55476,15
55996,16
56524,13
57044,13
57572,10
58096,11
58620,12
59140,15
59668,14
60188,14
60716,15
61240,14
61764,12
62284,12
62812,12
63332,16
63860,17
64384,18
64908,14
65428,11
65948,11
66468,11
66988,11
67508,14
68028,17
68548,20
69068,22
69588,21
70108,19
70628,16
71148,14
71668,18
72192,20
72716,14
73236,11
73764,10
74284,11
74812,11
75332,14
75860,18
76384,16
76908,14
77428,14
77956,15
78476,11
79004,12
79528,12
80052,11
80572,11
81100,11
81620,12
82148,12
82668,11
83196,14
83720,12
84244,14
84764,15
85292,16
85812,21
86340,18
86860,15
87388,16
87908,15
88436,16
88956,17
89484,17
90004,13
90524,10
91044,10
91564,10
92084,11
92604,14
93124,14
93644,14
94164,14
94684,15
95204,12
95724,11
96248,11
96764,11
97292,11
97812,11
98340,13
98860,14
99388,12
99908,13
100436,13
101000,15
101584,18
102156,20
102736,21
103304,18
103880,11
104456,11
105024,14
105600,18
106168,12
106744,10
107312,11
107896,12
108464,12
109040,16
109624,19
110192,16
110768,14
111336,14
111920,9
112440,10
113016,11
113584,11
114160,10
114744,11
115312,14
115896,11
116464,12
117048,12
117616,15
118200,18
118768,18
119344,16
119928,18
120500,20
121080,17
121648,16
122232,14
122804,12
123380,11
123960,11
124528,10
125112,11
125684,15
126264,17
126832,19
127416,20
127988,21
128564,15
129144,11
129712,12
130288,11
130856,9
131380,10
131952,14
132536,12
133104,11
133684,11
134264,16
134832,18
135416,17
135984,17
136568,18
137136,24
137712,22
138296,21
138864,20
139448,18
140016,18
140600,14
141172,13
141752,13
142324,14
142896,16
143480,16
144048,15
144632,20
145200,16
145784,10
146352,16
146928,14
147512,14
148084,15
148664,19
149232,18
149816,14
150384,15
150968,13
151540,14
152116,15
152696,15
153268,15
153848,19
154416,21
154992,23
155560,23
156136,18
156720,11
157292,10
157872,11
158444,11
159024,14
159596,14
160176,15
160744,15
161312,15
161896,12
162464,14
163048,15
163616,12
164200,10
164768,12
165336,11
165920,13
166488,12
167064,23
167632,15
168208,16
168776,18
169352,18
169920,20
170496,21
171072,21
171640,18
172224,16
172792,19
173376,19
173944,14
174528,11
175096,11
175672,15
176256,14
176824,15
177408,14
177976,15
178560,17
179128,16
179708,11
180288,10
180856,13
181440,14
182008,16
182592,13
183160,15
183744,17
184316,16
184892,14
185472,16
186040,18
186624,19
187192,18
187776,16
188344,18
188920,17
189504,17
190072,16
190656,13
191228,11
191808,11
192380,14
192960,14
193528,15
194104,14
194688,14
195256,10
195840,13
196408,11
196992,10
197564,11
198140,13
198720,16
199288,12
199872,16
200444,17
201024,14
201592,17
202176,17
202748,16
203324,16
203904,18
204476,16
205056,14
205632,9
206156,10
206728,11
207312,11
207888,13
208456,18
209040,18
209608,16
210184,15
210752,14
211336,13
211904,13
212480,11
213064,11
213632,13
214216,11
214788,11
215368,13
215936,14
216520,15
217096,17
217664,15
218248,15
218816,15
219392,15
219960,27
220544,27
221112,29
221692,29
222272,19
222844,15
223424,17
223996,15
224576,12
225152,11
225736,13
226312,14
226880,14
227464,14
228032,12
228616,13
229184,13
229768,11
230336,10
230916,14
231496,19
232064,17
232648,12
233216,12
233800,14
234368,14
234952,13
235528,15
236096,14
236680,11
237252,11
237832,12
238404,11
238984,11
239556,14
240132,14
240712,11
241280,10
241864,12
242436,20
243016,25
243588,27
244168,22
244744,15
245316,11
245896,11
246464,12
247048,11
247616,11
248200,11
248768,12
249344,11
249928,11
250496,15
251080,15
251652,15
252232,15
252804,15
253384,13
253960,15
254532,14
255112,16
255684,14
256264,13
256840,12
257416,11
257984,9
258500,11
259080,14
259648,15
260232,14
260800,15
261384,12
261952,11
262536,10
263104,11
263680,11
264264,10
264832,11
265416,14
265988,14
266568,15
267136,14
267712,13
268280,19
268856,20
269440,18
270008,15
270592,19
271160,22
271744,23
272316,19
272892,14
273472,11
274044,11
274624,11
275192,13
275776,14
276356,14
276936,14
277512,14
278084,11
278664,10
279232,11
279816,12
280388,13
280968,13
281536,11
282116,11
282696,12
283264,11
283848,15
284416,16
285000,15
285572,15
286152,14
286728,15
287296,19
287880,25
288452,22
289032,12
289600,10
290184,10
290752,11
291332,11
291912,12
292484,15
293064,16
293636,15
294216,15
294788,12
295368,10
295944,11
296516,11
297096,15
297664,21
298248,21
298816,16
299400,11
299972,13
300548,17
301128,16
301700,15
302280,16
302852,16
303432,17
304004,19
304584,21
305160,23
305732,21
306312,19
306884,15
307464,11
308032,11
308616,13
309184,14
309764,16
310344,15
310916,15
311496,12
312068,15
312648,15
313216,11
313800,10
314376,12
314948,11
315528,11
316100,11
316680,13
317260,20
317840,23
318420,19
318996,18
319576,20
320152,18
320728,13
321296,12
321880,12
322448,12
323024,11
323608,11
324176,10
324760,13
325332,15
325912,13
326484,14
327064,15
327636,15
328212,11
328792,11
329360,11
329944,10
330512,11
331096,11
331664,12
332240,12
332824,13
333392,11
333968,15
334536,15
335120,14
335688,15
336272,15
336840,22
337416,24
338000,24
338568,20
339144,18
339716,14
340296,11
340864,11
341448,11
342024,14
342592,14
343176,14
343748,15
344328,16
344896,13
345480,11
346052,12
346624,11
347208,10
347776,13
348360,18
348928,19
349512,17
350084,14
350664,13
351240,15
351812,17
352392,15
352960,18
353544,20
354116,20
354696,21
355268,19
355844,16
356424,19
356996,18
357576,16
358148,14
358728,14
359304,16
359888,21
360464,17
361032,16
361616,14
362184,14
362768,14
363340,11
363920,11
364492,11
365064,18
365648,18
366220,19
366800,17
367368,15
367952,15
368524,17
369104,16
369680,16
370248,22
370832,26
371404,26
371984,19
372556,16
373136,13
373708,11
374284,10
374864,11
375436,15
376016,16
376584,16
377168,14
377740,14
378320,10
378896,10
379464,11
380048,12
380620,13
381200,12
381772,11
382352,16
382924,15
383500,14
384084,13
384652,15
385232,15
385804,15
386384,13
386956,10
387536,13
388112,15
388684,18
389264,13
389832,11
390416,10
390984,11
391568,11
392140,14
392716,14
393296,15
393868,17
394448,14
395016,12
395600,9
396120,11
396696,12
397276,10
397852,11
398432,11
399004,11
399584,12
400164,14
400744,16
401312,16
401888,15
402472,15
403044,15
403624,13
404196,15
404776,16
405348,12
405928,10
406500,10
407076,11
407656,11
408228,12
408808,17
409380,15
409960,14
410536,13
411104,13
411688,11
412256,10
412832,11
413400,12
413976,13
414544,14
415128,17
415696,16
416272,16
416856,15
417424,18
418000,19
418568,16
419144,16
419716,15
420296,15
420872,20
421440,20
422024,16
422592,11
423176,10
423744,14
424328,13
424896,16
425472,16
426056,15
426624,16
427208,19
427776,19
428360,17
428932,17
429512,15
430088,13
430656,11
431240,10
431812,13
432392,13
432964,17
433544,16
434116,15
434692,15
435272,17
435840,21
436424,24
436992,19
437576,14
438148,14
438728,12
439304,10
439876,11
440456,10
441028,11
441608,11
442176,15
442752,16
443324,15
443900,16
444480,12
445048,15
445632,13
446204,12
446784,11
447356,11
447936,12
448520,15
449092,17
449672,17
450240,15
450824,15
451392,16
451976,15
452548,15
453120,12
453704,11
454276,13
454856,16
455428,15
456008,15
456576,19
457160,13
457736,14
458308,13
458888,14
459456,16
460040,13
460612,14
461192,14
461772,11
462344,12
462928,12
463500,13
464080,19
464648,23
465232,24
465804,26
466384,25
466960,18
467532,15
468112,20
468684,23
469264,25
469836,24
470416,22
470996,26
471572,35
472152,35
472724,34
473304,32
473876,22
474456,14
475028,14
475604,15
476184,14
476752,16
477336,15
477908,13
478488,13
479068,14
479648,14
480228,15
480800,19
481384,18
481952,13
482536,11
483108,12
483688,13
484260,15
484836,15
485416,16
485988,15
486568,21
487136,21
487720,19
488292,18
488872,13
489444,14
490020,12
490600,11
491172,11
491752,15
492332,15
492912,14
493480,15
494056,15
494640,11
495208,11
495792,13
496364,17
496944,13
497516,13
498096,18
498664,24
499244,26
499824,19
500396,15
500976,19
501548,18
502128,15
502708,12
503284,18
503864,23
504436,22
505016,16
505588,11
506168,12
506748,13
507328,13
507912,11
508484,15
509064,18
509636,17
510216,16
510788,14
511368,11
511948,12
512524,14
513104,11
513672,11
514256,12
514824,15
515408,12
515976,11
516560,12
517136,16
517704,16
518288,18
518860,16
519440,13
520012,15
520592,17
521160,19
521736,20
522320,18
522888,13
523472,11
524044,13
524624,11
525196,15
525776,13
526352,15
526924,15
527504,15
528076,14
528656,11
529224,11
529808,13
530376,13
530956,11
531536,16
532108,19
532688,15
533256,14
533840,15
534408,16
534992,15
535568,15
536140,16
536720,22
537292,23
537872,21
538440,15
539024,13
539596,10
540172,11
540752,11
541324,12
541904,14
542476,14
543056,15
543628,14
544208,15
544784,13
545356,11
545936,11
546504,11
547088,13
547660,11
548240,11
548808,14
549384,15
549968,14
550540,16
551120,16
551692,14
552272,15
552844,16
553424,20
554000,19
554572,18
555152,11
555724,11
556304,12
556876,10
557456,10
558028,13
558604,18
559184,22
559756,18
560336,17
560916,14
561496,11
562068,10
562644,11
563224,12
563792,11
564376,10
564948,14
565528,15
566100,12
566680,15
567252,18
567828,15
568408,16
568980,15
569560,15
570132,14
570712,18
571284,17
571860,15
572440,13
573012,13
573592,10
574164,10
574744,10
575316,14
575896,15
576476,15
577048,15
577632,11
578200,11
578784,11
579356,11
579936,11
580508,14
581080,16
581664,24
582236,23
582816,15
583388,14
583968,13
584540,14
585120,15
585692,18
586268,22
586848,21
587420,19
588000,21
588580,18
589160,15
589740,13
590316,10
590896,11
591468,15
592048,18
592616,15
593200,14
593780,14
594360,11
594940,11
595516,12
596096,13
596668,13
597248,16
597820,23
598400,22
598980,19
599556,13
600136,13
600708,15
601288,18
601860,18
602440,17
603012,18
603592,18
604176,20
604748,21
605328,15
605900,12
606480,13
607060,13
607640,14
608220,15
608796,14
609376,13
609948,15
610528,15
611100,11
611680,11
612260,13
612836,12
613416,11
613992,14
614572,23
615140,25
615720,21
616292,14
616872,13
617444,19
618020,22
618600,19
619172,23
619752,26
620332,18
620912,13
621484,15
622060,15
622640,14
623212,12
623792,10
624364,11
624944,14
625516,14
626096,13
626676,15
627252,14
627832,11
628404,11
628984,11
629556,14
630136,10
630716,11
631292,14
631872,14
632448,16
633024,19
633596,13
634180,15
634756,19
635336,23
635920,28
636492,29
637072,23
637644,19
638224,16
638804,11
639384,11
639964,11
640540,10
641120,11
641688,15
642272,14
642840,15
643424,13
643992,15
644572,11
645152,11
645720,12
646304,12
646876,11
647456,11
648028,16
648608,15
649180,17
649756,16
650336,15
650908,15
651488,20
652060,21
652640,17
653212,18
653788,17
654368,19
654940,19
655520,16
656092,13
656672,11
657240,11
657824,11
658392,14
658972,15
659552,16
660120,17
660704,15
661272,12
661856,10
662424,11
663000,12
663584,10
664156,11
664736,11
665308,10
665888,12
666456,15
667040,14
667608,15
668184,18
668768,18
669340,18
669920,19
670488,22
671072,17
671644,15
672220,13
672800,11
673368,11
673952,11
674520,12
675104,16
675676,16
676256,15
676824,17
677400,15
677984,11
678556,11
679136,13
679708,13
680288,13
680856,14
681432,14
682016,14
682584,14
683168,15
683740,15
684320,15
684892,15
685472,16
686044,14
686620,14
687200,17
687768,18
688352,15
688924,15
689504,11
690076,10
690652,10
691232,11
691800,14
692384,14
692956,14
693536,14
694108,12
694688,11
695260,12
695836,11
696416,11
696988,11
697568,12
698140,14
698720,16
699292,17
699864,17
700448,14
701020,18
701600,18
702172,19
702752,19
703324,19
703904,19
704484,15
705056,13
705640,16
706208,13
706792,10
707364,10
707944,11
708516,14
709092,14
709672,14
710244,15
710824,11
711396,11
711976,12
712556,10
713136,11
713716,11
714292,14
714872,17
715444,20
716024,18
716604,15
717184,15
717764,16
718336,20
718920,21
719492,19
720072,17
720640,19
721224,19
721796,14
722376,9
722896,10
723468,11
724048,11
724620,11
725200,13
725772,15
726352,13
726924,15
727504,15
728080,13
728652,13
729232,11
729804,10
730384,10
730956,12
731536,18
732116,18
732692,14
733272,15
733844,20
734424,21
734996,18
735576,18
736156,20
736732,20
737312,20
737884,17
738464,14
739036,11
739616,14
740196,11
740776,11
741348,13
741924,14
742504,14
743072,15
743656,14
744228,11
744808,12
745380,13
745956,11
746536,12
747108,14
747688,12
748260,12
748840,14
749408,13
749992,14
750572,17
751148,19
751728,20
752304,18
752880,15
753460,17
754040,18
754620,15
755196,11
755780,10
756352,13
756928,18
757500,11
758080,15
758660,14
759240,13
759816,14
760388,14
760968,12
761540,11
762120,11
762700,11
763280,11
763860,12
764436,13
765016,12
765592,11
766168,11
766748,15
767328,17
767908,14
768484,15
769064,14
769632,13
770216,14
770788,13
771368,14
771940,16
772520,16
773092,15
773668,17
774248,16
774820,17
775400,13
775972,14
776552,15
777132,15
777708,12
778288,11
778856,11
779440,11
780012,11
780592,12
781164,15
781744,16
782316,15
782892,13
783472,15
784044,15
784624,16
785196,16
785776,19
786356,21
786932,18
787512,13
788084,11
788664,10
789236,11
789816,9
790336,11
790912,14
791492,19
792068,15
792648,14
793220,14
793800,13
794372,11
794952,12
795532,11
796112,11
796696,10
797272,12
797848,14
798424,12
799000,13
799580,14
800160,14
800736,15
801312,15
801896,16
802468,13
803048,15
803620,22
804200,25
804768,22
805348,16
805928,14
806500,11
807080,11
807652,11
808232,13
808804,15
809384,13
809956,14
810532,14
811112,11
811684,10
812264,11
812836,11
813416,11
813988,13
814564,20
815144,22
815716,21
816296,18
816868,14
817448,16
818020,21
818600,18
819180,15
819756,21
820336,19
820904,17
821488,18
822056,18
822640,17
823208,11
823784,11
824368,11
824936,15
825520,14
826092,15
826672,15
827240,15
827824,11
828396,10
828972,11
829552,11
830124,11
830704,11
831276,11
831856,11
832428,13
833000,16
833584,18
834156,15
834736,14
835304,14
835888,10
836456,14
837040,17
837612,22
838188,23
838768,21
839336,21
839920,12
840492,10
841072,11
841640,14
842216,14
842800,14
843368,15
843952,11
844524,11
845104,10
845672,11
846256,11
846824,16
847400,18
847984,19
848556,21
849136,19
849708,15
850288,14
850856,18
851436,23
852016,21
852584,23
853168,23
853740,24
854320,24
854900,17
855480,12
856052,12
856628,11
857208,10
857780,12
858360,13
858932,14
859512,15
860084,17
860660,14
861240,11
861812,12
862392,13
862964,12
863544,9
864064,11
864640,12
865208,15
865788,20
866368,19
866940,16
867520,15
868092,14
868672,18
869244,23
869824,25
870396,24
870972,18
871552,16
872124,13
872704,12
873276,11
873856,11
874428,11
875004,14
875584,14
876156,15
876736,16
877308,14
877888,13
878460,14
879040,12
879612,10
880188,13
880768,17
881336,17
881920,18
882488,17
883072,17
883644,14
884216,14
884800,15
885368,18
885952,23
886524,27
887104,25
887676,19
888256,15
888840,11
889412,11
889992,11
890564,11
891144,14
891716,15
892296,15
892876,14
893452,14
894032,12
894604,11
895184,14
895764,15
896348,19
896920,23
897500,27
898080,23
898648,17
899232,11
899804,18
900384,25
900956,23
901536,18
902116,13
902692,12
903272,15
903844,19
904424,23
904992,19
905576,15
906148,12
906724,10
907304,11
907876,15
908456,15
909028,14
909608,15
910180,18
910760,19
911332,15
911908,14
912488,12
913060,11
913640,12
914212,11
914792,11
915372,12
915948,14
916528,13
917100,15
917680,18
918252,15
918832,14
919412,17
919992,22
920572,19
921152,13
921728,16
922300,19
922880,16
923448,14
924032,13
924604,14
925180,14
925760,14
926332,14
926912,15
927484,12
928064,10
928632,11
929216,13
929788,14
930364,15
930944,16
931516,13
932096,15
932676,15
933256,13
933828,17
934404,19
934984,22
935556,20
936136,23
936708,22
937288,19
937868,17
938448,13
939024,13
939596,10
940176,11
940748,11
941328,15
941908,14
942488,15
943068,16
943644,14
944224,11
944796,11
945376,10
945956,10
946536,11
947116,12
947692,12
948272,12
948844,14
949424,13
949996,18
950576,16
951156,14
951736,15
952316,12
952896,12
953472,17
954044,21
954624,17
955196,14
955780,15
956356,11
956932,10
957512,11
958088,13
958664,13
959240,13
959816,15
960396,13
960976,9
961496,10
962068,11
962648,10
963216,11
963800,10
964372,12
964952,11
965524,10
966100,15
966680,14
967252,14
967832,15
968404,15
968984,11
969556,11
970136,13
970716,14
971292,12
971872,14
972444,14
973024,11
973604,10
974184,12
974756,17
975332,17
975912,16
976488,14
977064,13
977636,10
978216,10
978788,11
979368,11
979948,11
980524,12
981104,11
981676,11
982260,12
982836,17
983416,14
983996,15
984572,19
985152,18
985724,13
986304,10
986876,12
987456,17
988036,15
988616,9
989136,11
989708,11
990288,12
990860,12
991440,13
992012,15
992592,14
993164,15
993744,13
994328,10
994900,10
995480,11
996052,12
996632,11
997204,11
997784,13
998356,14
998932,12
999512,14
1000084,15
1000708,16
1001332,16
1001960,16
1002588,20
1003208,24
1003836,20
1004460,14
1005080,11
1005712,11
1006328,11
1006956,11
1007580,11
1008204,13
1008832,14
1009456,15
1010084,14
1010712,11
1011332,12
1011960,12
1012584,13
1013212,19
1013844,23
1014464,27
1015092,26
1015716,21
1016340,14
1016968,19
1017584,25
1018216,22
1018840,17
1019464,13
1020092,13
1020712,21
1021344,25
1021972,31
1022592,29
1023220,20
1023848,15
1024476,14
1025104,13
1025720,14
1026348,15
1026972,14
1027592,12
1028220,10
1028836,12
1029464,11
1030088,11
1030708,14
1031336,13
1031960,13
1032588,13
1033208,16
1033832,18
1034460,16
1035084,17
1035712,13
1036340,15
1036960,17
1037588,17
1038208,14
1038836,11
1039464,12
1040080,11
1040708,13
1041332,17
1041952,15
1042580,14
1043196,14
1043828,11
1044452,10
1045072,11
1045704,11
1046320,11
1046948,12
1047576,14
1048192,14
1048820,17
1049444,16
1050072,14
1050704,15
1051320,16
1051948,15
1052572,13
1053192,14
1053824,20
1054440,17
1055068,14
1055692,11
1056312,13
1056944,11
1057560,14
1058188,15
1058812,14
1059432,15
1060064,15
1060684,11
1061316,11
1061944,10
1062560,11
1063188,13
1063812,14
1064440,12
1065068,14
1065684,18
1066312,14
1066936,14
1067560,15
1068188,14
1068804,14
1069432,19
1070056,25
1070680,31
1071308,23
1071928,20
1072556,15
1073188,11
1073808,12
1074436,15
1075060,14
1075688,14
1076316,15
1076936,14
1077564,11
1078188,11
1078808,11
1079440,10
1080056,11
1080684,11
1081308,11
1081928,11
1082556,12
1083176,15
1083804,16
1084436,15
1085056,14
1085684,11
1086308,14
1086936,16
1087564,22
1088184,24
1088812,16
1089432,13
1090056,12
1090684,11
1091304,13
1091932,14
1092552,15
1093176,18
1093808,12
1094424,11
1095052,11
1095676,11
1096300,11
1096928,13
1097552,17
1098180,18
1098812,18
1099432,15
1100060,15
1100684,15
1101316,15
1101944,14
1102560,16
1103192,22
1103816,21
1104440,15
1105068,11
1105688,11
1106316,11
1106940,10
1107568,13
1108196,14
1108820,15
1109448,15
1110076,14
1110696,12
1111324,11
1111948,11
1112580,11
1113208,10
1113832,12
1114460,15
1115084,20
1115708,16
1116340,14
1116960,15
1117588,13
1118220,14
1118840,15
1119468,18
1120092,19
1120724,19
1121352,17
1121968,18
1122596,19
1123220,15
1123844,10
1124472,14
1125096,16
1125724,17
1126348,15
1126976,13
1127604,10
1128224,11
1128852,13
1129480,13
1130096,12
1130724,12
1131348,13
1131976,13
1132608,14
1133224,17
1133852,14
1134476,14
1135104,15
1135736,15
1136352,18
1136984,19
1137604,14
1138228,11
1138860,10
1139480,11
1140108,11
1140732,11
1141360,15
1141988,14
1142612,14
1143244,14
1143872,11
1144492,11
1145120,11
1145744,11
1146372,11
1147004,10
1147624,14
1148252,13
1148876,14
1149500,14
1150128,15
1150744,15
1151372,16
1151996,16
1152624,22
1153252,23
1153876,16
1154504,12
1155132,10
1155752,11
1156380,11
1157004,11
1157632,14
1158264,17
1158880,15
1159508,15
1160132,13
1160756,13
1161384,12
1162000,12
1162628,13
1163252,13
1163876,15
1164504,18
1165128,15
1165760,12
1166388,22
1167008,24
1167636,24
1168260,21
1168888,17
1169520,15
1170136,17
1170764,21
1171388,19
1172012,19
1172640,14
1173264,11
1173892,11
1174516,13
1175140,14
1175772,15
1176396,15
1177024,13
1177652,11
1178272,11
1178900,11
1179524,11
1180152,14
1180780,15
1181400,14
1182028,13
1182652,14
1183276,15
1183908,14
1184528,17
1185156,14
1185780,14
1186404,13
1187032,17
1187656,16
1188288,14
1188916,12
1189536,11
1190164,11
1190788,13
1191420,13
1192048,17
1192664,16
1193296,15
1193920,13
1194540,11
1195172,10
1195792,10
1196420,13
1197048,13
1197672,13
1198300,12
1198924,11
1199556,15
1200184,18
1200808,19
1201436,18
1202060,22
1202688,25
1203316,25
1203936,24
1204564,13
1205188,13
1205812,10
1206440,10
1207056,12
1207684,13
1208308,14
1208932,14
1209564,14
1210188,13
1210816,12
1211444,11
1212064,11
1212692,11
1213316,11
1213948,14
1214580,14
1215200,15
1215828,14
1216456,15
1217076,14
1217708,14
1218328,16
1218956,14
1219580,15
1220208,17
1220836,19
1221460,18
1222092,15
1222720,11
1223336,11
1223968,12
1224592,14
1225220,14
1225852,14
1226472,13
1227100,13
1227728,13
1228352,11
1228980,12
1229600,11
1230228,12
1230856,16
1231472,15
1232100,15
1232724,14
1233352,15
1233980,14
1234600,14
1235228,16
1235848,25
1236480,33
1237108,28
1237728,24
1238356,22
1238980,23
1239604,15
1240236,10
1240856,15
1241484,15
1242108,14
1242736,15
1243364,15
1243988,12
1244616,10
1245248,10
1245864,11
1246492,14
1247116,19
1247748,21
1248376,20
1249000,16
1249628,15
1250252,19
1250876,22
1251504,20
1252124,19
1252752,21
1253380,21
1254000,17
1254628,13
1255252,13
1255880,12
1256512,10
1257128,11
1257760,13
1258380,13
1259012,14
1259644,14
1260264,11
1260892,11
1261516,10
1262140,10
1262768,11
1263388,14
1264016,15
1264640,16
1265264,17
1265892,15
1266516,14
1267148,15
1267780,16
1268400,16
1269028,17
1269652,20
1270280,19
1270908,16
1271528,14
1272156,11
1272780,11
1273408,13
1274036,15
1274656,18
1275284,17
1275916,14
1276536,14
1277164,13
1277792,10
1278420,11
1279052,10
1279672,11
1280304,12
1280924,14
1281548,20
1282176,19
1282792,13
1283420,18
1284040,19
1284664,21
1285292,14
1285908,11
1286540,13
1287160,22
1287784,15
1288412,11
1289032,10
1289660,11
1290292,10
1290908,14
1291540,19
1292160,25
1292788,20
1293420,16
1294040,15
1294668,11
1295292,13
1295916,12
1296544,12
1297160,14
1297788,13
1298412,11
1299036,23
1299664,26
1300280,22
1300912,19
1301540,17
1302160,15
1302788,15
1303412,15
1304040,15
1304672,13
1305288,13
1305916,11
1306540,11
1307164,11
1307792,14
1308416,15
1309044,14
1309668,14
1310292,11
1310924,10
1311540,11
1312172,11
1312800,11
1313412,13
1314044,15
1314664,15
1315292,13
1315920,13
1316536,15
1317164,14
1317788,15
1318408,15
1319036,18
1319656,18
1320284,17
1320908,15
1321528,12
1322156,12
1322776,10
1323404,10
1324028,14
1324648,15
1325276,14
1325900,14
1326528,14
1327156,10
1327776,10
1328404,11
1329028,11
1329656,12
1330284,14
1330904,18
1331532,18
1332156,14
1332776,14
1333404,14
1334024,15
1334652,18
1335272,11
1335896,14
1336524,16
1337140,21
1337772,19
1338400,17
1339016,15
1339644,11
1340268,10
1340896,15
1341524,16
1342144,19
1342772,17
1343392,14
1344016,11
1344644,11
1345260,15
1345892,12
1346512,12
1347136,16
1347764,14
1348384,15
1349012,15
1349640,16
1350256,18
1350888,19
1351508,16
1352140,19
1352768,17
1353384,12
1354012,11
1354636,14
1355264,15
1355892,12
1356512,11
1357140,11
1357764,14
1358384,14
1359016,14
1359632,16
1360260,11
1360884,10
1361504,11
1362132,11
1362756,11
1363384,12
1364012,14
1364628,15
1365260,12
1365880,13
1366512,17
1367140,20
1367760,19
1368388,18
1369012,19
1369632,19
1370260,18
1370880,16
1371508,15
1372132,14
1372756,11
1373384,11
1374004,14
1374632,15
1375260,14
1375880,15
1376508,14
1377132,11
1377760,10
1378392,11
1379008,11
1379636,12
1380260,13
1380884,15
1381512,16
1382132,13
1382760,15
1383384,16
1384008,19
1384636,16
1385256,17
1385884,17
1386512,18
1387136,19
1387764,15
1388388,13
1389016,12
1389648,11
1390264,11
1390892,13
1391516,14
1392140,13
1392772,14
1393392,13
1394020,11
1394644,11
1395264,11
1395892,11
1396512,16
1397140,19
1397768,19
1398392,17
1399020,15
1399644,15
1400272,14
1400904,14
1401520,15
1402148,15
1402772,16
1403400,20
1404028,22
1404648,27
1405276,27
1405900,22
1406524,17
1407152,16
1407776,16
1408408,14
1409036,14
1409656,15
1410284,14
1410904,12
1411536,11
1412164,11
1412784,11
1413412,11
1414036,12
1414660,12
1415292,11
1415912,17
1416540,17
1417164,21
1417788,26
1418416,24
1419032,21
1419664,22
1420288,24
1420912,17
1421540,12
1422164,10
1422792,10
1423424,10
1424040,15
1424668,17
1425292,14
1425920,14
1426548,11
1427168,11
1427796,13
1428420,15
1429044,12
1429676,11
1430296,14
1430928,17
1431552,20
1432176,17
1432804,14
1433428,15
1434060,15
1434688,14
1435312,14
1435940,18
1436564,28
1437188,29
1437820,16
1438440,13
1439068,11
1439692,10
1440316,14
1440944,16
1441560,15
1442188,14
1442812,14
1443440,13
1444068,14
1444692,15
1445320,15
1445948,12
1446568,13
1447196,14
1447820,14
1448448,11
1449076,15
1449696,17
1450324,20
1450944,21
1451568,18
1452200,17
1452816,16
1453444,15
1454068,14
1454692,16
1455320,17
1455944,13
1456572,11
1457204,14
1457824,14
1458452,14
1459076,14
1459708,14
1460336,12
1460952,11
1461580,11
1462204,12
1462828,14
1463460,14
1464080,14
1464708,15
1465332,12
1465956,15
1466584,17
1467208,18
1467836,16
1468468,12
1469088,14
1469716,14
1470340,15
1470972,17
1471604,15
1472224,12
1472852,11
1473476,11
1474100,13
1474728,13
1475352,15
1475980,15
1476604,15
1477224,12
1477852,13
1478476,14
1479104,15
1479736,12
1480352,14
1480980,13
1481604,12
1482232,15
1482860,18
1483480,23
1484108,28
1484732,26
1485356,15
1485984,10
1486608,13
1487236,10
1487860,11
1488484,11
1489112,11
1489736,11
1490364,16
1490992,23
1491616,20
1492244,15
1492868,16
1493496,13
1494124,16
1494744,15
1495372,11
1495996,12
1496620,14
1497252,20
1497872,21
1498500,17
1499124,14
1499748,14
1500376,14
1501000,14
1501632,13
1502260,16
1502880,21
1503508,20
1504136,17
1504764,16
1505392,18
1506016,13
1506644,11
1507268,14
1507892,14
1508520,14
1509144,14
1509772,12
1510396,10
1511024,11
1511656,11
1512280,14
1512908,15
1513540,14
1514160,13
1514788,12
1515416,14
1516040,14
1516668,14
1517288,18
1517916,16
1518540,16
1519168,17
1519796,20
1520416,17
1521044,12
1521676,12
1522296,11
1522924,11
1523548,11
1524180,14
1524808,14
1525424,14
1526056,15
1526680,11
1527304,11
1527932,10
1528552,11
1529180,11
1529808,19
1530432,23
1531060,20
1531680,14
1532308,15
1532940,16
1533560,15
1534192,15
1534816,17
1535448,21
1536076,20
1536692,21
1537320,17
1537944,16
1538564,16
1539196,12
1539816,13
1540444,15
1541068,17
1541692,14
1542320,14
1542944,15
1543572,14
1544204,14
1544824,14
1545452,12
1546076,14
1546704,13
1547336,13
1547952,12
1548580,12
1549204,16
1549828,17
1550460,16
1551080,17
1551708,15
1552332,17
1552956,19
1553588,16
1554208,15
1554836,13
1555468,10
1556088,12
1556716,11
1557340,15
1557972,14
1558600,14
1559216,14
1559848,11
1560472,12
1561096,11
1561724,10
1562344,11
1562972,11
1563596,13
1564220,12
1564848,12
1565464,14
1566092,17
1566716,18
1567344,19
1567972,19
1568600,19
1569228,17
1569856,20
1570480,20
1571108,11
1571732,11
1572360,11
1572988,10
1573608,12
1574236,15
1574864,15
1575488,15
1576116,14
1576736,12
1577364,11
1577996,10
1578616,11
1579244,11
1579868,12
1580500,16
1581128,18
1581752,13
1582384,16
1583008,15
1583632,14
1584264,17
1584880,19
1585508,15
1586132,14
1586760,20
1587388,19
1588008,22
1588636,15
1589268,11
1589888,13
1590516,14
1591140,13
1591772,14
1592404,14
1593024,13
1593652,10
1594276,14
1594900,16
1595532,11
1596152,11
1596784,11
1597408,13
1598032,15
1598660,15
1599280,14
1599912,16
1600540,17
1601156,15
1601788,17
1602408,20
1603036,18
1603664,18
1604288,19
1604916,14
1605540,12
1606160,13
1606788,11
1607408,14
1608036,19
1608660,21
1609280,17
1609908,10
1610528,11
1611156,11
1611788,14
1612408,14
1613036,12
1613660,13
1614288,12
1614920,12
1615536,14
1616164,14
1616788,17
1617412,17
1618044,16
1618664,21
1619292,18
1619916,17
1620536,15
1621168,16
1621784,15
1622412,11
1623036,12
1623664,17
1624292,16
1624916,13
1625548,14
1626180,13
1626800,11
1627428,10
1628052,11
1628680,11
1629308,12
1629928,20
1630556,22
1631180,21
1631804,19
1632436,18
1633056,19
1633684,15
1634316,15
1634936,13
1635564,14
1636188,15
1636820,20
1637448,26
1638072,25
1638704,23
1639324,20
1639948,16
1640576,18
1641192,18
1641820,16
1642440,16
1643060,11
1643688,10
1644308,11
1644936,13
1645560,11
1646180,11
1646808,17
1647432,18
1648060,20
1648688,18
1649304,15
1649932,15
1650552,21
1651180,17
1651812,16
1652432,16
1653060,19
1653680,19
1654304,16
1654932,12
1655552,10
1656180,10
1656804,10
1657424,15
1658052,14
1658672,14
1659300,15
1659928,11
1660544,11
1661172,11
1661796,12
1662428,13
1663056,15
1663672,15
1664300,15
1664924,15
1665544,15
1666172,14
1666788,14
1667416,14
1668040,17
1668660,16
1669288,13
1669908,12
1670536,14
1671160,17
1671784,15
1672412,10
1673032,13
1673664,15
1674292,12
1674912,17
1675540,18
1676160,15
1676792,14
1677420,12
1678040,15
1678668,17
1679292,14
1679916,12
1680544,14
1681160,20
1681788,21
1682412,15
1683032,15
1683660,16
1684280,17
1684908,16
1685536,13
1686152,15
1686780,15
1687404,13
1688032,14
1688660,11
1689280,11
1689908,11
1690528,13
1691152,14
1691780,13
1692400,14
1693028,15
1693648,13
1694272,11
1694900,11
1695520,11
1696148,12
1696776,13
1697392,15
1698020,15
1698644,15
1699272,18
1699900,17
1700516,17
1701148,16
1701768,14
1702400,16
1703028,20
1703648,18
1704276,11
1704900,10
1705524,11
1706152,10
1706768,12
1707400,14
1708020,14
1708644,17
1709276,14
1709900,10
1710528,11
1711156,10
1711776,11
1712404,11
1713028,11
1713660,14
1714288,17
1714904,14
1715532,14
1716156,17
1716780,17
1717408,14
1718032,15
1718660,18
1719284,19
1719908,22
1720540,18
1721160,16
1721788,11
1722416,11
1723040,12
1723668,14
1724292,13
1724920,15
1725548,14
1726168,13
1726796,11
1727420,12
1728044,11
1728672,10
1729288,12
1729916,11
1730540,12
1731164,12
1731792,13
1732408,14
1733040,17
1733668,18
1734288,16
1734916,17
1735540,17
1736172,13
1736800,15
1737416,15
1738044,16
1738668,11
1739292,11
1739924,10
1740544,13
1741172,14
1741796,13
1742420,14
1743048,10
1743664,12
1744296,11
1744924,10
1745544,19
1746172,21
1746796,15
1747424,13
1748052,14
1748672,15
1749300,17
1749924,18
1750548,18
1751176,14
1751792,16
1752424,17
1753048,25
1753672,28
1754300,26
1754920,18
1755548,12
1756180,11
1756800,13
1757428,13
1758052,15
1758684,15
1759312,14
1759932,11
1760564,10
1761184,11
1761808,12
1762436,16
1763056,17
1763684,18
1764308,16
1764932,11
1765560,16
1766176,18
1766804,18
1767432,17
1768056,17
1768684,19
1769304,19
1769936,20
1770564,14
1771184,13
1771812,11
1772436,11
1773060,11
1773692,12
1774312,15
1774940,14
1775564,14
1776188,11
1776816,11
1777440,15
1778068,12
1778696,10
1779320,13
1779948,17
1780572,18
1781204,15
1781832,14
1782448,19
1783080,19
1783700,21
1784328,20
1784956,18
1785576,20
1786208,25
1786828,24
1787456,17
1788084,11
1788704,11
1789332,11
1789964,10
1790584,14
1791216,14
1791840,14
1792468,14
1793100,10
1793720,13
1794348,12
1794972,13
1795596,11
1796224,12
1796840,10
1797472,12
1798092,11
1798716,15
1799348,16
1799968,16
1800596,16
1801228,16
1801848,19
1802476,14
1803100,16
1803728,15
1804356,12
1804976,11
1805604,11
1806224,12
1806852,14
1807484,14
1808104,14
1808732,14
1809352,13
1809976,11
1810604,10
1811224,11
1811852,10
1812476,11
1813100,15
1813728,17
1814352,16
1814980,13
1815612,14
1816232,19
1816860,19
1817484,15
1818116,13
1818744,15
1819360,15
1819992,19
1820616,17
1821240,14
1821868,11
1822488,13
1823116,11
1823740,15
1824368,15
1824996,15
1825620,14
1826248,11
1826876,10
1827496,11
1828124,17
1828748,19
1829380,12
1830008,13
1830628,12
1831256,13
1831880,15
1832504,15
1833132,14
1833752,16
1834380,18
1835004,24
1835632,27
1836260,22
1836884,21
1837516,16
1838144,14
1838768,11
1839396,11
1840020,13
1840644,14
1841276,14
1841896,15
1842524,13
1843152,14
1843776,15
1844404,12
1845020,13
1845652,16
1846280,16
1846896,16
1847524,15
1848148,12
1848776,16
1849404,17
1850024,21
1850652,18
1851276,19
1851904,19
1852532,18
1853152,19
1853780,13
1854404,11
1855028,10
1855660,13
1856280,12
1856908,15
1857532,16
1858152,14
1858784,13
1859408,13
1860036,10
1860664,11
1861280,12
1861912,11
1862536,14
1863164,12
1863796,11
1864416,16
1865044,14
1865668,18
1866292,19
1866920,19
1867536,16
1868164,13
1868788,11
1869412,16
1870044,16
1870668,16
1871296,15
1871924,10
1872544,13
1873172,13
1873796,13
1874428,15
1875056,14
1875676,15
1876304,12
1876928,11
1877552,10
1878180,11
1878800,14
1879428,13
1880052,11
1880676,13
1881308,17
1881932,14
1882560,15
1883188,15
1883808,15
1884436,18
1885060,27
1885692,29
1886320,26
1886936,20
1887568,13
1888192,11
1888816,11
1889444,10
1890064,15
1890692,14
1891316,13
1891940,15
1892568,14
1893192,12
1893824,12
1894452,12
1895072,13
1895700,13
1896324,15
1896952,18
1897580,18
1898200,18
1898828,15
1899452,15
1900076,20
1900708,22
1901328,23
1901956,19
1902584,20
1903208,21
1903836,17
1904464,16
1905092,12
1905724,11
1906344,11
1906972,13
1907600,15
1908228,14
1908856,14
1909480,13
1910108,13
1910736,11
1911360,11
1911988,10
1912608,14
1913236,17
1913868,16
1914488,15
1915120,14
1915744,16
1916376,17
1917004,18
1917624,21
1918252,24
1918880,24
1919504,19
1920136,12
1920752,11
1921380,10
1922004,13
1922628,13
1923256,14
1923872,14
1924500,17
1925132,16
1925752,15
1926380,11
1927004,15
1927632,15
1928264,13
1928880,11
1929508,11
1930132,11
1930756,12
1931388,12
1932008,18
1932636,16
1933260,17
1933884,16
1934516,13
1935136,17
1935764,21
1936396,19
1937016,12
1937644,10
1938268,13
1938896,14
1939528,12
1940144,14
1940776,15
1941400,15
1942024,15
1942652,12
1943272,12
1943900,11
1944528,11
1945152,11
1945780,12
1946400,15
1947028,11
1947656,11
1948272,13
1948904,15
1949528,14
1950156,15
1950788,14
1951408,20
1952036,19
1952660,15
1953284,13
1953916,10
1954536,11
1955164,11
1955792,11
1956416,12
1957044,14
1957664,16
1958292,14
1958924,14
1959544,19
1960172,19
1960796,12
1961428,13
1962060,14
1962680,14
1963308,11
1963932,11
1964560,12
1965188,14
1965808,16
1966436,15
1967060,16
1967684,15
1968312,16
1968932,18
1969560,20
1970188,15
1970808,13
1971436,10
1972060,11
1972688,13
1973316,16
1973936,14
1974564,15
1975188,14
1975816,13
1976444,10
1977064,11
1977692,11
1978316,11
1978940,11
1979568,14
1980184,13
1980816,14
1981440,12
1982064,17
1982692,19
1983316,20
1983948,16
1984580,11
1985200,13
1985828,16
1986452,17
1987076,11
1987708,10
1988328,11
1988956,13
1989580,12
1990204,13
1990832,16
1991456,17
1992084,15
1992716,11
1993336,11
1993964,11
1994588,11
1995220,11
1995848,11
1996472,14
1997104,13
1997728,14
1998348,15
1998980,14
1999600,15
2000228,15
2000852,13
2001476,13
2002104,15
2002720,20
2003352,17
2003980,10
2004600,12
2005228,14
2005852,11
2006480,14
2007112,13
2007728,15
2008356,16
2008980,15
2009604,11
2010232,14
2010856,13
2011484,11
2012108,11
2012732,11
2013364,11
2013984,13
2014612,11
2015244,16
2015864,18
2016492,16
2017116,15
2017748,11
2018376,14
2019000,20
2019628,18
2020252,13
2020876,15
2021508,12
2022128,12
2022756,11
2023380,16
2024004,15
2024632,14
2025256,15
2025884,12
2026516,10
2027136,12
2027768,14
2028388,13
2029020,11
2029648,14
2030272,19
2030900,21
2031524,16
2032152,17
2032780,16
2033400,15
2034028,15
2034652,22
2035276,24
2035908,20
2036528,17
2037156,14
2037788,12
2038408,10
2039036,10
2039660,12
2040292,13
2040924,13
2041544,15
2042176,15
2042800,12
2043424,11
2044052,10
2044672,12
2045304,12
2045928,11
2046552,12
2047184,14
2047804,15
2048436,14
2049060,14
2049676,15
2050304,17
2050924,16
2051552,16
2052180,14
2052796,19
2053428,20
2054048,19
2054668,13
2055296,10
2055920,11
2056548,14
2057168,14
2057788,15
2058420,14
2059036,13
2059668,11
2060296,13
2060912,13
2061540,11
2062164,11
2062792,12
2063420,12
2064040,13
2064668,15
2065288,15
2065916,15
2066544,14
2067168,16
2067796,16
2068420,15
2069044,15
2069672,21
2070288,19
2070920,16
2071544,11
2072164,11
2072796,12
2073416,14
2074048,15
2074676,14
2075296,15
2075924,11
2076548,12
2077176,13
2077804,10
2078424,11
2079052,10
2079676,12
2080300,13
2080928,13
2081544,15
2082172,15
2082796,15
2083416,14
2084048,14
2084664,13
2085292,13
2085920,14
2086536,14
2087164,12
2087788,11
2088416,11
2089048,11
2089664,13
2090292,14
2090912,15
2091536,16
2092164,14
2092780,11
2093412,11
2094036,11
2094660,11
2095288,13
2095904,13
2096532,11
2097164,10
2097784,11
2098412,14
2099036,14
2099664,14
2100292,15
2100912,15
2101540,20
2102164,24
2102788,22
2103420,14
2104040,12
2104668,11
2105292,10
2105912,11
2106544,14
2107160,14
2107788,14
2108412,13
2109040,13
2109668,11
2110292,10
2110920,10
2111552,10
2112168,13
2112796,19
2113420,20
2114052,19
2114680,18
2115296,15
2115924,15
2116548,16
2117172,15
2117800,11
2118416,12
2119048,17
2119668,27
2120292,29
2120924,25
2121548,20
2122176,19
2122804,13
2123424,13
2124052,16
2124676,13
2125308,14
2125936,11
2126556,11
2127184,11
2127808,11
2128432,14
2129060,15
2129680,19
2130308,17
2130932,15
2131556,14
2132184,14
2132808,15
2133436,14
2134064,16
2134680,19
2135312,21
2135936,17
2136564,13
2137192,12
2137816,14
2138444,11
2139068,10
2139692,14
2140320,14
2140936,16
2141568,19
2142192,18
2142816,17
2143444,13
2144068,10
2144696,11
2145324,14
2145944,19
2146572,20
2147196,22
2147828,17
2148456,14
2149076,17
2149704,20
2150328,18
2150956,17
2151584,17
2152200,19
2152832,22
2153452,17
2154076,13
2154708,11
2155328,11
2155960,11
2156588,14
2157208,14
2157836,15
2158460,14
2159092,12
2159720,13
2160340,12
2160968,12
2161588,11
2162212,10
2162844,12
2163464,15
2164092,16
2164716,16
2165340,16
2165968,15
2166588,16
2167216,18
2167844,18
2168464,17
2169092,17
2169716,17
2170344,18
2170976,14
2171592,11
2172224,11
2172848,11
2173468,14
2174100,14
2174720,15
2175348,18
2175972,15
2176600,11
2177228,13
2177848,13
2178476,10
2179104,11
2179724,13
2180352,13
2180976,14
2181604,13
2182232,17
2182856,17
2183484,16
2184108,15
2184732,19
2185360,20
2185984,21
2186612,14
2187236,12
2187860,11
2188488,14
2189112,13
2189740,14
2190372,14
2190992,16
2191624,16
2192244,13
2192876,11
2193504,10
2194124,11
2194752,11
2195376,13
2196000,16
2196628,18
2197248,17
2197876,14
2198500,13
2199124,17
2199756,17
2200376,15
2201004,20
2201636,28
2202256,29
2202884,25
2203504,14
2204136,10
2204764,10
2205384,10
2206012,14
2206640,16
2207264,19
2207892,14
2208512,15
2209140,11
2209764,11
2210388,10
2211020,10
2211640,11
2212268,11
2212900,12
2213520,12
2214148,11
2214772,14
2215404,15
2216032,15
2216648,14
2217276,12
2217900,11
2218524,12
2219156,12
2219776,19
2220404,20
2221028,14
2221652,10
2222284,10
2222904,14
2223532,14
2224164,16
2224784,18
2225412,14
2226036,11
2226668,13
2227296,12
2227920,13
2228548,14
2229172,16
2229796,13
2230428,10
2231048,12
2231676,18
2232304,18
2232928,16
2233556,16
2234184,11
2234812,10
2235444,10
2236064,10
2236692,12
2237320,15
2237948,15
2238580,16
2239200,16
2239832,17
2240456,15
2241080,15
2241708,14
2242328,11
2242956,11
2243580,12
2244208,12
2244836,11
2245460,12
2246088,15
2246716,14
2247336,13
2247964,15
2248588,14
2249220,15
2249848,14
2250472,14
2251100,16
2251728,13
2252352,15
2252980,14
2253600,15
2254228,18
2254856,19
2255472,18
2256100,20
2256724,17
2257352,15
2257980,13
2258600,15
2259228,13
2259852,11
2260480,12
2261108,10
2261728,11
2262356,13
2262984,16
2263608,18
2264236,18
2264856,17
2265484,15
2266108,14
2266736,16
2267364,13
2267988,15
2268620,22
2269248,24
2269872,21
2270500,12
2271128,11
2271752,16
2272380,16
2273000,15
2273628,13
2274252,14
2274876,15
2275504,12
2276128,11
2276756,11
2277388,14
2278008,15
2278636,11
2279260,12
2279892,14
2280520,12
2281144,13
2281772,17
2282396,17
2283020,15
2283652,14
2284272,22
2284900,22
2285524,16
2286148,14
2286780,13
2287400,11
2288028,11
2288660,10
2289280,11
2289908,13
2290532,15
2291164,14
2291796,14
2292416,12
2293048,11
2293672,11
2294296,9
2294872,11
2295496,11
2296128,11
2296752,11
2297376,12
2298004,14
2298624,16
2299252,15
2299876,14
2300500,13
2301132,18
2301752,19
2302384,17
2303012,14
2303632,15
2304264,13
2304884,11
2305512,11
2306144,13
2306760,14
2307388,14
2308012,14
2308636,14
2309264,12
2309880,12
2310512,11
2311136,11
2311756,11
2312388,11
2313008,14
2313636,16
2314268,12
2314888,14
2315516,14
2316140,17
2316772,28
2317400,27
2318020,21
2318648,18
2319272,18
2319896,16
2320524,13
2321144,10
2321772,10
2322396,11
2323020,13
2323652,14
2324272,13
2324900,14
2325532,11
2326152,13
2326780,16
2327404,15
2328036,13
2328664,11
2329284,11
2329912,11
2330536,12
2331160,14
2331788,14
2332408,17
2333036,19
2333660,19
2334284,19
2334916,17
2335536,17
2336164,13
2336792,11
2337416,11
2338044,10
2338668,11
2339296,11
2339928,13
2340544,13
2341176,15
2341800,15
2342424,12
2343052,10
2343672,12
2344304,12
2344928,11
2345552,13
2346180,13
2346800,13
2347428,11
2348060,14
2348680,18
2349312,15
2349936,15
2350564,14
2351196,15
2351816,21
2352448,22
2353072,18
2353696,13
2354324,10
2354944,10
2355576,11
2356200,14
2356820,15
2357452,14
2358072,17
2358700,17
2359332,10
2359952,12
2360584,11
2361208,11
2361836,13
2362468,12
2363088,15
2363716,14
2364340,13
2364968,16
2365596,16
2366216,16
2366844,15
2367472,16
2368096,20
2368724,16
2369348,15
2369976,15
2370608,15
2371224,12
2371852,15
2372476,21
2373108,16
2373740,14
2374360,14
2374992,14
2375616,12
2376240,10
2376868,11
2377488,15
2378116,15
2378740,16
2379364,16
2379996,13
2380620,13
2381252,15
2381880,15
2382504,16
2383132,17
2383760,17
2384388,18
2385020,18
2385640,23
2386268,14
2386892,10
2387516,11
2388148,12
2388768,13
2389396,13
2390028,12
2390648,14
2391276,14
2391904,14
2392532,11
2393164,11
2393784,13
2394412,11
2395036,11
2395664,16
2396296,13
2396912,13
2397540,13
2398168,15
2398792,18
2399424,21
2400040,19
2400668,15
2401300,14
2401920,17
2402548,18
2403172,13
2403804,12
2404432,10
2405056,11
2405684,11
2406308,14
2406936,14
2407564,14
2408184,15
2408812,11
2409436,10
2410060,11
2410688,10
2411312,10
2411944,13
2412572,16
2413192,16
2413820,14
2414444,15
2415076,14
2415708,14
2416328,16
2416956,16
2417580,19
2418204,19
2418836,14
2419456,14
2420084,13
2420708,17
2421332,13
2421964,12
2422584,14
2423212,13
2423844,14
2424464,14
2425092,15
2425720,13
2426348,16
2426980,13
2427600,11
2428228,15
2428852,19
2429476,20
2430108,17
2430728,17
2431356,14
2431984,15
2432608,15
2433240,17
2433864,19
2434492,17
2435124,18
2435744,23
2436376,21
2437000,15
2437628,13
2438260,12
2438880,14
2439508,17
2440132,14
2440760,14
2441388,14
2442008,12
2442636,11
2443260,10
2443888,11
2444516,13
2445144,16
2445772,18
2446404,18
2447024,21
2447656,18
2448280,15
2448904,16
2449532,18
2450152,22
2450784,24
2451408,25
2452032,25
2452664,16
2453280,10
2453908,11
2454540,10
2455160,11
2455792,13
2456416,15
2457048,15
2457676,14
2458292,14
2458924,14
2459544,13
2460168,14
2460796,10
2461416,11
2462044,11
2462668,13
2463292,13
2463924,12
2464544,15
2465172,16
2465804,16
2466424,18
2467052,16
2467676,18
2468304,16
2468936,18
2469552,19
2470180,18
2470804,15
2471428,10
2472060,10
2472680,13
2473308,14
2473932,14
2474556,15
2475184,13
2475808,11
2476436,11
2477068,10
2477688,12
2478316,16
2478940,14
2479572,13
2480200,18
2480824,16
2481452,14
2482076,15
2482700,14
2483328,15
2483944,20
2484576,27
2485200,21
2485820,18
2486452,14
2487072,13
2487700,12
2488332,10
2488952,13
2489580,17
2490204,15
2490836,15
2491464,22
2492088,19
2492716,16
2493344,13
2493968,12
2494596,12
2495216,11
2495844,12
2496472,15
2497096,15
2497724,14
2498344,16
2498972,16
2499604,14
2500224,14
2500852,15
2501476,21
2502104,21
2502736,16
2503352,17
2503984,19
2504608,15
2505232,14
2505860,15
2506480,13
2507108,13
2507736,15
2508360,15
2508992,11
2509608,11
2510236,10
2510868,10
2511488,14
2512116,12
2512740,13
2513372,13
2514000,12
2514624,15
2515252,15
2515876,16
2516500,15
2517132,15
2517752,15
2518384,13
2519008,19
2519632,17
2520264,13
2520880,11
2521508,11
2522140,11
2522760,14
2523388,14
2524016,15
2524644,15
2525276,14
2525896,11
2526528,11
2527152,11
2527776,13
2528408,17
2529024,22
2529652,24
2530276,17
2530904,15
2531532,14
2532152,15
2532784,17
2533412,20
2534032,22
2534664,25
2535288,30
2535916,27
2536548,19
2537168,14
2537800,12
2538424,15
2539048,14
2539680,13
2540296,15
2540924,15
2541548,14
2542176,11
2542804,11
2543428,11
2544060,11
2544688,11
2545312,16
2545940,20
2546564,19
2547196,19
2547828,16
2548448,14
2549080,17
2549704,19
2550328,17
2550960,18
2551576,20
2552208,22
2552840,18
2553456,19
2554088,23
2554712,14
2555344,11
2555976,13
2556596,14
2557228,14
2557852,14
2558476,12
2559108,11
2559728,11
2560364,10
2560984,11
2561604,11
2562232,12
2562848,18
2563476,19
2564108,16
2564728,15
2565356,14
2565976,15
2566608,15
2567236,10
2567856,13
2568484,16
2569104,21
2569732,18
2570364,12
2570984,11
2571612,12
2572236,18
2572856,19
2573484,16
2574104,15
2574732,14
2575356,11
2575984,11
2576612,11
2577236,11
2577868,10
2578496,11
2579112,11
2579744,12
2580364,13
2580996,15
2581624,15
2582248,15
2582876,15
2583500,17
2584124,16
2584752,14
2585372,12
2586000,12
2586620,13
2587248,17
2587876,11
2588500,10
2589128,14
2589756,14
2590376,15
2591008,15
2591628,15
2592260,11
2592888,12
2593504,10
2594136,11
2594760,12
2595384,13
2596012,13
2596632,13
2597260,13
2597884,14
2598512,15
2599140,14
2599764,16
2600396,19
2601024,18
2601640,17
2602272,22
2602892,17
2603524,18
2604152,12
2604772,11
2605400,13
2606024,13
2606648,15
2607276,14
2607896,15
2608524,11
2609148,12
2609776,17
2610404,12
2611028,11
2611660,11
2612292,11
2612912,12
2613540,12
2614164,13
2614792,15
2615420,15
2616040,14
2616668,13
2617292,16
2617916,18
2618548,16
2619168,11
2619800,11
2620428,13
2621048,13
2621676,12
2622300,16
2622928,13
2623560,15
2624176,15
2624804,14
2625424,13
2626052,12
2626680,11
2627296,12
2627924,11
2628548,11
2629168,16
2629796,19
2630416,17
2631044,15
2631664,14
2632288,15
2632920,18
2633540,17
2634172,14
2634800,12
2635416,16
2636048,20
2636668,23
2637300,17
2637928,11
2638544,10
2639176,15
2639800,15
2640424,14
2641052,14
2641672,15
2642300,11
2642924,11
2643544,11
2644172,10
2644792,9
2645368,11
2645992,14
2646612,20
2647244,16
2647864,15
2648492,16
2649120,18
2649736,19
2650368,21
2650988,19
2651620,15
2652248,18
2652864,12
2653492,11
2654116,12
2654740,12
2655368,11
2655984,14
2656616,14
2657240,15
2657864,16
2658492,14
2659112,15
2659740,15
2660372,16
2660992,13
2661620,11
2662244,11
2662876,11
2663504,11
2664120,15
2664748,17
2665372,17
2665992,16
2666624,15
2667240,18
2667868,19
2668492,17
2669112,14
2669740,15
2670360,16
2670988,14
2671612,12
2672240,13
2672868,13
2673492,15
2674120,13
2674748,14
2675368,12
2675996,11
2676620,11
2677248,12
2677876,10
2678496,12
2679124,18
2679748,22
2680372,16
2681000,14
2681616,16
2682244,18
2682868,19
2683492,21
2684120,21
2684744,21
2685372,19
2686004,12
2686624,11
2687252,11
2687876,12
2688508,11
2689136,14
2689752,14
2690380,14
2691004,15
2691628,15
2692256,15
2692872,17
2693500,15
2694124,13
2694748,11
2695376,12
2695992,11
2696620,13
2697252,12
2697872,20
2698500,19
2699124,20
2699752,16
2700384,14
2701000,18
2701632,18
2702256,13
2702880,12
2703508,12
2704128,12
2704756,11
2705380,13
2706000,14
2706632,13
2707248,15
2707876,15
2708504,13
2709128,14
2709756,11
2710380,11
2711012,11
2711640,11
2712260,11
2712888,11
2713512,13
2714136,13
2714764,13
2715384,14
2716012,15
2716636,13
2717260,15
2717888,16
2718512,22
2719140,19
2719772,12
2720392,11
2721020,11
2721644,10
2722272,14
2722900,13
2723520,15
2724148,15
2724772,14
2725396,12
2726024,11
2726640,13
2727268,10
2727892,11
2728512,14
2729144,16
2729760,18
2730388,12
2731020,16
2731640,17
2732268,15
2732892,15
2733520,15
2734152,14
2734768,16
2735400,15
2736020,12
2736644,12
2737272,11
2737896,12
2738524,15
2739148,17
2739776,17
2740404,12
2741024,14
2741652,11
2742284,10
2742904,10
2743532,11
2744156,11
2744788,11
2745416,10
2746040,12
2746668,14
2747292,15
2747916,14
2748544,14
2749168,16
2749796,16
2750420,17
2751044,21
2751676,18
2752296,14
2752924,13
2753556,16
2754176,11
2754804,11
2755428,11
2756056,13
2756688,14
2757304,16
2757932,16
2758556,11
2759180,15
2759812,14
2760432,12
2761060,11
2761684,13
2762308,18
2762940,12
2763560,13
2764188,13
2764820,16
2765436,19
2766068,16
2766692,12
2767320,14
2767948,13
2768568,15
2769196,11
2769820,13
2770444,15
2771072,12
2771696,12
2772324,19
2772948,18
2773572,15
2774204,14
2774824,15
2775452,11
2776084,11
2776704,11
2777332,11
2777956,17
2778588,22
2779216,22
2779840,19
2780468,16
2781092,14
2781716,19
2782348,20
2782968,17
2783596,18
2784224,17
2784848,22
2785476,22
2786096,17
2786724,13
2787352,10
2787976,11
2788604,13
2789228,15
2789860,15
2790488,15
2791104,15
2791732,12
2792356,13
2792980,12
2793612,10
2794232,12
2794860,12
2795484,17
2796112,14
2796740,13
2797360,15
2797988,16
2798620,14
2799240,15
2799868,12
2800496,12
2801124,15
2801752,16
2802376,15
2803004,15
2803632,13
2804252,12
2804884,10
2805504,14
2806132,13
2806756,14
2807380,13
2808012,14
2808632,12
2809260,13
2809892,10
2810512,11
2811140,12
2811764,13
2812396,13
2813028,14
2813648,14
2814276,14
2814900,19
2815528,23
2816156,26
2816772,29
2817404,26
2818024,17
2818648,11
2819276,10
2819896,15
2820524,12
2821152,10
2821776,14
2822404,15
2823028,16
2823656,18
2824284,15
2824904,12
2825532,12
2826156,11
2826780,11
2827412,10
2828032,10
2828660,14
2829284,16
2829908,16
2830536,14
2831160,15
2831788,15
2832420,14
2833040,15
2833668,16
2834292,19
2834920,25
2835552,21
2836168,17
2836800,14
2837424,11
2838048,11
2838676,11
2839296,15
2839924,15
2840548,16
2841172,15
2841804,10
2842424,11
2843052,11
2843680,10
2844304,12
2844932,14
2845556,17
2846188,13
2846820,14
2847440,15
2848068,14
2848692,16
2849316,18
2849944,15
2850560,20
2851192,18
2851816,16
2852440,12
2853068,10
2853688,12
2854316,11
2854948,11
2855568,16
2856200,16
2856820,14
2857452,14
2858080,13
2858704,13
2859336,12
2859960,11
2860584,11
2861216,12
2861832,18
2862464,17
2863088,13
2863712,13
2864344,17
2864968,18
2865596,15
2866228,14
2866848,15
2867480,13
2868100,15
2868732,20
2869360,16
2869976,16
2870604,11
2871228,10
2871852,13
2872480,14
2873104,13
2873732,15
2874356,15
2874980,13
2875608,12
2876232,11
2876860,11
2877492,10
2878112,11
2878740,11
2879364,12
2879996,12
2880628,14
2881248,14
2881876,14
2882496,16
2883120,15
2883748,16
2884368,16
2884996,16
2885620,15
2886244,15
2886872,16
2887496,13
2888124,10
2888752,13
2889376,13
2890004,15
2890628,17
2891256,17
2891884,13
2892504,11
2893132,11
2893756,11
2894380,12
2895008,17
2895628,15
2896256,12
2896880,12
2897500,15
2898132,17
2898756,17
2899384,16
2900012,12
2900632,12
2901260,13
2901884,19
2902516,19
2903144,17
2903764,17
2904392,19
2905016,20
2905640,19
2906268,16
2906888,15
2907516,15
2908140,12
2908768,14
2909396,13
2910020,11
2910652,10
2911280,13
2911900,15
2912528,13
2913152,14
2913784,16
2914412,14
2915032,14
2915664,15
2916288,15
2916912,16
2917540,18
2918160,20
2918792,24
2919412,19
2920036,13
2920668,10
2921292,10
2921920,12
2922548,13
2923168,14
2923796,14
2924424,15
2925052,12
2925680,12
2926304,13
2926932,13
2927556,12
2928184,16
2928812,16
2929432,14
2930060,13
2930684,14
2931312,15
2931940,15
2932564,15
2933196,16
2933828,24
2934448,26
2935076,19
2935700,17
2936328,21
2936956,17
2937576,11
2938208,11
2938832,15
2939456,15
2940084,14
2940704,15
2941336,13
2941964,10
2942584,12
2943216,11
2943840,11
2944472,13
2945100,12
2945720,13
2946348,11
2946972,13
2947596,17
2948228,16
2948848,18
2949476,19
2950100,17
2950724,16
2951352,13
2951976,11
2952604,12
2953236,12
2953856,12
2954484,11
2955108,11
2955740,14
2956368,14
2956992,15
2957620,14
2958244,11
2958868,11
2959500,10
2960120,10
2960748,11
2961372,10
2961996,11
2962624,14
2963244,16
2963872,15
2964500,14
2965120,16
2965748,15
2966372,19
2967004,20
2967632,19
2968256,17
2968884,14
2969508,12
2970136,12
2970764,12
2971384,11
2972012,14
2972636,14
2973260,14
2973888,15
2974512,15
2975140,11
2975772,12
2976392,11
2977020,10
2977644,12
2978272,13
2978904,16
2979520,22
2980148,15
2980772,17
2981396,17
2982028,16
2982648,19
2983276,17
2983900,19
2984524,20
2985156,20
2985776,15
2986404,13
2987036,10
2987656,11
2988284,11
2988908,15
2989540,14
2990168,14
2990792,14
2991420,11
2992044,10
2992668,11
2993300,10
2993920,12
2994548,15
2995176,19
2995800,20
2996428,18
2997048,15
2997676,15
2998308,16
2998928,17
2999556,17
3000184,17
3000812,17
3001444,18
3002064,17
3002692,16
3003320,13
3003944,11
3004572,10
3005192,12
3005824,17
3006448,14
3007072,15
3007704,15
3008328,11
3008956,12
3009588,12
3010208,12
3010840,11
3011464,13
3012092,18
3012724,16
3013344,11
3013976,14
3014600,15
3015224,15
3015852,18
3016472,24
3017100,29
3017732,28
3018352,25
3018984,17
3019608,12
3020240,11
3020868,12
3021488,11
3022116,15
3022740,15
3023368,15
3023996,14
3024616,11
3025248,12
3025872,11
3026496,12
3027124,11
3027744,13
3028376,12
3029008,11
3029624,13
3030256,15
3030880,14
3031512,15
3032140,15
3032760,17
3033392,17
3034016,17
3034640,18
3035268,17
3035888,16
3036520,12
3037144,11
3037768,11
3038396,11
3039016,14
3039648,15
3040280,14
3040896,14
3041524,11
3042148,11
3042780,11
3043412,12
3044032,12
3044660,11
3045284,12
3045912,15
3046540,14
3047160,16
3047788,14
3048416,15
3049040,17
3049668,16
3050288,22
3050916,21
3051548,19
3052168,15
3052796,13
3053424,13
3054052,10
3054684,11
3055304,14
3055936,14
3056560,15
3057184,15
3057816,14
3058432,12
3059064,11
3059688,11
3060312,13
3060944,11
3061560,12
3062192,15
3062824,17
3063444,16
3064076,14
3064700,16
3065332,15
3065964,14
3066584,15
3067216,18
3067840,18
3068464,17
3069096,13
3069716,11
3070348,10
3070972,10
3071600,11
3072236,13
3072856,14
3073488,13
3074116,14
3074736,12
3075364,11
3075988,11
3076616,11
3077244,10
3077864,13
3078492,16
3079116,17
3079740,15
3080368,14
3080992,16
3081620,16
3082248,16
3082872,15
3083500,18
3084124,19
3084756,15
3085384,12
3086008,11
3086636,11
3087260,11
3087888,10
3088516,12
3089136,15
3089764,14
3090388,15
3091012,14
3091644,10
3092264,11
3092892,11
3093524,10
3094144,13
3094772,11
3095396,11
3096028,11
3096660,10
3097280,15
3097908,17
3098532,18
3099156,18
3099788,16
3100408,19
3101036,22
3101664,27
3102288,19
3102916,16
3103536,15
3104168,12
3104796,12
3105416,15
3106044,13
3106668,15
3107300,14
3107932,10
3108552,12
3109184,11
3109808,11
3110432,13
3111060,14
3111680,16
3112308,13
3112936,14
3113560,16
3114188,14
3114808,16
3115436,15
3116068,12
3116688,15
3117320,19
3117944,20
3118572,15
3119204,13
3119824,13
3120456,11
3121080,14
3121704,15
3122332,14
3122952,15
3123584,15
3124208,14
3124828,12
3125460,11
3126084,10
3126712,11
3127340,11
3127960,12
3128592,13
3129216,13
3129844,13
3130476,14
3131096,16
3131728,18
3132352,19
3132976,20
3133604,23
3134224,22
3134856,13
3135480,12
3136104,10
3136732,13
3137356,11
3137988,11
3138616,14
3139240,15
3139868,13
3140492,14
3141124,12
3141752,11
3142372,12
3143004,11
3143628,11
3144252,11
3144884,15
3145504,17
3146136,18
3146764,15
3147384,16
3148016,17
3148640,16
3149272,17
3149900,17
3150520,19
3151152,19
3151776,18
3152400,17
3153028,13
3153648,11
3154280,12
3154904,11
3155528,14
3156156,14
3156776,15
3157408,14
3158036,11
3158656,13
3159288,11
3159912,14
3160544,14
3161172,12
3161792,12
3162420,17
3163048,17
3163672,15
3164304,14
3164920,14
3165548,15
3166176,16
3166800,20
3167432,21
3168048,21
3168680,22
3169308,21
3169928,19
3170556,12
3171184,11
3171816,16
3172448,14
3173068,14
3173700,14
3174324,13
3174948,11
3175580,10
3176200,11
3176828,12
3177456,15
3178080,15
3178708,17
3179336,17
3179964,13
3180596,16
3181216,16
3181848,13
3182472,15
3183100,15
3183732,18
3184352,18
3184984,17
3185608,11
3186232,11
3186864,11
3187484,14
3188112,18
3188744,17
3189364,16
3189996,14
3190620,14
3191252,11
3191884,10
3192504,11
3193136,11
3193760,15
3194388,19
3195020,23
3195640,21
3196272,13
3196896,16
3197520,20
3198152,19
3198772,17
3199400,13
3200032,16
3200652,19
3201280,20
3201904,17
3202532,11
3203164,10
3203784,12
3204412,13
3205036,18
3205660,16
3206288,16
3206904,16
3207536,14
3208156,11
3208780,11
3209412,10
3210032,12
3210660,15
3211292,16
3211912,18
3212540,21
3213164,19
3213796,14
3214424,18
3215048,22
3215676,20
3216300,20
3216924,21
3217552,16
3218176,13
3218804,12
3219428,11
3220052,10
3220684,10
3221304,14
3221932,15
3222564,15
3223184,14
3223812,15
3224440,12
3225068,10
3225700,11
3226320,11
3226948,11
3227572,11
3228196,15
3228824,13
3229440,13
3230072,15
3230696,15
3231320,15
3231948,16
3232568,19
3233196,22
3233828,26
3234448,22
3235076,17
3235704,19
3236332,17
3236964,12
3237584,11
3238212,13
3238840,13
3239460,17
3240092,18
3240712,17
3241340,11
3241964,11
3242588,11
3243220,11
3243844,11
3244472,13
3245100,13
3245720,12
3246348,12
3246972,16
3247604,19
3248236,22
3248856,16
3249484,15
3250108,16
3250732,18
3251364,13
3251984,11
3252612,11
3253236,11
3253860,10
3254492,10
3255116,15
3255748,15
3256376,16
3257000,17
3257628,12
3258252,11
3258884,11
3259512,14
3260132,15
3260764,14
3261388,12
3262012,11
3262644,12
3263264,15
3263896,16
3264528,15
3265144,17
3265772,15
3266400,22
3267028,25
3267660,18
3268280,13
3268908,12
3269532,13
3270160,17
3270788,18
3271408,16
3272040,15
3272664,17
3273288,18
3273916,16
3274536,11
3275168,12
3275800,16
3276420,18
3277052,23
3277672,20
3278300,25
3278928,21
3279544,19
3280172,19
3280792,17
3281416,15
3282044,16
3282660,18
3283288,23
3283912,26
3284532,21
3285164,15
3285780,12
3286412,15
3287032,16
3287656,13
3288284,15
3288908,14
3289536,14
3290164,16
3290780,17
3291412,15
3292036,17
3292664,20
3293292,16
3293912,15
3294540,11
3295164,12
3295788,19
3296416,18
3297032,17
3297660,17
3298284,15
3298904,14
3299532,12
3300152,15
3300780,13
3301408,16
3302032,17
3302660,11
3303284,15
3303912,13
3304540,11
3305160,14
3305788,16
3306412,19
3307032,19
3307664,12
3308280,11
3308908,11
3309532,10
3310156,14
3310784,21
3311400,21
3312032,17
3312660,16
3313280,15
3313908,15
3314532,15
3315160,18
3315792,21
3316412,24
3317040,23
3317664,23
3318288,27
3318916,26
3319536,31
3320164,26
3320788,20
3321412,14
3322040,14
3322656,14
3323288,15
3323916,14
3324536,11
3325164,13
3325788,12
3326420,11
3327048,15
3327668,21
3328296,22
3328916,18
3329540,14
3330168,13
3330784,14
3331416,15
3332036,15
3332660,14
3333288,17
3333904,20
3334536,19
3335156,13
3335780,13
3336412,16
3337032,12
3337664,12
3338292,16
3338912,22
3339540,20
3340164,15
3340792,13
3341420,11
3342040,11
3342668,11
3343292,13
3343916,16
3344544,10
3345168,13
3345796,16
3346420,17
3347044,15
3347672,16
3348296,16
3348924,21
3349556,23
3350176,27
3350804,21
3351428,19
3352060,11
3352688,12
3353308,14
3353936,15
3354560,12
3355184,15
3355812,16
3356432,15
3357060,14
3357684,14
3358308,13
3358940,11
3359564,14
3360192,13
3360820,13
3361436,15
3362068,14
3362688,18
3363320,22
3363948,18
3364568,18
3365196,20
3365820,25
3366440,29
3367068,25
3367688,19
3368316,13
3368940,11
3369564,10
3370192,19
3370808,25
3371440,26
3372068,20
3372688,17
3373316,19
3373940,23
3374572,17
3375200,12
3375816,18
3376448,21
3377072,15
3377696,12
3378324,11
3378944,13
3379572,11
3380196,14
3380820,17
3381448,14
3382064,19
3382692,11
3383320,10
3383944,17
3384572,20
3385196,11
3385824,11
3386456,10
3387072,14
3387700,21
3388324,34
3388948,24
3389576,14
3390200,16
3390828,13
3391452,11
3392076,12
3392704,10
3393328,11
3393956,13
3394584,14
3395200,11
3395832,15
3396456,15
3397084,14
3397716,15
3398336,18
3398964,17
3399588,16
3400216,16
3400844,20
3401464,26
3402092,24
3402716,23
3403340,13
3403968,10
3404588,10
3405216,15
3405844,18
3406464,27
3407092,29
3407716,23
3408344,14
3408976,12
3409592,11
3410220,11
3410844,11
3411468,12
3412096,11
3412720,12
3413348,16
3413972,17
3414596,16
3415224,15
3415848,18
3416476,24
3417108,26
3417728,29
3418356,27
3418980,20
3419612,12
3420240,12
3420864,12
3421492,18
3422116,20
3422740,19
3423372,18
3423992,33
3424624,24
3425248,15
3425872,15
3426500,16
3427120,25
3427752,27
3428380,15
3429000,12
3429628,15
3430252,18
3430884,17
3431516,19
3432136,19
3432764,10
3433388,12
3434012,19
3434644,29
3435264,19
3435892,18
3436516,17
3437144,21
3437772,24
3438392,28
3439024,16
3439652,14
3440272,15
3440900,19
3441524,11
3442152,22
3442784,25
3443400,17
3444028,11
3444652,15
3445276,22
3445904,18
3446520,14
3447152,16
3447776,19
3448400,17
3449028,12
3449648,15
3450276,13
3450908,14
3451528,21
3452156,16
3452780,12
3453412,12
3454044,16
3454664,18
3455292,17
3455920,15
3456544,15
3457172,16
3457792,15
3458420,17
3459044,11
3459668,13
3460296,16
3460920,21
3461548,25
3462180,30
3462800,37
3463428,23
3464052,15
3464680,26
3465308,27
3465928,16
3466556,28
3467180,32
3467804,20
3468436,10
3469056,12
3469684,13
3470308,12
3470932,13
3471564,15
3472184,15
3472812,14
3473444,15
3474064,18
3474692,13
3475316,11
3475948,13
3476580,23
3477200,27
3477828,35
3478452,30
3479076,19
3479708,14
3480328,22
3480956,35
3481584,35
3482208,24
3482836,12
3483460,12
3484088,24
3484720,31
3485336,29
3485964,28
3486588,31
3487220,29
3487848,39
3488468,30
3489096,15
3489720,25
3490344,25
3490972,10
3491592,13
3492220,11
3492844,24
3493468,28
3494100,18
3494724,23
3495352,59
3495980,57
3496600,57
3497228,43
3497852,17
3498484,21
3499112,23
3499736,28
3500364,34
3500992,47
3501616,48
3502244,38
3502864,22
3503492,11
3504116,13
3504740,19
3505372,21
3505996,19
3506628,17
3507256,14
3507872,13
3508504,15
3509128,13
3509756,11
3510388,10
3511008,11
3511640,14
3512264,21
3512888,15
3513516,14
3514136,13
3514768,15
3515400,16
3516016,18
3516648,15
3517272,14
3517904,13
3518536,12
3519152,15
3519784,14
3520412,12
3521036,11
3521664,18
3522280,13
3522912,18
3523536,17
3524156,11
3524788,14
3525408,15
3526036,20
3526668,18
3527288,23
3527916,16
3528540,12
3529172,11
3529800,14
3530420,20
3531048,32
3531672,27
3532296,21
3532924,35
3533544,32
3534172,26
3534796,24
3535420,15
3536048,10
3536672,11
3537300,11
3537928,14
3538552,15
3539180,14
3539808,14
3540436,14
3541068,10
3541688,10
3542316,23
3542944,28
3543568,27
3544196,20
3544816,17
3545444,13
3546068,21
3546692,33
3547324,53
3547944,40
3548576,17
3549204,27
3549824,22
3550452,21
3551080,27
3551708,14
3552340,10
3552960,12
3553588,12
3554216,16
3554840,17
3555468,13
3556088,17
3556716,14
3557344,21
3557968,11
3558600,19
3559216,13
3559844,23
3560476,20
3561096,11
3561724,27
3562348,40
3562980,23
3563612,16
3564232,15
3564860,17
3565484,13
3566108,17
3566740,16
3567360,21
3567988,17
3568616,12
3569240,11
3569868,13
3570488,12
3571120,12
3571748,14
3572368,15
3573000,17
3573624,19
3574252,21
3574884,22
3575504,24
3576136,15
3576760,11
3577384,13
3578016,27
3578632,22
3579264,12
3579888,19
3580512,25
3581144,31
3581768,22
3582400,18
3583028,15
3583648,11
3584280,10
3584904,13
3585532,11
3586160,10
3586784,13
3587412,12
3588036,16
3588660,20
3589288,20
3589912,21
3590540,13
3591164,18
3591792,11
3592420,10
3593044,19
3593676,33
3594304,35
3594928,26
3595556,13
3596180,14
3596808,20
3597436,18
3598056,18
3598688,22
3599312,12
3599936,13
3600568,15
3601184,11
3601812,17
3602444,22
3603064,25
3603696,35
3604320,51
3604948,45
3605576,59
3606196,51
3606824,29
3607448,11
3608068,17
3608700,28
3609320,40
3609948,36
3610572,21
3611196,19
3611824,13
3612444,15
3613072,17
3613700,15
3614320,16
3614948,29
3615572,24
3616204,14
3616832,17
3617448,12
3618076,14
3618700,19
3619328,22
3619960,18
3620576,11
3621208,19
3621832,35
3622456,33
3623084,20
3623704,17
3624332,18
3624956,11
3625584,17
3626212,28
3626836,37
3627468,41
3628096,37
3628720,29
3629348,15
3629972,16
3630600,25
3631228,32
3631848,34
3632480,20
3633100,13
3633728,25
3634356,32
3634976,18
3635608,10
3636236,24
3636856,31
3637484,17
3638108,19
3638740,14
3639368,30
3639988,34
3640616,41
3641240,37
3641864,15
3642496,25
3643112,28
3643744,31
3644368,40
3644992,33
3645620,22
3646240,20
3646868,32
3647500,33
3648120,29
3648748,24
3649372,16
3650000,11
3650628,16
3651248,21
3651876,14
3652500,11
3653124,13
3653756,10
3654376,13
3655008,14
3655632,15
3656256,16
3656884,16
3657504,11
3658136,11
3658764,16
3659384,24
3660012,15
3660640,21
3661268,23
3661900,16
3662520,45
3663148,28
3663776,18
3664400,24
3665028,22
3665648,33
3666276,24
3666900,20
3667524,11
3668156,28
3668776,23
3669404,14
3670036,12
3670656,13
3671288,16
3671912,14
3672540,16
3673172,24
3673792,25
3674420,11
3675048,15
3675672,19
3676304,15
3676920,11
3677552,33
3678176,35
3678800,27
3679428,14
3680048,16
3680680,14
3681308,16
3681928,30
3682556,27
3683184,21
3683812,23
3684444,27
3685064,38
3685696,18
3686320,24
3686944,13
3687572,19
3688192,19
3688820,15
3689444,16
3690064,14
3690696,17
3691312,19
3691940,25
3692572,11
3693192,13
3693820,13
3694444,19
3695072,27
3695704,14
3696320,19
3696952,16
3697576,15
3698200,29
3698828,43
3699448,49
3700076,29
3700700,11
3701324,15
3701956,23
3702576,14
3703204,11
3703836,10
3704456,21
3705084,30
3705708,29
3706340,15
3706972,18
3707592,25
3708220,26
3708844,21
3709468,11
3710100,12
3710720,38
3711348,23
3711976,12
3712600,12
3713232,14
3713848,15
3714476,15
3715108,14
3715728,13
3716356,11
3716980,11
3717612,30
3718240,36
3718864,48
3719492,39
3720120,15
3720740,11
3721372,14
3721992,29
3722620,36
3723244,15
3723868,15
3724500,15
3725124,19
3725756,33
3726384,22
3727008,43
3727640,68
3728264,44
3728892,31
3729520,15
3730144,16
3730772,20
3731400,22
3732020,16
3732652,12
3733272,12
3733904,19
3734532,21
3735152,13
3735784,11
3736408,31
3737036,43
3737668,48
3738288,41
3738916,17
3739540,15
3740168,38
3740796,48
3741416,20
3742048,14
3742672,16
3743296,19
3743928,19
3744544,17
3745176,27
3745808,31
3746424,31
3747052,15
3747680,39
3748308,47
3748940,63
3749560,53
3750192,42
3750816,11
3751440,12
3752068,13
3752688,24
3753316,11
3753944,12
3754568,33
3755200,23
3755816,16
3756448,17
3757076,12
3757696,14
3758328,22
3758952,30
3759584,28
3760212,11
3760832,13
3761460,16
3762088,21
3762712,45
3763344,61
3763960,41
3764588,16
3765216,30
3765840,19
3766468,11
3767088,11
3767720,11
3768348,11
3768968,18
3769596,11
3770220,17
3770852,15
3771484,20
3772104,26
3772736,30
3773360,20
3773984,12
3774616,13
3775232,25
3775864,13
3776488,38
3777112,31
3777740,19
3778360,15
3778992,19
3779620,24
3780240,15
3780868,17
3781492,15
3782124,13
3782756,13
3783376,17
3784008,11
3784628,15
3785256,29
3785888,36
3786504,18
3787136,25
3787760,18
3788384,15
3789016,31
3789640,35
3790268,24
3790900,10
3791520,12
3792148,12
3792772,31
3793404,24
3794036,28
3794656,15
3795284,22
3795908,16
3796536,30
3797164,19
3797784,19
3798416,24
3799044,14
3799664,11
3800296,27
3800920,35
3801552,41
3802180,34
3802800,43
3803432,15
3804056,44
3804680,31
3805312,15
3805928,14
3806560,16
3807184,11
3807808,13
3808440,18
3809060,21
3809688,22
3810320,31
3810940,27
3811568,13
3812192,18
3812824,28
3813452,28
3814072,29
3814704,17
3815328,14
3815952,13
3816584,22
3817200,24
3817832,15
3818456,40
3819080,31
3819712,31
3820332,20
3820960,13
3821588,16
3822208,19
3822840,16
3823464,15
3824096,19
3824724,18
3825344,17
3825976,11
3826600,15
3827224,11
3827852,16
3828472,16
3829104,20
3829728,14
3830352,17
3830984,23
3831604,19
3832236,14
3832868,12
3833488,22
3834120,19
3834744,21
3835376,16
3836008,14
3836628,20
3837260,10
3837884,14
3838512,20
3839144,19
3839764,24
3840396,13
3841020,24
3841640,14
3842272,13
3842896,24
3843524,21
3844152,40
3844772,41
3845400,19
3846024,15
3846652,15
3847284,20
3847904,23
3848532,14
3849156,11
3849780,11
3850412,14
3851032,11
3851660,21
3852284,22
3852912,23
3853540,9
3854112,17
3854740,26
3855372,18
3855992,17
3856624,14
3857248,11
3857876,11
3858508,20
3859128,26
3859760,29
3860384,21
3861008,16
3861636,11
3862256,28
3862884,18
3863508,16
3864136,35
3864764,52
3865384,21
3866016,41
3866644,48
3867264,47
3867892,53
3868516,29
3869148,12
3869780,26
3870400,15
3871028,16
3871656,19
3872280,16
3872908,13
3873528,12
3874156,11
3874784,12
3875408,11
3876036,11
3876656,15
3877284,15
3877916,15
3878536,15
3879164,13
3879792,17
3880420,17
3881052,14
3881672,29
3882300,27
3882924,12
3883552,11
3884180,11
3884800,17
3885428,30
3886056,34
3886680,27
3887308,19
3887928,14
3888560,17
3889192,14
3889808,18
3890440,12
3891064,32
3891696,38
3892324,20
3892944,16
3893572,24
3894196,15
3894820,20
3895452,17
3896072,19
3896700,16
3897324,15
3897948,15
3898580,21
3899204,22
3899832,26
3900464,33
3901084,17
3901716,12
3902340,25
3902972,40
3903600,15
3904220,34
3904848,39
3905472,57
3906096,41
3906724,24
3907344,16
3907972,17
3908600,32
3909224,25
3909852,15
3910480,26
3911108,25
3911740,28
3912360,29
3912988,27
3913612,27
3914244,17
3914872,36
3915496,55
3916128,37
3916752,13
3917376,10
3918008,11
3918628,15
3919256,21
3919888,18
3920508,13
3921140,16
3921764,19
3922392,16
3923024,23
3923644,25
3924276,23
3924900,24
3925524,11
3926156,14
3926776,39
3927408,33
3928032,26
3928656,19
3929288,19
3929904,25
3930536,16
3931168,15
3931788,14
3932420,13
3933040,28
3933672,13
3934300,15
3934920,15
3935548,23
3936172,15
3936796,11
3937428,14
3938048,15
3938676,15
3939300,16
3939924,14
3940556,12
3941176,15
3941804,15
3942436,18
3943056,24
3943684,13
3944308,16
3944936,21
3945564,11
3946184,15
3946812,36
3947436,47
3948064,35
3948692,14
3949312,55
3949940,61
3950568,51
3951192,35
3951820,18
3952440,12
3953068,12
3953700,10
3954320,15
3954948,16
3955576,17
3956204,17
3956836,14
3957456,17
3958084,16
3958712,26
3959336,19
3959964,12
3960584,22
3961212,16
3961840,13
3962464,17
3963092,17
3963720,15
3964348,15
3964980,14
3965600,11
3966228,11
3966856,16
3967484,35
3968116,26
3968736,13
3969364,19
3969988,16
3970612,33
3971240,22
3971864,19
3972492,23
3973116,16
3973744,18
3974376,12
3975000,17
3975628,13
3976260,10
3976880,14
3977508,49
3978136,49
3978760,41
3979388,28
3980008,16
3980636,38
3981264,29
3981888,16
3982520,20
3983136,33
3983768,47
3984396,44
3985016,28
3985644,13
3986268,11
3986900,11
3987532,28
3988152,23
3988784,31
3989408,36
3990032,23
3990664,11
3991280,13
3991912,24
3992536,14
3993164,12
3993796,15
3994416,22
3995044,11
3995676,16
3996296,16
3996924,17
3997548,20
3998180,17
3998812,10
3999432,20
4000064,27
4000684,27
4001308,32
4001936,39
4002552,24
4003184,17
4003808,11
4004432,15
4005060,26
4005680,31
4006308,25
4006940,24
4007560,23
4008188,18
4008812,11
4009440,34
4010072,37
4010688,14
4011320,13
4011944,17
4012568,29
4013196,19
4013816,17
4014444,21
4015068,18
4015692,11
4016324,31
4016944,30
4017572,22
4018204,20
4018824,18
4019452,12
4020076,18
4020708,16
4021336,13
4021956,14
4022584,20
4023208,19
4023832,17
4024460,11
4025080,15
4025708,12
4026332,11
4026956,11
4027588,12
4028208,12
4028836,12
4029468,14
4030088,16
4030716,31
4031344,36
4031976,16
4032608,58
4033224,53
4033852,34
4034480,23
4035104,13
4035732,10
4036352,21
4036980,20
4037604,20
4038228,30
4038860,28
4039480,17
4040108,11
4040740,24
4041360,29
4041988,23
4042612,22
4043244,29
4043876,12
4044496,28
4045124,34
4045748,31
4046372,28
4047004,14
4047624,55
4048252,39
4048876,15
4049500,41
4050132,57
4050756,23
4051388,15
4052016,10
4052636,10
4053264,13
4053888,11
4054520,23
4055148,18
4055768,15
4056396,19
4057020,23
4057644,14
4058276,11
4058896,11
4059524,23
4060148,12
4060772,21
4061404,27
4062028,24
4062660,19
4063292,14
4063912,15
4064544,16
4065168,25
4065800,31
4066428,28
4067048,21
4067676,25
4068304,21
4068928,18
4069560,22
4070176,21
4070808,22
4071436,14
4072056,15
4072684,15
4073312,20
4073940,12
4074572,36
4075192,41
4075824,19
4076448,34
4077072,44
4077704,19
4078320,15
4078952,18
4079576,30
4080200,22
4080828,14
4081448,14
4082076,24
4082708,52
4083328,56
4083956,51
4084584,17
4085212,16
4085844,14
4086464,12
4087092,22
4087720,21
4088344,15
4088972,16
4089592,15
4090224,29
4090848,31
4091472,22
4092104,21
4092724,18
4093356,17
4093988,22
4094608,25
4095240,27
4095864,17
4096496,15
4097124,16
4097740,19
4098368,16
4098992,13
4099612,11
4100240,12
4100860,10
4101488,12
4102112,14
4102736,11
4103364,10
4103984,15
4104612,15
4105240,14
4105856,15
4106488,15
4107108,13
4107736,21
4108368,18
4108984,21
4109612,23
4110236,13
4110856,13
4111488,12
4112104,17
4112732,25
4113356,16
4113980,15
4114608,15
4115224,14
4115852,10
4116476,14
4117104,39
4117732,58
4118356,33
4118988,11
4119616,17
4120232,17
4120864,19
4121488,15
4122116,40
4122744,27
4123368,17
4123996,11
4124620,11
4125244,12
4125872,23
4126488,19
4127120,18
4127744,22
4128368,20
4128996,17
4129620,17
4130248,24
4130876,20
4131496,13
4132124,15
4132748,25
4133380,38
4134008,31
4134628,31
4135256,47
4135880,35
4136504,13
4137132,12
4137752,41
4138380,24
4139004,26
4139632,36
4140260,17
4140884,14
4141512,32
4142140,32
4142760,12
4143388,19
4144012,13
4144640,12
4145268,14
4145888,15
4146516,19
4147140,16
4147768,17
4148396,13
4149016,24
4149644,23
4150268,24
4150896,15
4151524,10
4152148,46
4152780,31
4153408,15
4154028,23
4154656,35
4155280,26
4155908,19
4156540,14
4157160,33
4157788,27
4158412,11
4159036,22
4159668,14
4160288,13
4160916,11
4161544,25
4162160,23
4162792,19
4163412,19
4164044,15
4164672,14
4165288,11
4165916,14
4166540,22
4167168,24
4167800,13
4168416,11
4169044,25
4169668,24
4170288,18
4170920,14
4171536,17
4172164,25
4172788,21
4173412,11
4174044,18
4174668,11
4175296,15
4175924,14
4176544,11
4177172,12
4177796,14
4178428,15
4179056,15
4179672,14
4180304,15
4180924,24
4181548,21
4182180,14
4182800,13
4183428,12
4184052,15
4184676,16
4185304,23
4185928,23
4186556,15
4187188,14
4187808,25
4188436,15
4189060,16
4189692,14
4190320,26
4190936,12
4191568,12
4192192,12
4192816,11
4193444,16
4194064,32
4194692,28
4195316,12
4195940,18
4196568,31
4197192,43
4197824,57
4198456,39
4199072,13
4199700,41
4200320,44
4200952,47
4201580,81
4202200,62
4202828,17
4203452,14
4204076,15
4204704,22
4205328,18
4205956,16
4206580,11
4207204,13
4207832,10
4208456,11
4209088,15
4209716,22
4210336,13
4210964,13
4211588,16
4212220,24
4212848,19
4213464,23
4214096,19
4214720,14
4215344,16
4215972,18
4216592,47
4217220,48
4217844,41
4218468,13
4219100,34
4219724,31
4220352,26
4220984,34
4221600,17
4222232,25
4222856,23
4223484,11
4224116,18
4224736,15
4225364,10
4225984,38
4226608,27
4227236,26
4227856,14
4228484,11
4229108,43
4229732,60
4230360,42
4230984,27
4231616,33
4232244,18
4232864,11
4233492,15
4234116,12
4234748,11
4235376,14
4236000,15
4236628,16
4237252,23
4237876,33
4238508,36
4239128,36
4239760,13
4240380,38
4241008,70
4241636,41
4242260,13
4242888,13
4243516,15
4244136,30
4244764,37
4245388,30
4246020,20
4246648,14
4247268,19
4247896,24
4248520,24
4249144,20
4249772,35
4250392,40
4251020,11
4251644,10
4252272,13
4252900,13
4253524,15
4254156,14
4254784,26
4255408,22
4256036,23
4256660,27
4257284,36
4257916,31
4258536,16
4259164,31
4259792,27
4260416,29
4261044,34
4261664,13
4262292,30
4262924,14
4263544,21
4264172,22
4264796,16
4265424,12
4266056,21
4266672,51
4267300,56
4267924,23
4268548,15
4269180,26
4269800,31
4270428,21
4271052,15
4271676,17
4272308,22
4272928,26
4273556,15
4274188,10
4274808,13
4275436,15
4276060,13
4276692,12
4277320,22
4277944,34
4278572,21
4279196,27
4279820,21
4280452,21
4281072,49
4281700,38
4282324,14
4282948,25
4283576,60
4284196,79
4284824,29
4285456,37
4286072,60
4286704,35
4287328,14
4287956,22
4288588,14
4289208,59
4289836,49
4290460,17
4291084,14
4291716,16
4292336,12
4292964,23
4293588,24
4294212,16
4294844,13
4295464,17
4296092,24
4296724,32
4297344,34
4297976,26
4298600,22
4299228,28
4299860,18
4300480,13
4301112,11
4301732,32
4302356,32
4302988,24
4303608,22
4304236,13
4304860,18
4305484,24
4306112,33
4306736,21
4307364,14
4307996,15
4308616,16
4309244,14
4309868,17
4310500,23
4311128,25
4311752,24
4312380,24
4313004,41
4313628,41
4314260,15
4314880,33
4315508,67
4316136,87
4316760,69
4317392,44
4318008,31
4318640,24
4319268,12
4319888,14
4320520,15
4321144,20
4321772,20
4322400,18
4323024,19
4323652,25
4324276,29
4324900,31
4325532,16
4326152,41
4326784,33
4327404,35
4328028,32
4328660,16
4329280,17
4329912,15
4330540,14
4331160,15
4331792,11
4332416,11
4333044,20
4333676,14
4334296,10
4334924,11
4335552,11
4336176,20
4336804,18
4337424,14
4338052,20
4338676,17
4339304,15
4339932,21
4340556,22
4341188,12
4341816,12
4342440,35
4343068,42
4343692,38
4344324,16
4344952,27
4345572,50
4346200,51
4346824,31
4347452,15
4348080,17
4348700,11
4349328,10
4349960,10
4350580,14
4351212,18
4351836,12
4352468,12
4353096,20
4353720,25
4354348,15
4354972,15
4355596,22
4356224,20
4356848,11
4357476,17
4358100,35
4358724,38
4359356,12
4359976,18
4360604,27
4361236,15
4361856,20
4362484,19
4363108,16
4363740,16
4364368,17
4364988,10
4365616,11
4366240,13
4366860,20
4367492,18
4368112,57
4368740,62
4369364,35
4369988,14
4370616,31
4371240,22
4371868,15
4372500,14
4373120,12
4373748,13
4374372,15
4375004,13
4375636,24
4376256,23
4376884,13
4377512,14
4378136,31
4378764,30
4379384,16
4380012,15
4380640,19
4381264,47
4381892,55
4382512,26
4383144,11
4383772,10
4384392,13
4385020,13
4385644,11
4386276,12
4386904,32
4387524,37
4388152,23
4388776,20
4389400,15
4390028,23
4390648,30
4391276,15
4391904,12
4392528,11
4393156,12
4393776,23
4394404,23
4395036,16
4395656,21
4396288,24
4396912,16
4397540,23
4398172,11
4398792,21
4399424,28
4400048,15
4400672,14
4401300,30
4401920,53
4402548,73
4403176,47
4403800,18
4404428,38
4405048,17
4405676,33
4406308,43
4406928,12
4407556,30
4408180,48
4408812,36
4409440,24
4410064,17
4410692,21
4411320,17
4411944,34
4412572,19
4413192,39
4413824,41
4414448,40
4415072,41
4415704,33
4416328,16
4416956,11
4417588,12
4418208,12
4418836,22
4419460,18
4420092,44
4420724,29
4421344,15
4421976,15
4422600,15
4423224,18
4423856,16
4424472,16
4425100,20
4425724,24
4426352,22
4426980,32
4427604,26
4428236,35
4428864,41
4429480,17
4430112,15
4430736,17
4431364,14
4431996,14
4432616,14
4433244,13
4433868,30
4434496,27
4435124,12
4435744,14
4436372,50
4437004,59
4437624,30
4438256,14
4438880,24
4439508,33
4440140,42
4440760,35
4441392,17
4442016,12
4442640,13
4443268,39
4443888,23
4444520,14
4445140,51
4445768,79
4446396,33
4447016,34
4447648,16
4448280,41
4448896,35
4449524,21
4450148,20
4450780,17
4451412,10
4452032,17
4452660,20
4453288,12
4453912,16
4454544,13
4455160,21
4455788,17
4456416,11
4457040,20
4457668,32
4458288,19
4458916,11
4459548,10
4460168,16
4460796,11
4461424,18
4462056,21
4462684,14
4463304,15
4463936,18
4464560,15
4465184,12
4465816,10
4466432,15
4467060,13
4467688,11
4468312,11
4468940,17
4469560,26
4470192,20
4470820,15
4471440,21
4472072,15
4472696,24
4473328,15
4473956,10
4474576,11
4475208,11
4475832,16
4476456,20
4477088,26
4477704,43
4478336,29
4478964,15
4479588,18
4480220,20
4480844,27
4481472,16
4482104,15
4482720,11
4483348,10
4483972,15
4484604,21
4485232,25
4485848,22
4486480,24
4487100,15
4487724,32
4488356,39
4488976,21
4489604,13
4490228,15
4490852,11
4491484,39
4492108,35
4492736,28
4493368,66
4493988,46
4494616,12
4495240,24
4495872,40
4496504,30
4497120,19
4497748,38
4498376,37
4499000,28
4499628,17
4500248,11
4500880,13
4501504,10
4502128,19
4502760,12
4503384,15
4504012,13
4504644,16
4505264,36
4505896,28
4506520,25
4507140,30
4507772,13
4508392,15
4509020,17
4509644,15
4510268,22
4510900,42
4511520,33
4512148,15
4512780,23
4513400,41
4514028,21
4514652,17
4515284,19
4515912,19
4516532,26
4517160,26
4517784,25
4518408,14
4519036,24
4519656,41
4520288,48
4520912,34
4521536,15
4522164,20
4522784,16
4523416,14
4524044,15
4524664,12
4525292,11
4525916,11
4526548,15
4527180,14
4527800,17
4528428,23
4529052,17
4529676,15
4530308,16
4530928,21
4531560,33
4532184,19
4532804,11
4533436,22
4534056,20
4534688,16
4535316,18
4535936,37
4536568,41
4537192,34
4537820,15
4538452,24
4539072,17
4539704,15
4540328,12
4540952,20
4541584,13
4542200,15
4542832,33
4543456,41
4544080,25
4544708,12
4545328,39
4545956,23
4546588,15
4547208,17
4547836,11
4548460,24
4549092,15
4549724,14
4550344,21
4550976,14
4551600,13
4552224,16
4552852,26
4553472,23
4554104,15
4554728,21
4555352,38
4555984,31
4556604,18
4557232,11
4557864,21
4558484,28
4559112,16
4559736,19
4560368,23
4560996,14
4561616,27
4562244,15
4562868,28
4563492,29
4564124,19
4564744,11
4565372,13
4566000,13
4566624,19
4567252,11
4567876,12
4568508,25
4569140,49
4569760,41
4570388,32
4571012,21
4571644,35
4572276,72
4572896,56
4573524,13
4574152,21
4574776,43
4575408,46
4576024,34
4576652,32
4577276,28
4577904,15
4578536,33
4579160,19
4579792,15
4580424,16
4581040,12
4581672,35
4582296,48
4582924,37
4583552,34
4584176,12
4584808,17
4585432,11
4586056,17
4586688,33
4587304,22
4587936,14
4588564,18
4589184,38
4589812,45
4590436,45
4591068,27
4591700,12
4592320,25
4592948,33
4593572,34
4594200,15
4594828,18
4595448,22
4596076,15
4596700,16
4597328,24
4597956,50
4598576,38
4599204,12
4599836,38
4600456,68
4601088,63
4601712,34
4602344,11
4602972,12
4603592,15
4604224,15
4604848,16
4605472,15
4606100,15
4606720,17
4607352,24
4607976,28
4608600,27
4609232,20
4609848,13
4610476,28
4611104,42
4611728,43
4612356,30
4612980,15
4613612,17
4614240,14
4614856,12
4615484,10
4616108,11
4616732,19
4617360,35
4617984,17
4618612,11
4619236,23
4619860,30
4620492,32
4621112,24
4621740,15
4622372,14
4622992,12
4623620,19
4624248,32
4624876,30
4625504,38
4626128,27
4626756,15
4627380,24
4628004,30
4628636,34
4629256,31
4629884,19
4630508,18
4631132,12
4631764,14
4632388,25
4633020,28
4633648,21
4634264,16
4634896,13
4635520,12
4636148,11
4636780,14
4637400,14
4638032,14
4638656,15
4639280,13
4639908,14
4640528,11
4641156,13
4641780,24
4642404,37
4643032,53
4643660,62
4644288,61
4644916,38
4645536,15
4646164,41
4646792,65
4647420,62
4648052,48
4648672,51
4649300,17
4649924,13
4650548,15
4651180,14
4651800,11
4652428,13
4653056,22
4653680,23
4654308,26
4654936,17
4655564,29
4656196,20
4656816,11
4657444,11
4658068,11
4658696,13
4659324,14
4659944,19
4660572,30
4661196,19
4661820,17
4662452,16
4663072,25
4663700,31
4664332,12
4664952,11
4665580,16
4666208,17
4666836,33
4667468,62
4668088,49
4668720,12
4669344,16
4669968,17
4670596,40
4671216,40
4671844,29
4672472,40
4673096,23
4673724,16
4674344,11
4674972,16
4675604,12
4676224,11
4676852,12
4677476,11
4678108,12
4678740,14
4679360,17
4679988,14
4680616,15
4681240,11
4681868,20
4682488,29
4683116,24
4683744,13
4684368,11
4684996,22
4685616,27
4686244,19
4686876,14
4687496,15
4688124,15
4688748,26
4689380,26
4690012,10
4690632,13
4691260,17
4691884,21
4692508,22
4693140,21
4693760,13
4694388,12
4695016,16
4695640,15
4696272,23
4696888,17
4697520,20
4698152,20
4698768,23
4699400,28
4700024,13
4700656,16
4701284,13
4701904,11
4702536,19
4703160,37
4703784,17
4704416,15
4705036,14
4705668,17
4706292,19
4706916,17
4707548,15
4708172,17
4708804,14
4709432,29
4710056,41
4710688,40
4711312,26
4711944,19
4712572,25
4713192,21
4713824,24
4714448,27
4715072,14
4715700,17
4716320,46
4716948,51
4717580,28
4718200,12
4718832,17
4719456,25
4720088,29
4720716,19
4721336,17
4721964,15
4722592,14
4723216,13
4723844,12
4724464,19
4725096,19
4725720,16
4726344,13
4726976,12
4727592,14
4728224,19
4728856,17
4729472,15
4730104,15
4730728,20
4731360,23
4731988,17
4732608,13
4733240,12
4733864,11
4734488,11
4735120,12
4735736,18
4736372,12
4736992,15
4737616,18
4738248,34
4738864,25
4739496,32
4740128,43
4740744,33
4741376,19
4742000,31
4742628,68
4743260,82
4743880,45
4744512,27
4745136,24
4745760,17
4746392,15
4747008,15
4747640,15
4748264,13
4748888,10
4749516,13
4750136,15
4750768,19
4751400,26
4752016,13
4752644,19
4753268,22
4753900,22
4754532,24
4755152,33
4755784,28
4756408,14
4757032,21
4757664,40
4758280,22
4758912,58
4759536,13
4760160,29
4760792,13
4761416,21
4762048,16
4762676,30
4763296,36
4763924,28
4764552,24
4765180,17
4765812,12
4766432,12
4767064,11
4767688,18
4768312,31
4768944,30
4769560,19
4770192,16
4770820,17
4771440,25
4772072,33
4772696,51
4773324,48
4773956,28
4774576,14
4775204,11
4775828,25
4776456,28
4777088,13
4777704,19
4778336,17
4778960,16
4779584,31
4780216,42
4780832,41
4781464,25
4782096,12
4782712,11
4783344,13
4783968,20
4784600,24
4785232,15
4785848,11
4786480,14
4787108,16
4787732,20
4788364,22
4788984,22
4789616,13
4790240,12
4790864,26
4791496,24
4792116,14
4792748,25
4793380,29
4794000,37
4794632,26
4795256,14
4795888,29
4796516,25
4797136,17
4797768,12
4798396,12
4799020,23
4799652,32
4800276,23
4800904,11
4801528,23
4802152,12
4802780,25
4803404,42
4804036,53
4804664,31
4805284,15
4805912,35
4806536,17
4807164,14
4807796,10
4808416,11
4809044,23
4809668,40
4810292,38
4810924,22
4811544,18
4812176,30
4812804,30
4813424,34
4814052,29
4814676,13
4815308,13
4815936,22
4816556,25
4817184,18
4817808,11
4818440,11
4819068,16
4819688,14
4820316,15
4820944,20
4821568,23
4822196,18
4822816,23
4823444,21
4824076,16
4824696,17
4825324,13
4825952,17
4826580,18
4827212,12
4827832,12
4828464,24
4829088,17
4829712,16
4830344,21
4830960,26
4831592,43
4832216,77
4832840,56
4833472,31
4834092,17
4834720,12
4835348,36
4835968,59
4836596,51
4837224,44
4837852,16
4838484,70
4839104,69
4839732,43
4840356,13
4840980,12
4841612,16
4842232,17
4842860,13
4843488,17
4844112,28
4844744,19
4845360,15
4845992,36
4846624,32
4847240,18
4847872,12
4848496,13
4849124,17
4849756,14
4850376,11
4851008,18
4851632,22
4852256,13
4852888,15
4853504,21
4854136,16
4854760,15
4855384,17
4856016,22
4856632,23
4857264,15
4857892,12
4858512,15
4859144,20
4859768,22
4860400,13
4861028,14
4861648,15
4862280,16
4862904,16
4863528,15
4864160,17
4864776,20
4865404,13
4866028,15
4866652,22
4867284,19
4867908,13
4868536,14
4869168,21
4869784,14
4870416,16
4871040,20
4871668,17
4872300,13
4872920,11
4873552,11
4874176,11
4874800,27
4875428,40
4876048,37
4876676,39
4877304,25
4877928,23
4878556,23
4879184,34
4879816,29
4880444,48
4881064,58
4881692,30
4882316,12
4882948,25
4883580,20
4884200,11
4884828,20
4885452,47
4886076,43
4886708,33
4887328,15
4887960,30
4888588,32
4889208,17
4889840,18
4890460,12
4891092,17
4891724,10
4892344,15
4892976,24
4893600,17
4894224,21
4894856,20
4895472,17
4896104,27
4896728,33
4897352,38
4897980,36
4898600,27
4899228,13
4899860,22
4900480,24
4901108,16
4901736,12
4902368,53
4903000,50
4903620,40
4904252,29
4904876,17
4905500,19
4906132,18
4906752,19
4907384,13
4908008,12
4908632,13
4909264,14
4909884,15
4910516,23
4911148,23
4911768,16
4912400,14
4913028,23
4913660,17
4914292,11
4914912,11
4915548,21
4916168,17
4916792,11
4917420,11
4918040,11
4918668,39
4919292,95
4919920,71
4920552,25
4921172,17
4921804,31
4922432,24
4923048,15
4923680,17
4924304,21
4924932,12
4925564,10
4926184,13
4926812,13
4927436,11
4928060,17
4928692,16
4929312,16
4929940,15
4930568,16
4931192,19
4931820,13
4932444,26
4933076,39
4933708,51
4934328,19
4934960,52
4935584,43
4936208,16
4936836,14
4937456,20
4938084,30
4938708,20
4939332,11
4939964,12
4940584,14
4941216,15
4941844,15
4942464,15
4943092,19
4943716,35
4944348,41
4944976,35
4945600,21
4946228,25
4946852,50
4947476,75
4948108,75
4948728,49
4949356,34
4949984,15
4950608,14
4951236,10
4951856,16
4952488,15
4953116,20
4953736,21
4954368,16
4954992,21
4955624,57
4956252,81
4956872,64
4957500,37
4958128,13
4958752,49
4959380,91
4960000,36
4960628,26
4961252,17
4961876,15
4962508,17
4963128,20
4963760,19
4964388,10
4965008,11
4965636,13
4966264,11
4966892,11
4967524,10
4968144,18
4968772,27
4969396,33
4970020,39
4970652,20
4971272,25
4971904,37
4972528,27
4973152,22
4973780,11
4974404,12
4975036,15
4975668,18
4976288,15
4976916,19
4977540,37
4978172,38
4978804,28
4979424,14
4980052,40
4980676,41
4981300,57
4981932,53
4982552,29
4983184,17
4983812,18
4984432,21
4985060,18
4985688,13
4986316,14
4986948,14
4987568,15
4988200,15
4988824,13
4989448,11
4990076,13
4990696,14
4991328,21
4991952,26
4992580,36
4993212,30
4993832,16
4994464,17
4995092,19
4995712,17
4996344,17
4996968,16
4997596,17
4998228,14
4998848,17
4999476,31
5000100,11
5000724,17
5001356,18
5001976,13
5002604,12
5003228,34
5003852,24
5004484,20
5005104,21
5005732,27
5006364,96
5006984,115
5007668,50
5008288,21
5008912,13
5009540,28
5010160,31
5010792,24
5011416,15
5012040,23
5012672,18
5013288,21
5013916,13
5014548,14
5015168,14
5015800,20
5016424,15
5017056,15
5017684,15
5018304,22
5018932,16
5019556,19
5020180,16
5020812,14
5021432,17
5022064,15
5022688,25
5023312,29
5023944,18
5024564,11
5025192,15
5025824,24
5026440,50
5027072,44
5027696,26
5028324,17
5028956,46
5029576,65
5030208,55
5030832,32
5031456,21
5032088,12
5032704,11
5033336,11
5033960,11
5034584,11
5035216,13
5035832,14
5036464,13
5037096,16
5037716,15
5038348,15
5038972,17
5039604,14
5040236,10
5040856,11
5041484,20
5042112,22
5042736,32
5043368,17
5043984,12
5044616,29
5045240,35
5045864,23
5046492,14
5047116,15
5047748,21
5048380,26
5049000,21
5049632,13
5050256,30
5050884,31
5051516,30
5052136,19
5052768,20
5053396,35
5054020,36
5054652,16
5055272,16
5055904,12
5056540,10
5057160,13
5057792,31
5058416,33
5059048,15
5059676,30
5060296,19
5060928,13
5061552,17
5062176,24
5062808,16
5063424,15
5064056,12
5064680,23
5065308,35
5065940,30
5066560,26
5067192,20
5067824,10
5068444,19
5069076,28
5069700,21
5070332,14
5070964,22
5071584,26
5072216,22
5072840,14
5073464,21
5074096,23
5074712,38
5075344,38
5075976,12
5076600,27
5077232,20
5077856,15
5078488,15
5079120,15
5079736,26
5080368,28
5080992,12
5081616,15
5082244,14
5082864,12
5083496,11
5084120,11
5084744,21
5085376,15
5085992,13
5086624,19
5087256,28
5087880,24
5088512,20
5089136,22
5089768,12
5090396,16
5091016,16
5091648,11
5092276,19
5092900,12
5093532,18
5094152,29
5094784,28
5095412,26
5096036,45
5096668,55
5097292,39
5097924,28
5098552,12
5099176,11
5099808,13
5100436,12
5101064,15
5101696,30
5102312,41
5102944,36
5103572,28
5104196,37
5104828,28
5105448,22
5106080,15
5106708,11
5107328,11
5107960,13
5108584,18
5109216,22
5109848,25
5110468,11
5111100,23
5111724,22
5112352,15
5112984,14
5113604,13
5114232,10
5114860,27
5115488,36
5116120,26
5116744,11
5117380,29
5118012,54
5118636,46
5119268,25
5119896,15
5120524,15
5121152,14
5121768,15
5122396,27
5123020,38
5123644,27
5124272,19
5124888,16
5125516,31
5126140,61
5126768,31
5127396,24
5128020,30
5128648,35
5129276,20
5129896,26
5130524,53
5131148,31
5131780,35
5132408,31
5133024,12
5133656,15
5134280,11
5134900,13
5135532,16
5136152,15
5136780,15
5137404,16
5138032,15
5138660,12
5139284,11
5139916,12
5140544,13
5141160,12
5141792,12
5142416,24
5143044,29
5143672,28
5144296,15
5144924,15
5145548,19
5146176,24
5146804,22
5147424,30
5148052,11
5148684,12
5149304,18
5149932,27
5150556,23
5151188,13
5151820,12
5152440,14
5153068,13
5153692,15
5154316,15
5154948,14
5155568,15
5156196,30
5156820,37
5157444,28
5158076,14
5158696,26
5159324,41
5159956,62
5160576,35
5161208,15
5161828,18
5162460,30
5163088,31
5163708,14
5164336,18
5164960,13
5165584,17
5166212,18
5166832,17
5167460,17
5168084,43
5168708,26
5169340,18
5169960,13
5170588,15
5171220,34
5171840,44
5172468,22
5173092,18
5173720,31
5174352,31
5174972,34
5175600,25
5176224,19
5176852,17
5177480,23
5178100,15
5178728,15
5179352,16
5179976,21
5180608,23
5181224,23
5181856,16
5182484,12
5183104,46
5183736,41
5184360,26
5184988,35
5185620,43
5186240,41
5186868,37
5187492,21
5188116,15
5188748,10
5189368,15
5189996,11
5190624,12
5191248,12
5191876,15
5192496,18
5193124,16
5193756,25
5194376,33
5195008,20
5195632,23
5196264,23
5196892,14
5197512,15
5198144,22
5198768,29
5199392,27
5200020,13
5200640,51
5201268,73
5201892,48
5202516,27
5203148,60
5203768,70
5204396,39
5205028,20
5205648,58
5206276,109
5206952,88
5207576,28
5208204,16
5208824,31
5209452,35
5210080,33
5210704,27
5211332,20
5211952,14
5212584,15
5213212,15
5213832,14
5214464,36
5215088,45
5215716,33
5216348,10
5216968,15
5217596,14
5218224,12
5218848,13
5219476,16
5220096,21
5220724,17
5221352,15
5221976,17
5222608,15
5223224,26
5223852,43
5224484,34
5225104,29
5225732,12
5226356,32
5226988,23
5227620,16
5228240,17
5228868,19
5229492,17
5230116,14
5230748,12
5231368,14
5231996,14
5232624,13
5233248,22
5233876,23
5234504,11
5235136,12
5235768,13
5236384,44
5237016,26
5237640,15
5238268,15
5238900,14
5239520,19
5240152,39
5240776,35
5241400,12
5242032,17
5242648,28
5243280,35
5243904,24
5244528,21
5245156,14
5245780,15
5246408,16
5247040,11
5247656,11
5248288,11
5248908,15
5249536,11
5250164,11
5250784,20
5251412,31
5252036,34
5252656,27
5253288,16
5253904,20
5254532,22
5255156,17
5255780,12
5256408,25
5257032,29
5257660,18
5258288,14
5258904,16
5259536,15
5260160,18
5260788,18
5261420,16
5262040,25
5262668,21
5263292,18
5263916,19
5264548,18
5265168,16
5265796,11
5266420,15
5267044,12
5267672,11
5268296,13
5268924,17
5269556,14
5270176,15
5270804,14
5271428,15
5272060,14
5272688,15
5273312,17
5273944,21
5274564,15
5275188,17
5275820,18
5276440,15
5277068,14
5277692,20
5278320,28
5278948,41
5279572,24
5280204,17
5280832,43
5281448,51
5282076,47
5282700,24
5283328,11
5283960,14
5284576,11
5285204,19
5285828,18
5286452,15
5287080,29
5287696,49
5288324,57
5288948,32
5289572,10
5290200,25
5290824,29
5291452,32
5292084,20
5292704,13
5293332,33
5293956,31
5294588,25
5295216,42
5295840,37
5296468,17
5297092,14
5297716,19
5298348,10
5298968,30
5299596,37
5300220,22
5300848,11
5301476,11
5302100,13
5302732,19
5303360,14
5303984,25
5304616,18
5305240,20
5305860,45
5306492,24
5307112,25
5307740,11
5308364,19
5308992,24
5309620,19
5310240,18
5310868,15
5311500,14
5312120,15
5312748,15
5313372,19
5314004,20
5314632,11
5315248,44
5315880,73
5316504,37
5317128,14
5317756,11
5318376,12
5319008,13
5319632,15
5320256,15
5320884,16
5321504,16
5322136,12
5322764,12
5323384,11
5324016,18
5324640,12
5325268,31
5325900,46
5326520,43
5327148,32
5327772,18
5328396,41
5329024,55
5329640,32
5330268,13
5330892,12
5331516,10
5332144,18
5332760,26
5333392,16
5334020,15
5334640,13
5335268,18
5335892,19
5336524,15
5337152,14
5337768,14
5338400,13
5339020,13
5339652,45
5340280,52
5340904,61
5341532,44
5342156,13
5342780,37
5343412,68
5344032,77
5344660,31
5345288,17
5345912,19
5346540,27
5347164,17
5347796,11
5348424,10
5349048,15
5349676,27
5350300,26
5350928,16
5351556,12
5352176,13
5352804,23
5353428,29
5354052,27
5354684,26
5355304,25
5355932,21
5356564,33
5357184,40
5357812,33
5358440,27
5359068,23
5359700,22
5360320,30
5360948,16
5361572,16
5362196,17
5362828,15
5363448,14
5364076,14
5364700,12
5365324,12
5365956,10
5366576,13
5367204,14
5367836,15
5368456,13
5369084,14
5369708,14
5370340,14
5370968,22
5371588,29
5372216,22
5372840,27
5373464,33
5374096,20
5374712,13
5375344,34
5375968,47
5376592,52
5377224,29
5377840,19
5378468,15
5379096,14
5379720,15
5380348,11
5380972,22
5381604,30
5382232,28
5382848,15
5383480,11
5384104,11
5384728,11
5385356,13
5385976,15
5386604,19
5387228,18
5387852,16
5388480,24
5389104,37
5389732,29
5390364,10
5390984,13
5391612,19
5392236,12
5392868,12
5393496,19
5394120,15
5394748,15
5395372,18
5395996,32
5396628,30
5397248,30
5397876,38
5398500,41
5399124,28
5399756,11
5400376,19
5401004,21
5401636,17
5402256,15
5402884,17
5403508,25
5404140,26
5404768,15
5405392,19
5406024,12
5406648,12
5407272,11
5407900,19
5408520,26
5409148,29
5409772,14
5410396,13
5411024,22
5411648,21
5412276,15
5412908,19
5413528,27
5414156,26
5414780,23
5415412,47
5416044,42
5416664,30
5417292,15
5417916,11
5418540,13
5419172,16
5419792,17
5420424,17
5421048,15
5421672,13
5422300,11
5422924,11
5423556,11
5424188,12
5424808,11
5425436,17
5426060,32
5426692,29
5427324,26
5427944,23
5428572,26
5429196,28
5429820,43
5430448,28
5431064,12
5431696,26
5432324,33
5432944,41
5433572,55
5434200,25
5434828,29
5435460,21
5436080,15
5436708,16
5437336,17
5437960,17
5438588,15
5439208,12
5439840,10
5440464,11
5441084,14
5441716,12
5442336,19
5442964,19
5443592,16
5444216,18
5444844,20
5445468,17
5446096,15
5446728,13
5447344,23
5447972,25
5448596,10
5449220,11
5449852,18
5450472,17
5451100,12
5451724,25
5452348,19
5452980,14
5453600,16
5454228,15
5454856,14
5455480,13
5456108,13
5456732,21
5457364,22
5457992,12
5458608,11
5459240,14
5459860,11
5460484,16
5461116,18
5461736,28
5462368,16
5462992,27
5463616,27
5464244,10
5464864,11
5465492,20
5466124,12
5466744,16
5467372,23
5468000,14
5468628,12
5469260,16
5469880,17
5470508,25
5471136,37
5471760,13
5472388,12
5473008,15
5473636,15
5474260,11
5474884,13
5475516,12
5476136,12
5476764,12
5477396,16
5478016,26
5478648,23
5479268,16
5479900,27
5480528,19
5481152,25
5481780,45
5482404,39
5483028,19
5483660,12
5484280,17
5484908,24
5485532,18
5486156,13
5486788,14
5487408,15
5488036,25
5488668,27
5489288,19
5489916,11
5490540,26
5491172,36
5491804,15
5492424,22
5493052,16
5493676,16
5494304,43
5494932,33
5495552,18
5496184,16
5496808,34
5497432,26
5498060,16
5498680,14
5499312,11
5499940,11
5500560,13
5501192,12
5501816,12
5502448,15
5503076,16
5503696,16
5504328,24
5504952,23
5505576,11
5506208,11
5506824,11
5507452,27
5508076,37
5508704,21
5509332,12
5509956,12
5510588,24
5511220,34
5511840,31
5512468,21
5513096,15
5513724,26
5514356,42
5514976,18
5515608,12
5516232,15
5516856,19
5517484,18
5518104,31
5518736,19
5519364,16
5519984,19
5520616,16
5521240,27
5521868,19
5522500,40
5523120,51
5523752,29
5524376,13
5525000,19
5525632,27
5526248,15
5526880,15
5527504,28
5528128,23
5528760,14
5529376,23
5530008,45
5530636,31
5531256,15
5531884,16
5532508,24
5533140,27
5533768,56
5534392,47
5535024,13
5535648,14
5536272,16
5536900,14
5537520,17
5538148,14
5538772,17
5539400,25
5540028,10
5540648,11
5541276,16
5541908,18
5542528,27
5543156,29
5543780,14
5544412,19
5545044,16
5545664,17
5546292,19
5546916,20
5547544,15
5548172,12
5548792,15
5549424,16
5550048,24
5550672,12
5551304,12
5551920,11
5552552,15
5553184,15
5553800,14
5554432,15
5555056,11
5555688,12
5556316,11
5556936,23
5557568,15
5558192,20
5558816,23
5559448,16
5560064,12
5560696,17
5561320,19
5561944,15
5562572,34
5563192,41
5563824,23
5564456,11
5565072,12
5565704,25
5566332,42
5566964,46
5567592,54
5568216,39
5568848,33
5569472,22
5570096,16
5570728,22
5571344,23
5571972,13
5572596,12
5573224,11
5573852,12
5574476,15
5575108,29
5575736,38
5576360,33
5576988,26
5577612,39
5578244,35
5578872,37
5579496,37
5580128,30
5580752,25
5581376,61
5582008,72
5582628,38
5583256,16
5583888,11
5584504,12
5585132,11
5585760,20
5586388,14
5587020,14
5587640,17
5588268,12
5588896,10
5589516,11
5590148,10
5590768,11
5591400,17
5592024,19
5592648,12
5593276,11
5593896,17
5594528,34
5595160,39
5595776,23
5596408,25
5597032,25
5597664,49
5598292,40
5598912,25
5599544,17
5600168,14
5600792,10
5601420,11
5602040,13
5602668,17
5603292,38
5603916,33
5604548,14
5605168,38
5605796,39
5606428,19
5607048,12
5607676,11
5608300,24
5608932,17
5609564,11
5610184,13
5610816,14
5611440,15
5612064,16
5612692,24
5613312,13
5613940,20
5614568,37
5615192,19
5615820,17
5616440,11
5617068,16
5617700,19
5618320,13
5618948,29
5619576,19
5620204,15
5620836,26
5621456,34
5622088,23
5622708,11
5623336,23
5623964,22
5624584,12
5625216,17
5625840,15
5626464,21
5627096,15
5627720,17
5628348,18
5628980,14
5629600,15
5630232,17
5630856,20
5631488,19
5632120,14
5632736,10
5633364,11
5633988,12
5634612,11
5635240,16
5635856,14
5636488,16
5637112,19
5637736,17
5638364,20
5638988,14
5639620,15
5640248,12
5640872,13
5641500,24
5642124,12
5642756,13
5643384,12
5644008,18
5644636,15
5645260,19
5645884,16
5646516,14
5647136,14
5647768,35
5648396,36
5649016,50
5649644,37
5650268,13
5650900,18
5651532,32
5652152,43
5652784,37
5653408,34
5654032,30
5654660,14
5655280,36
5655908,65
5656532,50
5657160,33
5657788,16
5658408,37
5659036,35
5659668,35
5660288,25
5660916,22
5661540,33
5662172,29
5662800,26
5663424,32
5664052,19
5664676,13
5665300,10
5665928,11
5666552,10
5667184,11
5667808,11
5668432,12
5669060,14
5669680,17
5670308,15
5670940,14
5671560,13
5672192,14
5672816,13
5673444,11
5674076,14
5674696,11
5675328,14
5675952,29
5676576,12
5677208,17
5677824,15
5678456,17
5679080,16
5679704,12
5680336,12
5680952,18
5681580,15
5682212,19
5682832,15
5683464,35
5684088,27
5684716,26
5685348,18
5685968,20
5686596,23
5687224,18
5687848,15
5688476,14
5689096,17
5689728,18
5690348,19
5690976,13
5691604,15
5692228,12
5692860,16
5693492,16
5694112,15
5694744,15
5695368,15
5695996,15
5696628,11
5697248,11
5697876,17
5698500,25
5699128,29
5699756,10
5700376,12
5701008,11
5701636,10
5702256,15
5702888,15
5703512,15
5704144,15
5704772,23
5705392,24
5706024,13
5706648,14
5707272,17
5707904,11
5708520,14
5709152,21
5709776,24
5710404,15
5711032,29
5711652,29
5712284,15
5712916,13
5713536,11
5714168,15
5714792,38
5715424,37
5716052,16
5716672,18
5717304,39
5717928,62
5718552,84
5719184,38
5719804,19
5720432,14
5721060,20
5721684,29
5722316,40
5722936,42
5723568,23
5724196,12
5724816,13
5725444,17
5726072,27
5726704,33
5727336,39
5727956,19
5728588,17
5729212,15
5729836,11
5730468,10
5731088,10
5731720,13
5732344,11
5732972,11
5733604,11
5734228,31
5734860,37
5735492,36
5736112,22
5736740,40
5737364,55
5737992,48
5738620,31
5739240,12
5739868,24
5740492,26
5741116,23
5741748,22
5742368,13
5742996,41
5743628,20
5744248,17
5744876,15
5745500,15
5746132,15
5746764,18
5747384,26
5748012,31
5748636,31
5749260,13
5749892,27
5750512,33
5751144,27
5751768,18
5752392,15
5753024,15
5753640,18
5754272,31
5754904,22
5755520,11
5756148,27
5756776,45
5757408,17
5758036,13
5758656,15
5759288,25
5759912,15
5760536,17
5761168,28
5761784,20
5762412,16
5763036,13
5763660,19
5764288,13
5764908,12
5765536,17
5766164,10
5766784,19
5767412,26
5768036,27
5768664,22
5769296,15
5769912,15
5770540,19
5771164,42
5771788,33
5772420,12
5773040,16
5773668,29
5774292,25
5774916,24
5775548,19
5776168,18
5776796,11
5777424,22
5778048,22
5778676,16
5779300,35
5779932,13
5780560,15
5781176,22
5781808,28
5782432,32
5783056,31
5783684,28
5784304,18
5784936,14
5785560,16
5786184,17
5786812,18
5787432,21
5788060,19
5788692,16
5789312,13
5789940,21
5790568,26
5791196,30
5791828,18
5792448,24
5793076,15
5793700,30
5794324,39
5794956,20
5795576,18
5796208,25
5796828,31
5797452,18
5798084,10
5798704,14
5799332,11
5799964,17
5800584,13
5801212,11
5801836,13
5802468,13
5803096,23
5803720,25
5804348,21
5804976,17
5805600,40
5806228,42
5806848,26
5807476,11
5808104,17
5808724,18
5809356,15
5809976,13
5810604,14
5811236,14
5811856,16
5812484,15
5813108,16
5813740,17
5814372,20
5814992,20
5815624,12
5816248,12
5816872,15
5817500,11
5818120,20
5818748,32
5819376,22
5820000,15
5820628,29
5821252,32
5821884,21
5822516,26
5823136,49
5823768,32
5824392,14
5825020,24
5825652,44
5826272,49
5826904,27
5827528,16
5828152,31
5828780,21
5829400,35
5830032,14
5830660,20
5831280,35
5831912,24
5832536,22
5833168,16
5833796,12
5834416,20
5835044,17
5835672,14
5836296,15
5836928,15
5837544,16
5838172,17
5838796,20
5839424,18
5840052,14
5840672,11
5841300,11
5841932,12
5842552,14
5843180,13
5843808,17
5844436,32
5845068,28
5845688,32
5846320,14
5846944,11
5847568,12
5848200,10
5848816,11
5849444,17
5850072,18
5850696,21
5851324,19
5851944,21
5852576,15
5853204,43
5853824,40
5854456,15
5855080,25
5855712,47
5856340,55
5856960,21
5857588,16
5858216,33
5858840,30
5859468,21
5860088,17
5860716,16
5861344,27
5861968,28
5862600,16
5863216,18
5863844,43
5864476,44
5865096,27
5865724,15
5866352,35
5866980,51
5867612,27
5868232,15
5868864,21
5869484,30
5870112,37
5870740,26
5871360,20
5871992,17
5872616,13
5873240,15
5873872,18
5874488,16
5875120,25
5875752,22
5876372,14
5877004,20
5877628,31
5878260,32
5878892,24
5879512,19
5880144,27
5880768,29
5881392,25
5882024,11
5882644,11
5883272,12
5883900,18
5884524,21
5885156,48
5885780,49
5886412,39
5887044,18
5887664,17
5888296,48
5888920,85
5889544,52
5890176,25
5890796,17
5891424,31
5892048,30
5892672,22
5893304,13
5893924,15
5894552,15
5895184,14
5895804,15
5896432,14
5897060,11
5897688,12
5898320,13
5898936,18
5899568,25
5900192,22
5900816,17
5901444,15
5902064,15
5902692,14
5903316,15
5903944,17
5904572,26
5905192,35
5905824,30
5906452,20
5907072,13
5907704,12
5908328,11
5908956,21
5909588,12
5910208,30
5910840,29
5911464,19
5912088,16
5912716,18
5913336,25
5913968,20
5914592,11
5915216,15
5915844,10
5916464,54
5917096,83
5917724,78
5918344,40
5918976,22
5919600,16
5920232,25
5920860,20
5921480,20
5922108,15
5922732,16
5923356,15
5923988,18
5924608,28
5925236,36
5925864,24
5926488,12
5927116,14
5927736,17
5928364,20
5928996,26
5929616,16
5930244,15
5930868,16
5931500,17
5932132,32
5932752,50
5933384,47
5934008,25
5934632,15
5935264,31
5935884,29
5936512,26
5937140,25
5937764,16
5938396,21
5939020,25
5939652,29
5940284,27
5940904,21
5941532,27
5942156,12
5942788,12
5943416,15
5944040,15
5944668,18
5945292,15
5945916,25
5946548,32
5947168,27
5947800,11
5948428,10
5949048,13
5949680,14
5950300,19
5950932,24
5951564,16
5952184,14
5952812,15
5953436,17
5954060,15
5954692,26
5955312,16
5955940,28
5956568,29
5957192,13
5957820,13
5958440,12
5959068,15
5959700,26
5960320,16
5960948,15
5961572,17
5962204,15
5962836,10
5963456,15
5964088,23
5964712,37
5965336,35
5965968,35
5966584,32
5967212,20
5967840,13
5968464,15
5969092,20
5969712,18
5970344,20
5970972,28
5971592,26
5972224,29
5972848,15
5973476,16
5974108,18
5974728,15
5975360,13
5975984,12
5976608,14
5977240,14
5977856,33
5978488,39
5979112,17
5979740,23
5980372,36
5980996,40
5981624,46
5982256,30
5982876,12
5983508,14
5984132,17
5984760,22
5985392,15
5986012,16
5986640,17
5987264,15
5987888,14
5988516,14
5989136,25
5989768,31
5990392,41
5991016,38
5991648,25
5992272,12
5992904,12
5993536,14
5994152,24
5994784,21
5995408,18
5996040,21
5996668,14
5997288,29
5997920,70
5998544,74
5999168,69
5999800,44
6000420,30
6001052,12
6001680,14
6002300,16
6002928,19
6003556,14
6004184,15
6004812,14
6005432,14
6006064,13
6006688,14
6007312,27
6007944,19
6008560,16
6009192,24
6009816,45
6010440,36
6011072,19
6011688,16
6012320,19
6012952,18
6013568,11
6014200,11
6014824,12
6015456,13
6016088,14
6016704,11
6017332,10
6017956,13
6018584,17
6019212,22
6019832,16
6020464,17
6021088,11
6021712,19
6022344,15
6022960,29
6023592,46
6024224,48
6024840,28
6025468,13
6026096,12
6026724,20
6027356,28
6027976,32
6028608,31
6029232,21
6029856,20
6030488,12
6031104,17
6031736,23
6032360,13
6032984,12
6033612,16
6034232,21
6034864,16
6035496,18
6036112,19
6036744,14
6037372,19
6038004,20
6038636,30
6039256,25
6039888,15
6040512,10
6041140,14
6041772,16
6042392,23
6043020,43
6043652,20
6044272,21
6044900,25
6045528,26
6046156,46
6046788,27
6047408,19
6048040,15
6048660,14
6049288,29
6049916,14
6050536,19
6051168,16
6051792,25
6052416,16
6053048,20
6053668,19
6054300,30
6054932,16
6055552,12
6056184,13
6056808,11
6057440,20
6058068,54
6058688,60
6059320,38
6059944,16
6060572,22
6061204,42
6061824,47
6062456,27
6063080,15
6063704,13
6064336,12
6064952,13
6065584,28
6066212,35
6066832,14
6067464,20
6068088,34
6068716,19
6069348,17
6069968,27
6070600,16
6071224,19
6071848,30
6072480,36
6073096,25
6073728,14
6074352,13
6074976,17
6075608,28
6076232,19
6076864,21
6077492,18
6078112,20
6078744,23
6079368,11
6080000,11
6080628,16
6081248,11
6081876,14
6082504,11
6083128,20
6083756,18
6084376,15
6085004,41
6085632,26
6086256,16
6086888,17
6087512,21
6088144,28
6088772,12
6089392,19
6090024,13
6090648,27
6091272,35
6091904,33
6092524,25
6093152,21
6093780,35
6094404,23
6095032,16
6095652,20
6096284,11
6096912,20
6097536,25
6098168,43
6098792,27
6099424,11
6100052,16
6100672,18
6101304,15
6101928,15
6102552,29
6103184,25
6103804,14
6104432,11
6105056,11
6105684,11
6106312,19
6106932,12
6107564,11
6108192,22
6108816,27
6109444,20
6110072,19
6110704,17
6111336,38
6111956,64
6112588,53
6113212,39
6113840,29
6114468,14
6115088,12
6115720,11
6116344,11
6116968,15
6117600,21
6118224,21
6118856,14
6119488,15
6120104,18
6120736,19
6121364,17
6121992,14
6122624,22
6123244,20
6123872,22
6124500,19
6125124,12
6125756,10
6126376,11
6127008,14
6127640,15
6128260,19
6128892,18
6129516,23
6130148,19
6130780,12
6131400,22
6132032,39
6132656,39
6133284,28
6133916,10
6134536,21
6135168,20
6135796,15
6136420,14
6137052,17
6137680,47
6138312,79
6138944,74
6139564,59
6140196,48
6140820,21
6141448,11
6142080,15
6142700,19
6143332,18
6143960,15
6144588,15
6145216,20
6145832,14
6146464,11
6147092,10
6147712,11
6148340,13
6148964,11
6149596,10
6150224,10
6150848,15
6151476,14
6152100,13
6152724,19
6153356,20
6153976,14
6154608,17
6155228,11
6155852,11
6156484,15
6157104,26
6157732,14
6158364,23
6158984,15
6159616,15
6160240,20
6160868,24
6161496,25
6162120,14
6162748,31
6163376,34
6164000,16
6164628,22
6165248,27
6165876,50
6166500,29
6167124,14
6167756,10
6168376,15
6169004,13
6169636,15
6170256,14
6170884,15
6171508,16
6172140,13
6172772,18
6173392,31
6174024,24
6174648,24
6175272,14
6175904,11
6176520,19
6177152,25
6177776,19
6178400,15
6179028,14
6179656,13
6180284,17
6180916,38
6181536,42
6182168,30
6182792,30
6183424,11
6184052,12
6184672,21
6185304,28
6185928,42
6186552,41
6187180,27
6187800,34
6188432,16
6189064,17
6189680,47
6190308,33
6190936,18
6191568,11
6192196,13
6192816,13
6193444,23
6194072,18
6194696,17
6195328,15
6195944,11
6196572,11
6197200,11
6197824,13
6198452,18
6199072,31
6199704,12
6200332,12
6200952,13
6201584,28
6202208,25
6202840,39
6203468,16
6204088,13
6204720,15
6205344,23
6205968,11
6206600,21
6207216,13
6207848,11
6208472,11
6209096,16
6209724,14
6210344,20
6210976,16
6211604,20
6212224,26
6212856,17
6213480,44
6214112,51
6214744,47
6215360,45
6215992,33
6216616,12
6217240,11
6217872,11
6218488,13
6219120,14
6219744,15
6220368,20
6221000,31
6221620,29
6222248,12
6222880,13
6223500,15
6224132,15
6224756,11
6225388,24
6226020,16
6226640,17
6227268,23
6227892,18
6228516,15
6229148,22
6229768,26
6230396,17
6231024,21
6231648,30
6232280,28
6232904,17
6233536,14
6234168,23
6234784,24
6235416,14
6236044,28
6236672,31
6237304,15
6237924,12
6238556,15
6239180,12
6239804,14
6240436,14
6241056,14
6241684,13
6242316,13
6242936,15
6243568,17
6244192,16
6244820,19
6245452,20
6246072,16
6246704,20
6247328,15
6247952,26
6248580,15
6249200,39
6249828,39
6250452,17
6251076,15
6251708,50
6252328,78
6252960,39
6253588,16
6254208,17
6254836,11
6255464,16
6256092,27
6256724,22
6257344,27
6257972,12
6258600,23
6259224,26
6259852,36
6260472,28
6261104,15
6261728,16
6262352,13
6262984,13
