tempo_arduino_micro_s,valor_ADC
500,15
1004,15
1504,18
2000,18
2508,20
3000,20
3508,18
4000,16
4508,17
5000,17
5500,14
6000,12
6500,10
7004,10
7500,10
8000,11
8500,15
9000,14
9500,14
10000,15
10516,15
11036,13
11564,11
12084,11
12612,10
13132,10
13660,12
14180,12
14708,13
15228,11
15756,10
16276,11
16796,16
17316,16
17836,15
18356,15
18876,15
19396,18
19916,19
20436,16
20956,13
21476,13
21996,14
22516,14
23036,11
23564,10
24084,12
24612,12
25132,15
25660,15
26180,19
26708,18
27228,15
27756,13
28276,10
28804,11
29324,10
29852,11
30372,11
30900,10
31420,11
31948,13
32472,17
32996,16
33516,17
34044,15
34564,16
35092,18
35612,16
36140,12
36660,10
37188,11
37708,14
38236,13
38760,12
39284,12
39804,12
40332,10
40852,10
41372,10
41892,15
42412,14
42932,14
43452,15
43972,16
44492,12
45012,10
45532,12
46052,10
46572,11
47092,14
47612,11
48140,11
48660,11
49188,11
49708,10
50236,15
50756,14
51284,15
51804,17
52332,20
52852,16
53380,13
53900,13
54428,14
54948,12
55476,11
55996,10
56524,11
57044,11
57572,10
58096,11
58620,14
59140,15
59668,16
60188,15
60716,15
61240,10
61764,10
62284,10
62812,10
63332,11
63860,12
64384,10
64908,15
65428,16
65948,16
66468,14
66988,14
67508,18
68028,22
68548,23
69068,23
69588,17
70108,12
70628,11
71148,10
71668,10
72192,10
72716,10
73236,11
73764,10
74284,10
74812,13
75332,14
75860,14
76384,14
76908,15
77428,15
77956,11
78476,11
79004,11
79528,11
80052,11
80572,10
81100,10
81620,11
82148,11
82668,11
83196,14
83720,16
84244,17
84764,17
85292,18
85812,20
86340,14
86860,10
87388,10
87908,10
88436,10
88956,10
89484,11
90004,12
90524,13
91044,11
91564,15
92084,14
92604,14
93124,15
93644,15
94164,15
94684,13
95204,14
95724,12
96248,10
96764,10
97292,11
97812,13
98340,14
98860,16
99388,13
99908,15
100436,15
101000,15
101584,16
102156,16
102736,16
103304,17
103880,16
104456,14
105024,12
105600,18
106168,23
106744,17
107312,13
107896,11
108464,15
109040,15
109624,15
110192,15
110768,17
111336,13
111920,11
112492,12
113072,10
113640,11
114216,9
114740,13
115312,18
115896,18
116464,18
117048,15
117616,19
118200,21
118768,19
119344,18
119928,17
120500,19
121080,17
121648,13
122232,12
122804,13
123376,11
123960,11
124528,13
125112,16
125684,15
126264,15
126832,15
127416,16
127988,13
128564,11
129144,11
129712,9
130236,10
130808,11
131392,12
131960,12
132544,11
133112,14
133692,15
134272,16
134840,17
135424,18
135992,14
136576,12
137144,14
137720,14
138304,13
138872,11
139456,11
140024,11
140608,11
141180,12
141760,16
142328,15
142904,15
143488,16
144056,16
144640,12
145208,11
145784,11
146352,11
146928,11
147512,11
148080,13
148664,13
149232,11
149816,14
150384,16
150968,17
151540,17
152116,16
152696,14
153268,15
153848,16
154416,16
155000,15
155568,16
156144,15
156728,11
157300,11
157880,11
158448,15
159032,14
159604,15
160184,15
160752,15
161320,11
161904,13
162472,12
163056,11
163624,15
164208,17
164776,21
165344,17
165928,11
166496,15
167072,18
167640,15
168216,16
168784,17
169360,21
169928,19
170496,23
171072,21
171640,11
172224,12
172792,15
173376,12
173944,11
174528,11
175096,16
175672,16
176256,15
176824,16
177408,15
177976,11
178560,10
179128,11
179708,14
180288,19
180856,14
181440,12
182008,11
182592,12
183160,19
183744,23
184316,25
184892,18
185472,19
186040,18
186624,15
187192,15
187776,12
188348,10
188920,10
189504,11
190072,11
190656,11
191228,11
191808,13
192380,15
192960,17
193528,17
194096,15
194680,11
195248,11
195832,13
196404,13
196984,13
197552,10
198132,11
198712,10
199284,11
199864,16
200432,16
201016,16
201584,18
202168,16
202740,11
203316,11
203896,14
204468,20
205048,17
205616,13
206192,11
206760,11
207328,11
207904,13
208472,16
209056,15
209624,15
210200,16
210768,14
211352,10
211920,11
212496,12
213080,11
213648,11
214232,10
214804,11
215384,12
215952,17
216532,15
217112,16
217684,17
218264,19
218832,19
219416,15
219984,13
220568,11
221136,15
221712,16
222296,14
222868,11
223448,10
224020,11
224600,12
225168,14
225748,16
226328,16
226896,15
227480,14
228048,11
228632,10
229204,11
229784,10
230352,11
230932,11
231512,18
232084,18
232664,15
233232,16
233816,17
234384,16
234964,16
235544,15
236112,18
236696,21
237268,20
237848,17
238420,15
239000,13
239572,11
240148,10
240728,13
241296,15
241880,15
242452,16
243032,15
243604,14
244176,13
244760,11
245332,11
245912,11
246480,14
247064,12
247632,11
248216,11
248784,12
249360,14
249944,16
250512,15
251096,16
251668,18
252248,21
252816,22
253392,19
253976,15
254548,14
255128,12
255700,10
256280,11
256856,9
257380,12
257952,11
258520,14
259104,15
259672,16
260256,15
260824,13
261408,11
261976,11
262560,11
263128,10
263696,10
264280,11
264848,14
265432,14
266004,11
266584,15
267152,16
267728,18
268304,25
268872,25
269456,19
270024,12
270608,9
271124,10
271704,11
272272,10
272848,11
273432,13
274004,11
274584,11
275152,15
275736,15
276308,15
276888,16
277456,20
278032,22
278616,19
279184,13
279768,11
280340,11
280920,12
281492,12
282068,13
282648,12
283216,15
283800,15
284372,15
284952,15
285524,15
286104,13
286676,18
287252,15
287832,13
288404,11
288984,10
289552,10
290136,10
290704,12
291280,16
291864,15
292432,15
293016,15
293588,15
294168,16
294740,17
295320,13
295892,11
296468,14
297048,12
297616,11
298200,11
298772,12
299352,12
299924,16
300500,18
301080,17
301652,17
302232,19
302804,13
303384,12
303956,11
304536,12
305116,11
305692,11
306272,14
306844,14
307424,15
308000,15
308584,13
309152,15
309732,15
310312,16
310884,12
311464,10
312036,10
312616,11
313188,11
313768,11
314336,12
314916,12
315496,12
316068,12
316648,16
317220,15
317800,16
318380,21
318956,26
319536,17
320108,12
320688,14
321256,11
321832,10
322400,11
322984,10
323552,11
324128,13
324712,15
325284,14
325864,14
326432,16
327016,15
327588,12
328164,11
328744,11
329312,11
329896,11
330464,11
331048,12
331616,11
332200,11
332768,11
333348,15
333928,15
334496,15
335080,15
335648,18
336232,21
336800,21
337376,17
337952,13
338520,11
339104,11
339676,10
340256,11
340824,11
341408,14
341976,14
342556,16
343136,16
343704,15
344288,11
344856,11
345440,10
346012,10
346584,11
347168,13
347740,15
348320,11
348888,11
349472,11
350040,15
350624,16
351196,18
351772,20
352352,23
352920,24
353504,18
354076,12
354656,9
355176,10
355752,11
356332,11
356908,11
357488,10
358060,15
358640,15
359216,15
359800,14
360368,15
360944,11
361528,11
362096,11
362680,11
363248,11
363832,11
364404,12
364984,13
365552,14
366132,15
366712,18
367284,17
367864,17
368436,16
369016,13
369584,11
370164,13
370744,14
371316,14
371896,14
372464,10
373048,11
373620,11
374200,9
374720,14
375288,15
375872,15
376444,15
377024,16
377596,13
378176,12
378756,11
379336,11
379920,10
380492,10
381072,11
381644,11
382224,11
382796,12
383376,18
383956,16
384532,15
385112,17
385684,15
386264,11
386836,11
387416,17
387988,18
388564,17
389144,18
389712,11
390296,10
390868,11
391448,14
392020,15
392600,15
393172,15
393748,16
394328,14
394896,14
395480,11
396052,10
396632,11
397204,11
397780,11
398360,12
398932,12
399512,12
400084,16
400664,17
401232,18
401816,17
402388,15
402964,14
403544,14
404116,14
404696,9
405216,10
405792,10
406364,11
406944,12
407516,11
408092,15
408672,15
409244,15
409824,16
410400,16
410976,11
411544,9
412060,11
412632,11
413208,11
413792,11
414360,13
414944,13
415512,12
416096,12
416664,14
417232,15
417808,16
418376,17
418960,14
419528,13
420112,14
420680,15
421264,16
421832,17
422412,14
422992,13
423560,11
424144,9
424660,14
425240,15
425808,16
426392,17
426964,18
427536,14
428120,11
428688,11
429272,10
429844,11
430424,11
430992,11
431572,11
432152,11
432720,11
433304,20
433872,22
434456,25
435028,24
435608,20
436176,15
436752,14
437336,14
437908,11
438488,11
439056,11
439640,9
440160,10
440736,10
441304,15
441884,15
442464,14
443036,15
443616,15
444184,12
444768,11
445340,12
445916,11
446496,11
447068,11
447648,11
448220,11
448800,11
449368,14
449952,15
450524,15
451100,15
451680,16
452248,15
452832,17
453400,20
453984,22
454556,16
455128,12
455712,14
456284,14
456864,16
457436,13
458016,16
458596,14
459176,15
459748,15
460324,15
460904,11
461472,12
462056,10
462628,11
463208,12
463780,14
464356,16
464936,17
465508,14
466088,12
466656,17
467240,17
467808,18
468392,16
468964,13
469536,14
470120,15
470692,20
471272,18
471852,12
472432,10
473004,11
473580,11
474160,13
474732,17
475312,15
475884,15
476464,16
477044,15
477624,9
478144,11
478716,11
479296,11
479872,11
480448,11
481020,12
481600,11
482168,12
482752,11
483324,16
483900,18
484480,18
485048,17
485632,13
486204,13
486784,14
487364,12
487936,14
488520,12
489088,12
489672,11
490244,11
490824,11
491396,15
491976,16
492560,15
493132,15
493712,15
494284,11
494864,9
495384,11
495960,11
496532,10
497108,10
497688,11
498256,11
498840,11
499412,11
499992,16
500564,14
501144,15
501716,15
502292,12
502872,11
503444,11
504024,13
504592,11
505176,11
505748,11
506324,11
506904,10
507476,10
508056,15
508628,14
509208,16
509788,15
510368,15
510940,11
511516,11
512100,11
512668,10
513248,10
513816,11
514400,11
514968,11
515544,11
516128,14
516696,16
517280,15
517848,16
518432,15
519000,12
519584,12
520156,11
520728,10
521312,10
521884,11
522464,11
523032,19
523616,12
524184,12
524760,19
525344,20
525912,17
526496,15
527064,15
527648,12
528220,11
528800,13
529368,16
529944,18
530528,11
531100,10
531680,13
532260,14
532840,16
533408,18
533988,21
534568,19
535136,17
535720,12
536292,15
536872,13
537444,13
538024,9
538540,10
539116,12
539696,10
540268,11
540848,11
541416,15
542000,13
542572,14
543152,15
543724,15
544300,11
544880,10
545448,11
546032,11
546604,13
547184,11
547756,11
548332,10
548912,11
549484,14
550064,16
550636,15
551216,16
551788,18
552368,15
552940,14
553516,15
554096,14
554668,12
555248,11
555820,10
556400,10
556980,10
557556,11
558136,15
558708,15
559288,15
559860,15
560440,15
561020,10
561600,9
562120,11
562692,10
563272,11
563840,11
564424,11
564992,11
565576,11
566148,15
566728,15
567304,15
567876,15
568456,15
569028,13
569608,12
570176,15
570760,15
571340,13
571916,15
572496,15
573068,12
573648,11
574224,11
574808,13
575380,14
575956,15
576536,15
577108,14
577688,11
578256,11
578840,11
579408,10
579992,10
580564,11
581140,11
581720,11
582292,12
582872,18
583452,17
584032,15
584600,16
585180,15
585760,11
586332,11
586912,11
587484,12
588064,11
588644,11
589224,11
589804,13
590380,15
590960,19
591532,18
592112,15
592692,15
593272,15
593844,13
594420,11
595000,11
595572,11
596152,11
596724,11
597304,10
597876,11
598456,11
599036,11
599612,15
600192,15
600764,16
601344,15
601924,17
602504,13
603076,14
603652,15
604232,16
604804,12
605384,11
605956,13
606536,12
607116,11
607696,13
608280,13
608852,15
609432,15
610004,14
610584,12
611156,10
611740,11
612316,10
612892,10
613472,11
614048,12
614628,11
615200,11
615784,11
616356,15
616928,16
617512,16
618084,18
618664,17
619236,13
619816,11
620388,10
620968,9
621488,10
622060,11
622640,13
623212,15
623792,13
624364,12
624944,13
625516,15
626096,16
626676,15
627252,12
627832,10
628404,11
628984,11
629556,10
630136,12
630716,17
631292,16
631872,12
632448,11
633024,15
633596,15
634180,15
634756,15
635336,16
635920,11
636492,11
637072,11
637644,10
638224,13
638804,11
639384,12
639964,15
640540,17
641120,19
641688,19
642272,16
642840,17
643424,16
643992,14
644572,11
645152,11
645720,10
646304,10
646876,10
647456,11
648028,11
648608,11
649176,11
649756,15
650336,15
650908,15
651488,17
652060,16
652640,12
653212,18
653788,19
654368,15
654940,12
655520,13
656088,11
656672,10
657240,11
657824,13
658392,15
658972,15
659552,15
660120,15
660704,11
661272,11
661856,13
662424,11
663000,11
663584,12
664156,14
664736,11
665308,10
665888,12
666456,19
667040,17
667608,16
668184,18
668768,16
669340,11
669920,9
670440,11
671016,13
671588,13
672168,11
672736,13
673312,10
673896,13
674468,15
675048,14
675620,15
676200,16
676768,15
677348,13
677928,11
678496,11
679080,14
679648,10
680232,11
680800,11
681384,11
681956,11
682528,11
683112,15
683684,15
684264,15
684836,16
685416,16
685988,15
686564,15
687144,15
687716,13
688296,11
688864,11
689448,10
690020,11
690600,10
691172,15
691748,14
692328,14
692900,15
693480,14
694052,11
694632,11
695204,11
695780,11
696360,11
696932,10
697512,11
698084,10
698664,11
699236,12
699816,15
700388,15
700964,16
701544,15
702116,13
702696,9
703216,11
703792,14
704372,17
704952,16
705524,17
706100,14
706680,12
707248,11
707832,13
708404,14
708984,13
709556,15
710132,15
710712,10
711284,10
711864,11
712436,11
713016,9
713536,10
714112,11
714692,11
715268,12
715848,12
716420,17
717000,17
717572,15
718152,17
718724,19
719304,19
719880,18
720452,15
721032,13
721604,10
722184,9
722704,10
723280,11
723848,11
724432,15
725008,15
725580,15
726160,15
726732,15
727312,11
727884,11
728464,11
729036,11
729612,11
730192,11
730764,12
731344,11
731916,11
732496,13
733076,16
733652,14
734232,15
734804,15
735384,18
735956,20
736540,19
737116,18
737696,12
738272,11
738852,11
739432,11
740004,10
740584,10
741156,16
741736,14
742308,15
742884,16
743464,16
744036,10
744616,10
745188,11
745768,9
746288,10
746864,11
747436,12
748012,12
748592,14
749164,12
749744,15
750316,18
750896,22
751476,18
752056,13
752636,11
753212,12
753792,12
754364,12
754944,15
755524,13
756104,13
756676,11
757252,11
757832,15
758404,14
758984,15
759556,15
760136,19
760716,15
761296,11
761880,11
762452,11
763032,10
763604,11
764184,12
764764,11
765344,11
765924,13
766500,15
767080,15
767656,17
768236,17
768808,15
769392,15
769964,16
770540,14
771120,11
771692,11
772272,10
772844,12
773424,11
773996,13
774576,15
775156,15
775732,17
776312,15
776884,15
777464,12
778036,13
778616,14
779196,15
779772,15
780352,11
780924,11
781504,12
782076,14
782656,19
783236,16
783816,16
784400,15
784972,15
785552,16
786124,15
786704,13
787276,12
787856,9
788376,11
788948,11
789528,11
790100,12
790680,12
791252,14
791832,15
792412,15
792992,15
793564,15
794140,11
794720,12
795292,13
795872,12
796452,10
797032,11
797612,11
798188,11
798768,12
799340,15
799920,15
800496,15
801072,17
801644,19
802224,17
802796,13
803372,13
803952,13
804524,14
805104,12
805676,12
806256,11
806828,11
807400,11
807984,14
808556,15
809136,15
809708,15
810288,15
810860,11
811440,11
812020,11
812596,10
813176,12
813748,14
814328,16
814908,13
815488,12
816068,16
816644,15
817224,14
817796,15
818376,15
818952,13
819532,16
820104,16
820680,13
821256,11
821824,10
822408,11
822976,9
823500,12
824072,11
824656,13
825224,14
825808,14
826384,16
826952,14
827536,13
828104,11
828688,10
829260,11
829840,11
830408,11
830984,11
831568,11
832140,16
832720,20
833288,22
833872,19
834440,17
835024,16
835600,13
836168,13
836752,10
837324,12
837904,13
838476,12
839056,12
839624,10
840204,10
840784,11
841352,14
841936,14
842504,15
843088,15
843660,13
844240,9
844760,10
845332,11
845912,11
846484,11
847064,12
847636,12
848216,11
848784,12
849360,15
849944,16
850512,17
851096,17
851668,16
852248,11
852820,11
853400,13
853972,14
854548,12
855128,13
855700,11
856280,9
856800,10
857376,13
857948,14
858528,14
859100,15
859676,15
860256,13
860824,11
861408,10
861980,11
862560,11
863132,11
863708,10
864288,11
864856,11
865440,11
866008,16
866592,16
867164,18
867744,18
868324,17
868900,12
869480,11
870052,11
870632,11
871208,11
871792,12
872364,13
872936,14
873520,12
874092,11
874672,14
875244,15
875824,15
876396,15
876976,14
877556,14
878132,17
878712,15
879284,11
879864,11
880444,15
881024,13
881592,14
882172,12
882752,15
883324,15
883904,15
884476,15
885056,16
885628,22
886208,22
886780,19
887356,18
887936,13
888508,10
889088,10
889660,14
890240,13
890812,14
891388,13
891968,14
892540,15
893120,18
893692,16
894272,13
894844,11
895424,11
896012,11
896580,10
897160,12
897732,14
898312,12
898884,13
899464,15
900036,15
900612,15
901192,15
901760,18
902344,16
902916,14
903496,12
904068,12
904648,10
905224,10
905796,10
906376,11
906948,10
907528,15
908100,15
908680,16
909260,15
909836,15
910416,11
910988,11
911568,11
912148,11
912728,11
913300,15
913876,14
914456,11
915028,11
915608,11
916180,14
916760,16
917332,15
917912,18
918492,16
919068,14
919648,14
920220,15
920800,14
921380,12
921960,13
922536,12
923116,15
923696,15
924268,15
924848,15
925416,15
926000,15
926572,15
927152,13
927724,13
928300,11
928880,11
929448,11
930032,11
930604,14
931184,11
931756,11
932332,12
932912,15
933484,15
934064,15
934636,14
935216,13
935788,14
936368,18
936948,18
937524,19
938104,18
938676,14
939256,10
939836,10
940416,11
940996,15
941572,15
942152,15
942728,16
943304,15
943876,12
944456,11
945036,10
945616,11
946200,11
946772,11
947352,16
947924,12
948504,11
949076,13
949656,16
950236,17
950812,18
951392,20
951964,16
952548,15
953124,16
953704,15
954284,12
954860,11
955440,10
956016,10
956592,10
957168,11
957744,15
958324,15
958904,15
959484,15
960064,15
960640,14
961208,14
961792,11
962364,11
962944,14
963524,11
964100,12
964680,13
965252,13
965832,17
966404,19
966984,21
967556,20
968136,16
968720,14
969292,14
969872,17
970444,14
971024,12
971596,10
972176,10
972756,10
973332,11
973912,11
974484,14
975064,15
975636,15
976216,14
976796,14
977372,10
977952,10
978524,12
979104,12
979676,10
980256,11
980836,11
981416,11
981988,12
982564,14
983144,15
983716,16
984296,16
984868,17
985448,16
986020,15
986592,15
987176,16
987748,13
988328,11
988900,10
989480,10
990052,11
990632,11
991212,13
991788,15
992368,16
992940,17
993520,13
994092,12
994672,11
995244,10
995820,11
996400,10
996972,10
997552,11
998124,11
998704,11
999284,15
999864,15
1000436,15
1001056,19
1001684,19
1002304,16
1002936,18
1003564,12
1004184,11
1004812,11
1005432,11
1006064,11
1006692,10
1007312,13
1007940,14
1008564,16
1009188,15
1009816,15
1010440,15
1011068,11
1011692,11
1012316,11
1012944,12
1013568,14
1014196,12
1014828,10
1015448,12
1016076,15
1016700,16
1017328,19
1017960,17
1018576,13
1019208,13
1019832,13
1020456,15
1021084,15
1021704,14
1022332,11
1022960,11
1023584,11
1024216,15
1024836,15
1025464,15
1026088,14
1026708,15
1027336,11
1027956,11
1028584,11
1029212,10
1029828,12
1030456,13
1031080,12
1031700,11
1032328,12
1032948,15
1033580,15
1034200,16
1034824,16
1035452,16
1036072,15
1036700,13
1037328,11
1037944,11
1038572,14
1039196,13
1039824,12
1040452,12
1041068,15
1041696,15
1042320,17
1042948,15
1043576,11
1044192,11
1044820,11
1045440,10
1046064,11
1046692,10
1047312,11
1047940,11
1048560,11
1049184,16
1049812,18
1050436,17
1051064,17
1051692,14
1052312,13
1052940,14
1053560,15
1054192,15
1054820,11
1055440,11
1056068,11
1056688,11
1057308,12
1057936,14
1058560,15
1059188,15
1059812,15
1060436,11
1061064,11
1061680,11
1062308,10
1062940,10
1063560,11
1064188,12
1064812,11
1065440,11
1066068,14
1066688,16
1067316,17
1067936,16
1068560,15
1069188,18
1069808,21
1070436,21
1071060,14
1071680,11
1072312,10
1072928,11
1073556,11
1074184,14
1074808,16
1075436,15
1076060,15
1076688,16
1077316,10
1077936,11
1078564,10
1079184,10
1079812,11
1080444,11
1081060,12
1081692,11
1082312,14
1082936,19
1083564,18
1084184,21
1084812,18
1085432,14
1086056,11
1086688,11
1087312,13
1087940,12
1088572,10
1089188,11
1089820,10
1090440,10
1091072,15
1091700,14
1092320,16
1092948,15
1093572,11
1094196,12
1094824,11
1095440,11
1096072,13
1096692,13
1097316,11
1097944,11
1098568,12
1099196,15
1099828,16
1100448,15
1101076,15
1101700,15
1102332,14
1102960,16
1103576,15
1104208,15
1104832,12
1105452,12
1106084,10
1106704,11
1107332,15
1107956,13
1108580,16
1109208,15
1109832,15
1110460,11
1111088,10
1111712,11
1112340,11
1112964,11
1113592,10
1114224,11
1114844,11
1115472,11
1116096,14
1116720,15
1117348,15
1117968,15
1118596,17
1119224,24
1119848,27
1120476,19
1121100,13
1121732,10
1122360,10
1122976,10
1123608,11
1124228,15
1124860,15
1125488,15
1126108,15
1126736,14
1127356,10
1127980,11
1128612,10
1129232,11
1129860,11
1130484,10
1131104,12
1131736,12
1132360,15
1132988,18
1133616,15
1134232,15
1134864,17
1135488,14
1136116,11
1136748,12
1137368,13
1137996,11
1138620,10
1139244,11
1139872,10
1140488,12
1141116,14
1141740,16
1142364,15
1142996,15
1143620,12
1144248,11
1144880,11
1145496,11
1146128,12
1146752,14
1147384,11
1148012,10
1148632,12
1149260,16
1149884,17
1150508,15
1151136,14
1151760,14
1152392,14
1153012,16
1153636,16
1154264,15
1154888,13
1155516,11
1156144,10
1156760,10
1157392,14
1158012,15
1158644,15
1159272,15
1159888,17
1160520,14
1161140,12
1161764,11
1162392,13
1163016,13
1163644,11
1164268,11
1164892,11
1165520,12
1166136,16
1166764,15
1167396,14
1168016,16
1168644,11
1169264,12
1169896,17
1170524,16
1171144,15
1171772,14
1172396,11
1173020,13
1173652,10
1174272,16
1174900,15
1175524,16
1176148,15
1176780,11
1177400,11
1178032,11
1178660,10
1179280,12
1179908,11
1180532,11
1181160,11
1181792,11
1182408,15
1183036,16
1183660,17
1184284,15
1184916,15
1185536,13
1186164,13
1186788,11
1187412,13
1188044,12
1188664,11
1189292,13
1189920,13
1190540,12
1191168,15
1191792,15
1192420,15
1193052,14
1193672,13
1194300,12
1194924,11
1195548,11
1196180,10
1196800,11
1197428,11
1198052,12
1198676,15
1199308,18
1199928,19
1200560,17
1201188,14
1201808,14
1202436,16
1203060,17
1203692,15
1204320,11
1204936,12
1205568,12
1206192,14
1206816,18
1207444,19
1208064,15
1208692,15
1209316,15
1209940,14
1210568,11
1211192,13
1211820,13
1212452,10
1213072,9
1213652,11
1214280,12
1214908,11
1215540,12
1216160,16
1216788,16
1217412,15
1218040,17
1218672,19
1219288,17
1219916,17
1220540,17
1221164,12
1221792,10
1222416,11
1223044,10
1223668,11
1224292,15
1224924,15
1225548,15
1226176,15
1226808,11
1227428,10
1228056,10
1228680,11
1229312,13
1229940,10
1230560,11
1231188,10
1231812,11
1232436,15
1233064,15
1233680,16
1234308,15
1234932,14
1235556,11
1236184,14
1236808,12
1237436,11
1238064,10
1238688,11
1239316,10
1239940,12
1240572,16
1241200,15
1241816,15
1242444,15
1243068,16
1243692,11
1244320,12
1244936,15
1245564,11
1246188,16
1246812,17
1247440,14
1248064,11
1248692,12
1249320,16
1249944,18
1250572,17
1251192,17
1251824,15
1252452,16
1253072,20
1253700,13
1254324,12
1254952,14
1255580,11
1256200,11
1256828,11
1257452,15
1258076,15
1258704,15
1259328,15
1259960,13
1260588,10
1261208,11
1261836,11
1262460,10
1263092,11
1263720,11
1264340,11
1264968,14
1265592,15
1266216,16
1266844,16
1267464,19
1268092,17
1268716,12
1269340,10
1269972,11
1270596,14
1271224,16
1271856,16
1272472,12
1273104,12
1273728,12
1274356,14
1274988,15
1275608,16
1276236,15
1276860,13
1277484,11
1278116,10
1278736,11
1279368,11
1279992,10
1280616,11
1281244,12
1281868,11
1282496,15
1283124,18
1283744,19
1284372,20
1284992,17
1285624,12
1286252,10
1286872,12
1287500,12
1288124,11
1288744,11
1289372,10
1289992,9
1290568,13
1291188,14
1291812,16
1292440,15
1293064,15
1293692,11
1294312,10
1294936,10
1295568,11
1296184,12
1296812,11
1297440,11
1298056,11
1298684,11
1299308,15
1299936,16
1300564,14
1301184,15
1301812,12
1302436,15
1303056,16
1303688,16
1304304,13
1304932,11
1305556,10
1306180,11
1306812,10
1307432,15
1308060,15
1308692,16
1309312,16
1309940,13
1310564,10
1311196,11
1311824,10
1312440,12
1313068,15
1313692,15
1314312,13
1314944,12
1315560,15
1316188,16
1316808,17
1317432,19
1318060,18
1318680,16
1319308,16
1319932,18
1320552,16
1321184,12
1321804,11
1322432,10
1323060,10
1323680,12
1324308,14
1324928,15
1325560,15
1326188,14
1326808,11
1327436,10
1328060,10
1328680,11
1329308,10
1329928,11
1330556,11
1331180,11
1331804,10
1332432,14
1333048,15
1333676,15
1334304,15
1334920,12
1335552,13
1336172,17
1336804,15
1337432,13
1338048,13
1338676,11
1339300,10
1339920,10
1340552,15
1341168,15
1341796,16
1342420,15
1343040,15
1343672,10
1344288,11
1344916,11
1345544,10
1346168,11
1346796,11
1347416,11
1348048,12
1348676,12
1349296,17
1349924,16
1350548,18
1351172,18
1351804,18
1352424,17
1353052,11
1353672,11
1354296,11
1354924,12
1355544,11
1356172,12
1356796,11
1357420,15
1358048,16
1358672,15
1359300,15
1359928,12
1360552,13
1361180,12
1361804,11
1362432,11
1363060,11
1363680,12
1364308,11
1364928,11
1365552,16
1366180,16
1366800,19
1367428,17
1368052,15
1368672,11
1369304,13
1369924,12
1370556,11
1371184,10
1371800,12
1372432,13
1373056,10
1373684,11
1374312,14
1374928,15
1375560,15
1376184,15
1376804,12
1377432,12
1378056,12
1378684,13
1379308,11
1379932,10
1380560,11
1381176,11
1381804,11
1382436,14
1383052,15
1383684,15
1384304,15
1384936,13
1385564,12
1386184,18
1386812,15
1387436,16
1388060,15
1388688,11
1389308,11
1389936,11
1390560,16
1391184,15
1391812,16
1392432,17
1393060,17
1393692,10
1394312,12
1394940,12
1395564,11
1396192,11
1396820,10
1397440,11
1398068,11
1398692,11
1399312,15
1399944,16
1400560,17
1401192,17
1401816,11
1402436,12
1403068,12
1403688,13
1404316,12
1404944,11
1405568,11
1406196,10
1406820,11
1407452,14
1408080,16
1408696,17
1409324,14
1409948,12
1410568,10
1411196,14
1411816,15
1412444,12
1413068,10
1413692,11
1414320,10
1414944,11
1415572,14
1416200,16
1416824,16
1417452,16
1418076,17
1418704,17
1419332,14
1419952,13
1420580,13
1421204,12
1421828,10
1422460,10
1423080,11
1423708,13
1424332,14
1424956,15
1425584,16
1426208,16
1426836,11
1427468,10
1428088,11
1428716,11
1429340,13
1429972,14
1430600,13
1431216,11
1431848,17
1432472,20
1433096,17
1433728,18
1434344,21
1434972,15
1435592,15
1436216,16
1436844,17
1437464,12
1438092,10
1438716,11
1439340,12
1439968,11
1440592,14
1441224,17
1441852,17
1442472,15
1443100,14
1443724,10
1444352,11
1444980,11
1445600,11
1446228,11
1446852,11
1447472,11
1448100,11
1448720,13
1449348,15
1449972,16
1450592,16
1451224,17
1451848,17
1452476,16
1453104,16
1453728,14
1454356,11
1454980,10
1455612,14
1456240,14
1456856,12
1457484,15
1458108,15
1458732,16
1459360,15
1459976,12
1460608,12
1461228,11
1461852,11
1462480,13
1463104,13
1463732,13
1464364,10
1464984,11
1465612,16
1466236,18
1466864,19
1467492,16
1468112,17
1468740,13
1469368,15
1469992,12
1470620,10
1471240,10
1471868,11
1472496,11
1473116,11
1473748,14
1474372,14
1475000,15
1475632,15
1476248,15
1476876,11
1477500,11
1478128,11
1478756,10
1479376,13
1480004,11
1480628,10
1481248,10
1481880,11
1482496,15
1483124,15
1483748,17
1484372,17
1485000,14
1485620,14
1486252,14
1486880,12
1487496,12
1488124,10
1488748,10
1489376,12
1490004,11
1490624,15
1491252,15
1491876,15
1492500,15
1493128,12
1493744,12
1494372,13
1495000,14
1495624,13
1496252,10
1496872,11
1497500,11
1498132,10
1498752,15
1499380,16
1500004,17
1500636,24
1501264,21
1501880,18
1502512,16
1503136,13
1503760,12
1504392,12
1505008,13
1505636,11
1506260,11
1506884,12
1507512,14
1508136,17
1508764,19
1509396,16
1510016,11
1510648,11
1511268,11
1511900,11
1512532,11
1513152,12
1513780,12
1514404,12
1515028,11
1515660,16
1516280,18
1516908,18
1517532,18
1518156,18
1518788,21
1519408,18
1520036,14
1520668,12
1521288,11
1521916,10
1522540,10
1523172,10
1523804,14
1524424,15
1525052,15
1525676,15
1526300,15
1526932,10
1527552,13
1528180,11
1528804,11
1529428,11
1530060,12
1530680,11
1531312,11
1531940,13
1532560,15
1533192,15
1533816,16
1534444,16
1535076,17
1535696,21
1536328,16
1536948,10
1537572,11
1538200,15
1538824,16
1539452,11
1540076,11
1540696,14
1541328,14
1541944,15
1542572,15
1543200,10
1543824,13
1544452,14
1545076,12
1545704,10
1546336,11
1546952,11
1547580,13
1548204,12
1548828,15
1549456,15
1550072,15
1550704,16
1551328,15
1551952,13
1552584,17
1553200,15
1553828,15
1554460,16
1555080,15
1555708,11
1556332,11
1556964,13
1557592,13
1558216,16
1558844,15
1559468,14
1560092,13
1560720,13
1561344,13
1561972,11
1562596,11
1563220,12
1563848,11
1564468,11
1565096,12
1565724,14
1566344,15
1566972,16
1567596,15
1568228,12
1568856,16
1569472,15
1570104,12
1570728,12
1571348,12
1571980,11
1572600,11
1573228,10
1573852,15
1574476,15
1575108,16
1575728,15
1576356,14
1576988,10
1577608,11
1578236,10
1578860,11
1579492,11
1580120,10
1580744,11
1581376,11
1582000,15
1582624,16
1583252,16
1583872,16
1584504,15
1585128,13
1585752,15
1586380,14
1587000,11
1587632,11
1588260,10
1588880,9
1589456,10
1590080,13
1590708,17
1591340,14
1591960,15
1592592,17
1593216,12
1593844,11
1594476,10
1595096,11
1595728,11
1596352,11
1596976,11
1597604,11
1598224,11
1598852,15
1599480,15
1600104,15
1600732,15
1601352,17
1601980,18
1602608,14
1603224,13
1603852,10
1604472,10
1605104,11
1605732,10
1606352,12
1606980,15
1607604,15
1608228,14
1608856,14
1609472,15
1610104,12
1610724,13
1611348,11
1611980,10
1612600,12
1613228,13
1613860,12
1614480,13
1615108,11
1615732,15
1616360,15
1616992,15
1617608,16
1618236,11
1618860,11
1619484,12
1620112,13
1620732,16
1621360,15
1621984,13
1622608,14
1623236,12
1623856,14
1624484,15
1625116,14
1625736,15
1626364,12
1626988,11
1627616,11
1628248,11
1628864,12
1629492,13
1630116,12
1630740,12
1631368,10
1631992,15
1632624,16
1633248,18
1633872,19
1634500,18
1635120,16
1635748,15
1636380,12
1637000,10
1637628,10
1638256,11
1638884,11
1639512,10
1640128,13
1640756,15
1641376,15
1641996,15
1642624,14
1643244,12
1643872,12
1644496,13
1645116,11
1645744,10
1646368,11
1646996,13
1647624,12
1648240,11
1648868,15
1649488,17
1650116,17
1650744,17
1651360,15
1651988,13
1652608,16
1653240,18
1653868,16
1654484,13
1655112,11
1655736,11
1656360,11
1656988,14
1657604,15
1658236,15
1658856,15
1659480,15
1660108,10
1660728,12
1661356,11
1661984,10
1662600,11
1663232,12
1663852,12
1664484,11
1665112,11
1665728,17
1666356,18
1666976,17
1667600,19
1668228,14
1668844,13
1669476,12
1670096,13
1670716,11
1671348,10
1671968,10
1672596,10
1673224,10
1673848,14
1674476,14
1675100,14
1675728,16
1676356,12
1676976,11
1677604,10
1678224,10
1678852,11
1679484,10
1680100,13
1680728,12
1681352,12
1681972,15
1682600,16
1683220,17
1683848,17
1684472,17
1685096,17
1685724,12
1686348,14
1686976,15
1687604,12
1688224,14
1688852,11
1689476,10
1690104,12
1690732,13
1691352,17
1691980,18
1692600,17
1693224,12
1693852,10
1694472,11
1695100,11
1695724,11
1696344,11
1696976,11
1697592,11
1698220,12
1698848,15
1699464,15
1700096,17
1700716,15
1701348,12
1701976,12
1702592,19
1703220,23
1703844,23
1704464,21
1705096,15
1705712,12
1706340,12
1706964,15
1707584,14
1708216,15
1708832,15
1709460,15
1710088,11
1710712,12
1711340,11
1711964,10
1712596,10
1713224,11
1713844,11
1714472,11
1715096,12
1715720,15
1716348,14
1716968,17
1717596,15
1718220,13
1718844,14
1719472,16
1720096,13
1720724,12
1721352,10
1721976,11
1722604,10
1723228,10
1723856,15
1724484,14
1725104,15
1725732,16
1726356,11
1726980,11
1727612,10
1728232,11
1728860,10
1729484,10
1730104,10
1730736,11
1731352,12
1731980,16
1732604,14
1733232,16
1733860,16
1734484,15
1735112,14
1735740,14
1736360,19
1736988,13
1737612,10
1738240,11
1738868,12
1739488,12
1740116,13
1740744,14
1741368,16
1741996,16
1742616,15
1743244,12
1743868,10
1744496,11
1745124,11
1745748,10
1746376,11
1747004,10
1747624,12
1748252,12
1748876,14
1749504,18
1750132,20
1750752,20
1751380,16
1752004,13
1752628,11
1753256,10
1753880,11
1754508,11
1755132,11
1755760,11
1756388,11
1757012,15
1757644,14
1758272,16
1758892,16
1759520,15
1760144,13
1760772,10
1761400,10
1762024,11
1762652,11
1763272,12
1763896,11
1764524,10
1765144,15
1765772,15
1766396,15
1767020,16
1767648,17
1768272,17
1768900,19
1769528,16
1770148,12
1770776,10
1771400,11
1772028,11
1772660,10
1773280,11
1773908,13
1774532,15
1775156,15
1775788,14
1776408,11
1777036,10
1777660,10
1778288,12
1778916,13
1779540,11
1780172,11
1780800,11
1781416,13
1782044,17
1782668,17
1783300,18
1783928,19
1784548,17
1785176,17
1785800,13
1786424,12
1787052,10
1787672,13
1788300,10
1788924,10
1789552,11
1790180,15
1790808,15
1791436,15
1792068,14
1792684,16
1793312,12
1793936,11
1794564,11
1795192,11
1795812,12
1796440,10
1797064,11
1797688,12
1798316,12
1798936,15
1799564,15
1800188,14
1800816,16
1801444,13
1802068,15
1802696,13
1803328,11
1803944,13
1804572,13
1805196,11
1805824,11
1806452,10
1807072,15
1807700,15
1808324,15
1808944,15
1809576,12
1810192,11
1810820,10
1811444,11
1812068,11
1812696,11
1813320,11
1813948,11
1814576,11
1815192,16
1815824,17
1816448,17
1817076,17
1817708,14
1818328,13
1818956,13
1819580,16
1820204,14
1820832,12
1821448,11
1822076,10
1822700,11
1823324,11
1823956,13
1824580,15
1825208,15
1825836,16
1826456,11
1827084,11
1827708,11
1828340,11
1828968,12
1829584,12
1830212,12
1830840,11
1831460,11
1832092,16
1832712,16
1833340,16
1833964,19
1834588,17
1835220,16
1835844,15
1836472,14
1837100,11
1837720,9
1838300,11
1838928,12
1839556,11
1840188,14
1840808,15
1841436,16
1842060,15
1842692,15
1843320,11
1843936,12
1844564,11
1845188,11
1845808,10
1846436,11
1847056,12
1847684,11
1848308,11
1848928,16
1849560,18
1850184,17
1850812,15
1851440,12
1852064,12
1852692,13
1853316,13
1853948,12
1854576,11
1855192,11
1855824,11
1856448,11
1857068,15
1857700,14
1858320,15
1858948,14
1859572,11
1860196,11
1860824,12
1861448,11
1862076,11
1862708,10
1863328,13
1863956,11
1864580,11
1865212,15
1865840,15
1866456,15
1867084,17
1867708,17
1868332,17
1868964,17
1869584,17
1870212,15
1870836,12
1871460,10
1872088,11
1872712,10
1873340,12
1873972,13
1874592,15
1875220,15
1875844,15
1876472,11
1877104,10
1877720,10
1878352,11
1878976,11
1879600,12
1880228,11
1880848,11
1881476,11
1882100,15
1882724,16
1883356,15
1883980,17
1884612,15
1885240,12
1885864,15
1886492,13
1887116,11
1887748,10
1888376,11
1889000,11
1889628,12
1890252,15
1890876,17
1891504,17
1892124,15
1892752,14
1893384,11
1894000,11
1894628,12
1895252,13
1895880,16
1896512,14
1897128,11
1897760,11
1898380,17
1899012,18
1899644,16
1900264,19
1900892,18
1901516,12
1902140,13
1902772,15
1903392,17
1904024,15
1904652,14
1905272,12
1905900,10
1906528,11
1907156,13
1907788,14
1908408,16
1909036,16
1909664,11
1910288,11
1910916,10
1911536,11
1912168,12
1912792,12
1913416,12
1914048,11
1914664,12
1915296,16
1915924,16
1916544,16
1917176,16
1917800,12
1918432,13
1919060,16
1919680,18
1920312,17
1920936,16
1921556,13
1922188,11
1922808,11
1923436,14
1924060,14
1924684,15
1925312,15
1925928,16
1926556,12
1927188,10
1927808,11
1928436,11
1929060,11
1929688,10
1930316,10
1930936,13
1931564,12
1932188,14
1932812,15
1933440,17
1934056,17
1934688,13
1935312,19
1935936,17
1936564,13
1937184,14
1937812,12
1938444,10
1939064,11
1939692,11
1940316,15
1940948,15
1941576,15
1942200,15
1942828,12
1943452,10
1944076,11
1944708,10
1945328,11
1945960,11
1946580,11
1947204,11
1947832,11
1948456,15
1949084,15
1949716,14
1950336,16
1950968,16
1951588,13
1952220,13
1952848,12
1953472,14
1954100,17
1954724,17
1955348,13
1955980,10
1956600,13
1957228,14
1957852,15
1958476,15
1959108,14
1959728,11
1960356,11
1960988,10
1961608,11
1962236,11
1962860,15
1963492,13
1964120,10
1964744,12
1965376,16
1966000,15
1966624,17
1967252,14
1967872,13
1968500,15
1969124,16
1969748,15
1970376,10
1971000,11
1971628,11
1972260,10
1972880,11
1973508,15
1974132,15
1974760,16
1975388,14
1976008,17
1976636,11
1977260,12
1977884,13
1978512,12
1979132,11
1979760,11
1980384,12
1981008,11
1981636,15
1982256,17
1982884,17
1983516,21
1984136,19
1984764,14
1985388,14
1986016,14
1986644,13
1987264,12
1987892,11
1988516,10
1989136,11
1989768,11
1990384,15
1991016,15
1991640,15
1992264,15
1992892,10
1993512,11
1994144,10
1994772,10
1995392,10
1996024,11
1996648,11
1997276,11
1997908,11
1998528,16
1999156,17
1999780,17
2000404,16
2001036,12
2001656,12
2002284,15
2002908,15
2003532,11
2004160,10
2004776,10
2005404,11
2006036,13
2006656,16
2007284,15
2007908,15
2008536,15
2009168,16
2009784,11
2010412,11
2011036,10
2011660,10
2012288,11
2012904,10
2013536,11
2014160,12
2014784,12
2015412,16
2016032,18
2016660,16
2017288,15
2017912,14
2018540,13
2019164,11
2019796,11
2020424,10
2021048,11
2021676,10
2022300,10
2022928,11
2023556,15
2024176,16
2024804,15
2025428,15
2026052,11
2026680,12
2027304,11
2027932,11
2028564,11
2029184,11
2029812,11
2030436,11
2031068,11
2031696,16
2032320,16
2032948,16
2033572,15
2034196,15
2034828,10
2035448,14
2036076,14
2036700,15
2037328,13
2037956,14
2038576,13
2039204,13
2039836,12
2040456,14
2041084,15
2041708,15
2042340,15
2042972,12
2043592,12
2044224,11
2044848,11
2045472,11
2046100,11
2046720,12
2047348,11
2047976,12
2048600,15
2049228,16
2049844,18
2050472,15
2051100,10
2051720,13
2052348,12
2052968,11
2053596,11
2054224,10
2054840,10
2055468,11
2056092,11
2056712,15
2057344,16
2057960,17
2058588,17
2059212,14
2059832,11
2060460,11
2061080,12
2061708,11
2062332,11
2062952,12
2063584,12
2064204,12
2064832,12
2065464,15
2066080,16
2066708,17
2067332,19
2067960,17
2068588,16
2069204,15
2069836,14
2070456,13
2071080,13
2071708,10
2072328,11
2072956,10
2073580,14
2074204,15
2074832,15
2075448,16
2076080,13
2076708,10
2077328,10
2077956,11
2078580,12
2079212,12
2079840,11
2080456,11
2081084,11
2081708,15
2082332,15
2082960,16
2083576,18
2084204,17
2084828,14
2085448,11
2086076,10
2086696,11
2087324,11
2087952,12
2088576,14
2089204,12
2089828,13
2090456,14
2091084,16
2091704,16
2092332,15
2092956,13
2093576,12
2094208,12
2094824,12
2095452,11
2096076,11
2096700,11
2097328,11
2097944,11
2098572,16
2099196,16
2099824,18
2100452,17
2101076,17
2101704,13
2102332,14
2102952,13
2103580,11
2104204,11
2104832,10
2105464,11
2106080,10
2106708,14
2107332,15
2107956,15
2108588,14
2109208,15
2109836,11
2110460,10
2111088,11
2111716,11
2112340,15
2112968,14
2113600,10
2114216,13
2114844,15
2115468,18
2116096,17
2116724,14
2117344,15
2117972,11
2118596,13
2119220,15
2119848,14
2120472,13
2121100,11
2121724,10
2122352,11
2122980,12
2123604,14
2124232,15
2124864,15
2125480,16
2126108,13
2126732,11
2127360,11
2127992,11
2128608,14
2129240,15
2129864,13
2130488,12
2131116,10
2131736,18
2132364,17
2132988,16
2133616,17
2134244,14
2134868,13
2135496,15
2136124,14
2136744,12
2137372,11
2137996,11
2138624,10
2139256,10
2139872,15
2140500,15
2141124,15
2141748,15
2142380,15
2143000,11
2143628,11
2144252,10
2144880,11
2145508,11
2146132,12
2146760,13
2147388,10
2148008,12
2148636,16
2149260,16
2149892,16
2150520,17
2151136,14
2151768,17
2152388,19
2153012,19
2153640,18
2154264,16
2154892,12
2155516,11
2156140,11
2156768,15
2157392,15
2158020,16
2158652,15
2159272,12
2159900,11
2160528,11
2161156,11
2161784,10
2162404,10
2163032,11
2163656,13
2164280,13
2164908,14
2165528,17
2166156,16
2166780,17
2167408,16
2168036,13
2168660,15
2169288,14
2169920,14
2170536,14
2171164,12
2171788,10
2172420,10
2173048,11
2173672,15
2174300,16
2174924,17
2175548,16
2176180,12
2176796,12
2177428,14
2178056,10
2178672,13
2179300,16
2179924,13
2180552,11
2181184,11
2181800,16
2182428,17
2183052,18
2183680,20
2184308,16
2184928,14
2185556,13
2186180,14
2186804,11
2187436,10
2188056,13
2188684,16
2189308,12
2189936,15
2190564,17
2191188,15
2191820,16
2192452,16
2193072,13
2193700,13
2194324,14
2194952,14
2195580,10
2196200,11
2196828,13
2197452,11
2198076,13
2198708,16
2199328,18
2199956,19
2200588,16
2201208,15
2201836,15
2202460,12
2203092,9
2203668,11
2204292,10
2204924,10
2205548,10
2206176,11
2206804,14
2207424,15
2208052,15
2208676,15
2209300,12
2209928,12
2210544,13
2211176,11
2211800,11
2212424,11
2213052,12
2213672,13
2214300,11
2214932,14
2215552,15
2216180,15
2216804,16
2217432,16
2218064,16
2218680,17
2219312,14
2219936,11
2220560,10
2221188,11
2221808,12
2222436,12
2223060,14
2223684,15
2224316,16
2224936,15
2225564,15
2226196,10
2226816,11
2227444,11
2228068,11
2228700,10
2229328,10
2229952,12
2230580,11
2231204,11
2231832,15
2232460,15
2233080,16
2233708,16
2234332,13
2234956,12
2235588,14
2236208,14
2236836,11
2237468,10
2238088,11
2238716,11
2239344,11
2239976,15
2240608,15
2241224,15
2241852,16
2242476,13
2243100,12
2243728,12
2244352,11
2244980,12
2245604,13
2246228,12
2246860,10
2247480,12
2248108,15
2248740,16
2249360,16
2249988,16
2250612,17
2251244,14
2251876,14
2252496,16
2253124,17
2253748,17
2254372,13
2255000,10
2255624,11
2256252,11
2256876,14
2257500,14
2258128,15
2258744,14
2259376,12
2260004,10
2260624,11
2261252,11
2261876,11
2262504,11
2263136,12
2263752,11
2264380,12
2265004,16
2265628,17
2266256,16
2266872,15
2267504,13
2268128,16
2268752,16
2269380,11
2270000,11
2270628,10
2271260,10
2271880,11
2272512,9
2273084,14
2273716,15
2274348,14
2274968,16
2275596,15
2276220,11
2276852,13
2277480,15
2278104,15
2278732,11
2279356,11
2279980,11
2280612,10
2281232,11
2281860,15
2282484,15
2283108,18
2283740,18
2284364,20
2284992,17
2285624,12
2286240,11
2286868,10
2287492,11
2288124,11
2288752,11
2289376,12
2290004,14
2290628,15
2291252,15
2291884,14
2292504,11
2293132,11
2293756,10
2294384,11
2295016,11
2295640,11
2296268,12
2296900,10
2297520,11
2298148,15
2298772,15
2299400,16
2300028,14
2300648,16
2301276,12
2301904,13
2302528,13
2303156,16
2303776,19
2304408,22
2305036,16
2305656,13
2306284,11
2306908,13
2307536,15
2308164,14
2308784,16
2309412,12
2310036,11
2310664,11
2311292,12
2311912,13
2312540,13
2313164,11
2313788,11
2314420,12
2315040,15
2315668,16
2316300,16
2316920,19
2317548,16
2318172,14
2318804,15
2319432,13
2320052,11
2320680,15
2321300,13
2321924,11
2322556,10
2323176,16
2323808,15
2324432,15
2325056,16
2325684,14
2326304,11
2326932,11
2327564,10
2328184,11
2328812,11
2329436,15
2330068,15
2330696,12
2331320,14
2331948,17
2332572,17
2333196,17
2333828,16
2334448,13
2335076,11
2335700,11
2336324,13
2336956,12
2337576,12
2338204,11
2338836,10
2339456,10
2340084,15
2340708,15
2341340,16
2341968,14
2342592,11
2343220,10
2343844,11
2344468,10
2345100,10
2345720,11
2346348,11
2346972,11
2347596,13
2348228,18
2348848,17
2349476,16
2350108,15
2350728,18
2351356,15
2351984,15
2352616,14
2353244,14
2353864,10
2354496,12
2355120,12
2355744,11
2356376,14
2356992,15
2357624,16
2358248,17
2358872,16
2359500,11
2360120,11
2360748,11
2361380,11
2362000,12
2362628,11
2363252,11
2363884,11
2364512,11
2365136,15
2365768,17
2366388,17
2367016,17
2367644,11
2368264,13
2368892,10
2369516,10
2370140,11
2370772,13
2371396,12
2372024,13
2372656,12
2373272,15
2373904,15
2374528,15
2375156,15
2375788,11
2376408,11
2377036,11
2377660,11
2378284,10
2378912,11
2379536,13
2380164,11
2380788,11
2381416,16
2382044,18
2382668,20
2383300,19
2383932,14
2384552,14
2385180,17
2385808,17
2386436,15
2387068,13
2387688,11
2388316,12
2388940,12
2389564,13
2390196,12
2390816,15
2391448,15
2392076,14
2392696,11
2393328,11
2393952,11
2394580,10
2395212,10
2395832,13
2396464,13
2397088,11
2397712,12
2398344,16
2398960,18
2399592,19
2400216,19
2400840,19
2401468,18
2402088,17
2402716,12
2403348,11
2403968,12
2404596,11
2405220,10
2405852,11
2406484,14
2407104,15
2407732,18
2408356,17
2408980,15
2409608,11
2410224,14
2410852,15
2411480,13
2412104,13
2412732,10
2413352,11
2413980,12
2414612,13
2415232,15
2415864,15
2416488,16
2417116,19
2417748,18
2418368,19
2418996,15
2419624,12
2420244,11
2420876,10
2421496,11
2422124,10
2422748,11
2423372,14
2424004,16
2424624,17
2425252,15
2425884,11
2426504,10
2427136,11
2427760,11
2428388,12
2429020,12
2429640,13
2430268,11
2430896,12
2431520,16
2432152,15
2432768,16
2433396,17
2434020,15
2434644,13
2435276,14
2435896,15
2436524,12
2437156,10
2437776,11
2438404,12
2439028,10
2439660,13
2440288,14
2440912,15
2441540,15
2442168,15
2442792,11
2443420,10
2444040,11
2444668,12
2445296,11
2445916,11
2446548,11
2447172,11
2447804,11
2448436,14
2449056,15
2449684,15
2450308,15
2450940,13
2451572,16
2452192,15
2452824,12
2453444,11
2454072,11
2454700,10
2455320,13
2455952,16
2456584,17
2457200,14
2457832,15
2458456,15
2459084,12
2459712,11
2460328,11
2460956,11
2461580,9
2462160,11
2462788,12
2463408,11
2464036,11
2464660,19
2465284,19
2465912,16
2466536,17
2467164,17
2467788,15
2468412,12
2469044,11
2469664,11
2470292,12
2470924,10
2471544,11
2472172,11
2472796,11
2473428,15
2474056,15
2474676,15
2475304,16
2475928,12
2476552,11
2477180,11
2477800,11
2478428,11
2479052,11
2479676,12
2480308,11
2480928,12
2481556,15
2482188,14
2482808,15
2483436,16
2484060,15
2484688,14
2485320,15
2485936,13
2486564,12
2487188,11
2487816,11
2488444,10
2489064,11
2489692,14
2490316,15
2490940,15
2491568,15
2492192,16
2492820,12
2493452,10
2494072,11
2494700,11
2495328,13
2495956,16
2496588,16
2497208,15
2497836,13
2498460,17
2499084,24
2499716,30
2500336,26
2500964,19
2501588,17
2502212,15
2502844,10
2503464,11
2504092,11
2504724,10
2505344,11
2505972,11
2506600,15
2507228,16
2507860,16
2508480,18
2509108,11
2509732,11
2510356,12
2510988,10
2511608,11
2512236,11
2512860,13
2513484,15
2514116,12
2514736,16
2515364,16
2515996,16
2516616,17
2517244,17
2517868,17
2518500,18
2519132,14
2519752,12
2520384,10
2521008,11
2521632,13
2522260,11
2522880,15
2523508,14
2524132,15
2524760,16
2525388,15
2526008,11
2526636,11
2527268,12
2527888,12
2528520,11
2529144,15
2529772,13
2530404,12
2531024,11
2531656,15
2532280,17
2532904,17
2533536,16
2534152,14
2534784,12
2535408,12
2536036,15
2536664,14
2537288,14
2537916,11
2538548,11
2539168,11
2539800,15
2540424,14
2541052,15
2541684,15
2542304,14
2542936,11
2543560,11
2544184,11
2544812,11
2545432,13
2546064,14
2546692,12
2547312,12
2547940,15
2548568,15
2549196,17
2549828,18
2550448,20
2551076,17
2551704,19
2552328,19
2552956,18
2553576,15
2554208,12
2554836,11
2555460,11
2556092,10
2556712,14
2557344,16
2557976,14
2558596,15
2559228,11
2559852,11
2560488,12
2561112,10
2561736,11
2562364,10
2562984,11
2563608,11
2564236,10
2564856,14
2565484,14
2566104,15
2566728,16
2567356,12
2567976,15
2568604,13
2569232,12
2569856,13
2570484,12
2571108,14
2571736,14
2572364,12
2572984,16
2573612,15
2574232,15
2574856,15
2575488,15
2576104,11
2576732,11
2577356,10
2577980,11
2578608,11
2579224,11
2579856,11
2580480,10
2581100,12
2581732,14
2582356,15
2582984,15
2583612,18
2584232,17
2584860,11
2585484,10
2586112,11
2586744,11
2587360,11
2587988,11
2588612,11
2589236,11
2589864,14
2590488,15
2591116,15
2591740,15
2592368,15
2592996,11
2593620,11
2594248,12
2594876,12
2595496,15
2596124,13
2596748,12
2597380,13
2598008,18
2598628,16
2599256,17
2599880,16
2600504,13
2601132,12
2601752,17
2602380,21
2603004,14
2603632,11
2604260,10
2604884,11
2605512,10
2606144,14
2606760,14
2607392,16
2608016,16
2608644,16
2609272,11
2609892,11
2610520,11
2611144,11
2611772,11
2612400,13
2613016,15
2613648,16
2614276,13
2614896,15
2615524,15
2616148,16
2616780,16
2617408,11
2618032,11
2618660,11
2619284,13
2619908,15
2620540,14
2621160,11
2621792,11
2622412,11
2623036,16
2623664,17
2624284,17
2624908,15
2625532,12
2626160,11
2626788,12
2627408,12
2628036,11
2628664,11
2629280,12
2629908,11
2630532,11
2631160,16
2631788,16
2632408,17
2633036,16
2633656,16
2634280,13
2634908,10
2635528,13
2636156,11
2636780,13
2637404,13
2638032,12
2638648,11
2639280,12
2639908,14
2640528,15
2641156,15
2641780,15
2642408,12
2643036,10
2643656,11
2644284,11
2644908,12
2645528,15
2646160,16
2646776,13
2647404,12
2648028,17
2648648,14
2649280,16
2649896,17
2650524,15
2651152,15
2651776,17
2652404,17
2653028,15
2653656,13
2654284,10
2654904,11
2655532,11
2656156,15
2656780,15
2657408,15
2658024,15
2658656,15
2659276,11
2659900,11
2660532,10
2661152,11
2661780,12
2662412,14
2663028,15
2663656,12
2664280,12
2664908,15
2665536,19
2666152,17
2666784,19
2667404,16
2668036,15
2668664,14
2669280,12
2669908,10
2670532,10
2671152,12
2671784,12
2672400,13
2673032,15
2673652,15
2674276,17
2674904,16
2675528,13
2676156,13
2676784,10
2677408,11
2678036,12
2678660,12
2679288,11
2679920,12
2680536,12
2681164,15
2681788,15
2682412,16
2683040,18
2683664,22
2684292,16
2684916,16
2685536,16
2686168,15
2686792,13
2687420,10
2688052,10
2688668,13
2689296,12
2689920,15
2690548,15
2691176,14
2691796,15
2692424,12
2693048,11
2693668,11
2694300,11
2694920,12
2695548,11
2696172,11
2696796,11
2697424,11
2698040,14
2698672,16
2699300,16
2699920,19
2700548,19
2701172,18
2701804,16
2702432,14
2703052,14
2703680,13
2704304,10
2704924,10
2705556,10
2706176,15
2706804,14
2707428,16
2708052,16
2708680,16
2709296,12
2709928,11
2710556,10
2711176,11
2711804,11
2712428,11
2713060,11
2713688,12
2714308,12
2714940,14
2715564,15
2716184,17
2716816,19
2717432,17
2718060,15
2718684,12
2719312,11
2719940,11
2720560,12
2721188,11
2721816,10
2722440,11
2723068,15
2723692,15
2724320,15
2724948,14
2725568,12
2726196,10
2726820,11
2727444,11
2728072,10
2728688,12
2729316,11
2729940,11
2730564,11
2731192,16
2731812,16
2732440,17
2733068,19
2733688,21
2734316,16
2734940,11
2735572,11
2736200,11
2736820,12
2737448,12
2738072,12
2738696,12
2739324,12
2739944,15
2740572,17
2741196,15
2741820,15
2742448,13
2743072,12
2743700,10
2744332,10
2744952,11
2745580,13
2746204,11
2746836,11
2747464,10
2748088,18
2748716,19
2749340,18
2749964,17
2750596,16
2751216,15
2751844,11
2752472,11
2753092,10
2753724,10
2754344,10
2754972,11
2755604,12
2756224,15
2756852,15
2757476,15
2758104,16
2758736,13
2759352,11
2759984,11
2760608,11
2761232,13
2761860,11
2762480,11
2763108,11
2763732,11
2764360,15
2764988,14
2765608,16
2766236,19
2766864,21
2767484,24
2768112,21
2768736,13
2769364,10
2769992,10
2770616,11
2771244,12
2771868,11
2772492,11
2773120,14
2773736,17
2774368,17
2774992,15
2775616,12
2776244,10
2776864,11
2777492,10
2778124,10
2778744,11
2779372,13
2779996,12
2780628,11
2781260,14
2781880,17
2782508,19
2783136,19
2783760,17
2784392,12
2785008,11
2785636,10
2786260,10
2786884,10
2787512,10
2788132,11
2788760,15
2789388,15
2790008,16
2790636,15
2791260,15
2791892,15
2792520,10
2793136,10
2793768,12
2794392,11
2795016,12
2795644,10
2796264,11
2796892,12
2797516,14
2798140,14
2798772,16
2799392,16
2800020,17
2800652,15
2801272,13
2801900,13
2802524,11
2803156,16
2803784,14
2804408,11
2805036,10
2805660,11
2806284,14
2806916,14
2807536,16
2808164,15
2808788,12
2809412,11
2810044,10
2810664,11
2811292,12
2811924,10
2812544,13
2813172,11
2813800,12
2814428,14
2815060,15
2815680,19
2816312,17
2816932,16
2817556,15
2818184,17
2818808,17
2819436,16
2820060,11
2820684,10
2821312,10
2821928,11
2822560,11
2823188,14
2823808,15
2824436,15
2825060,15
2825688,11
2826320,12
2826936,12
2827564,11
2828188,12
2828812,12
2829440,11
2830056,11
2830684,15
2831308,16
2831932,15
2832564,16
2833184,17
2833812,14
2834444,18
2835064,18
2835692,12
2836316,11
2836948,11
2837576,10
2838200,11
2838828,11
2839452,15
2840076,15
2840708,16
2841328,17
2841956,15
2842580,11
2843204,13
2843832,16
2844456,13
2845084,10
2845716,10
2846336,11
2846968,12
2847588,15
2848220,18
2848848,16
2849472,18
2850100,20
2850724,16
2851348,11
2851976,10
2852600,11
2853228,9
2853800,12
2854432,11
2855060,10
2855680,11
2856308,15
2856932,16
2857560,17
2858188,16
2858808,14
2859436,11
2860068,10
2860688,11
2861320,12
2861944,13
2862572,14
2863204,12
2863824,12
2864456,15
2865080,17
2865704,17
2866336,16
2866952,15
2867584,15
2868208,13
2868828,10
2869456,10
2870080,11
2870708,12
2871336,12
2871960,12
2872588,13
2873212,15
2873844,17
2874472,16
2875092,15
2875720,12
2876344,13
2876968,11
2877596,10
2878216,12
2878844,15
2879468,11
2880092,11
2880720,11
2881344,18
2881972,19
2882600,17
2883216,17
2883844,13
2884468,11
2885096,12
2885724,11
2886344,12
2886972,12
2887596,11
2888220,10
2888848,11
2889464,14
2890096,15
2890716,15
2891340,15
2891972,14
2892592,12
2893220,11
2893852,10
2894472,11
2895100,11
2895724,12
2896352,11
2896984,11
2897600,15
2898228,15
2898852,17
2899476,16
2900104,16
2900728,14
2901356,15
2901980,17
2902604,14
2903236,10
2903856,11
2904484,10
2905116,10
2905736,11
2906364,13
2906988,15
2907620,15
2908248,14
2908872,11
2909500,10
2910124,11
2910748,10
2911376,11
2911996,12
2912628,13
2913252,11
2913876,13
2914504,17
2915124,18
2915752,17
2916384,17
2917004,15
2917632,16
2918260,16
2918888,12
2919520,12
2920136,13
2920764,11
2921388,10
2922012,10
2922644,14
2923264,15
2923892,15
2924516,15
2925140,15
2925772,10
2926392,12
2927024,11
2927652,10
2928272,11
2928900,11
2929524,11
2930156,11
2930784,11
2931408,16
2932036,15
2932660,16
2933284,17
2933916,14
2934536,12
2935164,11
2935792,11
2936416,11
2937044,10
2937668,10
2938300,10
2938932,10
2939552,15
2940184,16
2940808,15
2941436,15
2942068,10
2942688,11
2943320,12
2943944,13
2944568,11
2945200,10
2945816,11
2946444,11
2947068,10
2947696,16
2948324,23
2948948,23
2949580,22
2950208,16
2950832,14
2951460,11
2952084,11
2952708,12
2953340,10
2953960,11
2954588,11
2955212,10
2955836,14
2956468,14
2957088,15
2957716,14
2958348,14
2958968,11
2959596,10
2960224,11
2960852,11
2961480,10
2962096,12
2962728,15
2963352,13
2963976,11
2964604,16
2965224,17
2965852,19
2966476,19
2967100,15
2967732,12
2968352,13
2968980,12
2969612,10
2970228,11
2970860,11
2971484,12
2972112,11
2972740,14
2973360,16
2973988,15
2974612,15
2975240,13
2975868,11
2976488,12
2977116,11
2977740,13
2978364,15
2978992,12
2979616,12
2980244,12
2980876,14
2981496,15
2982124,17
2982748,17
2983380,15
2984008,13
2984624,12
2985256,11
2985880,11
2986504,11
2987132,12
2987752,20
2988380,21
2989008,21
2989632,16
2990260,16
2990880,15
2991508,15
2992140,10
2992760,12
2993388,11
2994012,11
2994644,11
2995272,10
2995896,11
2996524,11
2997148,12
2997772,15
2998400,15
2999024,15
2999652,15
3000280,13
3000904,13
3001532,13
3002152,14
3002784,11
3003412,12
3004032,13
3004660,12
3005288,13
3005916,15
3006548,14
3007168,15
3007800,16
3008424,15
3009048,11
3009676,10
3010296,11
3010928,11
3011552,11
3012176,11
3012804,10
3013424,11
3014052,11
3014684,15
3015304,16
3015936,18
3016560,19
3017188,14
3017820,12
3018440,13
3019068,13
3019696,13
3020320,11
3020952,10
3021568,11
3022196,11
3022824,15
3023448,18
3024076,17
3024696,15
3025324,15
3025956,14
3026576,13
3027204,13
3027828,11
3028460,13
3029092,11
3029712,11
3030344,12
3030968,17
3031592,21
3032224,18
3032840,16
3033472,16
3034096,15
3034720,16
3035348,13
3035976,13
3036608,14
3037236,10
3037856,11
3038488,11
3039112,14
3039744,15
3040376,15
3040992,16
3041620,15
3042244,11
3042868,13
3043500,12
3044120,11
3044748,11
3045376,10
3046000,11
3046632,11
3047256,11
3047884,15
3048516,16
3049136,14
3049764,15
3050388,16
3051016,17
3051648,17
3052264,15
3052892,12
3053516,12
3054144,11
3054772,10
3055392,11
3056024,15
3056652,14
3057272,16
3057904,16
3058528,13
3059160,11
3059792,11
3060408,11
3061040,11
3061664,12
3062288,11
3062920,10
3063536,11
3064168,18
3064792,19
3065416,17
3066048,15
3066664,14
3067296,10
3067928,11
3068548,11
3069180,10
3069804,10
3070436,12
3071068,13
3071688,15
3072320,18
3072944,20
3073568,20
3074196,18
3074816,19
3075444,11
3076068,12
3076692,11
3077320,11
3077944,13
3078572,12
3079200,12
3079824,14
3080452,12
3081076,15
3081708,19
3082336,20
3082952,21
3083584,17
3084208,16
3084832,17
3085460,14
3086080,12
3086708,11
3087332,10
3087956,11
3088588,10
3089208,15
3089836,15
3090468,14
3091088,15
3091720,15
3092344,11
3092972,10
3093604,10
3094224,11
3094852,11
3095480,12
3096104,10
3096732,11
3097352,13
3097984,16
3098608,16
3099232,16
3099860,16
3100484,15
3101116,12
3101744,14
3102368,16
3103000,17
3103624,15
3104256,11
3104884,11
3105504,11
3106132,15
3106760,15
3107384,16
3108012,16
3108632,12
3109264,10
3109892,10
3110512,11
3111140,11
3111768,11
3112396,13
3113028,11
3113648,12
3114276,14
3114900,15
3115528,15
3116156,14
3116776,15
3117408,15
3118032,17
3118656,19
3119284,14
3119904,11
3120536,11
3121164,10
3121784,11
3122412,15
3123036,15
3123668,15
3124300,14
3124920,15
3125548,11
3126172,10
3126796,11
3127428,10
3128048,13
3128676,12
3129300,12
3129924,16
3130556,14
3131176,14
3131808,16
3132436,14
3133056,16
3133688,15
3134312,15
3134940,17
3135572,18
3136192,20
3136820,24
3137444,24
3138068,23
3138700,12
3139320,15
3139948,15
3140572,15
3141200,16
3141828,13
3142448,11
3143076,11
3143708,10
3144328,11
3144956,11
3145580,13
3146212,11
3146844,10
3147464,15
3148096,15
3148720,16
3149344,15
3149972,16
3150592,15
3151224,17
3151848,15
3152472,13
3153104,10
3153720,11
3154352,11
3154984,11
3155600,11
3156228,15
3156852,16
3157484,15
3158116,14
3158736,12
3159368,11
3159992,11
3160616,11
3161248,10
3161864,10
3162496,11
3163120,11
3163744,13
3164376,16
3165000,16
3165628,15
3166260,15
3166880,12
3167508,13
3168136,17
3168764,17
3169396,16
3170016,14
3170648,14
3171272,13
3171896,12
3172528,14
3173144,14
3173776,15
3174408,14
3175024,15
3175656,13
3176280,16
3176908,12
3177540,10
3178160,10
3178792,11
3179416,12
3180040,13
3180668,13
3181288,16
3181920,21
3182544,24
3183168,22
3183800,16
3184420,16
3185048,16
3185680,16
3186300,13
3186928,11
3187556,11
3188188,10
3188816,11
3189436,14
3190068,15
3190692,15
3191316,15
3191948,12
3192572,10
3193200,10
3193828,11
3194452,11
3195084,11
3195704,11
3196336,11
3196964,11
3197584,18
3198216,18
3198840,18
3199472,16
3200104,14
3200720,11
3201348,10
3201972,11
3202592,11
3203220,10
3203836,11
3204468,12
3205092,11
3205716,15
3206344,14
3206964,15
3207592,15
3208220,15
3208840,11
3209468,10
3210092,11
3210720,10
3211352,11
3211968,14
3212596,11
3213220,11
3213844,11
3214476,14
3215096,15
3215724,15
3216348,17
3216972,16
3217600,16
3218224,17
3218852,16
3219484,12
3220104,11
3220732,13
3221356,13
3221988,13
3222616,14
3223240,17
3223868,19
3224492,19
3225116,12
3225748,10
3226368,11
3226996,12
3227620,10
3228244,10
3228872,10
3229488,11
3230116,16
3230748,14
3231368,16
3231996,17
3232624,19
3233252,20
3233884,18
3234504,19
3235132,17
3235760,13
3236384,13
3237012,12
3237632,11
3238260,11
3238884,15
3239508,17
3240140,15
3240760,16
3241388,15
3242020,12
3242640,13
3243268,11
3243892,11
3244524,11
3245152,10
3245776,12
3246404,12
3247028,13
3247652,15
3248284,18
3248904,19
3249532,18
3250156,15
3250780,17
3251412,15
3252036,12
3252668,11
3253296,10
3253916,10
3254544,10
3255168,12
3255800,18
3256432,15
3257048,15
3257676,15
3258300,13
3258924,11
3259556,10
3260176,11
3260804,10
3261428,11
3262056,11
3262684,11
3263312,11
3263944,15
3264576,16
3265192,15
3265824,15
3266448,16
3267076,13
3267708,11
3268328,13
3268956,12
3269584,12
3270208,11
3270840,10
3271456,11
3272088,11
3272716,14
3273336,15
3273968,15
3274592,15
3275224,13
3275852,10
3276472,11
3277104,11
3277724,11
3278348,11
3278976,11
3279592,11
3280220,11
3280844,15
3281464,15
3282092,14
3282708,17
3283336,18
3283960,15
3284580,13
3285208,13
3285832,13
3286460,13
3287088,12
3287704,11
3288332,11
3288952,13
3289584,16
3290212,16
3290832,15
3291460,15
3292084,14
3292704,11
3293336,10
3293952,12
3294580,12
3295204,11
3295828,12
3296456,13
3297080,13
3297708,15
3298336,15
3298952,17
3299580,16
3300204,13
3300832,13
3301460,11
3302080,12
3302708,13
3303332,13
3303952,12
3304584,11
3305200,11
3305828,14
3306452,14
3307076,16
3307704,17
3308320,15
3308952,11
3309580,13
3310200,13
3310828,12
3311452,11
3312080,11
3312712,12
3313328,15
3313956,15
3314580,15
3315204,15
3315836,16
3316456,17
3317084,23
3317708,28
3318332,25
3318964,16
3319584,13
3320212,12
3320844,10
3321464,11
3322092,12
3322716,14
3323348,15
3323976,15
3324592,14
3325224,11
3325848,11
3326472,11
3327100,10
3327720,11
3328352,11
3328972,13
3329592,15
3330224,12
3330840,16
3331468,18
3332092,16
3332720,17
3333348,17
3333972,14
3334600,14
3335228,12
3335848,13
3336476,11
3337100,10
3337728,11
3338356,11
3338976,15
3339604,16
3340228,16
3340848,15
3341476,14
3342096,11
3342724,11
3343348,11
3343972,10
3344600,11
3345224,13
3345852,14
3346484,12
3347104,11
3347732,15
3348356,15
3348988,15
3349616,16
3350232,14
3350864,13
3351488,12
3352112,15
3352740,13
3353360,11
3353988,10
3354612,11
3355236,17
3355864,18
3356488,17
3357120,16
3357748,15
3358368,13
3359000,10
3359620,11
3360252,12
3360880,11
3361496,11
3362124,11
3362748,10
3363368,11
3364000,14
3364616,16
3365244,15
3365868,15
3366488,15
3367116,16
3367736,17
3368364,11
3368992,10
3369616,12
3370244,11
3370864,11
3371496,11
3372124,11
3372744,15
3373372,15
3373996,16
3374620,15
3375252,11
3375872,11
3376500,11
3377124,11
3377748,11
3378380,10
3379000,11
3379632,11
3380260,11
3380880,16
3381508,16
3382132,16
3382760,17
3383388,14
3384008,15
3384636,13
3385260,13
3385884,13
3386512,13
3387128,12
3387760,11
3388384,12
3389008,15
3389636,14
3390256,15
3390884,15
3391516,14
3392136,11
3392764,10
3393388,10
3394016,10
3394644,10
3395264,11
3395892,11
3396516,11
3397140,13
3397768,16
3398384,15
3399016,16
3399640,17
3400264,15
3400892,13
3401512,12
3402140,12
3402772,11
3403392,13
3404020,11
3404644,11
3405272,11
3405904,14
3406520,15
3407148,15
3407772,16
3408396,11
3409024,10
3409648,11
3410276,10
3410900,10
3411524,10
3412152,11
3412772,12
3413400,12
3414028,15
3414648,17
3415276,17
3415900,18
3416532,17
3417160,12
3417784,13
3418412,12
3419036,12
3419660,11
3420292,11
3420912,12
3421540,10
3422164,13
3422788,14
3423420,14
3424040,16
3424668,15
3425296,10
3425920,11
3426548,11
3427172,11
3427804,12
3428436,11
3429056,11
3429688,14
3430312,13
3430936,14
3431564,14
3432184,17
3432812,18
3433436,20
3434060,24
3434692,20
3435312,16
3435944,12
3436572,10
3437192,11
3437824,11
3438448,11
3439076,15
3439708,14
3440328,15
3440956,15
3441580,12
3442204,11
3442832,11
3443456,12
3444084,10
3444708,10
3445332,11
3445960,10
3446576,11
3447208,16
3447836,15
3448456,16
3449084,16
3449708,15
3450340,11
3450968,11
3451584,13
3452216,16
3452840,15
3453464,11
3454092,10
3454712,13
3455344,13
3455968,14
3456592,15
3457220,14
3457840,16
3458468,11
3459096,10
3459720,12
3460348,11
3460972,11
3461604,12
3462232,12
3462852,12
3463480,15
3464104,17
3464728,17
3465356,15
3465976,15
3466604,15
3467228,15
3467852,13
3468484,10
3469104,11
3469732,11
3470364,10
3470984,11
3471612,11
3472240,14
3472868,17
3473496,19
3474116,16
3474744,15
3475368,13
3475992,13
3476624,11
3477244,11
3477872,14
3478496,14
3479120,15
3479748,11
3480368,13
3480996,15
3481628,16
3482244,19
3482876,20
3483496,16
3484128,18
3484756,15
3485376,13
3486004,13
3486628,11
3487252,10
3487880,10
3488504,11
3489132,14
3489756,16
3490380,15
3491008,14
3491632,14
3492260,13
3492892,10
3493512,11
3494140,12
3494768,13
3495396,11
3496024,10
3496648,11
3497276,15
3497900,15
3498524,16
3499156,16
3499776,15
3500404,15
3501028,14
3501656,19
3502284,17
3502904,12
3503532,12
3504164,10
3504784,11
3505412,14
3506036,15
3506668,15
3507300,15
3507920,15
3508548,11
3509172,11
3509796,13
3510428,12
3511048,11
3511676,11
3512304,13
3512928,16
3513556,15
3514184,15
3514816,16
3515444,16
3516064,17
3516696,11
3517320,11
3517952,11
3518580,14
3519200,16
3519832,18
3520456,15
3521080,15
3521712,11
3522328,15
3522956,15
3523580,14
3524208,15
3524836,13
3525460,11
3526088,11
3526716,11
3527336,12
3527964,11
3528588,13
3529220,13
3529848,13
3530472,16
3531100,16
3531724,16
3532352,16
3532980,14
3533600,11
3534228,11
3534856,11
3535476,12
3536104,14
3536728,14
3537356,11
3537988,10
3538608,11
3539236,14
3539860,15
3540484,15
3541116,14
3541736,12
3542368,11
3542992,12
3543616,12
3544244,11
3544864,12
3545492,11
3546124,11
3546744,13
3547372,14
3547996,16
3548628,17
3549260,20
3549880,21
3550508,20
3551136,20
3551760,20
3552392,14
3553008,13
3553636,12
3554260,11
3554884,10
3555516,14
3556136,15
3556768,15
3557396,16
3558016,17
3558648,13
3559272,11
3559900,11
3560532,10
3561152,11
3561784,12
3562408,14
3563028,13
3563660,13
3564280,16
3564908,14
3565532,15
3566156,15
3566788,11
3567408,13
3568036,12
3568668,12
3569288,11
3569916,10
3570544,12
3571172,11
3571804,11
3572424,15
3573056,16
3573680,17
3574304,17
3574936,17
3575552,13
3576184,11
3576808,12
3577432,12
3578064,11
3578684,11
3579312,10
3579944,11
3580564,16
3581196,17
3581820,17
3582452,15
3583084,12
3583704,12
3584336,11
3584960,13
3585584,17
3586212,18
3586832,16
3587460,12
3588084,11
3588708,15
3589340,14
3589960,15
3590592,15
3591220,15
3591840,11
3592468,11
3593092,11
3593724,11
3594356,12
3594976,17
3595604,13
3596228,11
3596852,11
3597484,14
3598104,16
3598732,18
3599356,20
3599984,20
3600616,18
3601240,15
3601868,14
3602500,12
3603120,12
3603752,11
3604376,12
3605000,12
3605628,14
3606248,15
3606876,15
3607500,16
3608124,12
3608752,11
3609376,12
3610004,11
3610636,11
3611256,11
3611884,11
3612508,11
3613136,11
3613768,15
3614384,17
3615016,18
3615636,17
3616264,17
3616892,12
3617512,12
3618140,14
3618764,17
3619388,15
3620016,10
3620640,11
3621268,10
3621896,11
3622520,14
3623148,15
3623772,15
3624404,16
3625032,11
3625648,10
3626276,11
3626900,11
3627524,11
3628156,10
3628776,13
3629408,13
3630032,11
3630656,16
3631284,15
3631904,17
3632536,16
3633164,14
3633784,15
3634412,17
3635040,15
3635668,11
3636300,10
3636920,11
3637548,11
3638172,10
3638796,15
3639428,14
3640048,15
3640676,16
3641300,13
3641924,11
3642556,11
3643176,12
3643808,11
3644436,10
3645056,12
3645684,11
3646308,11
3646940,15
3647568,16
3648192,16
3648820,15
3649444,18
3650068,17
3650696,15
3651312,13
3651944,11
3652568,11
3653192,11
3653820,11
3654440,13
3655068,13
3655700,14
3656320,16
3656948,17
3657572,16
3658204,13
3658836,12
3659456,11
3660088,13
3660712,13
3661336,13
3661964,11
3662584,13
3663212,11
3663840,15
3664464,15
3665092,18
3665712,24
3666344,19
3666972,22
3667592,19
3668220,17
3668848,11
3669476,11
3670108,10
3670728,11
3671356,11
3671984,14
3672608,16
3673240,15
3673856,15
3674488,15
3675112,15
3675736,13
3676368,11
3676984,10
3677616,11
3678244,11
3678864,11
3679496,13
3680120,14
3680748,18
3681380,14
3682000,16
3682628,15
3683252,13
3683876,13
3684508,11
3685128,14
3685756,12
3686384,12
3687008,10
3687640,12
3688260,11
3688892,14
3689520,15
3690136,14
3690768,16
3691392,12
3692020,10
3692648,12
3693272,12
3693900,13
3694524,11
3695148,11
3695780,11
3696400,14
3697028,17
3697652,17
3698276,16
3698904,15
3699528,16
3700160,15
3700788,16
3701408,17
3702036,15
3702660,17
3703292,16
3703920,10
3704544,13
3705172,12
3705800,14
3706424,15
3707052,15
3707672,16
3708300,11
3708924,10
3709552,11
3710180,10
3710808,12
3711436,13
3712068,12
3712688,13
3713316,11
3713940,14
3714564,16
3715196,16
3715816,14
3716444,14
3717072,14
3717696,15
3718324,14
3718944,15
3719572,15
3720204,14
3720824,11
3721452,13
3722076,17
3722708,15
3723340,15
3723960,16
3724592,15
3725216,12
3725840,10
3726468,10
3727088,11
3727720,11
3728340,11
3728964,11
3729596,10
3730216,14
3730844,15
3731476,16
3732096,19
3732724,17
3733348,11
3733980,10
3734612,10
3735232,12
3735864,13
3736488,15
3737112,14
3737744,12
3738360,14
3738988,15
3739612,16
3740236,17
3740868,17
3741488,13
3742116,11
3742748,11
3743368,11
3743996,12
3744624,16
3745252,14
3745884,14
3746504,11
3747136,15
3747760,16
3748384,17
3749012,15
3749632,13
3750264,13
3750888,14
3751512,13
3752144,16
3752760,17
3753392,11
3754020,11
3754640,11
3755272,16
3755896,15
3756528,16
3757156,15
3757776,16
3758408,13
3759032,11
3759656,12
3760288,14
3760904,14
3761536,11
3762160,11
3762784,11
3763416,11
3764040,15
3764668,16
3765300,14
3765920,15
3766548,13
3767176,13
3767804,13
3768436,14
3769056,16
3769684,12
3770308,12
3770932,13
3771564,11
3772184,16
3772812,17
3773436,14
3774064,15
3774696,13
3775320,12
3775952,12
3776584,11
3777200,12
3777828,11
3778452,11
3779080,12
3779708,11
3780328,18
3780956,17
3781584,16
3782208,16
3782836,16
3783456,19
3784088,19
3784716,16
3785336,13
3785968,12
3786592,11
3787224,11
3787852,10
3788472,13
3789104,15
3789728,15
3790352,15
3790980,15
3791600,13
3792228,13
3792856,13
3793476,11
3794108,11
3794728,15
3795356,12
3795988,11
3796608,15
3797236,18
3797864,17
3798492,15
3799124,14
3799744,16
3800376,16
3801000,15
3801624,17
3802252,12
3802872,11
3803504,12
3804128,11
3804752,11
3805384,15
3806004,15
3806632,17
3807264,15
3807880,13
3808512,10
3809136,11
3809768,11
3810396,11
3811016,11
3811648,11
3812272,11
3812896,12
3813524,14
3814144,15
3814776,15
3815400,16
3816024,16
3816652,12
3817272,13
3817904,13
3818532,14
3819152,13
3819784,13
3820408,11
3821040,12
3821668,11
3822288,15
3822920,15
3823544,15
3824168,16
3824796,10
3825416,13
3826048,13
3826672,13
3827296,11
3827924,11
3828552,11
3829180,11
3829812,11
3830432,17
3831064,15
3831688,17
3832320,16
3832948,11
3833568,10
3834200,14
3834828,14
3835452,11
3836084,10
3836704,14
3837336,12
3837968,11
3838588,14
3839220,14
3839844,16
3840480,15
3841108,14
3841728,11
3842356,14
3842980,15
3843604,13
3844232,10
3844856,16
3845484,17
3846108,12
3846732,13
3847360,15
3847984,18
3848612,19
3849244,18
3849864,13
3850492,12
3851116,13
3851748,13
3852376,12
3853000,11
3853628,12
3854252,14
3854876,12
3855508,14
3856128,17
3856756,16
3857380,17
3858004,14
3858632,10
3859256,12
3859884,13
3860516,12
3861136,12
3861764,12
3862388,11
3863020,12
3863652,21
3864272,20
3864900,20
3865528,17
3866152,15
3866780,11
3867400,13
3868028,15
3868652,13
3869276,13
3869908,11
3870532,10
3871164,11
3871796,12
3872416,14
3873044,15
3873668,15
3874300,15
3874928,10
3875552,11
3876184,11
3876808,11
3877428,11
3878060,11
3878680,12
3879308,11
3879936,10
3880560,15
3881188,15
3881812,15
3882444,15
3883076,10
3883696,10
3884324,12
3884952,15
3885576,13
3886204,12
3886824,11
3887456,10
3888080,11
3888704,17
3889332,16
3889952,17
3890584,16
3891212,13
3891832,11
3892460,11
3893084,11
3893716,11
3894344,12
3894964,15
3895592,11
3896216,12
3896840,16
3897468,16
3898088,17
3898716,16
3899344,18
3899968,13
3900596,10
3901216,11
3901848,13
3902476,10
3903096,14
3903728,11
3904352,11
3904980,14
3905612,15
3906232,16
3906864,16
3907488,17
3908112,11
3908740,11
3909360,12
3909988,11
3910616,13
3911240,13
3911872,15
3912488,13
3913116,11
3913748,16
3914368,17
3915000,19
3915624,19
3916252,16
3916884,13
3917504,14
3918136,13
3918760,11
3919384,11
3920016,10
3920632,11
3921264,12
3921888,17
3922512,17
3923144,15
3923760,15
3924392,15
3925024,11
3925640,11
3926272,13
3926896,13
3927528,11
3928156,10
3928776,11
3929408,13
3930032,17
3930656,19
3931288,19
3931904,17
3932536,15
3933160,12
3933784,13
3934412,13
3935032,12
3935664,10
3936292,10
3936912,11
3937540,11
3938164,11
3938796,16
3939424,15
3940048,16
3940676,15
3941300,11
3941924,11
3942556,10
3943176,11
3943804,11
3944428,11
3945052,11
3945680,11
3946304,12
3946932,15
3947564,16
3948184,16
3948812,17
3949436,15
3950068,14
3950700,12
3951320,11
3951952,11
3952576,13
3953200,13
3953828,10
3954448,11
3955076,14
3955704,15
3956328,15
3956956,14
3957580,15
3958212,11
3958844,10
3959464,11
3960096,11
3960720,10
3961348,11
3961980,10
3962600,12
3963228,11
3963852,15
3964480,19
3965108,16
3965728,15
3966360,13
3966988,12
3967608,13
3968240,11
3968864,11
3969492,10
3970120,12
3970744,11
3971372,11
3971996,14
3972624,15
3973252,15
3973872,16
3974500,13
3975124,11
3975748,12
3976380,14
3977000,13
3977628,11
3978260,12
3978880,12
3979508,13
3980136,15
3980764,14
3981396,15
3982016,17
3982648,17
3983272,11
3983896,11
3984528,11
3985144,20
3985772,24
3986400,21
3987024,15
3987652,12
3988272,13
3988904,15
3989532,15
3990152,17
3990784,17
3991408,13
3992040,11
3992668,11
3993288,13
3993920,13
3994544,12
3995168,11
3995796,11
3996416,13
3997044,13
3997672,15
3998296,16
3998928,15
3999544,13
4000176,13
4000804,14
4001424,16
4002052,13
4002676,12
4003304,11
4003932,10
4004552,11
4005180,15
4005804,14
4006428,15
4007056,14
4007672,14
4008304,12
4008928,11
4009552,12
4010180,10
4010800,12
4011428,11
4012060,10
4012680,11
4013312,15
4013936,17
4014564,17
4015196,16
4015816,18
4016444,11
4017068,11
4017692,15
4018324,12
4018944,11
4019572,13
4020196,11
4020820,10
4021448,10
4022072,15
4022700,15
4023332,14
4023952,15
4024584,11
4025208,11
4025836,12
4026468,10
4027088,11
4027716,11
4028340,11
4028964,13
4029596,16
4030216,21
4030848,18
4031472,20
4032096,16
4032724,12
4033348,11
4033976,14
4034608,16
4035224,15
4035856,14
4036480,14
4037108,12
4037740,10
4038360,15
4038992,15
4039616,17
4040240,17
4040868,15
4041488,13
4042116,11
4042744,11
4043368,11
4043996,11
4044624,12
4045252,11
4045884,10
4046504,12
4047132,15
4047756,17
4048388,17
4049016,17
4049640,13
4050268,13
4050892,11
4051516,10
4052148,10
4052768,13
4053400,13
4054028,12
4054648,12
4055280,15
4055904,16
4056532,15
4057164,14
4057784,13
4058412,12
4059036,11
4059660,11
4060292,11
4060912,11
4061540,11
4062164,11
4062792,11
4063420,16
4064040,15
4064668,15
4065300,16
4065920,17
4066548,12
4067176,14
4067804,17
4068436,15
4069056,15
4069688,13
4070312,13
4070936,13
4071568,13
4072188,15
4072816,15
4073440,15
4074064,18
4074696,15
4075312,12
4075944,11
4076576,12
4077192,10
4077824,11
4078448,11
4079076,11
4079708,10
4080328,15
4080956,15
4081584,15
4082208,15
4082840,13
4083456,14
4084088,18
4084712,19
4085336,15
4085968,14
4086584,11
4087212,11
4087844,10
4088464,15
4089096,15
4089720,15
4090348,15
4090980,14
4091600,10
4092232,11
4092856,12
4093480,14
4094112,14
4094732,11
4095360,12
4095988,11
4096616,14
4097240,17
4097864,17
4098492,16
4099120,19
4099736,17
4100364,17
4100988,16
4101616,14
4102244,12
4102864,15
4103492,15
4104112,11
4104736,12
4105364,14
4105984,15
4106612,15
4107232,15
4107856,12
4108484,10
4109104,11
4109732,11
4110360,10
4110976,10
4111608,11
4112228,12
4112860,11
4113488,15
4114104,16
4114732,16
4115356,17
4115980,18
4116608,16
4117232,17
4117860,13
4118484,10
4119104,10
4119736,10
4120352,11
4120980,13
4121608,14
4122228,15
4122860,15
4123480,15
4124112,15
4124740,10
4125360,11
4125988,11
4126612,13
4127240,12
4127868,10
4128488,11
4129116,11
4129740,11
4130360,16
4130992,16
4131608,15
4132240,16
4132860,14
4133488,13
4134116,14
4134740,16
4135372,13
4136000,11
4136616,10
4137244,11
4137868,10
4138496,15
4139128,16
4139744,15
4140372,15
4140996,12
4141620,11
4142248,10
4142872,11
4143500,11
4144124,10
4144752,11
4145380,11
4146004,10
4146632,15
4147264,17
4147880,18
4148508,18
4149132,18
4149760,17
4150388,14
4151008,13
4151636,10
4152264,11
4152888,11
4153516,10
4154136,11
4154764,11
4155388,14
4156016,15
4156644,17
4157268,16
4157900,14
4158532,13
4159152,12
4159784,11
4160408,11
4161028,11
4161660,11
4162280,11
4162908,11
4163528,15
4164152,17
4164780,16
4165400,16
4166028,14
4166652,12
4167280,13
4167908,17
4168532,17
4169160,15
4169788,10
4170408,11
4171036,11
4171660,16
4172288,15
4172920,15
4173536,16
4174164,15
4174788,11
4175412,12
4176040,12
4176664,12
4177292,12
4177916,11
4178540,11
4179168,13
4179792,15
4180420,16
4181052,14
4181672,17
4182300,23
4182924,19
4183556,12
4184184,10
4184800,11
4185432,11
4186056,11
4186676,12
4187308,16
4187928,16
4188556,17
4189180,16
4189808,16
4190436,15
4191060,12
4191692,10
4192320,11
4192936,11
4193568,11
4194192,11
4194820,12
4195452,12
4196072,13
4196700,15
4197324,16
4197948,16
4198580,14
4199196,15
4199828,15
4200456,15
4201072,14
4201704,11
4202324,10
4202952,10
4203584,10
4204200,11
4204828,13
4205452,16
4206080,16
4206708,16
4207328,16
4207956,11
4208584,11
4209208,11
4209836,10
4210456,13
4211084,13
4211708,10
4212336,13
4212964,12
4213588,14
4214220,15
4214848,16
4215472,15
4216100,11
4216724,11
4217352,11
4217980,12
4218600,12
4219228,13
4219852,11
4220476,10
4221108,10
4221728,15
4222356,15
4222988,14
4223608,16
4224240,15
4224860,12
4225488,11
4226120,10
4226736,12
4227364,15
4227988,13
4228616,13
4229244,11
4229864,14
4230492,15
4231116,15
4231740,16
4232368,16
4232984,13
4233616,14
4234240,18
4234864,27
4235492,25
4236116,17
4236748,10
4237380,10
4238000,11
4238628,14
4239252,15
4239880,17
4240508,14
4241128,11
4241756,11
4242380,10
4243004,11
4243636,10
4244256,11
4244884,12
4245516,12
4246136,14
4246764,16
4247388,18
4248020,18
4248648,17
4249268,13
4249896,11
4250520,14
4251144,16
4251772,14
4252392,13
4253020,11
4253644,11
4254268,11
4254900,14
4255520,15
4256148,15
4256780,14
4257400,15
4258028,11
4258652,11
4259284,11
4259912,11
4260528,12
4261160,16
4261780,14
4262404,12
4263032,11
4263656,15
4264284,17
4264908,18
4265532,18
4266160,14
4266784,14
4267412,16
4268044,14
4268664,16
4269292,16
4269916,12
4270548,10
4271176,12
4271800,13
4272428,15
4273052,15
4273676,16
4274308,10
4274928,13
4275556,11
4276180,11
4276804,13
4277432,14
4278056,17
4278684,13
4279316,10
4279936,15
4280568,15
4281188,15
4281820,15
4282448,18
4283068,22
4283696,25
4284320,22
4284944,15
4285572,10
4286192,12
4286820,11
4287444,14
4288068,15
4288700,14
4289320,17
4289948,18
4290576,16
4291200,13
4291828,11
4292452,11
4293084,10
4293712,10
4294336,11
4294968,12
4295592,13
4296216,15
4296844,17
4297464,18
4298096,18
4298720,20
4299344,21
4299976,16
4300592,12
4301224,12
4301852,10
4302472,11
4303100,13
4303724,11
4304356,10
4304984,14
4305600,17
4306228,17
4306852,15
4307476,14
4308108,12
4308728,12
4309356,11
4309980,11
4310604,11
4311236,11
4311856,11
4312484,11
4313116,14
4313736,16
4314364,16
4314988,16
4315620,15
4316248,13
4316872,16
4317500,15
4318128,11
4318752,11
4319380,10
4320000,11
4320628,12
4321252,13
4321876,15
4322504,14
4323128,15
4323756,16
4324388,10
4325008,11
4325636,11
4326260,12
4326892,12
4327520,11
4328144,13
4328772,12
4329396,11
4330020,18
4330652,20
4331272,20
4331904,18
4332528,16
4333152,14
4333780,11
4334404,10
4335036,11
4335664,15
4336288,15
4336916,11
4337540,10
4338172,14
4338804,14
4339424,15
4340052,17
4340676,15
4341304,11
4341932,10
4342552,11
4343180,11
4343804,10
4344432,12
4345060,12
4345684,11
4346316,12
4346944,18
4347568,19
4348196,17
4348824,17
4349444,13
4350076,12
4350696,14
4351328,13
4351952,11
4352576,10
4353208,11
4353824,12
4354452,14
4355084,14
4355704,16
4356332,16
4356956,15
4357588,11
4358216,11
4358836,11
4359464,11
4360088,13
4360712,14
4361340,17
4361960,17
4362588,13
4363212,15
4363836,16
4364468,15
4365088,16
4365716,15
4366348,16
4366968,17
4367596,19
4368220,19
4368852,19
4369480,14
4370100,11
4370728,11
4371352,14
4371976,17
4372608,15
4373224,16
4373852,16
4374476,12
4375100,12
4375732,10
4376352,11
4376980,12
4377612,14
4378232,15
4378860,13
4379484,11
4380116,18
4380748,18
4381368,19
4382000,17
4382624,13
4383248,15
4383876,14
4384496,14
4385124,13
4385748,11
4386372,11
4387004,10
4387624,11
4388252,15
4388884,16
4389504,16
4390132,15
4390760,14
4391388,11
4392020,12
4392640,15
4393268,11
4393896,11
4394520,12
4395148,11
4395768,13
4396400,15
4397024,15
4397648,16
4398280,16
4398896,18
4399528,17
4400156,20
4400776,19
4401404,16
4402032,14
4402660,13
4403292,10
4403912,12
4404540,11
4405164,14
4405788,14
4406416,16
4407032,15
4407664,12
4408288,11
4408912,12
4409540,11
4410160,11
4410788,11
4411420,12
4412040,11
4412668,11
4413296,17
4413924,18
4414556,18
4415176,18
4415808,13
4416432,11
4417056,11
4417684,10
4418304,14
4418932,19
4419556,13
4420180,11
4420812,10
4421432,15
4422064,15
4422692,15
4423312,15
4423944,15
4424568,11
4425196,11
4425824,10
4426448,10
4427076,10
4427700,13
4428324,11
4428956,10
4429576,13
4430204,15
4430828,16
4431452,15
4432084,15
4432708,12
4433336,14
4433964,17
4434584,17
4435212,11
4435836,12
4436468,11
4437096,10
4437720,12
4438352,15
4438976,15
4439600,16
4440228,15
4440848,12
4441476,11
4442104,11
4442728,11
4443356,11
4443984,12
4444612,14
4445244,11
4445864,11
4446492,16
4447116,17
4447748,16
4448380,15
4449000,17
4449628,13
4450252,10
4450876,11
4451508,10
4452128,13
4452756,13
4453388,13
4454008,12
4454640,14
4455260,15
4455892,15
4456524,15
4457144,15
4457772,11
4458396,12
4459024,12
4459652,12
4460272,13
4460904,11
4461528,16
4462152,22
4462780,19
4463400,17
4464032,15
4464660,14
4465280,16
4465908,13
4466536,13
4467164,11
4467796,12
4468416,14
4469048,12
4469672,11
4470296,11
4470928,12
4471544,15
4472176,15
4472800,16
4473424,16
4474056,13
4474676,10
4475304,10
4475936,12
4476556,13
4477188,12
4477812,11
4478444,11
4479076,10
4479696,15
4480328,17
4480952,15
4481576,16
4482204,16
4482824,11
4483452,17
4484076,20
4484700,16
4485332,14
4485956,12
4486584,12
4487216,10
4487832,14
4488460,15
4489084,16
4489716,16
4490344,15
4490968,11
4491596,11
4492224,12
4492848,14
4493476,10
4494096,11
4494724,13
4495348,15
4495976,12
4496608,17
4497232,20
4497860,23
4498492,19
4499112,15
4499744,13
4500368,16
4501000,12
4501628,10
4502248,12
4502880,13
4503504,13
4504128,15
4504760,18
4505376,16
4506008,15
4506636,15
4507256,15
4507884,11
4508508,10
4509136,10
4509768,11
4510384,17
4511016,19
4511640,15
4512264,13
4512892,12
4513512,17
4514140,18
4514764,19
4515388,20
4516020,17
4516640,17
4517268,15
4517900,12
4518520,11
4519148,11
4519772,11
4520404,11
4521032,11
4521652,13
4522280,15
4522904,17
4523528,18
4524156,12
4524776,11
4525408,14
4526032,15
4526656,13
4527284,10
4527904,18
4528536,15
4529164,11
4529784,19
4530412,16
4531036,15
4531668,17
4532300,18
4532920,18
4533548,15
4534176,16
4534800,15
4535428,12
4536048,12
4536676,12
4537300,11
4537924,13
4538556,14
4539176,15
4539808,16
4540436,14
4541056,11
4541688,11
4542312,11
4542944,11
4543572,12
4544192,11
4544824,12
4545448,11
4546072,11
4546700,14
4547320,15
4547948,15
4548572,16
4549196,12
4549828,12
4550448,17
4551076,13
4551708,12
4552328,17
4552956,13
4553584,11
4554212,11
4554844,15
4555464,15
4556096,15
4556720,15
4557344,12
4557976,11
4558592,11
4559224,11
4559848,11
4560472,13
4561100,14
4561720,11
4562348,13
4562980,16
4563600,17
4564228,16
4564852,16
4565484,15
4566116,11
4566736,14
4567368,17
4567992,19
4568616,17
4569244,13
4569864,11
4570492,11
4571116,11
4571744,17
4572376,15
4573000,17
4573628,15
4574260,10
4574880,11
4575512,11
4576136,12
4576764,13
4577396,11
4578016,12
4578644,11
4579272,13
4579896,20
4580524,16
4581144,15
4581776,15
4582404,11
4583024,11
4583656,11
4584280,14
4584912,14
4585540,14
4586160,17
4586792,15
4587416,11
4588040,14
4588668,16
4589288,16
4589916,14
4590540,15
4591164,11
4591796,10
4592416,11
4593044,12
4593676,14
4594296,18
4594924,13
4595552,11
4596180,16
4596812,16
4597432,17
4598064,17
4598688,16
4599312,14
4599944,14
4600560,18
4601192,17
4601816,15
4602440,12
4603068,10
4603688,10
4604316,12
4604948,13
4605568,15
4606200,15
4606824,15
4607456,11
4608084,10
4608700,11
4609328,13
4609952,13
4610576,13
4611204,12
4611824,12
4612452,11
4613076,15
4613700,16
4614332,20
4614952,23
4615580,17
4616212,21
4616832,23
4617460,15
4618084,13
4618716,12
4619344,10
4619968,11
4620596,11
4621224,15
4621844,15
4622476,14
4623096,16
4623724,15
4624352,11
4624976,12
4625604,12
4626224,12
4626852,11
4627484,10
4628104,12
4628732,13
4629356,12
4629988,15
4630616,18
4631240,19
4631868,16
4632492,11
4633116,12
4633748,14
4634368,16
4634996,14
4635620,13
4636244,11
4636876,10
4637496,12
4638124,15
4638756,14
4639376,15
4640004,15
4640628,11
4641256,12
4641888,11
4642504,11
4643132,11
4643756,12
4644384,13
4645012,11
4645632,12
4646260,15
4646884,17
4647508,17
4648140,16
4648760,16
4649388,19
4650020,20
4650640,19
4651268,14
4651892,12
4652524,10
4653156,12
4653776,14
4654404,13
4655028,14
4655656,16
4656284,16
4656904,15
4657532,11
4658160,11
4658784,12
4659412,11
4660036,12
4660668,11
4661296,11
4661916,11
4662544,12
4663168,16
4663796,15
4664428,16
4665048,19
4665676,19
4666300,16
4666924,14
4667556,12
4668176,11
4668804,11
4669428,10
4670056,11
4670684,11
4671312,15
4671940,16
4672572,15
4673192,17
4673820,15
4674444,11
4675076,12
4675704,10
4676328,11
4676956,11
4677580,11
4678208,11
4678836,12
4679456,17
4680088,17
4680716,16
4681336,16
4681964,15
4682588,11
4683220,13
4683852,15
4684472,21
4685104,15
4685728,12
4686352,10
4686984,15
4687600,14
4688228,15
4688852,15
4689476,15
4690108,14
4690728,11
4691356,11
4691988,10
4692608,11
4693236,12
4693864,13
4694492,15
4695124,11
4695744,11
4696376,16
4697000,16
4697624,15
4698252,18
4698872,17
4699504,15
4700128,17
4700752,17
4701384,14
4702004,12
4702632,12
4703264,10
4703888,10
4704520,14
4705144,15
4705776,15
4706404,14
4707024,15
4707656,11
4708280,12
4708904,11
4709536,12
4710156,12
4710788,13
4711412,15
4712036,14
4712664,11
4713288,16
4713916,18
4714548,18
4715168,21
4715800,17
4716424,14
4717056,15
4717684,11
4718304,11
4718936,13
4719560,12
4720184,11
4720812,12
4721432,15
4722060,15
4722684,14
4723312,15
4723940,12
4724564,11
4725196,11
4725828,10
4726448,12
4727076,11
4727704,14
4728328,15
4728956,13
4729576,15
4730208,20
4730836,19
4731460,20
4732092,16
4732712,15
4733344,13
4733976,13
4734596,12
4735224,11
4735852,10
4736484,10
4737112,10
4737736,13
4738364,15
4738992,15
4739616,15
4740244,15
4740864,11
4741492,13
4742120,15
4742744,14
4743372,13
4743992,11
4744624,12
4745256,11
4745872,12
4746504,15
4747128,15
4747760,15
4748392,15
4749008,10
4749640,13
4750264,16
4750888,16
4751520,14
4752136,14
4752764,10
4753388,11
4754016,12
4754644,15
4755268,15
4755900,15
4756528,16
4757152,15
4757784,13
4758408,11
4759036,13
4759668,10
4760288,10
4760920,11
4761544,12
4762168,12
4762800,15
4763416,15
4764048,18
4764676,18
4765296,17
4765924,17
4766552,14
4767184,10
4767812,10
4768432,11
4769064,11
4769688,14
4770312,14
4770944,14
4771560,14
4772192,15
4772816,17
4773440,15
4774068,11
4774688,13
4775320,11
4775952,13
4776568,11
4777200,12
4777824,12
4778456,12
4779084,14
4779704,18
4780336,19
4780960,21
4781584,21
4782216,14
4782832,11
4783464,11
4784088,10
4784712,11
4785344,11
4785964,10
4786592,10
4787224,11
4787844,14
4788472,15
4789100,15
4789732,15
4790364,16
4790984,14
4791616,11
4792244,11
4792868,11
4793500,10
4794120,11
4794752,11
4795376,11
4796004,14
4796636,17
4797260,16
4797892,16
4798524,14
4799144,12
4799776,12
4800404,14
4801028,10
4801660,10
4802280,11
4802908,11
4803532,11
4804156,11
4804788,13
4805408,16
4806036,15
4806668,14
4807288,12
4807916,12
4808544,12
4809172,13
4809804,10
4810424,11
4811052,11
4811680,12
4812304,11
4812936,16
4813552,19
4814180,17
4814804,17
4815428,13
4816060,10
4816680,10
4817308,12
4817940,16
4818560,15
4819188,11
4819812,11
4820444,13
4821076,16
4821696,17
4822328,15
4822952,16
4823576,16
4824208,10
4824824,10
4825452,12
4826080,13
4826704,11
4827332,10
4827952,12
4828584,12
4829212,12
4829832,16
4830464,17
4831088,18
4831720,17
4832348,14
4832968,13
4833596,11
4834224,12
4834848,11
4835476,12
4836096,11
4836724,11
4837352,10
4837976,13
4838604,15
4839224,17
4839852,16
4840484,11
4841104,11
4841732,11
4842356,12
4842988,11
4843620,10
4844240,11
4844868,11
4845492,12
4846116,17
4846748,16
4847368,18
4847996,18
4848624,15
4849248,18
4849880,25
4850504,26
4851132,21
4851764,20
4852384,19
4853016,17
4853640,14
4854272,15
4854900,15
4855520,15
4856152,15
4856776,16
4857400,11
4858032,10
4858648,10
4859280,10
4859908,10
4860528,10
4861160,12
4861784,11
4862416,13
4863044,16
4863664,15
4864296,16
4864920,15
4865544,13
4866172,10
4866792,11
4867420,11
4868044,12
4868668,14
4869300,14
4869920,13
4870548,11
4871180,14
4871800,15
4872432,15
4873056,15
4873684,13
4874316,10
4874936,11
4875564,11
4876192,11
4876816,13
4877444,12
4878064,12
4878696,11
4879320,16
4879944,17
4880576,16
4881192,18
4881824,17
4882452,14
4883072,13
4883704,13
4884328,11
4884956,11
4885588,10
4886208,12
4886840,13
4887464,13
4888088,16
4888716,14
4889336,15
4889968,16
4890592,14
4891216,12
4891844,10
4892464,11
4893096,12
4893724,10
4894344,11
4894976,13
4895600,17
4896232,17
4896860,14
4897480,17
4898108,16
4898736,15
4899360,22
4899992,18
4900608,13
4901240,13
4901864,13
4902488,13
4903116,11
4903736,11
4904368,15
4905000,17
4905616,19
4906244,15
4906872,18
4907504,14
4908136,12
4908752,11
4909388,11
4910012,11
4910636,13
4911268,11
4911888,10
4912524,11
4913148,14
4913776,15
4914408,15
4915036,14
4915668,13
4916296,14
4916920,16
4917548,15
4918172,12
4918796,12
4919428,10
4920048,11
4920676,11
4921300,15
4921924,15
4922552,14
4923172,15
4923800,11
4924432,10
4925052,10
4925680,11
4926304,11
4926932,10
4927564,12
4928184,12
4928812,11
4929436,15
4930060,15
4930688,15
4931304,15
4931936,15
4932560,16
4933184,16
4933812,16
4934432,15
4935060,13
4935692,10
4936312,11
4936940,11
4937564,15
4938196,16
4938828,14
4939448,15
4940076,15
4940704,11
4941328,14
4941956,11
4942576,12
4943204,11
4943828,11
4944452,11
4945084,10
4945704,11
4946332,15
4946964,14
4947584,16
4948212,15
4948836,12
4949468,14
4950100,17
4950720,18
4951348,14
4951976,13
4952600,18
4953232,16
4953848,13
4954480,15
4955104,15
4955728,15
4956360,16
4956976,14
4957604,12
4958236,10
4958856,11
4959488,13
4960112,14
4960740,11
4961372,10
4961992,12
4962620,18
4963244,17
4963868,17
4964500,14
4965120,17
4965748,15
4966376,14
4967000,14
4967628,12
4968248,14
4968876,14
4969508,10
4970128,11
4970756,11
4971384,15
4972012,16
4972644,14
4973264,16
4973892,11
4974520,11
4975144,11
4975772,10
4976392,10
4977024,11
4977648,11
4978268,11
4978900,11
4979524,15
4980152,16
4980784,17
4981404,15
4982036,11
4982660,12
4983288,16
4983916,15
4984536,12
4985164,11
4985792,12
4986416,11
4987044,10
4987664,16
4988296,15
4988920,15
4989544,15
4990172,15
4990800,12
4991428,11
4992064,10
4992680,10
4993308,11
4993932,11
4994564,11
4995192,11
4995812,12
4996444,14
4997068,15
4997692,18
4998324,18
4998944,18
4999572,19
5000204,19
5000824,14
5001452,13
5002076,12
5002708,11
5003340,10
5003960,12
5004592,15
5005216,16
5005840,15
5006468,15
5007088,12
5007720,11
5008344,11
5008968,12
5009596,10
5010216,11
5010848,13
5011476,11
5012096,12
5012728,15
5013352,16
5013984,19
5014612,16
5015232,15
5015864,11
5016488,13
5017112,17
5017744,17
5018360,14
5018992,13
5019616,11
5020240,11
5020868,13
5021488,15
5022116,15
5022748,14
5023368,15
5023996,11
5024624,11
5025252,10
5025884,10
5026504,11
5027136,12
5027760,13
5028384,15
5029016,14
5029632,16
5030264,18
5030888,21
5031512,20
5032144,17
5032760,15
5033392,14
5034024,14
5034644,12
5035276,10
5035900,11
5036532,11
5037164,10
5037784,14
5038416,15
5039040,15
5039664,16
5040296,13
5040912,11
5041544,11
5042168,10
5042792,12
5043424,12
5044048,11
5044676,11
5045308,10
5045928,17
5046560,17
5047184,17
5047812,16
5048444,17
5049064,18
5049696,21
5050320,16
5050944,15
5051576,14
5052192,13
5052824,12
5053456,12
5054076,12
5054708,14
5055332,15
5055964,16
5056596,14
5057216,11
5057848,12
5058472,11
5059096,11
5059728,10
5060344,11
5060976,11
5061600,12
5062224,11
5062856,14
5063476,15
5064104,15
5064736,15
5065356,13
5065988,14
5066612,15
5067244,13
5067876,12
5068496,13
5069128,12
5069752,10
5070380,11
5071012,14
5071632,15
5072264,15
5072892,15
5073516,13
5074148,11
5074772,11
5075404,10
5076036,10
5076656,11
5077288,12
5077912,11
5078536,11
5079168,14
5079792,18
5080424,18
5081048,15
5081672,16
5082300,13
5082920,18
5083552,15
5084180,11
5084800,12
5085428,10
5086056,11
5086688,11
5087320,10
5087936,15
5088568,15
5089196,15
5089820,15
5090452,10
5091072,12
5091704,15
5092328,14
5092952,18
5093584,14
5094204,11
5094836,11
5095468,12
5096088,20
5096716,18
5097344,19
5097976,20
5098608,17
5099224,17
5099856,18
5100484,15
5101108,11
5101740,10
5102360,10
5102992,10
5103624,10
5104248,15
5104880,15
5105504,15
5106136,15
5106768,16
5107388,15
5108020,14
5108644,12
5109268,10
5109900,11
5110520,16
5111152,13
5111780,11
5112404,13
5113036,14
5113660,15
5114288,17
5114920,16
5115544,15
5116176,13
5116804,13
5117436,13
5118068,12
5118692,11
5119324,10
5119952,11
5120580,12
5121208,13
5121824,15
5122452,15
5123080,15
5123696,11
5124328,11
5124948,11
5125580,10
5126208,11
5126824,12
5127452,12
5128076,11
5128704,13
5129332,14
5129952,18
5130580,21
5131204,19
5131828,14
5132456,13
5133072,19
5133704,17
5134328,14
5134952,13
5135580,11
5136204,9
5136780,10
5137412,13
5138032,15
5138660,15
5139284,15
5139916,14
5140544,12
5141160,10
5141792,11
5142416,12
5143044,14
5143672,14
5144296,11
5144924,11
5145548,11
5146176,16
5146804,14
5147424,15
5148052,16
5148684,20
5149304,20
5149932,16
5150556,17
5151188,15
5151820,14
5152440,11
5153068,11
5153692,11
5154316,14
5154948,14
5155568,15
5156196,17
5156824,14
5157444,11
5158076,10
5158696,11
5159324,13
5159956,12
5160576,13
5161204,11
5161828,11
5162460,14
5163088,14
5163708,14
5164336,15
5164960,15
5165584,13
5166212,14
5166832,18
5167460,17
5168084,18
5168708,18
5169340,12
5169960,11
5170588,11
5171220,13
5171840,15
5172468,15
5173092,15
5173720,11
5174352,10
5174972,12
5175600,11
5176224,11
5176848,14
5177476,16
5178096,15
5178724,15
5179348,15
5179976,16
5180604,18
5181224,19
5181856,18
5182484,16
5183104,17
5183736,11
5184360,11
5184988,11
5185620,11
5186240,13
5186868,14
5187492,16
5188116,14
5188748,14
5189368,15
5189996,15
5190624,13
5191248,14
5191876,10
5192496,11
5193124,10
5193756,10
5194376,12
5195008,11
5195632,13
5196260,14
5196892,15
5197512,16
5198140,17
5198768,18
5199392,19
5200020,18
5200640,17
5201268,17
5201892,13
5202516,10
5203148,10
5203768,12
5204396,13
5205028,15
5205648,15
5206276,15
5206904,12
5207532,11
5208164,10
5208784,14
5209412,14
5210040,13
5210664,12
5211292,10
5211912,11
5212544,15
5213168,16
5213792,15
5214420,15
5215048,13
5215676,13
5216308,12
5216928,15
5217556,14
5218184,12
5218812,11
5219444,10
5220064,10
5220692,14
5221320,15
5221944,15
5222576,15
5223192,15
5223820,11
5224448,10
5225072,11
5225700,10
5226324,11
5226956,11
5227584,10
5228208,13
5228836,11
5229460,13
5230088,17
5230716,16
5231336,15
5231968,13
5232592,12
5233216,11
5233848,10
5234464,11
5235096,14
5235724,16
5236344,15
5236976,15
5237600,15
5238228,14
5238860,14
5239480,15
5240112,13
5240736,11
5241360,12
5241992,11
5242608,10
5243240,12
5243864,16
5244484,15
5245116,10
5245736,20
5246364,20
5246996,15
5247616,16
5248244,15
5248868,15
5249496,16
5250124,12
5250744,14
5251372,16
5251996,12
5252616,10
5253248,11
5253864,12
5254492,14
5255116,16
5255740,15
5256368,15
5256984,12
5257612,10
5258236,10
5258864,10
5259492,11
5260116,11
5260748,11
5261376,11
5261996,11
5262624,15
5263248,15
5263876,16
5264508,16
5265128,13
5265756,11
5266380,13
5267004,15
5267632,14
5268256,15
5268884,12
5269512,10
5270136,11
5270764,15
5271388,15
5272020,14
5272648,15
5273272,16
5273904,11
5274524,10
5275148,13
5275780,10
5276400,11
5277028,11
5277652,11
5278276,11
5278908,11
5279528,16
5280156,16
5280788,16
5281408,19
5282036,17
5282660,16
5283288,14
5283916,12
5284536,11
5285164,10
5285788,10
5286408,10
5287036,11
5287656,15
5288284,15
5288908,15
5289532,15
5290160,14
5290776,11
5291408,12
5292036,14
5292656,13
5293284,11
5293908,13
5294540,11
5295168,14
5295788,15
5296416,15
5297040,15
5297668,17
5298296,17
5298920,21
5299548,21
5300172,17
5300796,14
5301428,15
5302048,12
5302676,11
5303308,10
5303928,12
5304560,15
5305180,15
5305812,15
5306440,15
5307064,10
5307692,10
5308316,11
5308940,12
5309572,12
5310192,12
5310824,11
5311448,11
5312072,12
5312700,14
5313320,19
5313948,21
5314580,18
5315200,13
5315828,14
5316452,14
5317084,13
5317712,11
5318336,13
5318968,13
5319592,12
5320216,12
5320844,14
5321464,15
5322096,16
5322720,17
5323344,15
5323972,11
5324592,10
5325224,11
5325852,10
5326472,11
5327100,11
5327724,11
5328352,15
5328980,19
5329600,21
5330228,20
5330852,21
5331476,17
5332104,10
5332720,11
5333348,10
5333972,10
5334596,10
5335224,10
5335848,11
5336476,11
5337108,12
5337728,15
5338356,14
5338980,15
5339608,16
5340240,11
5340856,11
5341484,10
5342108,11
5342732,11
5343360,13
5343984,15
5344616,11
5345240,12
5345864,19
5346492,18
5347112,19
5347740,19
5348372,16
5348992,18
5349620,17
5350244,16
5350876,15
5351504,12
5352128,11
5352756,11
5353380,11
5354004,14
5354636,14
5355256,16
5355884,16
5356512,16
5357136,11
5357764,10
5358384,11
5359016,11
5359644,11
5360264,13
5360892,11
5361516,13
5362148,15
5362776,14
5363396,15
5364024,15
5364648,16
5365272,18
5365900,22
5366520,20
5367148,15
5367772,14
5368396,15
5369028,10
5369648,11
5370276,11
5370908,14
5371528,15
5372156,15
5372780,15
5373412,13
5374044,11
5374664,11
5375296,14
5375920,14
5376544,12
5377172,10
5377792,12
5378420,11
5379044,16
5379668,16
5380296,15
5380916,16
5381544,17
5382172,14
5382792,17
5383420,17
5384044,15
5384676,13
5385304,12
5385920,12
5386552,11
5387176,13
5387800,16
5388428,15
5389048,15
5389676,15
5390300,10
5390924,11
5391556,10
5392176,11
5392804,11
5393432,12
5394056,12
5394684,11
5395308,11
5395940,15
5396572,18
5397192,21
5397820,17
5398444,12
5399068,11
5399700,12
5400320,13
5400948,11
5401572,10
5402200,14
5402828,16
5403448,13
5404076,15
5404708,14
5405328,18
5405956,15
5406584,15
5407212,11
5407844,10
5408464,12
5409092,14
5409716,12
5410340,13
5410968,12
5411588,11
5412216,15
5412840,16
5413464,15
5414092,14
5414712,20
5415340,23
5415972,20
5416592,20
5417220,13
5417844,12
5418476,11
5419104,10
5419728,11
5420356,11
5420984,13
5421604,15
5422236,14
5422856,15
5423484,11
5424112,11
5424736,11
5425364,11
5425988,11
5426620,10
5427252,12
5427872,15
5428500,12
5429124,14
5429752,15
5430380,17
5431000,18
5431632,17
5432256,16
5432880,16
5433508,14
5434128,13
5434756,11
5435384,11
5436008,10
5436636,11
5437260,15
5437892,15
5438524,14
5439144,15
5439776,15
5440400,11
5441028,10
5441656,10
5442280,11
5442908,11
5443532,11
5444156,12
5444784,12
5445404,12
5446032,17
5446660,15
5447280,15
5447908,17
5448532,15
5449164,12
5449792,12
5450408,12
5451036,11
5451660,13
5452292,17
5452920,13
5453536,11
5454168,15
5454792,15
5455412,15
5456044,14
5456664,12
5457292,11
5457916,10
5458544,11
5459172,11
5459800,11
5460428,13
5461060,12
5461680,12
5462308,15
5462936,15
5463560,20
5464188,19
5464808,20
5465436,18
5466064,19
5466684,14
5467316,11
5467936,11
5468568,11
5469196,10
5469816,11
5470444,13
5471068,16
5471700,16
5472332,14
5472952,15
5473580,12
5474208,14
5474832,14
5475460,11
5476080,11
5476708,11
5477336,12
5477960,11
5478592,11
5479208,17
5479836,18
5480468,16
5481088,16
5481716,11
5482340,11
5482972,11
5483604,15
5484224,19
5484852,15
5485476,12
5486100,11
5486732,10
5487352,15
5487984,14
5488608,16
5489232,17
5489860,16
5490480,13
5491108,11
5491740,10
5492360,11
5492988,12
5493612,11
5494244,11
5494872,10
5495496,15
5496128,19
5496752,17
5497376,19
5498008,17
5498624,14
5499256,13
5499880,15
5500504,15
5501132,12
5501752,12
5502384,11
5503016,10
5503632,12
5504264,14
5504888,14
5505520,15
5506148,14
5506768,15
5507396,13
5508020,12
5508644,11
5509276,12
5509896,13
5510524,11
5511148,11
5511776,12
5512404,17
5513028,16
5513660,15
5514288,16
5514912,15
5515544,13
5516168,15
5516796,15
5517428,13
5518048,11
5518680,11
5519304,11
5519928,10
5520560,16
5521180,15
5521808,14
5522440,15
5523056,15
5523688,12
5524312,13
5524944,11
5525572,10
5526192,12
5526824,12
5527448,12
5528072,13
5528704,11
5529320,14
5529952,15
5530576,16
5531200,15
5531828,13
5532448,18
5533076,15
5533708,12
5534328,13
5534960,13
5535584,12
5536212,11
5536844,11
5537464,14
5538092,16
5538716,15
5539340,15
5539972,12
5540592,11
5541220,11
5541844,11
5542472,11
5543100,11
5543720,12
5544348,12
5544980,10
5545600,16
5546228,17
5546852,17
5547484,15
5548116,14
5548736,11
5549368,13
5549992,14
5550616,18
5551248,16
5551864,13
5552496,11
5553120,11
5553744,12
5554376,16
5554992,15
5555624,15
5556256,15
5556876,11
5557504,11
5558128,11
5558760,11
5559388,11
5560008,12
5560636,12
5561264,12
5561888,11
5562520,14
5563136,15
5563768,17
5564392,16
5565016,14
5565648,14
5566264,15
5566896,14
5567528,12
5568148,10
5568776,11
5569400,13
5570032,11
5570660,15
5571280,15
5571908,15
5572532,16
5573156,14
5573788,10
5574408,11
5575036,11
5575660,13
5576288,13
5576916,12
5577540,11
5578172,11
5578804,16
5579424,17
5580056,17
5580680,17
5581312,17
5581940,14
5582560,12
5583188,13
5583816,14
5584440,14
5585068,15
5585688,11
5586316,11
5586944,10
5587568,15
5588196,15
5588824,15
5589452,15
5590084,10
5590704,11
5591336,11
5591960,12
5592584,11
5593216,10
5593832,11
5594464,12
5595088,11
5595712,16
5596344,15
5596960,16
5597592,19
5598224,14
5598844,10
5599472,10
5600100,10
5600728,11
5601356,10
5601976,13
5602604,15
5603228,12
5603852,16
5604484,14
5605104,15
5605736,15
5606360,16
5606984,10
5607612,11
5608232,11
5608860,11
5609492,10
5610112,12
5610744,12
5611368,11
5611996,13
5612628,16
5613248,17
5613876,16
5614500,16
5615124,12
5615756,12
5616376,12
5617004,13
5617628,11
5618252,13
5618884,10
5619504,11
5620136,12
5620764,14
5621384,15
5622016,15
5622640,15
5623268,11
5623900,10
5624520,11
5625148,11
5625776,13
5626400,12
5627028,12
5627648,13
5628280,11
5628904,17
5629528,18
5630160,16
5630776,16
5631408,15
5632040,12
5632656,12
5633284,12
5633908,11
5634536,11
5635164,10
5635784,11
5636412,11
5637036,14
5637660,15
5638292,14
5638912,15
5639540,15
5640164,11
5640788,11
5641420,10
5642040,11
5642668,11
5643300,10
5643920,11
5644548,11
5645172,11
5645804,16
5646432,15
5647056,17
5647684,17
5648308,17
5648932,15
5649564,12
5650184,11
5650812,11
5651440,13
5652064,11
5652692,11
5653316,12
5653948,16
5654576,14
5655200,15
5655828,14
5656452,13
5657084,11
5657712,11
5658336,11
5658964,11
5659588,10
5660212,13
5660844,11
5661464,13
5662092,15
5662716,14
5663344,17
5663976,17
5664600,17
5665228,15
5665860,14
5666480,13
5667108,13
5667736,13
5668360,13
5668988,11
5669608,13
5670236,13
5670864,13
5671488,16
5672120,16
5672736,15
5673368,11
5673996,10
5674616,11
5675244,11
5675872,10
5676500,11
5677132,10
5677752,12
5678384,11
5679008,15
5679632,15
5680264,15
5680880,16
5681508,13
5682136,13
5682760,14
5683388,15
5684008,14
5684636,12
5685268,11
5685888,11
5686516,11
5687140,15
5687772,15
5688404,14
5689024,15
5689652,15
5690276,11
5690904,11
5691532,10
5692152,12
5692784,12
5693408,11
5694032,12
5694664,11
5695280,12
5695912,17
5696544,17
5697160,17
5697792,18
5698416,12
5699044,12
5699676,16
5700296,15
5700928,12
5701552,11
5702176,12
5702808,11
5703424,12
5704056,14
5704680,17
5705304,16
5705932,14
5706552,12
5707184,11
5707816,12
5708432,11
5709064,11
5709688,12
5710320,13
5710952,11
5711568,11
5712200,15
5712824,17
5713452,17
5714080,17
5714704,16
5715336,13
5715960,15
5716584,15
5717216,12
5717840,10
5718472,11
5719100,11
5719720,11
5720352,15
5720976,15
5721608,15
5722236,14
5722856,15
5723488,11
5724112,11
5724736,11
5725368,10
5725988,11
5726620,11
5727252,10
5727872,13
5728504,12
5729132,15
5729764,15
5730392,15
5731016,15
5731648,15
5732276,17
5732900,15
5733532,14
5734152,13
5734788,12
5735412,10
5736032,10
5736664,11
5737288,15
5737916,15
5738548,14
5739168,16
5739800,12
5740424,11
5741052,12
5741684,14
5742304,15
5742932,12
5743560,12
5744184,11
5744812,11
5745432,16
5746060,17
5746684,16
5747312,19
5747940,19
5748564,18
5749196,12
5749828,10
5750448,11
5751076,12
5751700,13
5752328,15
5752956,11
5753576,13
5754208,16
5754832,15
5755456,15
5756088,18
5756704,15
5757336,11
5757964,10
5758584,15
5759216,16
5759840,16
5760472,12
5761100,11
5761720,14
5762348,19
5762972,22
5763596,20
5764224,19
5764840,15
5765472,15
5766096,17
5766716,12
5767348,10
5767968,12
5768596,11
5769228,10
5769848,12
5770476,15
5771100,15
5771732,15
5772360,15
5772984,14
5773612,11
5774236,11
5774860,10
5775492,10
5776112,11
5776740,11
5777364,11
5777988,11
5778616,12
5779240,16
5779868,16
5780500,16
5781120,15
5781748,13
5782372,13
5783004,13
5783636,10
5784256,11
5784884,10
5785508,11
5786136,11
5786764,10
5787384,14
5788012,15
5788636,15
5789260,15
5789892,10
5790512,12
5791144,10
5791772,10
5792392,12
5793020,12
5793644,11
5794276,11
5794904,10
5795528,15
5796156,15
5796780,15
5797408,18
5798036,15
5798656,15
5799284,13
5799908,12
5800532,13
5801164,13
5801784,11
5802412,11
5803044,10
5803664,15
5804292,15
5804920,16
5805548,17
5806180,14
5806800,11
5807428,10
5808052,11
5808676,11
5809308,10
5809928,12
5810556,11
5811184,11
5811808,11
5812440,18
5813064,19
5813696,18
5814324,15
5814944,11
5815576,11
5816200,11
5816832,10
5817460,10
5818080,13
5818708,13
5819332,13
5819960,16
5820588,16
5821208,15
5821840,15
5822464,14
5823088,12
5823720,11
5824344,11
5824972,11
5825604,10
5826224,11
5826856,11
5827480,11
5828104,11
5828732,15
5829352,18
5829984,18
5830608,19
5831232,19
5831864,11
5832480,12
5833108,10
5833740,10
5834360,12
5834992,13
5835616,11
5836248,11
5836876,13
5837496,15
5838124,14
5838748,15
5839372,15
5840004,10
5840624,11
5841252,11
5841876,11
5842500,11
5843132,10
5843752,11
5844380,11
5845012,10
5845632,15
5846264,16
5846888,17
5847516,17
5848148,15
5848768,14
5849396,13
5850024,13
5850648,13
5851276,11
5851896,10
5852528,11
5853152,11
5853776,13
5854408,14
5855024,15
5855656,15
5856288,13
5856904,10
5857536,11
5858160,11
5858788,11
5859420,11
5860040,12
5860668,11
5861292,11
5861920,16
5862548,16
5863168,19
5863796,17
5864424,16
5865048,11
5865676,12
5866296,16
5866924,15
5867556,12
5868176,11
5868804,11
5869428,12
5870060,16
5870692,15
5871312,15
5871944,17
5872568,16
5873196,11
5873824,10
5874448,11
5875080,11
5875704,11
5876328,11
5876960,11
5877584,12
5878216,11
5878848,15
5879464,15
5880096,15
5880720,15
5881352,14
5881984,13
5882600,12
5883232,13
5883856,13
5884480,17
5885112,17
5885732,15
5886360,14
5886996,15
5887616,15
5888248,15
5888872,15
5889500,14
5890132,10
5890752,11
5891384,12
5892008,12
5892632,11
5893260,11
5893880,12
5894512,14
5895136,15
5895760,14
5896392,15
5897008,17
5897640,18
5898268,14
5898888,13
5899516,11
5900140,12
5900772,12
5901404,10
5902024,11
5902652,12
5903280,12
5903904,16
5904532,15
5905152,16
5905780,15
5906408,11
5907032,12
5907660,12
5908280,12
5908912,13
5909540,11
5910160,12
5910792,12
5911416,12
5912048,17
5912676,16
5913296,17
5913928,19
5914552,17
5915176,16
5915808,15
5916424,16
5917056,16
5917680,13
5918304,11
5918936,11
5919560,11
5920192,14
5920820,14
5921440,15
5922068,15
5922692,15
5923324,10
5923952,10
5924572,11
5925200,11
5925824,12
5926448,11
5927076,10
5927696,12
5928324,12
5928948,16
5929576,17
5930204,16
5930828,15
5931460,11
5932092,12
5932712,16
5933344,15
5933968,11
5934600,11
5935228,11
5935848,11
5936480,11
5937104,15
5937728,15
5938360,15
5938976,15
5939608,12
5940240,10
5940856,11
5941484,11
5942108,10
5942740,10
5943368,11
5943988,11
5944616,11
5945240,16
5945864,17
5946496,14
5947112,15
5947744,14
5948368,13
5948992,17
5949620,14
5950240,13
5950868,14
5951500,14
5952120,12
5952752,10
5953376,12
5954004,15
5954636,14
5955256,16
5955884,17
5956508,13
5957132,13
5957764,11
5958384,11
5959016,11
5959640,12
5960264,12
5960892,10
5961512,13
5962144,16
5962772,16
5963392,17
5964024,17
5964648,14
5965276,12
5965908,12
5966528,17
5967156,14
5967784,11
5968408,11
5969036,10
5969656,11
5970284,14
5970912,15
5971536,15
5972164,14
5972784,16
5973416,11
5974048,11
5974664,12
5975296,14
5975920,11
5976552,11
5977184,11
5977800,11
5978432,15
5979056,15
5979680,14
5980312,16
5980928,15
5981560,11
5982184,11
5982808,11
5983436,10
5984056,11
5984688,14
5985316,12
5985936,10
5986564,11
5987188,16
5987820,16
5988452,17
5989072,15
5989704,11
5990328,11
5990952,11
5991584,11
5992204,10
5992836,11
5993460,12
5994084,11
5994716,11
5995340,16
5995972,16
5996604,16
5997224,16
5997856,18
5998480,15
5999112,13
5999744,11
6000360,10
6000992,11
6001616,11
6002240,11
6002868,10
6003488,15
6004116,15
6004748,14
6005368,15
6006000,17
6006624,13
6007252,11
6007884,11
6008504,11
6009136,11
6009760,12
6010384,11
6011016,14
6011636,15
6012264,17
6012892,17
6013516,16
6014148,16
6014768,15
6015400,13
6016032,11
6016648,12
6017276,11
6017900,13
6018532,11
6019164,11
6019784,12
6020416,15
6021040,14
6021664,15
6022292,16
6022912,12
6023544,11
6024168,11
6024792,11
6025424,11
6026040,10
6026672,12
6027304,11
6027920,11
6028552,15
6029176,15
6029808,17
6030436,19
6031056,18
6031688,12
6032312,14
6032936,12
6033568,11
6034184,10
6034816,11
6035440,11
6036064,13
6036696,14
6037320,15
6037952,15
6038584,14
6039200,15
6039832,11
6040456,11
6041088,10
6041720,10
6042336,11
6042964,11
6043588,11
6044216,12
6044844,11
6045464,17
6046096,16
6046724,14
6047344,16
6047976,13
6048600,15
6049232,17
6049860,19
6050480,17
6051112,14
6051736,12
6052360,11
6052992,10
6053612,14
6054244,15
6054868,16
6055492,17
6056124,15
6056744,11
6057376,10
6058008,10
6058624,11
6059256,12
6059880,12
6060512,11
6061144,11
6061760,14
6062392,14
6063020,16
6063644,17
6064276,18
6064896,16
6065524,15
6066152,12
6066776,12
6067408,12
6068024,12
6068656,11
6069284,10
6069904,11
6070536,15
6071160,15
6071792,15
6072424,15
6073040,11
6073672,10
6074296,12
6074920,12
6075552,11
6076168,11
6076800,11
6077424,12
6078048,11
6078680,14
6079308,16
6079940,17
6080572,16
6081192,17
6081824,14
6082448,12
6083076,11
6083708,10
6084328,11
6084956,10
6085584,11
6086208,12
6086836,14
6087456,15
6088088,15
6088716,14
6089336,15
6089968,11
6090592,11
6091224,11
6091852,12
6092472,13
6093104,12
6093728,11
6094352,12
6094984,13
6095600,15
6096232,16
6096856,15
6097480,16
6098112,13
6098728,13
6099360,13
6099988,10
6100608,11
6101240,11
6101864,11
6102496,10
6103128,11
6103744,15
6104376,15
6105000,16
6105624,14
6106252,11
6106872,11
6107504,11
6108128,11
6108752,11
6109384,11
6110004,10
6110632,11
6111268,10
6111888,15
6112520,16
6113148,15
6113780,16
6114408,12
6115032,15
6115664,13
6116288,13
6116912,11
6117544,15
6118164,15
6118796,11
6119420,10
6120048,14
6120680,14
6121304,15
6121936,15
6122564,15
6123184,10
6123816,10
6124444,10
6125068,10
6125700,12
6126320,17
6126952,14
6127576,11
6128204,12
6128836,14
6129456,17
6130088,16
6130720,16
6131340,16
6131972,19
6132596,21
6133228,19
6133860,14
6134480,11
6135112,11
6135736,11
6136364,11
6136996,14
6137616,14
6138248,16
6138872,15
6139500,11
6140132,10
6140760,11
6141392,11
6142024,11
6142644,11
6143276,12
6143904,12
6144532,11
6145160,15
6145776,15
6146408,15
6147032,16
6147656,15
6148284,14
6148904,16
6149532,18
6150164,14
6150784,13
6151412,11
6152036,11
6152668,12
6153296,14
6153916,15
6154548,15
6155172,15
6155796,15
6156428,10
6157048,11
6157676,11
6158300,12
6158924,13
6159556,13
6160176,15
6160804,11
6161436,12
6162056,19
6162684,21
6163308,20
6163940,19
6164568,14
6165192,13
6165820,13
6166444,13
6167068,12
6167700,14
6168320,11
6168948,11
6169576,12
6170200,15
6170828,16
6171448,16
6172076,15
6172708,12
6173328,11
6173960,11
6174584,11
6175212,11
6175844,10
6176464,11
6177092,11
6177716,11
6178344,16
6178972,16
6179592,18
6180224,17
6180848,17
6181472,11
6182104,11
6182728,14
6183356,11
6183988,10
6184608,13
6185240,15
6185864,15
6186492,11
6187124,14
6187744,15
6188376,15
6189000,16
6189624,10
6190252,10
6190872,12
6191504,13
6192132,12
6192752,13
6193384,11
6194008,11
6194636,11
6195268,14
6195888,16
6196516,16
6197140,15
6197768,15
6198396,14
6199016,13
6199648,12
6200272,12
6200896,10
6201524,11
6202144,10
6202776,11
6203408,15
6204024,14
6204656,15
6205280,16
6205912,16
6206544,11
6207160,11
6207792,11
6208416,12
6209040,12
6209668,10
6210288,12
6210920,12
6211544,13
6212168,15
6212796,16
6213416,16
6214048,16
6214680,14
6215296,15
6215928,12
6216556,12
6217184,13
6217816,11
6218436,10
6219064,10
6219692,12
6220316,16
6220948,17
6221568,15
6222200,15
6222824,12
6223448,11
6224080,12
6224696,11
6225328,11
6225960,10
6226576,11
6227204,11
6227828,11
6228460,14
6229092,15
6229712,16
6230344,17
6230968,14
6231592,12
6232224,14
6232840,14
6233472,16
6234096,16
6234720,13
6235352,11
6235976,11
6236608,13
6237236,14
6237856,15
6238488,15
6239112,15
6239744,13
6240376,10
6240992,10
6241624,11
6242248,11
6242872,12
6243504,11
6244120,11
6244752,13
6245384,14
6246004,15
6246632,16
6247256,17
6247884,14
6248516,18
6249136,16
6249764,11
6250388,10
6251016,11
6251644,11
6252264,11
6252892,11
6253516,14
6254144,15
6254772,14
6255392,16
6256024,15
6256652,12
6257272,11
6257904,11
6258528,11
6259160,11
6259788,11
6260408,11
6261040,11
6261664,15
6262288,15
6262920,14
