tempo_arduino_micro_s,valor_ADC
500,13
1004,14
1504,15
2000,14
2508,15
3000,10
3508,10
4000,10
4508,11
5000,10
5500,11
6000,16
6500,17
7004,15
7500,14
8000,14
8500,14
9000,15
9500,17
10000,18
10516,19
11036,18
11564,15
12084,14
12612,13
13132,14
13660,10
14180,11
14708,10
15228,10
15756,10
16276,13
16796,15
17316,15
17836,15
18356,15
18876,14
19396,14
19916,10
20436,10
20956,10
21476,14
21996,14
22516,14
23036,13
23564,11
24084,10
24612,11
25132,16
25660,17
26180,19
26708,20
27228,17
27756,15
28276,10
28804,11
29324,10
29852,10
30372,11
30900,11
31420,10
31948,10
32472,10
32996,10
33516,14
34044,13
34564,15
35092,16
35612,16
36140,13
36660,11
37188,11
37708,13
38236,10
38760,10
39284,10
39804,11
40332,11
40852,11
41372,10
41892,14
42412,15
42932,16
43452,16
43972,16
44492,16
45012,15
45532,13
46052,12
46572,12
47092,10
47612,10
48140,10
48660,10
49188,10
49708,11
50236,14
50756,13
51284,15
51804,15
52332,14
52852,12
53380,12
53900,12
54428,11
54948,11
55476,11
55996,10
56524,12
57044,11
57572,11
58096,11
58620,15
59140,17
59668,19
60188,20
60716,16
61240,13
61764,12
62284,10
62812,10
63332,10
63860,10
64384,10
64908,10
65428,13
65948,12
66468,12
66988,14
67508,14
68028,14
68548,14
69068,15
69588,12
70108,12
70628,11
71148,10
71668,11
72192,12
72716,12
73236,10
73764,12
74284,14
74812,11
75332,16
75860,16
76384,16
76908,17
77428,15
77956,12
78476,10
79004,12
79528,11
80052,12
80572,11
81100,13
81620,16
82148,17
82668,16
83196,14
83720,15
84244,16
84764,15
85292,14
85812,14
86340,10
86860,11
87388,11
87908,10
88436,12
88956,15
89484,13
90004,11
90524,11
91044,12
91564,11
92084,14
92604,16
93124,14
93644,14
94164,14
94684,11
95204,12
95724,14
96248,17
96764,17
97292,17
97812,16
98340,11
98860,11
99388,12
99908,14
100436,17
101000,16
101584,17
102156,16
102736,12
103304,10
103880,9
104396,11
104968,11
105544,10
106112,9
106636,11
107208,11
107792,12
108360,14
108944,15
109512,16
110080,16
110664,18
111232,16
111816,15
112388,15
112968,11
113536,10
114112,10
114680,11
115256,11
115840,11
116408,11
116984,16
117552,16
118136,15
118704,14
119284,15
119864,11
120432,11
121016,11
121584,11
122168,11
122736,11
123320,11
123888,11
124464,13
125048,15
125616,15
126200,13
126768,18
127352,19
127924,19
128500,17
129080,15
129648,15
130224,16
130792,13
131368,13
131936,11
132512,10
133080,11
133656,15
134240,15
134808,14
135392,14
135960,14
136544,10
137112,11
137692,11
138272,13
138840,11
139424,11
139992,11
140576,10
141148,12
141728,15
142296,15
142876,15
143456,16
144024,15
144608,13
145176,19
145760,21
146328,17
146904,13
147488,12
148056,11
148640,11
149208,11
149792,11
150360,15
150944,13
151516,15
152092,15
152672,13
153244,11
153824,13
154392,11
154976,9
155492,11
156072,11
156644,12
157216,12
157800,11
158368,15
158952,15
159524,16
160104,17
160672,16
161240,13
161816,16
162384,14
162968,14
163536,11
164120,13
164688,11
165264,10
165832,9
166348,10
166928,15
167496,15
168072,15
168640,15
169216,15
169784,11
170360,10
170928,14
171504,11
172088,11
172656,11
173240,13
173808,11
174392,11
174960,15
175544,14
176112,15
176688,16
177272,16
177840,11
178424,13
178992,14
179576,15
180144,19
180720,25
181304,24
181872,18
182456,14
183024,11
183608,13
184180,15
184760,15
185328,15
185904,14
186488,10
187056,11
187640,11
188208,11
188792,11
189364,11
189940,11
190520,11
191092,11
191672,14
192244,15
192824,14
193392,16
193968,18
194536,14
195116,12
195696,12
196264,11
196848,10
197416,13
198000,13
198568,11
199144,11
199728,11
200296,15
200880,15
201448,14
202032,14
202604,13
203184,12
203756,11
204332,10
204912,10
205480,9
206004,10
206576,11
207152,11
207720,13
208304,16
208872,17
209440,16
210016,15
210584,15
211160,15
211732,14
212312,13
212880,14
213456,13
214032,13
214600,10
215184,11
215752,11
216336,11
216904,15
217488,15
218060,15
218632,15
219216,14
219784,11
220368,10
220936,11
221520,9
222040,11
222616,11
223188,11
223764,11
224344,11
224912,15
225496,13
226064,15
226648,15
227216,16
227792,15
228376,13
228944,11
229528,11
230096,13
230680,11
231248,11
231832,11
232404,13
232976,15
233560,16
234132,14
234712,14
235284,16
235864,13
236436,10
237012,10
237592,11
238164,10
238744,11
239316,11
239896,12
240476,11
241056,11
241624,16
242200,18
242784,18
243356,18
243936,16
244504,10
245088,13
245660,18
246236,14
246816,10
247384,11
247968,10
248540,11
249120,10
249688,11
250272,13
250844,15
251420,17
252000,15
252568,13
253152,10
253724,15
254304,17
254876,18
255452,16
256032,11
256600,11
257184,12
257752,13
258328,14
258896,16
259480,16
260048,17
260624,16
261200,14
261768,15
262344,15
262916,14
263496,12
264064,11
264648,11
265224,11
265792,10
266376,12
266944,14
267528,13
268096,15
268680,14
269248,11
269824,11
270408,11
270976,10
271560,11
272128,11
272712,11
273280,11
273864,12
274440,10
275008,14
275592,15
276164,15
276744,15
277312,14
277896,11
278468,14
279040,15
279624,14
280196,14
280776,14
281348,12
281928,11
282496,11
283080,12
283656,14
284228,15
284808,15
285376,16
285960,12
286532,15
287112,15
287684,14
288256,11
288840,11
289408,12
289992,11
290560,11
291144,13
291716,19
292296,23
292872,19
293440,15
294024,15
294596,10
295176,11
295748,10
296328,9
296848,10
297424,10
298000,11
298568,11
299152,11
299724,12
300304,15
300876,20
301456,21
302028,19
302604,13
303184,11
303756,11
304336,11
304916,10
305496,11
306068,12
306644,11
307224,15
307792,16
308368,15
308936,17
309520,16
310092,15
310672,15
311244,13
311820,15
312400,19
312972,17
313552,15
314124,15
314704,11
315276,11
315856,15
316432,21
317004,19
317584,16
318156,15
318736,15
319316,11
319896,13
320476,14
321048,14
321632,11
322200,11
322784,11
323352,12
323936,11
324504,11
325080,18
325664,18
326236,18
326816,17
327388,17
327968,13
328536,11
329120,11
329688,11
330256,11
330832,11
331400,11
331984,10
332556,11
333136,13
333704,14
334288,13
334864,15
335432,14
336016,11
336584,11
337160,10
337728,11
338312,10
338880,11
339456,12
340040,11
340608,11
341192,11
341760,14
342344,15
342916,15
343496,17
344072,17
344640,17
345224,15
345796,13
346376,11
346948,12
347528,12
348096,10
348676,10
349256,11
349824,17
350408,14
350976,16
351560,14
352132,15
352712,12
353288,13
353856,12
354440,11
355008,11
355592,10
356164,12
356744,11
357316,13
357892,10
358472,14
359040,15
359624,17
360196,17
360776,15
361348,15
361928,15
362504,15
363076,12
363656,13
364224,14
364808,11
365376,10
365952,10
366524,15
367100,15
367680,16
368252,16
368832,15
369400,10
369984,10
370552,10
371136,9
371656,11
372228,11
372808,11
373376,10
373960,11
374532,12
375112,16
375684,18
376264,17
376840,17
377412,15
377992,17
378564,17
379144,12
379716,10
380296,10
380868,11
381444,11
382024,11
382596,11
383176,15
383748,14
384332,17
384904,20
385488,18
386064,11
386632,11
387216,14
387784,12
388368,12
388940,11
389520,12
390088,11
390668,11
391248,11
391820,22
392400,21
392968,19
393552,18
394124,15
394704,15
395280,13
395852,12
396432,14
397004,15
397584,11
398156,11
398736,9
399256,10
399828,14
400408,15
400980,15
401560,15
402132,15
402712,10
403284,13
403864,13
404436,12
405012,10
405592,11
406164,11
406744,11
407316,11
407896,12
408468,15
409044,15
409624,15
410192,15
410768,15
411336,15
411920,14
412488,12
413072,10
413640,11
414216,10
414800,10
415368,11
415944,12
416516,14
417096,13
417664,15
418248,15
418824,15
419392,10
419976,11
420544,11
421128,11
421696,13
422280,10
422852,11
423424,14
424008,14
424576,13
425152,15
425720,17
426304,19
426872,17
427456,15
428028,15
428600,16
429184,15
429752,13
430336,11
430908,10
431488,11
432060,11
432632,11
433216,14
433788,15
434368,14
434940,14
435520,13
436088,11
436672,12
437244,11
437816,14
438400,15
438968,13
439552,11
440124,11
440704,11
441272,18
441852,18
442432,17
443000,15
443584,15
444156,13
444736,13
445308,13
445888,12
446460,11
447036,11
447616,14
448188,13
448768,11
449336,10
449920,15
450488,14
451068,15
451648,16
452216,14
452800,11
453368,10
453952,10
454524,11
455104,11
455676,11
456252,14
456832,15
457404,14
457984,15
458556,15
459136,15
459708,19
460284,22
460864,18
461432,19
462008,19
462576,21
463160,16
463732,13
464312,10
464884,11
465456,11
466040,11
466608,14
467192,13
467764,14
468344,14
468916,13
469492,11
470072,11
470644,11
471224,13
471796,11
472376,11
472948,10
473528,11
474100,11
474676,18
475256,18
475828,16
476408,18
476988,16
477568,15
478140,16
478716,17
479296,14
479872,11
480448,10
481020,11
481600,12
482168,11
482752,11
483324,14
483900,14
484480,15
485048,16
485632,12
486204,10
486784,11
487364,10
487936,11
488520,10
489088,10
489672,11
490244,11
490824,12
491396,15
491976,15
492560,15
493132,15
493712,15
494284,12
494864,13
495436,14
496016,11
496584,12
497164,16
497744,16
498316,13
498896,13
499468,16
500048,16
500616,15
501200,13
501776,16
502344,16
502928,13
503500,10
504080,11
504660,11
505240,10
505812,12
506388,12
506968,16
507540,17
508120,13
508692,15
509272,15
509852,15
510428,15
511008,14
511584,18
512164,17
512732,17
513312,17
513880,18
514464,20
515032,16
515612,13
516192,15
516760,14
517344,13
517912,15
518496,14
519064,11
519640,12
520224,14
520792,13
521376,11
521948,11
522528,11
523096,11
523680,11
524248,12
524824,13
525408,15
525976,17
526560,15
527128,15
527712,14
528284,13
528856,12
529440,12
530008,12
530592,12
531164,10
531744,11
532324,11
532904,15
533472,14
534052,14
534632,15
535204,14
535784,11
536356,10
536936,11
537508,11
538084,11
538664,11
539232,14
539816,11
540388,11
540968,11
541536,15
542120,16
542692,15
543268,16
543848,15
544420,16
545000,15
545568,17
546152,17
546724,20
547300,18
547880,14
548448,11
549032,11
549604,14
550184,13
550756,15
551336,15
551908,15
552484,11
553064,11
553632,11
554216,10
554788,12
555368,14
555948,16
556524,14
557104,12
557676,10
558256,15
558828,18
559408,17
559980,18
560564,15
561140,17
561716,18
562296,16
562868,11
563448,11
564024,11
564608,11
565180,11
565756,14
566336,15
566908,14
567488,14
568060,15
568640,15
569208,14
569792,12
570364,11
570940,10
571520,10
572092,11
572672,14
573252,12
573832,13
574412,14
574988,14
575568,15
576140,16
576720,16
577288,14
577872,20
578444,21
579024,20
579600,14
580168,14
580752,11
581324,11
581904,11
582476,11
583056,15
583628,15
584204,15
584784,15
585356,14
585936,9
586456,10
587032,10
587604,10
588184,9
588704,10
589276,11
589856,11
590428,11
591008,12
591580,15
592160,16
592740,17
593320,16
593892,15
594468,12
595048,11
595620,10
596200,11
596772,11
597352,12
597932,12
598508,11
599088,10
599660,14
600240,14
600812,15
601392,14
601964,14
602544,10
603116,10
603692,10
604272,11
604844,11
605424,10
605996,10
606576,13
607156,10
607732,16
608312,18
608884,14
609464,15
610036,15
610616,15
611196,15
611780,14
612360,13
612936,14
613512,12
614088,13
614664,13
615240,14
615824,11
616396,14
616972,15
617552,15
618124,15
618704,13
619276,10
619856,11
620428,11
621008,11
621584,11
622156,11
622736,11
623308,10
623888,11
624468,15
625048,17
625628,18
626204,17
626784,15
627356,11
627936,10
628508,10
629088,11
629660,11
630236,12
630816,12
631388,12
631968,12
632544,11
633120,14
633700,14
634280,14
634860,15
635436,12
636016,10
636588,11
637168,11
637748,12
638328,13
638908,11
639484,11
640068,11
640636,12
641216,15
641784,15
642368,15
642940,16
643520,17
644088,14
644664,14
645248,11
645816,11
646400,11
646968,12
647544,11
648116,11
648688,11
649272,14
649844,15
650424,16
650992,14
651576,15
652148,12
652728,11
653308,10
653884,10
654464,11
655036,12
655616,13
656192,13
656776,11
657344,12
657920,16
658504,16
659072,15
659656,16
660224,16
660808,14
661376,13
661952,13
662524,11
663096,10
663680,12
664248,11
664832,12
665404,11
665984,13
666552,16
667128,17
667712,16
668280,14
668864,11
669432,12
670016,12
670588,12
671168,10
671740,11
672316,12
672896,11
673464,11
674048,11
674616,15
675200,15
675768,18
676348,18
676928,16
677496,12
678080,12
678652,13
679232,13
679800,11
680384,12
680952,13
681532,14
682112,13
682684,16
683264,15
683836,15
684416,15
684988,14
685560,11
686144,11
686716,11
687296,12
687868,11
688448,10
689016,11
689600,10
690168,11
690748,11
691328,14
691900,14
692480,15
693048,15
693632,13
694204,15
694780,15
695360,18
695932,18
696512,16
697084,14
697664,11
698232,10
698816,11
699388,14
699964,14
700544,14
701116,15
701696,16
702276,12
702856,11
703436,11
704012,10
704592,11
705164,11
705744,11
706316,11
706896,11
707472,11
708052,14
708632,15
709204,14
709784,14
710356,12
710936,11
711516,11
712096,15
712676,14
713252,14
713832,15
714404,12
714984,13
715556,14
716136,15
716716,13
717292,15
717872,16
718444,16
719024,12
719596,10
720176,12
720752,11
721336,9
721856,10
722428,12
723008,10
723580,11
724160,11
724728,14
725312,15
725884,15
726464,16
727036,15
727612,11
728192,11
728764,13
729344,11
729916,10
730496,10
731068,10
731644,11
732224,11
732796,15
733376,14
733952,15
734528,15
735108,14
735688,11
736272,10
736844,11
737424,10
737996,10
738576,11
739144,13
739728,11
740300,11
740876,14
741456,16
742028,15
742608,16
743184,16
743768,13
744340,13
744912,16
745496,19
746068,14
746648,11
747220,10
747800,9
748320,11
748896,11
749464,15
750044,14
750624,15
751196,14
751776,15
752352,12
752928,11
753508,10
754088,10
754668,11
755244,10
755824,11
756396,11
756976,11
757556,14
758136,15
758716,15
759292,14
759872,18
760444,13
761024,13
761596,15
762180,15
762756,15
763336,15
763920,12
764492,10
765072,10
765644,12
766224,14
766804,14
767384,16
767964,15
768540,14
769120,11
769688,10
770272,11
770844,11
771424,11
771996,10
772572,11
773152,11
773724,11
774304,14
774876,14
775456,16
776028,15
776608,15
777180,12
777756,12
778336,14
778908,13
779488,10
780060,10
780640,9
781160,11
781736,11
782308,10
782884,14
783464,16
784036,16
784616,17
785188,14
785768,11
786348,11
786924,11
787504,10
788076,11
788656,10
789228,10
789808,12
790380,13
790964,14
791540,14
792116,15
792696,15
793268,15
793852,14
794428,15
795008,17
795580,17
796156,14
796740,13
797312,11
797888,11
798464,10
799040,12
799620,14
800200,14
800784,16
801356,16
801936,13
802504,11
803088,12
803660,11
804240,9
804760,10
805332,11
805912,11
806484,10
807064,11
807636,15
808216,14
808796,15
809376,18
809956,16
810532,12
811112,11
811684,10
812264,11
812836,13
813416,12
813988,12
814564,12
815144,12
815716,13
816296,15
816868,15
817448,15
818020,14
818600,12
819172,11
819748,10
820328,11
820896,11
821472,12
822040,11
822624,11
823192,10
823772,10
824352,15
824920,16
825504,18
826076,18
826656,16
827224,14
827808,13
828380,14
828956,14
829536,11
830104,11
830688,10
831260,10
831840,11
832412,13
832984,14
833568,15
834140,15
834720,15
835288,11
835872,11
836440,11
837024,10
837596,10
838172,10
838752,11
839324,11
839904,11
840476,11
841056,16
841624,16
842200,14
842784,15
843356,14
843936,12
844508,11
845088,11
845656,11
846240,13
846808,20
847384,18
847968,12
848540,11
849120,15
849688,16
850272,14
850844,15
851420,15
852000,11
852568,11
853152,10
853724,11
854304,9
854824,11
855400,11
855972,11
856548,11
857128,11
857700,15
858280,17
858848,18
859432,18
860004,18
860584,14
861156,15
861732,16
862312,14
862884,13
863464,13
864036,11
864616,10
865188,10
865764,14
866344,16
866916,15
867496,18
868068,15
868648,11
869220,11
869800,11
870372,11
870948,11
871528,11
872100,12
872680,11
873252,11
873832,11
874404,15
874976,16
875560,14
876132,15
876712,15
877284,14
877864,12
878436,14
879016,12
879588,11
880164,11
880744,10
881312,11
881896,11
882468,17
883048,15
883620,15
884192,15
884776,15
885348,12
885928,13
886500,11
887080,11
887652,12
888232,13
888812,15
889388,14
889968,12
890540,12
891120,16
891700,18
892280,19
892852,18
893428,14
894008,12
894580,12
895160,13
895732,14
896316,11
896892,12
897472,12
898044,11
898620,11
899200,15
899768,16
900352,15
900924,17
901504,14
902084,11
902656,11
903240,12
903812,11
904392,12
904964,11
905544,12
906116,10
906696,11
907272,11
907844,14
908424,15
908996,16
909576,17
910148,13
910728,13
911300,14
911876,15
912456,12
913028,10
913608,10
914180,10
914760,11
915332,12
915912,15
916488,14
917060,15
917640,14
918212,15
918792,11
919372,10
919952,11
920532,12
921108,12
921688,12
922260,12
922840,11
923412,11
923992,13
924564,15
925140,16
925720,22
926292,22
926872,16
927444,13
928024,13
928592,12
929176,12
929748,11
930324,11
930904,10
931476,11
932056,14
932636,16
933216,15
933796,14
934372,14
934952,15
935528,10
936104,12
936676,12
937256,11
937836,12
938416,10
938996,11
939572,11
940152,10
940728,14
941304,14
941884,14
942464,18
943044,19
943620,20
944200,23
944772,21
945352,17
945924,13
946504,11
947076,12
947660,10
948240,10
948812,11
949392,14
949964,15
950544,15
951124,14
951704,12
952284,11
952860,11
953440,11
954012,10
954592,11
955164,11
955744,11
956324,11
956900,11
957480,14
958052,15
958632,16
959208,15
959784,16
960364,11
960944,11
961516,14
962092,14
962672,13
963240,11
963824,12
964396,11
964976,11
965548,11
966124,14
966704,14
967276,15
967856,15
968428,12
969008,10
969580,11
970160,11
970740,10
971316,10
971896,11
972468,11
973048,12
973628,11
974208,15
974780,16
975356,15
975936,15
976512,14
977088,14
977660,14
978240,12
978812,11
979392,11
979976,11
980548,12
981128,10
981700,10
982284,14
982860,15
983440,15
984020,15
984592,15
985176,11
985748,12
986328,11
986900,11
987480,11
988052,12
988628,11
989208,11
989780,11
990360,11
990932,14
991512,14
992092,14
992672,16
993244,15
993820,15
994400,18
994972,19
995552,13
996124,10
996704,9
997224,11
997800,11
998380,10
998956,15
999536,16
1000108,15
1000732,16
1001356,14
1001984,11
1002612,10
1003232,12
1003860,11
1004484,11
1005104,13
1005736,12
1006352,12
1006980,11
1007604,14
1008228,15
1008856,15
1009480,17
1010108,15
1010736,15
1011356,15
1011984,15
1012608,13
1013236,11
1013868,10
1014488,12
1015116,11
1015740,14
1016364,15
1016992,15
1017612,15
1018240,13
1018864,12
1019488,12
1020116,12
1020740,12
1021372,10
1022000,14
1022624,12
1023252,11
1023880,15
1024512,15
1025136,15
1025756,16
1026384,15
1027008,14
1027628,15
1028256,16
1028876,14
1029504,14
1030128,11
1030748,11
1031380,10
1032000,11
1032628,14
1033256,19
1033872,17
1034500,15
1035124,11
1035752,11
1036380,12
1037000,12
1037628,11
1038248,10
1038872,12
1039500,11
1040120,11
1040748,15
1041368,18
1041988,18
1042620,16
1043236,15
1043868,13
1044496,14
1045112,15
1045740,12
1046364,10
1046992,12
1047620,10
1048240,11
1048868,14
1049488,14
1050116,15
1050748,14
1051368,16
1051996,11
1052620,10
1053240,11
1053868,11
1054488,11
1055116,11
1055740,11
1056360,11
1056988,12
1057612,14
1058240,15
1058868,14
1059488,15
1060116,11
1060740,12
1061368,13
1061996,13
1062616,13
1063244,12
1063868,10
1064488,10
1065120,11
1065736,15
1066364,14
1066984,14
1067608,15
1068236,12
1068856,13
1069484,14
1070112,12
1070728,12
1071356,11
1071980,11
1072612,11
1073240,11
1073856,16
1074484,19
1075108,17
1075732,17
1076360,14
1076984,15
1077612,18
1078232,16
1078856,12
1079484,10
1080104,12
1080732,11
1081360,10
1081976,11
1082608,13
1083228,14
1083856,14
1084488,15
1085104,11
1085732,11
1086356,11
1086980,12
1087612,12
1088232,11
1088860,11
1089480,11
1090104,12
1090732,14
1091352,15
1091980,17
1092604,16
1093224,16
1093856,15
1094476,11
1095108,10
1095736,10
1096352,13
1096980,13
1097604,11
1098232,11
1098860,14
1099480,15
1100108,15
1100732,15
1101356,15
1101988,11
1102608,11
1103236,11
1103860,11
1104484,11
1105112,11
1105736,11
1106368,11
1106996,12
1107616,15
1108244,15
1108868,15
1109496,16
1110124,14
1110744,14
1111372,17
1111996,16
1112620,12
1113252,10
1113872,11
1114500,11
1115124,11
1115748,14
1116380,15
1117004,15
1117632,15
1118264,11
1118880,12
1119512,12
1120136,12
1120764,11
1121392,10
1122016,11
1122644,11
1123268,11
1123892,15
1124520,15
1125136,15
1125768,17
1126392,16
1127016,13
1127644,13
1128268,14
1128896,13
1129524,12
1130144,11
1130772,11
1131396,12
1132028,15
1132656,15
1133272,14
1133904,15
1134528,15
1135152,11
1135780,11
1136400,14
1137028,17
1137652,15
1138276,11
1138904,14
1139528,14
1140156,15
1140788,16
1141408,16
1142036,15
1142660,16
1143292,15
1143920,15
1144540,16
1145168,15
1145792,11
1146416,11
1147044,10
1147664,11
1148292,12
1148916,15
1149540,15
1150168,15
1150792,15
1151420,13
1152052,10
1152668,11
1153296,10
1153920,11
1154548,13
1155176,14
1155800,13
1156428,13
1157052,14
1157676,17
1158304,17
1158924,17
1159552,18
1160176,19
1160796,17
1161428,16
1162052,14
1162680,12
1163308,10
1163928,13
1164556,11
1165180,12
1165808,13
1166440,14
1167056,15
1167684,15
1168308,11
1168932,11
1169560,11
1170176,11
1170808,12
1171432,10
1172056,11
1172684,10
1173304,11
1173932,14
1174564,14
1175184,15
1175812,14
1176436,12
1177068,11
1177696,12
1178316,15
1178948,15
1179572,14
1180196,11
1180824,11
1181440,11
1182068,14
1182692,14
1183316,15
1183948,14
1184568,15
1185196,11
1185828,10
1186448,11
1187076,10
1187700,11
1188332,13
1188960,12
1189576,11
1190208,13
1190832,17
1191456,17
1192084,16
1192704,15
1193332,12
1193956,15
1194580,13
1195212,12
1195832,13
1196460,13
1197092,11
1197712,12
1198340,13
1198964,15
1199596,14
1200228,14
1200848,14
1201476,11
1202100,11
1202724,11
1203352,10
1203972,10
1204600,11
1205224,13
1205848,13
1206476,10
1207096,15
1207724,15
1208356,16
1208976,17
1209604,19
1210228,18
1210856,17
1211484,13
1212104,12
1212732,14
1213360,13
1213984,11
1214612,10
1215232,12
1215860,13
1216488,15
1217108,14
1217740,14
1218360,11
1218988,10
1219620,10
1220240,11
1220868,10
1221492,11
1222124,11
1222752,11
1223372,11
1224000,15
1224624,17
1225248,16
1225876,14
1226496,13
1227124,11
1227752,10
1228376,13
1229004,11
1229620,13
1230252,12
1230880,11
1231496,12
1232124,15
1232748,14
1233376,15
1234004,14
1234620,14
1235252,11
1235872,10
1236496,11
1237124,11
1237744,11
1238372,11
1238996,11
1239620,11
1240252,12
1240872,15
1241500,16
1242132,16
1242752,17
1243380,17
1244004,15
1244632,13
1245264,12
1245880,11
1246508,11
1247132,11
1247756,11
1248388,13
1249008,14
1249636,15
1250260,15
1250880,14
1251512,11
1252128,11
1252760,13
1253388,11
1254008,11
1254636,11
1255260,11
1255892,11
1256520,12
1257136,15
1257768,15
1258388,15
1259016,17
1259644,16
1260264,14
1260892,13
1261516,14
1262140,11
1262768,10
1263392,13
1264020,12
1264652,14
1265272,16
1265900,15
1266524,15
1267156,15
1267788,14
1268408,12
1269036,11
1269660,11
1270288,11
1270916,11
1271536,12
1272164,11
1272788,11
1273416,12
1274044,15
1274664,15
1275292,15
1275924,14
1276544,11
1277176,12
1277800,17
1278428,14
1279060,14
1279680,13
1280312,11
1280932,11
1281556,11
1282184,15
1282800,15
1283428,15
1284048,15
1284672,12
1285300,11
1285916,11
1286548,12
1287176,10
1287792,11
1288420,11
1289044,11
1289672,11
1290300,16
1290920,15
1291548,15
1292168,15
1292796,18
1293428,18
1294048,15
1294676,13
1295300,13
1295924,11
1296552,10
1297168,11
1297796,11
1298420,12
1299044,13
1299672,15
1300296,15
1300924,15
1301552,12
1302176,12
1302804,11
1303428,11
1304056,11
1304688,11
1305304,13
1305932,12
1306556,13
1307180,14
1307808,14
1308432,17
1309060,15
1309684,13
1310308,14
1310936,15
1311560,13
1312188,11
1312816,12
1313432,16
1314060,12
1314684,11
1315312,15
1315940,14
1316560,15
1317188,15
1317808,15
1318432,13
1319056,10
1319680,11
1320308,12
1320928,12
1321552,13
1322180,10
1322800,11
1323428,12
1324056,16
1324672,15
1325300,15
1325924,15
1326552,15
1327180,14
1327800,14
1328428,14
1329052,13
1329676,13
1330304,11
1330920,11
1331548,11
1332172,14
1332792,14
1333424,15
1334040,14
1334668,11
1335288,10
1335912,10
1336540,11
1337164,11
1337792,11
1338420,11
1339040,11
1339668,11
1340292,14
1340920,15
1341548,14
1342168,15
1342796,14
1343420,12
1344040,14
1344668,15
1345284,13
1345912,13
1346536,12
1347160,11
1347788,11
1348408,13
1349036,15
1349664,14
1350280,13
1350912,15
1351536,13
1352164,13
1352792,12
1353408,12
1354040,11
1354660,12
1355284,11
1355912,11
1356532,11
1357160,15
1357780,16
1358404,16
1359032,15
1359652,14
1360280,16
1360908,16
1361524,18
1362156,16
1362776,17
1363408,13
1364036,12
1364656,12
1365284,14
1365904,14
1366532,14
1367164,14
1367784,15
1368412,11
1369036,11
1369656,10
1370288,11
1370904,10
1371532,12
1372156,11
1372784,12
1373412,14
1374036,16
1374668,15
1375296,17
1375912,16
1376544,13
1377168,13
1377796,13
1378424,12
1379040,11
1379672,11
1380296,11
1380916,11
1381548,10
1382168,14
1382796,15
1383420,14
1384048,15
1384676,11
1385300,11
1385928,10
1386556,10
1387176,11
1387804,11
1388428,11
1389060,12
1389688,11
1390304,16
1390932,17
1391556,19
1392180,16
1392812,17
1393428,21
1394060,20
1394680,15
1395304,11
1395932,10
1396556,10
1397184,11
1397812,11
1398432,13
1399060,13
1399684,15
1400312,15
1400940,15
1401560,12
1402188,12
1402812,11
1403436,11
1404068,10
1404688,13
1405316,13
1405940,12
1406564,11
1407192,15
1407820,16
1408448,16
1409076,16
1409696,14
1410324,13
1410944,16
1411576,15
1412204,11
1412824,13
1413452,10
1414076,10
1414696,11
1415328,14
1415944,15
1416572,14
1417196,15
1417820,12
1418448,10
1419072,11
1419700,11
1420332,10
1420952,11
1421580,11
1422204,11
1422832,11
1423464,15
1424080,15
1424708,17
1425332,16
1425956,16
1426584,15
1427200,15
1427832,17
1428456,15
1429080,11
1429708,10
1430328,11
1430956,10
1431588,10
1432208,15
1432836,15
1433460,15
1434092,16
1434720,12
1435344,11
1435972,11
1436596,13
1437220,11
1437848,11
1438464,13
1439092,13
1439716,13
1440340,15
1440968,16
1441584,16
1442212,18
1442840,18
1443464,15
1444092,17
1444712,19
1445344,17
1445972,12
1446592,11
1447220,11
1447840,10
1448464,14
1449092,14
1449712,17
1450340,17
1450964,15
1451584,10
1452216,10
1452832,12
1453460,11
1454088,10
1454712,11
1455340,11
1455964,13
1456596,13
1457224,15
1457840,16
1458472,17
1459096,17
1459720,15
1460348,14
1460968,14
1461596,12
1462220,11
1462844,11
1463472,10
1464096,12
1464724,11
1465356,15
1465976,17
1466604,15
1467228,14
1467856,11
1468488,10
1469104,11
1469732,11
1470356,12
1470984,13
1471612,11
1472232,12
1472860,11
1473484,14
1474108,14
1474736,15
1475360,15
1475988,14
1476616,11
1477232,11
1477864,13
1478484,13
1479116,13
1479744,15
1480360,13
1480988,11
1481612,12
1482240,13
1482872,14
1483488,15
1484116,15
1484740,15
1485364,11
1485992,10
1486616,11
1487244,11
1487868,10
1488496,11
1489124,11
1489748,11
1490376,15
1491004,15
1491624,17
1492252,15
1492876,16
1493504,20
1494136,18
1494752,15
1495380,16
1496004,16
1496628,11
1497256,10
1497880,12
1498508,15
1499132,14
1499760,16
1500388,15
1501012,14
1501644,11
1502272,10
1502892,11
1503520,11
1504144,11
1504772,11
1505404,11
1506024,11
1506652,14
1507276,15
1507900,14
1508532,14
1509152,15
1509780,12
1510412,10
1511032,13
1511660,15
1512284,16
1512916,17
1513548,14
1514168,11
1514796,12
1515424,13
1516048,15
1516676,14
1517296,15
1517924,11
1518548,12
1519172,13
1519804,12
1520424,13
1521052,12
1521684,12
1522304,11
1522932,13
1523556,16
1524188,15
1524816,16
1525432,14
1526064,12
1526688,11
1527312,12
1527940,12
1528560,13
1529188,14
1529812,15
1530436,15
1531068,14
1531688,17
1532316,14
1532948,14
1533568,15
1534200,14
1534824,11
1535452,11
1536084,13
1536700,11
1537328,11
1537952,11
1538576,11
1539204,10
1539820,12
1540452,16
1541076,15
1541700,15
1542328,15
1542944,12
1543576,12
1544204,11
1544824,14
1545452,13
1546076,10
1546704,14
1547336,10
1547952,14
1548580,16
1549204,14
1549828,14
1550460,14
1551080,13
1551708,12
1552332,11
1552956,11
1553588,10
1554208,11
1554836,11
1555468,10
1556088,11
1556716,15
1557340,14
1557972,15
1558600,15
1559216,14
1559848,15
1560472,15
1561096,13
1561724,11
1562344,12
1562972,13
1563596,12
1564220,12
1564848,14
1565464,15
1566092,16
1566716,16
1567344,16
1567972,11
1568600,11
1569228,11
1569856,12
1570480,13
1571108,14
1571732,14
1572360,13
1572988,11
1573608,15
1574236,15
1574864,15
1575488,19
1576116,14
1576736,12
1577364,12
1577996,12
1578616,11
1579244,12
1579868,16
1580500,14
1581128,11
1581752,14
1582384,15
1583008,15
1583632,15
1584264,11
1584880,11
1585508,10
1586132,11
1586760,11
1587388,10
1588008,11
1588636,11
1589268,11
1589888,15
1590516,15
1591140,15
1591772,16
1592404,14
1593024,13
1593652,17
1594276,17
1594900,16
1595532,14
1596152,13
1596784,10
1597408,11
1598032,12
1598660,13
1599280,16
1599912,15
1600540,14
1601156,11
1601788,12
1602408,11
1603036,11
1603664,10
1604288,12
1604916,11
1605540,11
1606160,13
1606788,17
1607408,16
1608036,15
1608660,16
1609280,15
1609908,13
1610528,11
1611156,11
1611788,10
1612408,12
1613036,11
1613660,11
1614288,10
1614920,13
1615536,15
1616164,14
1616788,14
1617412,15
1618044,12
1618664,11
1619292,10
1619916,11
1620536,12
1621168,12
1621784,12
1622412,11
1623036,12
1623664,15
1624292,17
1624916,16
1625548,15
1626180,13
1626800,13
1627428,14
1628052,16
1628680,16
1629308,14
1629928,13
1630556,10
1631180,12
1631804,14
1632436,15
1633056,15
1633684,15
1634316,11
1634936,11
1635564,10
1636188,10
1636820,11
1637448,10
1638072,11
1638704,11
1639324,11
1639948,15
1640576,14
1641192,14
1641820,14
1642440,14
1643060,14
1643688,16
1644308,18
1644936,13
1645560,12
1646180,12
1646808,11
1647432,11
1648060,13
1648688,15
1649304,15
1649932,14
1650552,15
1651180,11
1651812,12
1652432,12
1653060,11
1653680,12
1654304,12
1654932,10
1655552,11
1656180,12
1656804,15
1657424,15
1658052,14
1658672,15
1659300,12
1659928,10
1660544,10
1661172,11
1661796,12
1662428,12
1663056,11
1663672,11
1664300,12
1664924,14
1665544,15
1666172,14
1666788,15
1667416,13
1668040,11
1668660,11
1669288,10
1669908,11
1670536,10
1671160,11
1671784,11
1672412,11
1673032,13
1673664,15
1674292,16
1674912,17
1675540,18
1676160,19
1676792,15
1677420,14
1678040,12
1678668,11
1679292,10
1679916,10
1680544,10
1681160,12
1681788,15
1682412,15
1683032,15
1683660,15
1684280,11
1684908,11
1685536,10
1686152,11
1686780,10
1687404,10
1688032,13
1688660,13
1689280,12
1689908,14
1690528,14
1691152,15
1691780,14
1692400,14
1693028,12
1693648,14
1694272,17
1694900,13
1695520,11
1696148,13
1696776,10
1697392,11
1698020,16
1698644,15
1699272,15
1699900,15
1700516,15
1701148,13
1701768,14
1702400,13
1703028,10
1703648,11
1704276,13
1704900,12
1705524,11
1706152,11
1706768,13
1707400,15
1708020,16
1708644,17
1709276,16
1709900,15
1710528,17
1711156,16
1711776,15
1712404,12
1713028,11
1713660,10
1714288,10
1714904,14
1715532,14
1716156,15
1716780,14
1717408,12
1718032,11
1718660,12
1719284,12
1719908,11
1720540,11
1721160,13
1721788,15
1722416,14
1723040,15
1723668,16
1724292,16
1724920,17
1725548,16
1726168,16
1726796,14
1727420,13
1728044,13
1728672,13
1729288,13
1729916,11
1730540,11
1731164,11
1731792,13
1732408,14
1733040,15
1733668,16
1734288,13
1734916,12
1735540,13
1736172,12
1736800,11
1737416,11
1738044,12
1738668,12
1739292,13
1739924,16
1740544,16
1741172,15
1741796,16
1742420,15
1743048,14
1743664,14
1744296,13
1744924,12
1745544,11
1746172,12
1746796,10
1747424,11
1748052,14
1748672,15
1749300,14
1749924,15
1750548,15
1751176,13
1751792,11
1752424,11
1753048,11
1753672,11
1754300,10
1754920,11
1755548,11
1756180,12
1756800,16
1757428,14
1758052,16
1758684,16
1759312,13
1759932,14
1760564,13
1761184,12
1761808,10
1762436,10
1763056,11
1763684,10
1764308,11
1764932,14
1765560,14
1766176,15
1766804,15
1767432,11
1768056,11
1768684,11
1769304,10
1769936,11
1770564,10
1771184,12
1771812,11
1772436,11
1773060,16
1773692,15
1774312,17
1774940,16
1775564,14
1776188,13
1776816,15
1777440,15
1778068,11
1778696,10
1779320,11
1779948,10
1780572,11
1781204,14
1781832,14
1782448,15
1783080,16
1783700,15
1784328,11
1784956,10
1785576,11
1786208,11
1786828,11
1787456,11
1788084,10
1788704,11
1789332,13
1789964,17
1790584,16
1791216,15
1791840,15
1792468,12
1793100,12
1793720,11
1794348,10
1794972,10
1795596,10
1796224,11
1796840,10
1797472,11
1798092,16
1798716,19
1799348,16
1799968,17
1800596,13
1801228,10
1801848,11
1802476,11
1803100,11
1803728,11
1804356,10
1804976,11
1805604,11
1806224,14
1806852,14
1807484,14
1808104,15
1808732,15
1809352,13
1809976,12
1810604,11
1811224,11
1811852,13
1812476,13
1813100,13
1813728,14
1814352,12
1814980,13
1815612,14
1816232,16
1816860,15
1817484,11
1818116,12
1818744,12
1819360,10
1819992,13
1820616,15
1821240,15
1821868,11
1822488,12
1823116,15
1823740,14
1824368,19
1824996,18
1825620,14
1826248,13
1826876,12
1827496,13
1828124,11
1828748,12
1829380,11
1830008,11
1830628,11
1831256,15
1831880,15
1832504,15
1833132,14
1833752,15
1834380,11
1835004,11
1835632,11
1836260,11
1836884,11
1837516,11
1838144,10
1838768,10
1839396,12
1840020,15
1840644,15
1841276,15
1841896,17
1842524,12
1843152,11
1843776,13
1844404,12
1845020,12
1845652,15
1846280,13
1846896,14
1847524,15
1848148,20
1848776,17
1849404,14
1850024,15
1850652,11
1851276,11
1851904,10
1852532,10
1853152,11
1853780,11
1854404,11
1855028,13
1855660,12
1856280,15
1856908,15
1857532,15
1858152,15
1858784,16
1859408,14
1860036,15
1860664,15
1861280,15
1861912,13
1862536,11
1863164,10
1863796,10
1864416,13
1865044,13
1865668,15
1866292,14
1866920,15
1867536,12
1868164,12
1868788,11
1869412,11
1870044,11
1870668,11
1871296,12
1871924,11
1872544,13
1873172,16
1873796,15
1874428,15
1875056,17
1875676,19
1876304,16
1876928,13
1877552,13
1878180,11
1878800,12
1879428,11
1880052,12
1880676,11
1881308,14
1881932,14
1882560,15
1883188,15
1883808,14
1884436,11
1885060,11
1885692,11
1886320,11
1886936,10
1887568,13
1888192,12
1888816,11
1889444,12
1890064,16
1890692,15
1891316,15
1891940,14
1892568,11
1893192,13
1893824,17
1894452,16
1895072,13
1895700,11
1896324,10
1896952,11
1897580,11
1898200,13
1898828,15
1899452,15
1900076,14
1900708,11
1901328,11
1901956,11
1902584,11
1903208,10
1903836,11
1904464,12
1905092,11
1905724,10
1906344,16
1906972,15
1907600,15
1908228,14
1908856,16
1909480,17
1910108,19
1910736,19
1911360,17
1911988,17
1912608,16
1913236,14
1913868,11
1914488,15
1915120,14
1915744,16
1916376,15
1917004,14
1917624,10
1918252,11
1918880,12
1919504,13
1920136,13
1920752,13
1921380,11
1922004,11
1922628,11
1923256,14
1923872,17
1924500,18
1925132,19
1925752,18
1926380,20
1927004,19
1927632,15
1928264,13
1928880,15
1929508,11
1930132,10
1930756,13
1931388,14
1932008,16
1932636,15
1933260,15
1933884,11
1934516,10
1935136,11
1935764,12
1936396,12
1937016,14
1937644,13
1938268,11
1938896,10
1939528,15
1940144,16
1940776,18
1941400,17
1942024,19
1942652,17
1943272,17
1943900,16
1944528,13
1945152,13
1945780,10
1946400,12
1947028,11
1947656,12
1948272,14
1948904,15
1949528,15
1950156,14
1950788,10
1951408,14
1952036,11
1952660,10
1953284,12
1953916,11
1954536,11
1955164,11
1955792,13
1956416,19
1957044,19
1957664,15
1958292,15
1958924,10
1959544,13
1960172,11
1960796,11
1961428,13
1962060,14
1962680,17
1963308,16
1963932,18
1964560,18
1965188,14
1965808,16
1966436,15
1967060,13
1967684,11
1968312,11
1968932,12
1969560,11
1970188,11
1970808,11
1971436,11
1972060,11
1972688,14
1973316,14
1973936,16
1974564,16
1975188,15
1975816,12
1976444,10
1977064,12
1977692,12
1978316,12
1978940,13
1979568,12
1980184,11
1980816,11
1981440,14
1982064,14
1982692,14
1983316,14
1983948,11
1984580,10
1985200,11
1985828,10
1986452,11
1987076,11
1987708,12
1988328,11
1988956,11
1989580,14
1990204,15
1990832,17
1991456,17
1992084,15
1992716,14
1993336,13
1993964,13
1994588,11
1995220,10
1995848,10
1996472,11
1997104,11
1997728,14
1998348,14
1998980,14
1999600,15
2000228,15
2000852,11
2001476,10
2002104,12
2002720,14
2003352,13
2003980,12
2004600,13
2005228,12
2005852,14
2006480,21
2007112,20
2007728,19
2008356,17
2008980,15
2009604,14
2010232,13
2010856,11
2011484,11
2012108,10
2012732,11
2013364,10
2013984,14
2014612,16
2015244,15
2015864,15
2016492,15
2017116,13
2017748,11
2018376,10
2019000,11
2019628,11
2020252,11
2020876,12
2021508,11
2022128,12
2022756,16
2023380,17
2024004,17
2024632,18
2025256,19
2025884,17
2026516,17
2027136,14
2027768,14
2028388,15
2029020,14
2029648,10
2030272,11
2030900,13
2031524,14
2032152,15
2032780,14
2033400,15
2034028,15
2034652,15
2035276,11
2035908,10
2036528,12
2037156,11
2037788,10
2038408,11
2039036,12
2039660,16
2040292,17
2040924,16
2041544,19
2042176,17
2042800,17
2043424,17
2044052,14
2044672,12
2045304,11
2045928,11
2046552,11
2047184,11
2047804,14
2048436,15
2049060,14
2049676,15
2050304,14
2050924,11
2051552,10
2052180,10
2052796,10
2053428,11
2054048,11
2054668,11
2055296,10
2055920,15
2056548,15
2057168,17
2057788,15
2058420,14
2059036,11
2059668,11
2060296,11
2060912,13
2061540,11
2062164,11
2062792,11
2063420,11
2064040,13
2064668,15
2065288,18
2065916,16
2066544,14
2067168,13
2067796,13
2068420,13
2069044,13
2069672,12
2070288,10
2070920,11
2071544,11
2072164,13
2072796,19
2073416,18
2074048,16
2074676,14
2075296,13
2075924,11
2076548,10
2077176,12
2077804,11
2078424,11
2079052,11
2079676,10
2080300,10
2080928,14
2081544,14
2082172,15
2082796,14
2083416,14
2084048,10
2084664,11
2085292,10
2085920,11
2086536,11
2087164,13
2087788,13
2088416,12
2089048,11
2089664,16
2090292,15
2090912,17
2091536,16
2092164,12
2092780,14
2093412,16
2094036,16
2094660,15
2095288,13
2095904,10
2096532,11
2097164,10
2097784,14
2098412,15
2099036,15
2099664,14
2100292,12
2100912,11
2101540,9
2102112,10
2102740,10
2103368,11
2103992,13
2104620,12
2105244,11
2105868,14
2106496,16
2107116,18
2107744,18
2108368,16
2108992,12
2109620,12
2110240,11
2110868,11
2111496,10
2112120,11
2112748,11
2113372,9
2113948,10
2114580,12
2115200,15
2115828,15
2116452,16
2117080,13
2117708,10
2118328,11
2118956,11
2119580,10
2120204,11
2120836,10
2121456,11
2122084,13
2122708,14
2123332,15
2123960,15
2124584,15
2125212,14
2125844,14
2126464,17
2127092,16
2127716,12
2128348,10
2128976,10
2129592,11
2130220,11
2130844,13
2131468,14
2132096,14
2132720,15
2133348,15
2133972,13
2134592,14
2135224,14
2135840,12
2136468,11
2137100,11
2137720,13
2138348,12
2138972,11
2139600,14
2140232,15
2140848,16
2141476,15
2142100,13
2142724,13
2143356,14
2143976,14
2144608,12
2145228,11
2145852,11
2146484,10
2147104,11
2147732,15
2148364,14
2148984,14
2149612,15
2150236,11
2150868,11
2151496,11
2152112,10
2152744,12
2153368,11
2153988,13
2154620,12
2155240,12
2155868,16
2156492,18
2157116,19
2157744,18
2158368,18
2158996,14
2159628,12
2160248,14
2160876,14
2161500,12
2162128,11
2162756,10
2163376,11
2164004,11
2164628,13
2165252,15
2165884,14
2166504,14
2167132,11
2167756,11
2168380,11
2169008,10
2169632,11
2170260,11
2170892,11
2171512,13
2172140,11
2172764,14
2173396,17
2174024,15
2174644,14
2175272,11
2175896,11
2176520,10
2177148,12
2177768,13
2178396,15
2179020,14
2179644,13
2180272,11
2180888,14
2181520,14
2182140,14
2182768,16
2183396,15
2184020,12
2184648,11
2185276,10
2185896,11
2186524,11
2187148,11
2187780,11
2188408,12
2189028,13
2189656,15
2190280,15
2190904,17
2191532,16
2192152,13
2192780,13
2193404,14
2194032,16
2194660,13
2195284,13
2195916,11
2196544,11
2197164,11
2197792,14
2198416,15
2199044,15
2199676,14
2200296,11
2200924,11
2201548,10
2202176,11
2202804,10
2203424,12
2204052,12
2204684,10
2205304,13
2205932,15
2206556,15
2207188,15
2207820,14
2208440,14
2209068,14
2209692,15
2210316,12
2210948,10
2211568,11
2212196,12
2212820,12
2213444,11
2214072,14
2214696,15
2215324,15
2215956,14
2216576,15
2217204,11
2217828,11
2218460,11
2219088,10
2219708,11
2220336,14
2220960,12
2221584,11
2222212,10
2222832,16
2223460,15
2224084,15
2224708,15
2225340,14
2225960,13
2226588,11
2227220,12
2227840,13
2228468,15
2229092,13
2229724,14
2230352,11
2230976,14
2231608,14
2232232,14
2232856,15
2233484,11
2234104,11
2234732,11
2235356,11
2235984,11
2236612,10
2237232,12
2237864,11
2238492,10
2239112,15
2239744,16
2240368,15
2240996,15
2241624,18
2242248,19
2242876,18
2243500,15
2244124,12
2244752,10
2245376,12
2246004,11
2246628,10
2247252,12
2247884,14
2248504,14
2249132,14
2249764,14
2250384,11
2251012,11
2251640,11
2252268,11
2252900,12
2253516,12
2254148,11
2254772,10
2255396,11
2256024,14
2256640,17
2257268,17
2257892,16
2258516,12
2259144,11
2259764,11
2260392,11
2261020,11
2261640,11
2262268,13
2262892,11
2263524,11
2264152,15
2264772,15
2265400,14
2266024,15
2266648,14
2267276,10
2267896,12
2268524,11
2269148,11
2269772,11
2270404,13
2271024,13
2271656,11
2272284,15
2272904,17
2273532,16
2274156,17
2274788,16
2275416,13
2276040,15
2276668,13
2277292,11
2277916,10
2278548,10
2279168,11
2279796,11
2280420,14
2281044,19
2281672,16
2282296,16
2282924,15
2283556,10
2284176,11
2284804,10
2285428,10
2286060,10
2286688,10
2287308,11
2287936,11
2288564,11
2289184,15
2289816,14
2290436,14
2291064,15
2291688,15
2292312,16
2292944,18
2293560,15
2294192,13
2294820,11
2295440,13
2296068,11
2296692,11
2297320,13
2297952,13
2298568,15
2299196,14
2299820,15
2300444,10
2301076,10
2301696,11
2302324,11
2302952,11
2303576,13
2304208,12
2304824,12
2305452,11
2306080,14
2306696,17
2307324,17
2307948,15
2308576,11
2309208,11
2309824,13
2310452,11
2311076,11
2311700,10
2312328,10
2312952,11
2313580,12
2314204,15
2314832,17
2315460,16
2316080,16
2316708,12
2317340,10
2317960,11
2318588,11
2319212,11
2319844,11
2320472,12
2321092,12
2321720,15
2322344,15
2322968,15
2323596,17
2324216,20
2324844,21
2325468,20
2326092,19
2326720,15
2327344,13
2327972,10
2328604,11
2329224,11
2329852,10
2330476,11
2331108,13
2331736,14
2332360,15
2332988,15
2333612,12
2334236,10
2334868,10
2335488,11
2336116,12
2336740,12
2337364,11
2337992,11
2338612,11
2339240,15
2339868,16
2340488,18
2341116,17
2341740,15
2342372,14
2343004,14
2343624,15
2344252,13
2344876,12
2345504,10
2346132,10
2346752,11
2347384,14
2348008,15
2348632,16
2349260,14
2349880,15
2350508,10
2351140,11
2351760,11
2352392,11
2353016,12
2353644,11
2354276,10
2354896,11
2355528,13
2356148,14
2356772,15
2357404,14
2358024,16
2358652,15
2359276,16
2359900,17
2360532,17
2361156,12
2361788,10
2362416,10
2363036,10
2363664,11
2364288,13
2364920,15
2365548,14
2366168,15
2366796,11
2367424,11
2368048,11
2368676,10
2369296,12
2369924,13
2370548,13
2371172,11
2371804,12
2372428,17
2373060,16
2373688,16
2374312,18
2374944,15
2375568,14
2376200,18
2376828,14
2377448,12
2378076,11
2378700,11
2379324,12
2379956,11
2380576,14
2381208,14
2381836,14
2382456,15
2383084,13
2383708,11
2384340,11
2384972,10
2385592,11
2386224,11
2386848,11
2387472,12
2388100,11
2388720,12
2389348,16
2389976,16
2390600,15
2391228,14
2391848,14
2392480,14
2393108,14
2393728,12
2394356,12
2394984,12
2395612,11
2396244,10
2396864,11
2397492,14
2398116,14
2398744,15
2399372,14
2399992,13
2400624,13
2401248,11
2401872,12
2402500,10
2403120,12
2403748,13
2404380,10
2405000,11
2405628,14
2406252,15
2406884,16
2407512,20
2408136,20
2408764,16
2409388,15
2410012,14
2410644,10
2411264,13
2411892,11
2412516,11
2413144,11
2413772,12
2414392,13
2415024,15
2415652,14
2416272,15
2416900,11
2417524,11
2418156,11
2418784,10
2419408,10
2420036,11
2420660,11
2421284,11
2421912,10
2422536,15
2423164,15
2423788,16
2424416,15
2425044,12
2425668,12
2426300,12
2426928,13
2427548,13
2428176,14
2428800,11
2429428,10
2430060,10
2430680,15
2431312,15
2431936,15
2432560,15
2433192,12
2433808,11
2434436,11
2435060,11
2435684,11
2436316,12
2436940,13
2437572,11
2438200,11
2438820,14
2439448,16
2440072,20
2440700,22
2441332,21
2441952,17
2442580,14
2443204,16
2443828,14
2444460,12
2445080,11
2445708,10
2446332,10
2446960,12
2447588,13
2448216,15
2448844,14
2449476,14
2450096,11
2450724,11
2451352,11
2451976,11
2452604,11
2453224,12
2453852,12
2454480,12
2455104,12
2455736,17
2456352,17
2456984,17
2457612,17
2458228,18
2458860,19
2459480,15
2460112,12
2460740,12
2461360,13
2461988,12
2462612,11
2463240,11
2463868,14
2464488,15
2465116,14
2465740,15
2466364,14
2466992,11
2467612,10
2468240,11
2468864,10
2469488,11
2470116,13
2470740,12
2471368,12
2472000,12
2472616,15
2473244,17
2473868,17
2474500,18
2475128,18
2475752,19
2476380,16
2477008,12
2477628,10
2478260,10
2478880,11
2479508,10
2480140,10
2480760,14
2481388,14
2482012,15
2482640,14
2483272,11
2483888,11
2484516,11
2485140,11
2485764,11
2486396,11
2487016,12
2487644,13
2488272,13
2488896,16
2489524,14
2490144,16
2490772,15
2491404,14
2492024,16
2492652,15
2493276,13
2493908,11
2494540,12
2495160,12
2495792,11
2496416,11
2497040,14
2497668,14
2498288,16
2498916,16
2499540,16
2500164,13
2500792,11
2501412,11
2502040,10
2502672,10
2503288,11
2503920,11
2504544,13
2505172,16
2505804,16
2506424,17
2507052,17
2507676,16
2508304,15
2508932,14
2509552,13
2510180,12
2510804,11
2511428,11
2512060,10
2512680,11
2513308,11
2513940,14
2514560,15
2515188,15
2515816,15
2516444,12
2517076,10
2517696,12
2518328,11
2518952,10
2519576,11
2520208,10
2520824,11
2521452,11
2522076,15
2522704,16
2523332,16
2523952,15
2524584,15
2525212,14
2525832,16
2526464,17
2527088,14
2527716,14
2528348,12
2528968,11
2529596,11
2530224,12
2530848,14
2531476,14
2532096,15
2532724,13
2533352,10
2533976,11
2534608,10
2535224,11
2535852,11
2536484,10
2537104,11
2537736,11
2538360,11
2538992,15
2539620,14
2540240,16
2540868,16
2541492,14
2542116,16
2542748,11
2543368,11
2543996,11
2544624,11
2545248,12
2545880,11
2546504,11
2547132,14
2547764,14
2548384,15
2549016,14
2549640,13
2550268,11
2550900,10
2551520,11
2552152,11
2552776,11
2553400,11
2554032,11
2554648,12
2555280,15
2555912,17
2556528,16
2557160,18
2557784,18
2558416,13
2559044,13
2559664,14
2560300,11
2560920,11
2561540,10
2562168,10
2562788,11
2563420,12
2564040,14
2564660,15
2565292,14
2565908,15
2566540,11
2567160,11
2567784,11
2568412,10
2569036,11
2569664,11
2570292,10
2570912,12
2571540,11
2572164,13
2572792,15
2573420,14
2574040,17
2574668,17
2575292,19
2575916,17
2576544,15
2577168,13
2577796,11
2578420,10
2579044,10
2579672,11
2580296,14
2580928,14
2581556,14
2582176,14
2582804,15
2583428,11
2584056,10
2584688,10
2585304,11
2585932,13
2586556,13
2587180,11
2587808,11
2588428,11
2589056,15
2589680,16
2590304,15
2590932,17
2591556,14
2592188,12
2592816,11
2593432,12
2594060,10
2594684,10
2595312,11
2595944,11
2596560,12
2597192,15
2597816,15
2598440,14
2599068,14
2599688,14
2600316,11
2600940,11
2601564,11
2602196,13
2602820,13
2603448,13
2604076,10
2604696,11
2605324,14
2605948,17
2606580,16
2607208,19
2607828,18
2608456,15
2609080,15
2609704,15
2610332,12
2610952,13
2611584,13
2612204,11
2612828,11
2613460,11
2614080,13
2614712,15
2615340,14
2615960,15
2616592,11
2617212,10
2617844,11
2618472,10
2619096,11
2619724,11
2620352,11
2620976,12
2621604,11
2622220,15
2622852,15
2623472,15
2624096,17
2624724,17
2625344,18
2625972,14
2626600,14
2627216,14
2627844,11
2628464,10
2629096,10
2629724,10
2630344,15
2630972,15
2631596,15
2632220,14
2632848,14
2633464,12
2634092,12
2634716,14
2635340,12
2635968,10
2636592,12
2637220,11
2637848,10
2638472,13
2639100,16
2639724,16
2640352,19
2640980,20
2641600,13
2642228,11
2642848,12
2643472,14
2644100,14
2644720,14
2645348,12
2645968,10
2646592,12
2647220,14
2647840,15
2648468,14
2649096,15
2649712,11
2650344,12
2650964,11
2651596,11
2652224,10
2652840,11
2653468,11
2654092,11
2654720,12
2655348,14
2655968,15
2656600,18
2657220,17
2657844,16
2658472,14
2659096,15
2659724,15
2660348,10
2660976,12
2661604,11
2662228,10
2662860,11
2663488,13
2664104,15
2664732,14
2665356,15
2665984,15
2666612,10
2667232,12
2667860,11
2668480,11
2669104,12
2669732,10
2670352,11
2670980,11
2671604,11
2672228,17
2672856,21
2673476,19
2674108,17
2674736,15
2675352,13
2675984,13
2676604,11
2677236,11
2677864,10
2678480,10
2679108,11
2679732,12
2680356,15
2680988,14
2681608,15
2682236,15
2682860,13
2683484,10
2684112,10
2684728,11
2685360,12
2685988,10
2686608,13
2687236,11
2687860,11
2688492,14
2689120,15
2689736,17
2690364,15
2690988,15
2691612,13
2692240,14
2692856,17
2693484,15
2694108,14
2694732,12
2695360,11
2695976,11
2696604,12
2697236,13
2697856,15
2698484,15
2699108,14
2699736,11
2700368,11
2700984,12
2701616,13
2702236,12
2702860,11
2703492,10
2704112,11
2704740,12
2705364,15
2705984,15
2706616,15
2707232,16
2707860,14
2708488,12
2709108,12
2709740,11
2710364,11
2710996,11
2711624,11
2712244,11
2712872,11
2713496,13
2714120,14
2714748,16
2715368,15
2715996,14
2716620,11
2717244,11
2717876,10
2718496,11
2719124,11
2719756,10
2720376,11
2721004,12
2721628,15
2722256,13
2722884,14
2723504,15
2724132,15
2724756,14
2725380,18
2726012,19
2726632,20
2727260,18
2727884,18
2728508,13
2729136,10
2729752,11
2730380,13
2731004,14
2731632,15
2732260,15
2732884,12
2733512,10
2734144,11
2734760,13
2735388,14
2736012,11
2736640,11
2737268,12
2737888,13
2738516,16
2739140,15
2739768,16
2740396,14
2741016,17
2741644,16
2742268,16
2742896,11
2743524,10
2744148,11
2744780,11
2745408,11
2746032,13
2746660,13
2747284,16
2747908,16
2748540,16
2749160,15
2749788,11
2750412,11
2751036,11
2751668,10
2752288,11
2752916,10
2753544,10
2754168,12
2754796,11
2755420,13
2756052,15
2756680,16
2757296,18
2757928,17
2758552,16
2759176,15
2759804,13
2760424,12
2761052,10
2761676,10
2762300,10
2762932,10
2763552,13
2764180,15
2764812,14
2765428,15
2766060,13
2766684,11
2767312,11
2767940,11
2768560,12
2769188,12
2769812,11
2770436,11
2771068,10
2771688,15
2772316,15
2772940,15
2773564,17
2774196,18
2774816,18
2775444,15
2776076,12
2776696,11
2777324,10
2777948,10
2778580,10
2779208,10
2779832,11
2780460,13
2781088,14
2781712,15
2782340,14
2782960,13
2783588,12
2784216,12
2784840,12
2785468,10
2786088,11
2786716,11
2787344,12
2787968,14
2788596,17
2789220,15
2789852,16
2790480,18
2791096,15
2791724,15
2792348,11
2792972,11
2793600,10
2794216,10
2794848,11
2795472,12
2796096,11
2796724,14
2797344,14
2797972,16
2798604,15
2799224,16
2799852,15
2800480,13
2801108,11
2801740,10
2802360,12
2802988,12
2803612,11
2804236,11
2804868,10
2805488,15
2806116,15
2806740,15
2807364,15
2807992,14
2808616,13
2809244,12
2809876,12
2810496,11
2811124,11
2811748,11
2812380,10
2813012,10
2813632,15
2814260,14
2814884,15
2815508,15
2816140,12
2816756,11
2817388,11
2818008,10
2818632,12
2819260,10
2819880,15
2820508,12
2821136,12
2821760,15
2822388,15
2823012,16
2823640,16
2824272,15
2824888,12
2825520,15
2826144,15
2826768,14
2827396,10
2828016,11
2828644,10
2829268,11
2829892,11
2830520,15
2831140,16
2831768,17
2832400,16
2833016,12
2833644,11
2834268,11
2834896,10
2835528,10
2836144,11
2836776,11
2837400,11
2838024,11
2838652,16
2839272,17
2839900,19
2840528,19
2841152,16
2841780,16
2842400,15
2843028,14
2843656,12
2844280,12
2844908,10
2845532,11
2846164,11
2846792,14
2847416,15
2848044,14
2848668,14
2849292,13
2849920,10
2850536,11
2851168,11
2851792,12
2852416,11
2853044,11
2853664,11
2854292,11
2854924,13
2855544,15
2856176,16
2856796,15
2857428,15
2858060,12
2858680,16
2859308,15
2859936,13
2860560,13
2861188,14
2861808,13
2862436,11
2863060,12
2863688,13
2864316,14
2864936,14
2865568,15
2866196,10
2866816,12
2867448,13
2868068,11
2868696,10
2869328,11
2869944,12
2870572,11
2871196,11
2871820,16
2872452,14
2873072,16
2873700,17
2874324,16
2874948,19
2875576,18
2876200,16
2876828,12
2877460,10
2878080,11
2878708,11
2879332,12
2879964,15
2880596,14
2881216,14
2881844,15
2882464,14
2883088,12
2883716,10
2884336,12
2884964,10
2885588,10
2886212,11
2886840,11
2887456,11
2888088,14
2888716,16
2889336,17
2889964,14
2890588,14
2891216,14
2891844,14
2892464,15
2893092,13
2893716,11
2894340,11
2894972,10
2895592,10
2896220,11
2896844,14
2897468,15
2898096,14
2898712,15
2899340,11
2899964,10
2900592,11
2901220,11
2901844,11
2902472,11
2903104,11
2903720,12
2904352,12
2904976,15
2905604,15
2906232,15
2906856,15
2907484,16
2908112,14
2908736,13
2909364,12
2909984,11
2910612,11
2911244,10
2911864,11
2912496,10
2913116,12
2913748,13
2914376,14
2915000,14
2915628,15
2916252,11
2916876,13
2917508,10
2918128,11
2918760,11
2919380,11
2920004,11
2920632,12
2921256,12
2921884,13
2922516,14
2923136,16
2923768,17
2924388,16
2925020,14
2925648,14
2926272,15
2926900,15
2927524,15
2928148,11
2928780,10
2929400,11
2930028,14
2930652,14
2931276,14
2931908,14
2932528,13
2933156,10
2933788,10
2934408,11
2935036,10
2935660,11
2936292,11
2936924,10
2937544,12
2938176,14
2938800,15
2939424,15
2940052,15
2940672,16
2941304,15
2941928,15
2942552,17
2943184,15
2943804,12
2944436,10
2945064,10
2945680,10
2946308,11
2946932,14
2947564,14
2948192,14
2948816,16
2949444,11
2950068,10
2950692,10
2951320,10
2951944,13
2952572,11
2953196,11
2953820,11
2954452,11
2955076,14
2955704,16
2956332,15
2956952,17
2957580,15
2958204,16
2958836,15
2959464,11
2960088,11
2960716,10
2961340,11
2961964,12
2962592,11
2963208,14
2963840,15
2964464,15
2965084,15
2965716,15
2966340,11
2966972,13
2967600,14
2968224,15
2968852,11
2969476,12
2970108,11
2970736,10
2971360,13
2971988,15
2972612,15
2973236,16
2973868,16
2974488,14
2975116,11
2975740,11
2976368,11
2976996,10
2977620,10
2978248,11
2978876,10
2979496,11
2980124,14
2980748,14
2981380,14
2982008,14
2982628,11
2983256,11
2983880,11
2984504,11
2985132,10
2985752,11
2986380,12
2987004,14
2987632,12
2988260,15
2988884,14
2989516,14
2990148,15
2990768,18
2991396,15
2992020,13
2992644,13
2993276,12
2993896,10
2994524,12
2995152,14
2995776,15
2996404,15
2997024,15
2997652,15
2998284,14
2998904,15
2999532,12
3000160,13
3000788,11
3001420,10
3002040,10
3002668,11
3003292,11
3003916,12
3004548,10
3005168,15
3005800,17
3006424,16
3007048,16
3007676,14
3008296,12
3008928,12
3009556,11
3010176,11
3010808,11
3011428,11
3012060,12
3012692,12
3013312,15
3013940,15
3014568,15
3015192,15
3015820,11
3016440,11
3017068,10
3017696,10
3018320,11
3018948,11
3019568,12
3020200,11
3020828,11
3021448,15
3022076,15
3022700,15
3023332,17
3023964,17
3024584,18
3025212,17
3025840,13
3026464,11
3027092,10
3027712,10
3028344,11
3028968,10
3029592,12
3030224,14
3030844,14
3031472,15
3032104,15
3032724,11
3033352,10
3033980,10
3034608,11
3035240,10
3035860,11
3036488,11
3037112,11
3037740,11
3038372,14
3038992,14
3039624,17
3040248,17
3040872,13
3041500,12
3042124,11
3042756,11
3043388,10
3044008,13
3044636,13
3045264,12
3045892,11
3046524,14
3047144,14
3047772,15
3048400,15
3049020,14
3049652,10
3050272,11
3050904,10
3051532,10
3052152,12
3052784,13
3053408,11
3054040,12
3054668,16
3055288,18
3055920,17
3056544,17
3057168,16
3057800,12
3058416,13
3059048,14
3059672,14
3060296,13
3060928,11
3061544,11
3062176,11
3062804,11
3063424,14
3064056,15
3064680,16
3065312,15
3065940,10
3066560,11
3067192,12
3067816,12
3068440,10
3069072,11
3069692,13
3070324,12
3070948,11
3071576,19
3072208,20
3072824,18
3073452,17
3074080,16
3074700,15
3075328,17
3075952,16
3076580,13
3077212,11
3077832,11
3078460,11
3079084,11
3079708,14
3080336,14
3080960,15
3081588,14
3082212,15
3082836,11
3083468,10
3084088,11
3084716,11
3085348,10
3085968,13
3086596,12
3087220,12
3087852,12
3088480,16
3089104,15
3089732,15
3090356,15
3090980,15
3091612,18
3092232,21
3092860,20
3093484,16
3094108,12
3094740,10
3095364,14
3095992,11
3096624,13
3097244,14
3097876,14
3098496,15
3099128,13
3099756,12
3100376,11
3101004,11
3101632,13
3102256,16
3102884,15
3103504,14
3104136,11
3104760,15
3105384,16
3106012,17
3106636,17
3107268,15
3107896,14
3108520,15
3109148,17
3109776,15
3110404,16
3111036,12
3111656,10
3112288,11
3112912,13
3113536,14
3114164,14
3114784,15
3115416,14
3116044,10
3116664,11
3117296,11
3117920,11
3118548,11
3119180,11
3119800,12
3120432,13
3121056,11
3121680,15
3122308,15
3122928,15
3123560,17
3124180,16
3124804,16
3125432,14
3126056,12
3126684,11
3127316,10
3127936,11
3128568,12
3129188,11
3129820,15
3130452,14
3131072,15
3131704,15
3132328,13
3132952,12
3133580,10
3134200,11
3134828,11
3135456,11
3136080,11
3136708,10
3137328,12
3137956,17
3138588,18
3139208,21
3139836,18
3140460,15
3141092,11
3141724,10
3142344,11
3142976,11
3143600,11
3144224,11
3144852,10
3145472,9
3146052,11
3146680,13
3147304,15
3147936,15
3148552,14
3149184,12
3149808,13
3150432,14
3151060,11
3151688,11
3152316,11
3152948,11
3153568,12
3154200,12
3154824,16
3155452,14
3156084,14
3156704,18
3157336,15
3157960,15
3158584,15
3159216,12
3159832,11
3160464,11
3161092,10
3161712,10
3162340,12
3162968,15
3163596,15
3164228,14
3164848,15
3165476,14
3166104,11
3166728,12
3167356,16
3167976,14
3168608,10
3169236,11
3169860,11
3170492,10
3171112,12
3171744,15
3172376,14
3172996,16
3173628,16
3174252,15
3174884,15
3175512,11
3176136,12
3176764,12
3177392,11
3178016,11
3178644,10
3179264,12
3179896,14
3180520,15
3181144,15
3181776,14
3182392,11
3183024,10
3183656,10
3184276,11
3184904,10
3185532,10
3186160,10
3186792,11
3187412,11
3188044,14
3188668,15
3189292,15
3189924,15
3190544,16
3191176,15
3191800,14
3192424,12
3193056,11
3193680,11
3194312,11
3194944,10
3195560,10
3196192,14
3196816,13
3197444,15
3198076,14
3198696,14
3199328,11
3199956,11
3200580,11
3201212,10
3201832,12
3202460,11
3203088,12
3203704,12
3204336,11
3204960,15
3205588,15
3206216,16
3206840,17
3207468,14
3208092,15
3208716,14
3209344,11
3209960,12
3210588,12
3211212,11
3211836,10
3212464,10
3213088,14
3213716,15
3214348,14
3214968,14
3215596,11
3216220,11
3216852,13
3217480,13
3218096,12
3218724,12
3219348,11
3219972,11
3220604,12
3221224,19
3221852,20
3222476,18
3223100,18
3223728,16
3224352,13
3224980,11
3225612,10
3226232,12
3226860,15
3227484,16
3228112,12
3228744,11
3229360,11
3229992,13
3230616,15
3231240,15
3231868,14
3232488,12
3233116,11
3233740,10
3234364,10
3234996,10
3235616,12
3236244,11
3236876,10
3237496,13
3238124,14
3238748,15
3239380,16
3240008,18
3240624,16
3241256,14
3241880,15
3242504,15
3243132,12
3243752,11
3244380,11
3245004,11
3245628,11
3246260,14
3246880,15
3247508,14
3248140,14
3248760,14
3249388,11
3250012,11
3250644,11
3251276,10
3251896,11
3252524,12
3253148,11
3253772,11
3254404,12
3255024,13
3255656,17
3256280,20
3256904,18
3257532,14
3258152,16
3258780,17
3259412,14
3260032,13
3260664,13
3261288,11
3261916,11
3262548,10
3263168,14
3263800,15
3264424,15
3265048,15
3265676,11
3266296,11
3266924,11
3267552,11
3268176,11
3268804,10
3269424,12
3270056,11
3270684,10
3271304,15
3271936,16
3272560,15
3273188,15
3273820,14
3274440,17
3275068,15
3275696,13
3276320,12
3276952,11
3277568,12
3278196,10
3278816,11
3279436,13
3280068,13
3280684,14
3281312,15
3281940,14
3282556,11
3283184,10
3283808,10
3284436,11
3285068,10
3285688,11
3286316,11
3286940,11
3287560,12
3288188,16
3288804,14
3289432,15
3290056,15
3290680,13
3291308,12
3291928,13
3292556,14
3293180,13
3293800,13
3294432,12
3295052,12
3295684,11
3296312,15
3296928,16
3297556,14
3298180,15
3298808,13
3299436,10
3300056,11
3300684,10
3301308,10
3301928,11
3302560,11
3303176,11
3303804,11
3304428,14
3305048,16
3305680,15
3306296,17
3306924,16
3307552,12
3308176,12
3308804,12
3309424,10
3310056,11
3310684,10
3311304,11
3311932,11
3312556,11
3313180,14
3313812,14
3314432,15
3315060,15
3315684,12
3316308,11
3316940,10
3317560,11
3318188,12
3318820,10
3319440,12
3320068,11
3320692,11
3321320,15
3321948,15
3322568,16
3323196,15
3323820,13
3324444,15
3325072,14
3325696,15
3326324,12
3326948,13
3327572,12
3328204,10
3328820,11
3329448,14
3330076,14
3330696,16
3331324,16
3331944,14
3332576,11
3333204,14
3333820,14
3334452,12
3335072,10
3335696,11
3336324,10
3336944,11
3337572,11
3338196,15
3338820,14
3339448,15
3340064,16
3340696,16
3341324,15
3341944,15
3342572,13
3343196,12
3343824,10
3344456,11
3345072,11
3345700,11
3346324,15
3346948,14
3347580,14
3348200,15
3348828,12
3349452,11
3350076,12
3350704,12
3351324,11
3351952,11
3352584,11
3353200,11
3353828,11
3354452,14
3355084,16
3355712,15
3356332,15
3356960,15
3357584,12
3358212,12
3358844,11
3359464,11
3360092,11
3360712,11
3361336,11
3361964,10
3362580,12
3363212,14
3363832,14
3364456,15
3365084,15
3365708,12
3366336,11
3366964,10
3367584,11
3368212,10
3368836,11
3369464,11
3370092,10
3370712,11
3371340,14
3371964,16
3372588,16
3373220,15
3373840,17
3374468,13
3375092,13
3375716,12
3376344,12
3376968,11
3377596,11
3378228,10
3378848,10
3379476,14
3380100,15
3380728,16
3381360,15
3381976,13
3382604,10
3383228,10
3383848,12
3384480,10
3385096,11
3385724,11
3386348,11
3386972,12
3387600,14
3388216,17
3388844,15
3389472,14
3390096,16
3390724,12
3391348,13
3391980,15
3392608,14
3393232,13
3393860,12
3394484,10
3395108,11
3395736,10
3396352,14
3396984,15
3397608,15
3398232,15
3398860,11
3399480,11
3400108,11
3400740,10
3401360,11
3401988,10
3402612,11
3403240,11
3403872,11
3404488,15
3405116,15
3405740,15
3406364,15
3406992,14
3407616,13
3408244,13
3408868,12
3409492,11
3410120,11
3410736,12
3411368,13
3411996,12
3412616,15
3413244,15
3413868,14
3414500,14
3415128,14
3415748,11
3416376,11
3417000,11
3417624,12
3418252,10
3418872,12
3419500,12
3420128,12
3420752,12
3421380,15
3422000,15
3422628,15
3423260,16
3423880,11
3424512,11
3425132,12
3425764,13
3426392,12
3427016,12
3427644,11
3428268,13
3428892,13
3429524,16
3430144,15
3430776,15
3431396,15
3432024,11
3432652,10
3433272,12
3433900,12
3434532,12
3435152,13
3435784,13
3436408,12
3437036,11
3437668,14
3438288,17
3438916,17
3439544,19
3440168,19
3440796,17
3441416,17
3442044,15
3442668,15
3443292,12
3443920,12
3444536,11
3445164,11
3445796,11
3446416,15
3447044,15
3447668,14
3448296,14
3448928,11
3449544,11
3450172,11
3450796,11
3451424,11
3452052,12
3452672,13
3453300,12
3453928,11
3454552,16
3455180,17
3455800,18
3456432,17
3457060,14
3457680,13
3458308,13
3458932,14
3459560,12
3460188,11
3460808,12
3461436,13
3462060,11
3462684,14
3463312,14
3463936,13
3464564,15
3465188,14
3465812,11
3466444,10
3467064,11
3467692,11
3468324,10
3468944,11
3469572,11
3470196,11
3470828,13
3471456,14
3472080,15
3472708,15
3473332,14
3473956,13
3474588,16
3475208,19
3475836,18
3476460,15
3477088,12
3477716,11
3478340,11
3478972,11
3479604,13
3480224,15
3480856,13
3481480,15
3482108,11
3482740,10
3483360,11
3483988,11
3484612,11
3485236,11
3485864,11
3486488,11
3487116,11
3487740,14
3488368,17
3488996,15
3489620,17
3490248,15
3490876,12
3491496,14
3492124,13
3492748,11
3493380,11
3494008,11
3494628,11
3495256,12
3495880,13
3496504,13
3497132,14
3497752,15
3498380,15
3499004,10
3499632,11
3500260,11
3500888,10
3501516,11
3502148,15
3502768,15
3503396,13
3504024,11
3504644,17
3505276,19
3505896,20
3506528,16
3507152,14
3507776,14
3508404,12
3509024,14
3509652,13
3510284,10
3510904,10
3511536,11
3512160,12
3512788,16
3513420,15
3514040,15
3514668,15
3515296,13
3515920,15
3516548,14
3517168,13
3517800,13
3518424,11
3519048,11
3519680,11
3520296,11
3520928,15
3521556,14
3522176,14
3522804,15
3523428,14
3524056,16
3524688,20
3525304,20
3525932,15
3526556,13
3527180,12
3527812,11
3528432,13
3529060,13
3529684,13
3530308,13
3530936,14
3531560,15
3532188,11
3532820,10
3533440,11
3534068,10
3534692,12
3535320,15
3535952,13
3536572,13
3537200,12
3537824,13
3538448,14
3539076,16
3539696,21
3540324,20
3540948,18
3541572,16
3542204,14
3542824,13
3543452,12
3544084,10
3544704,11
3545332,11
3545960,15
3546588,13
3547216,14
3547840,15
3548468,13
3549092,11
3549720,11
3550348,10
3550968,11
3551600,11
3552224,13
3552848,11
3553476,11
3554096,14
3554724,15
3555356,18
3555976,18
3556608,17
3557232,18
3557860,17
3558492,16
3559112,13
3559740,12
3560368,11
3560992,11
3561620,10
3562240,11
3562868,13
3563492,14
3564120,15
3564748,15
3565368,11
3565996,11
3566628,10
3567248,11
3567880,11
3568504,12
3569132,14
3569764,13
3570384,11
3571016,15
3571640,18
3572264,21
3572892,19
3573512,19
3574144,18
3574768,15
3575392,13
3576024,12
3576648,13
3577276,10
3577908,10
3578528,12
3579160,14
3579784,15
3580416,15
3581044,14
3581664,14
3582296,11
3582920,12
3583544,12
3584176,11
3584792,11
3585420,12
3586044,10
3586672,11
3587300,12
3587924,14
3588552,14
3589184,15
3589800,15
3590428,12
3591052,14
3591680,12
3592312,11
3592932,11
3593560,13
3594184,12
3594808,10
3595436,11
3596056,14
3596684,15
3597312,14
3597936,15
3598564,11
3599188,11
3599820,11
3600452,12
3601072,11
3601700,11
3602324,12
3602952,11
3603580,10
3604200,15
3604828,15
3605452,15
3606076,17
3606704,16
3607320,15
3607952,15
3608580,11
3609200,12
3609828,11
3610452,11
3611080,11
3611708,11
3612328,14
3612956,13
3613580,15
3614212,14
3614840,15
3615456,10
3616088,11
3616708,11
3617332,11
3617964,10
3618584,13
3619212,12
3619836,10
3620464,12
3621092,14
3621716,15
3622348,16
3622980,14
3623600,15
3624228,13
3624852,14
3625476,13
3626108,14
3626728,13
3627356,11
3627980,11
3628604,11
3629236,14
3629856,14
3630484,15
3631116,14
3631736,13
3632368,11
3632988,11
3633620,11
3634248,10
3634872,11
3635504,12
3636128,11
3636748,11
3637380,16
3638000,18
3638628,16
3639252,16
3639876,15
3640508,10
3641128,12
3641756,12
3642388,10
3643008,11
3643636,11
3644264,11
3644892,12
3645524,14
3646144,14
3646772,14
3647396,14
3648020,15
3648648,10
3649272,11
3649900,11
3650524,11
3651148,11
3651780,10
3652400,11
3653028,11
3653660,12
3654280,16
3654912,15
3655536,15
3656164,15
3656796,11
3657416,14
3658044,13
3658668,15
3659296,14
3659924,10
3660544,11
3661176,11
3661800,12
3662424,15
3663052,14
3663672,15
3664304,15
3664932,14
3665552,13
3666184,13
3666808,11
3667436,11
3668068,10
3668688,13
3669316,11
3669940,11
3670564,13
3671196,16
3671816,15
3672448,15
3673072,15
3673696,13
3674324,13
3674948,14
3675580,14
3676212,12
3676832,13
3677460,10
3678088,11
3678716,11
3679348,14
3679968,14
3680600,14
3681224,15
3681848,12
3682480,11
3683096,11
3683728,11
3684360,11
3684976,11
3685604,11
3686232,11
3686860,11
3687492,14
3688112,15
3688740,16
3689364,15
3689988,14
3690620,12
3691240,15
3691868,17
3692492,14
3693116,12
3693744,12
3694364,11
3694992,11
3695620,13
3696240,15
3696868,14
3697492,14
3698120,14
3698752,10
3699368,10
3700000,11
3700620,11
3701252,13
3701884,12
3702504,11
3703132,11
3703756,11
3704384,15
3705012,14
3705632,16
3706260,18
3706892,18
3707512,17
3708140,15
3708764,12
3709396,11
3710028,10
3710648,11
3711280,11
3711904,11
3712528,14
3713156,13
3713776,14
3714404,15
3715028,11
3715652,10
3716284,10
3716904,12
3717532,11
3718164,11
3718784,11
3719412,11
3720036,12
3720668,18
3721296,17
3721920,16
3722548,16
3723172,15
3723800,14
3724428,16
3725048,15
3725676,13
3726300,13
3726928,12
3727556,10
3728176,11
3728804,12
3729432,14
3730056,15
3730684,15
3731308,15
3731940,11
3732572,10
3733192,11
3733820,10
3734448,11
3735072,11
3735700,11
3736320,11
3736948,11
3737576,15
3738200,15
3738828,15
3739448,17
3740076,13
3740708,14
3741328,15
3741960,14
3742584,13
3743212,11
3743844,10
3744464,11
3745092,11
3745716,15
3746340,15
3746972,14
3747592,15
3748224,13
3748848,11
3749468,11
3750100,11
3750724,10
3751356,10
3751988,10
3752608,12
3753240,12
3753864,16
3754492,15
3755124,14
3755744,16
3756376,18
3757000,15
3757624,13
3758256,14
3758872,14
3759504,11
3760132,10
3760752,9
3761332,11
3761960,12
3762592,14
3763220,14
3763840,14
3764468,14
3765092,11
3765724,11
3766356,11
3766976,11
3767608,13
3768232,12
3768856,13
3769484,12
3770104,11
3770732,15
3771360,15
3771984,16
3772612,15
3773232,14
3773864,13
3774492,10
3775112,11
3775744,12
3776368,15
3776996,13
3777628,14
3778248,14
3778876,15
3779500,15
3780128,15
3780756,14
3781376,14
3782004,11
3782632,11
3783256,11
3783884,11
3784504,11
3785132,13
3785764,11
3786384,11
3787016,11
3787640,15
3788272,15
3788900,14
3789520,15
3790148,11
3790772,11
3791396,13
3792028,12
3792648,15
3793276,16
3793900,17
3794528,15
3795156,13
3795784,15
3796412,15
3797044,14
3797664,16
3798296,11
3798920,11
3799552,11
3800180,11
3800800,11
3801428,11
3802056,11
3802680,13
3803308,11
3803928,16
3804560,15
3805188,14
3805808,14
3806440,15
3807064,16
3807692,18
3808324,17
3808944,17
3809576,16
3810200,12
3810824,12
3811452,10
3812072,13
3812700,13
3813328,16
3813952,16
3814584,14
3815200,11
3815828,11
3816460,10
3817080,11
3817708,11
3818336,11
3818964,11
3819596,11
3820216,11
3820848,15
3821472,15
3822096,17
3822724,18
3823344,17
3823976,17
3824600,14
3825228,14
3825860,11
3826480,11
3827112,11
3827744,11
3828360,11
3828992,15
3829620,14
3830248,15
3830880,14
3831504,13
3832136,13
3832760,14
3833384,14
3834016,13
3834636,12
3835268,11
3835892,11
3836516,11
3837148,15
3837776,15
3838408,15
3839036,16
3839660,16
3840292,15
3840916,13
3841540,13
3842172,12
3842792,12
3843420,11
3844044,10
3844668,11
3845296,11
3845920,13
3846548,14
3847180,14
3847800,16
3848428,11
3849052,11
3849684,10
3850312,11
3850928,12
3851560,12
3852184,12
3852804,11
3853436,12
3854056,18
3854684,20
3855308,19
3855932,20
3856564,16
3857184,15
3857812,12
3858444,11
3859064,11
3859692,10
3860316,11
3860948,11
3861580,10
3862200,15
3862828,15
3863456,14
3864080,15
3864708,14
3865328,11
3865960,11
3866580,11
3867204,11
3867836,12
3868456,12
3869084,11
3869716,12
3870336,15
3870968,15
3871592,15
3872224,15
3872852,16
3873472,19
3874100,21
3874724,18
3875348,15
3875980,14
3876600,12
3877228,11
3877852,11
3878480,12
3879108,14
3879728,15
3880360,15
3880988,14
3881608,12
3882236,11
3882860,11
3883492,11
3884124,10
3884744,11
3885376,11
3886000,12
3886624,12
3887256,14
3887872,14
3888504,15
3889128,15
3889752,13
3890384,13
3891004,14
3891636,16
3892264,17
3892880,15
3893512,12
3894136,11
3894764,10
3895396,14
3896016,15
3896644,14
3897268,15
3897892,14
3898524,10
3899144,11
3899776,11
3900400,11
3901024,11
3901656,11
3902280,13
3902908,14
3903540,14
3904160,19
3904788,17
3905412,16
3906044,15
3906672,13
3907296,17
3907924,11
3908552,11
3909176,11
3909804,10
3910424,15
3911052,12
3911684,10
3912304,15
3912936,14
3913560,17
3914192,18
3914820,11
3915440,11
3916072,11
3916696,10
3917320,11
3917948,10
3918568,12
3919196,16
3919824,14
3920448,15
3921076,14
3921696,14
3922324,14
3922956,14
3923576,11
3924208,9
3924780,13
3925416,13
3926044,11
3926664,10
3927296,11
3927920,11
3928552,12
3929180,13
3929800,14
3930432,16
3931056,20
3931680,14
3932312,11
3932928,11
3933556,13
3934180,13
3934804,12
3935436,12
3936056,11
3936684,11
3937316,16
3937936,17
3938564,16
3939188,15
3939820,11
3940448,15
3941072,12
3941704,9
3942276,11
3942912,11
3943540,11
3944160,16
3944788,16
3945412,17
3946036,15
3946668,14
3947288,15
3947916,14
3948540,11
3949168,11
3949796,11
3950424,11
3951052,11
3951684,10
3952304,14
3952936,12
3953556,15
3954184,17
3954812,15
3955432,15
3956060,15
3956684,14
3957308,16
3957940,15
3958560,15
3959188,15
3959820,11
3960440,10
3961068,11
3961696,11
3962324,13
3962956,14
3963576,15
3964204,15
3964832,11
3965456,11
3966084,10
3966704,11
3967336,11
3967960,11
3968584,11
3969216,11
3969832,11
3970460,15
3971092,14
3971712,15
3972344,16
3972968,15
3973596,16
3974228,14
3974848,13
3975476,10
3976100,10
3976724,11
3977356,10
3977976,12
3978604,13
3979232,14
3979856,15
3980484,16
3981104,15
3981736,11
3982364,10
3982984,11
3983616,10
3984240,11
3984868,11
3985500,10
3986120,12
3986748,12
3987376,17
3988000,17
3988628,14
3989248,16
3989876,14
3990504,13
3991128,13
3991760,11
3992380,10
3993008,11
3993640,11
3994256,10
3994888,12
3995512,14
3996140,14
3996772,16
3997392,20
3998024,17
3998648,10
3999272,15
3999904,19
4000524,18
4001152,19
4001776,15
4002396,12
4003028,11
4003652,14
4004284,14
4004912,14
4005528,15
4006160,17
4006784,16
4007412,16
4008040,15
4008664,11
4009292,12
4009916,11
4010540,12
4011172,10
4011792,13
4012420,13
4013048,15
4013672,14
4014300,13
4014924,11
4015552,11
4016184,12
4016800,13
4017432,13
4018056,12
4018684,12
4019316,11
4019936,12
4020564,15
4021188,17
4021812,17
4022440,15
4023060,13
4023688,13
4024312,17
4024936,17
4025564,14
4026188,15
4026820,14
4027448,10
4028072,11
4028700,15
4029328,14
4029956,14
4030588,14
4031208,15
4031836,11
4032464,11
4033088,11
4033716,10
4034336,11
4034964,13
4035596,12
4036216,11
4036844,15
4037468,14
4038100,15
4038728,16
4039352,19
4039984,21
4040608,21
4041232,13
4041860,10
4042480,11
4043108,10
4043732,11
4044360,12
4044988,12
4045608,14
4046236,14
4046864,14
4047488,15
4048116,11
4048740,10
4049372,11
4050000,12
4050624,10
4051252,11
4051876,11
4052500,11
4053132,10
4053752,17
4054384,14
4055008,17
4055632,15
4056260,11
4056880,12
4057508,11
4058140,10
4058760,15
4059388,17
4060012,17
4060644,12
4061276,12
4061896,15
4062528,14
4063152,15
4063776,16
4064408,15
4065024,11
4065652,11
4066276,11
4066904,11
4067532,11
4068152,11
4068784,12
4069412,14
4070032,13
4070664,14
4071288,16
4071916,15
4072548,14
4073168,13
4073800,11
4074424,11
4075048,15
4075676,14
4076296,22
4076928,21
4077552,20
4078176,15
4078804,15
4079432,15
4080060,15
4080692,14
4081312,12
4081940,12
4082568,10
4083196,11
4083828,10
4084448,11
4085080,12
4085704,11
4086328,11
4086960,17
4087576,17
4088208,17
4088836,16
4089456,17
4090088,13
4090712,13
4091344,12
4091976,10
4092596,11
4093228,10
4093852,11
4094476,11
4095108,14
4095728,14
4096364,14
4096984,15
4097604,14
4098232,11
4098848,13
4099476,13
4100104,10
4100720,11
4101348,13
4101972,13
4102600,12
4103228,10
4103844,14
4104476,14
4105096,16
4105724,19
4106356,17
4106976,17
4107604,15
4108224,13
4108848,10
4109476,12
4110096,11
4110724,11
4111348,15
4111968,18
4112600,17
4113224,17
4113852,15
4114480,12
4115104,11
4115732,12
4116356,11
4116988,11
4117616,11
4118232,12
4118860,11
4119484,11
4120108,15
4120736,17
4121352,18
4121984,17
4122604,18
4123228,14
4123856,12
4124480,13
4125108,10
4125736,10
4126360,11
4126988,10
4127612,10
4128240,11
4128872,13
4129488,15
4130116,16
4130740,15
4131360,11
4131992,10
4132608,11
4133236,11
4133860,11
4134484,14
4135112,13
4135732,11
4136360,13
4136988,15
4137608,15
4138236,14
4138860,16
4139488,15
4140116,14
4140736,20
4141364,17
4141988,14
4142612,13
4143244,10
4143864,11
4144492,11
4145116,15
4145740,15
4146372,14
4146992,13
4147620,15
4148252,10
4148872,14
4149500,12
4150124,11
4150752,11
4151384,12
4152000,11
4152628,11
4153252,11
4153876,13
4154508,14
4155128,17
4155756,15
4156384,11
4157008,11
4157636,14
4158256,17
4158884,14
4159516,13
4160136,11
4160764,11
4161388,12
4162016,15
4162644,14
4163260,14
4163892,14
4164512,12
4165136,12
4165764,12
4166384,15
4167012,11
4167636,10
4168260,11
4168888,11
4169504,11
4170136,16
4170764,18
4171384,16
4172012,16
4172636,15
4173268,12
4173896,13
4174512,13
4175144,11
4175768,11
4176392,11
4177020,11
4177640,11
4178268,13
4178892,16
4179516,15
4180144,15
4180760,15
4181388,11
4182012,12
4182640,13
4183268,15
4183892,13
4184520,10
4185148,14
4185768,14
4186396,15
4187020,18
4187652,17
4188280,15
4188896,16
4189524,13
4190148,15
4190772,13
4191400,12
4192024,11
4192652,10
4193276,10
4193904,12
4194532,10
4195156,14
4195788,13
4196420,14
4197040,15
4197668,15
4198296,11
4198920,11
4199548,10
4200168,11
4200796,11
4201420,11
4202044,10
4202672,11
4203288,16
4203916,16
4204540,14
4205168,15
4205796,16
4206420,14
4207048,14
4207680,15
4208296,13
4208924,11
4209548,11
4210180,11
4210808,10
4211424,11
4212056,14
4212680,15
4213304,15
4213932,14
4214552,11
4215180,11
4215804,10
4216432,11
4217060,11
4217684,11
4218316,11
4218944,10
4219568,11
4220196,15
4220820,15
4221444,16
4222076,20
4222696,16
4223328,13
4223952,11
4224576,11
4225204,10
4225824,11
4226452,13
4227080,14
4227704,16
4228332,16
4228956,15
4229588,14
4230216,14
4230836,15
4231464,11
4232088,11
4232712,12
4233340,10
4233960,12
4234588,12
4235212,11
4235836,11
4236468,10
4237088,15
4237716,15
4238348,14
4238968,17
4239596,15
4240220,15
4240852,15
4241480,14
4242096,10
4242728,10
4243348,11
4243972,11
4244604,10
4245224,15
4245852,15
4246476,14
4247100,13
4247732,10
4248352,11
4248980,11
4249612,10
4250228,12
4250860,11
4251484,10
4252112,11
4252744,11
4253360,15
4253992,17
4254616,16
4255240,15
4255868,14
4256488,11
4257116,12
4257740,12
4258364,13
4258996,12
4259616,11
4260244,11
4260876,10
4261496,12
4262124,15
4262748,15
4263376,15
4264004,14
4264620,12
4265252,11
4265876,11
4266500,9
4267080,11
4267704,11
4268332,11
4268956,11
4269580,11
4270212,16
4270832,18
4271460,19
4272084,18
4272708,17
4273336,18
4273960,16
4274588,13
4275220,11
4275840,13
4276468,10
4277092,11
4277720,10
4278352,14
4278972,15
4279600,14
4280224,15
4280848,14
4281480,10
4282096,10
4282728,11
4283352,11
4283976,11
4284604,11
4285224,14
4285852,12
4286484,11
4287104,14
4287736,14
4288360,15
4288988,18
4289616,22
4290240,20
4290868,17
4291492,15
4292116,11
4292748,10
4293368,14
4293996,11
4294624,13
4295244,15
4295876,14
4296496,14
4297124,15
4297756,10
4298376,16
4299008,19
4299632,11
4300260,15
4300892,10
4301512,11
4302140,11
4302764,11
4303388,17
4304016,16
4304632,16
4305260,18
4305884,15
4306508,12
4307140,10
4307760,13
4308388,13
4309020,14
4309640,13
4310268,11
4310896,11
4311524,13
4312156,16
4312776,15
4313404,15
4314032,15
4314656,13
4315284,11
4315904,11
4316536,10
4317160,11
4317784,11
4318412,11
4319032,12
4319664,12
4320296,14
4320912,15
4321540,15
4322164,17
4322796,15
4323424,15
4324044,13
4324672,10
4325296,11
4325920,11
4326548,10
4327168,13
4327796,15
4328420,16
4329044,14
4329672,14
4330296,15
4330924,12
4331556,10
4332176,13
4332804,11
4333428,11
4334060,12
4334688,14
4335312,12
4335944,12
4336568,15
4337192,14
4337824,14
4338440,14
4339068,16
4339696,15
4340320,16
4340948,16
4341572,13
4342204,13
4342836,16
4343456,13
4344084,12
4344708,12
4345340,14
4345968,14
4346592,15
4347220,15
4347844,11
4348468,10
4349100,11
4349720,11
4350348,11
4350980,12
4351600,15
4352232,13
4352852,11
4353484,15
4354112,15
4354728,16
4355360,19
4355984,17
4356612,16
4357244,14
4357864,15
4358492,13
4359116,10
4359740,11
4360372,16
4360992,16
4361620,14
4362252,14
4362872,15
4363500,14
4364124,13
4364756,15
4365384,18
4366008,13
4366636,11
4367260,13
4367884,13
4368516,10
4369136,13
4369764,18
4370388,21
4371012,21
4371644,18
4372264,16
4372892,11
4373524,10
4374144,11
4374776,11
4375400,13
4376028,15
4376660,12
4377280,11
4377912,11
4378536,15
4379160,15
4379788,14
4380408,14
4381036,11
4381664,11
4382288,11
4382920,11
4383536,13
4384168,11
4384796,10
4385416,11
4386044,11
4386668,15
4387300,15
4387928,14
4388552,15
4389180,12
4389804,16
4390432,18
4391060,19
4391680,15
4392308,15
4392936,12
4393560,11
4394192,10
4394808,13
4395440,14
4396072,14
4396688,15
4397320,15
4397944,11
4398576,11
4399204,11
4399824,11
4400456,11
4401080,11
4401704,13
4402336,11
4402952,11
4403584,15
4404208,18
4404828,17
4405460,15
4406080,11
4406712,13
4407340,11
4407960,13
4408592,11
4409216,11
4409844,11
4410472,12
4411096,12
4411728,16
4412352,15
4412976,15
4413604,14
4414224,11
4414856,12
4415480,11
4416104,11
4416732,10
4417356,11
4417988,13
4418616,11
4419236,11
4419864,17
4420488,18
4421116,18
4421748,16
4422368,17
4423000,12
4423624,12
4424248,11
4424876,10
4425496,11
4426124,13
4426748,12
4427376,14
4428004,15
4428628,14
4429260,15
4429888,14
4430512,15
4431140,11
4431764,11
4432392,10
4433020,11
4433640,15
4434268,16
4434892,15
4435516,12
4436148,10
4436768,17
4437396,18
4438028,22
4438648,19
4439276,15
4439904,15
4440532,15
4441164,14
4441784,14
4442412,11
4443036,10
4443660,11
4444292,10
4444912,15
4445540,14
4446164,14
4446788,15
4447420,12
4448040,11
4448668,11
4449300,10
4449920,11
4450548,11
4451172,11
4451804,12
4452436,12
4453056,14
4453688,17
4454312,18
4454936,15
4455568,17
4456184,14
4456816,13
4457440,11
4458064,11
4458696,11
4459312,12
4459944,11
4460572,10
4461192,12
4461824,15
4462448,17
4463076,15
4463708,14
4464328,12
4464960,11
4465580,11
4466208,12
4466836,10
4467456,11
4468084,11
4468708,11
4469336,12
4469964,17
4470584,20
4471212,19
4471844,21
4472464,15
4473096,13
4473720,13
4474352,12
4474980,11
4475600,11
4476232,9
4476804,11
4477436,13
4478068,14
4478688,14
4479320,14
4479948,14
4480572,15
4481204,10
4481824,11
4482452,11
4483084,10
4483704,11
4484332,11
4484956,11
4485588,11
4486216,11
4486840,15
4487468,15
4488092,15
4488716,15
4489348,12
4489968,12
4490596,11
4491220,12
4491844,12
4492476,12
4493096,11
4493724,10
4494356,10
4494976,15
4495608,15
4496232,15
4496860,15
4497492,11
4498112,12
4498740,12
4499368,11
4499992,11
4500620,11
4501240,12
4501868,12
4502496,13
4503120,15
4503748,14
4504368,15
4505000,17
4505632,14
4506248,16
4506876,16
4507500,12
4508128,11
4508760,10
4509376,11
4510008,11
4510632,11
4511256,15
4511884,16
4512504,14
4513132,16
4513756,15
4514380,11
4515012,10
4515632,12
4516260,12
4516892,12
4517512,12
4518140,10
4518764,11
4519396,13
4520024,16
4520648,18
4521276,15
4521900,15
4522524,13
4523156,14
4523776,13
4524404,11
4525028,11
4525652,11
4526284,10
4526904,11
4527532,11
4528164,14
4528784,15
4529412,15
4530036,15
4530668,13
4531300,11
4531920,12
4532548,12
4533172,12
4533796,11
4534428,10
4535048,12
4535676,11
4536304,15
4536928,15
4537556,14
4538184,15
4538812,17
4539444,14
4540064,15
4540696,16
4541320,14
4541952,11
4542580,10
4543200,11
4543832,11
4544456,13
4545080,14
4545708,14
4546328,14
4546960,15
4547584,10
4548208,12
4548836,11
4549460,11
4550092,12
4550720,11
4551344,11
4551976,11
4552600,13
4553224,15
4553856,15
4554472,15
4555104,15
4555728,14
4556352,13
4556984,14
4557600,18
4558228,13
4558860,10
4559480,11
4560108,11
4560732,12
4561364,14
4561996,14
4562616,15
4563244,15
4563868,14
4564492,11
4565124,12
4565744,12
4566376,11
4567000,11
4567624,13
4568256,11
4568872,12
4569504,13
4570132,16
4570752,16
4571384,15
4572008,15
4572636,15
4573268,16
4573888,14
4574520,13
4575144,16
4575768,13
4576400,10
4577016,10
4577648,12
4578272,14
4578896,15
4579524,14
4580144,15
4580776,12
4581404,10
4582024,11
4582656,10
4583280,11
4583908,11
4584540,11
4585160,12
4585792,13
4586416,13
4587040,15
4587672,15
4588288,15
4588916,13
4589540,11
4590164,12
4590796,11
4591416,10
4592044,11
4592676,11
4593296,14
4593924,13
4594548,14
4595180,15
4595812,16
4596432,20
4597064,17
4597688,12
4598312,11
4598944,10
4599560,11
4600192,11
4600816,12
4601440,12
4602072,11
4602696,12
4603324,15
4603956,14
4604576,15
4605208,14
4605832,12
4606464,11
4607092,13
4607712,13
4608344,14
4608968,15
4609588,11
4610220,11
4610840,13
4611468,14
4612092,14
4612720,15
4613348,15
4613972,11
4614604,10
4615232,11
4615848,10
4616480,11
4617104,11
4617732,11
4618364,12
4618984,11
4619612,16
4620236,19
4620860,19
4621488,18
4622112,19
4622740,13
4623372,11
4623992,12
4624624,11
4625248,13
4625876,12
4626508,10
4627128,11
4627760,13
4628384,14
4629008,15
4629636,14
4630256,15
4630884,11
4631508,11
4632132,11
4632764,10
4633384,15
4634016,15
4634644,12
4635264,13
4635892,11
4636516,14
4637148,14
4637780,15
4638400,20
4639028,22
4639656,19
4640280,16
4640908,11
4641528,11
4642156,11
4642780,11
4643404,10
4644036,11
4644656,15
4645284,14
4645916,14
4646536,15
4647164,12
4647788,11
4648420,11
4649048,10
4649672,12
4650300,12
4650924,13
4651548,12
4652176,11
4652800,15
4653428,15
4654052,17
4654676,19
4655308,16
4655928,14
4656560,13
4657188,11
4657808,11
4658436,11
4659064,11
4659696,11
4660324,11
4660944,13
4661572,15
4662200,14
4662824,15
4663452,14
4664072,11
4664700,11
4665328,9
4665900,11
4666536,11
4667152,11
4667784,13
4668408,11
4669032,11
4669664,16
4670288,19
4670916,17
4671548,14
4672168,13
4672796,12
4673420,10
4674052,10
4674680,11
4675296,10
4675928,11
4676552,11
4677176,11
4677804,14
4678424,15
4679052,16
4679676,16
4680304,15
4680932,13
4681556,11
4682188,11
4682820,10
4683440,11
4684068,11
4684696,14
4685320,16
4685948,13
4686568,15
4687196,15
4687824,16
4688448,18
4689076,19
4689696,24
4690324,19
4690956,14
4691576,12
4692204,13
4692832,12
4693460,12
4694092,12
4694712,14
4695344,15
4695968,17
4696592,19
4697224,14
4697840,13
4698472,13
4699096,11
4699720,12
4700352,15
4700968,13
4701596,14
4702228,13
4702848,16
4703480,15
4704104,15
4704732,14
4705364,14
4705984,16
4706616,17
4707240,15
4707864,11
4708496,10
4709112,13
4709744,15
4710372,15
4711000,15
4711628,14
4712248,15
4712876,15
4713508,14
4714128,12
4714756,12
4715384,11
4716012,11
4716644,10
4717264,11
4717896,11
4718520,12
4719144,11
4719776,15
4720396,16
4721024,15
4721648,15
4722272,11
4722904,12
4723528,11
4724156,12
4724788,10
4725408,14
4726040,15
4726664,13
4727292,11
4727924,14
4728544,15
4729176,14
4729800,15
4730424,13
4731056,10
4731672,11
4732304,11
4732932,10
4733552,13
4734184,14
4734808,14
4735440,11
4736072,15
4736688,15
4737316,14
4737940,16
4738568,19
4739196,15
4739816,13
4740448,12
4741072,11
4741696,11
4742324,11
4742944,13
4743576,17
4744204,13
4744824,15
4745456,15
4746080,14
4746708,15
4747340,10
4747960,11
4748592,11
4749216,11
4749840,12
4750472,12
4751088,11
4751720,11
4752344,12
4752968,15
4753596,14
4754216,17
4754848,17
4755476,12
4756096,13
4756728,13
4757352,15
4757980,13
4758612,12
4759232,13
4759864,10
4760488,11
4761112,14
4761744,15
4762360,15
4762988,14
4763612,14
4764240,11
4764868,10
4765488,11
4766116,11
4766748,10
4767368,11
4767996,11
4768624,13
4769252,13
4769884,14
4770504,15
4771136,15
4771760,16
4772384,14
4773016,15
4773632,18
4774264,17
4774888,14
4775512,14
4776144,11
4776760,10
4777392,11
4778024,13
4778644,15
4779276,15
4779900,15
4780532,13
4781164,10
4781784,11
4782416,13
4783040,11
4783664,12
4784296,10
4784916,11
4785544,11
4786172,15
4786796,15
4787428,16
4788052,17
4788684,17
4789316,16
4789936,13
4790568,12
4791192,13
4791816,11
4792448,10
4793072,11
4793704,11
4794328,16
4794952,15
4795584,14
4796200,14
4796832,14
4797464,11
4798084,11
4798716,11
4799340,10
4799972,11
4800604,11
4801224,11
4801852,11
4802476,11
4803100,14
4803732,14
4804352,15
4804980,14
4805604,13
4806228,13
4806860,11
4807480,12
4808108,11
4808740,14
4809360,15
4809988,13
4810616,11
4811244,14
4811876,16
4812496,16
4813128,16
4813748,15
4814372,13
4815004,10
4815624,11
4816252,11
4816876,11
4817500,11
4818132,12
4818756,11
4819384,15
4820016,18
4820632,16
4821260,17
4821888,17
4822516,12
4823148,12
4823768,14
4824396,13
4825024,13
4825648,15
4826276,12
4826896,13
4827524,13
4828148,14
4828776,15
4829404,17
4830032,18
4830664,13
4831292,10
4831912,10
4832544,12
4833168,12
4833800,11
4834428,10
4835048,11
4835676,11
4836304,15
4836928,15
4837556,15
4838176,17
4838808,17
4839436,16
4840056,16
4840684,13
4841308,11
4841940,11
4842568,10
4843192,10
4843824,13
4844448,14
4845072,15
4845700,15
4846320,15
4846952,13
4847576,11
4848200,10
4848828,10
4849448,12
4850076,13
4850708,12
4851328,12
4851956,11
4852584,15
4853212,15
4853844,16
4854464,17
4855092,16
4855720,13
4856344,15
4856972,16
4857592,15
4858224,11
4858848,11
4859472,11
4860104,11
4860720,12
4861352,14
4861984,15
4862604,14
4863236,16
4863860,13
4864492,10
4865124,10
4865744,11
4866372,11
4866996,12
4867620,11
4868252,10
4868872,12
4869500,15
4870128,15
4870752,15
4871380,16
4872004,19
4872636,18
4873268,21
4873888,17
4874520,16
4875144,15
4875772,13
4876404,11
4877024,11
4877652,15
4878276,15
4878904,15
4879532,15
4880152,15
4880780,12
4881404,10
4882032,11
4882660,11
4883284,11
4883916,12
4884548,10
4885168,11
4885796,15
4886420,16
4887048,15
4887676,14
4888296,16
4888928,16
4889552,17
4890176,17
4890808,14
4891424,11
4892056,11
4892684,10
4893304,11
4893936,11
4894560,14
4895192,14
4895820,14
4896440,15
4897072,12
4897696,12
4898320,12
4898952,11
4899568,11
4900200,11
4900824,11
4901448,11
4902076,11
4902696,16
4903328,17
4903960,16
4904580,15
4905208,14
4905836,14
4906464,11
4907096,10
4907716,10
4908348,10
4908972,11
4909600,11
4910228,12
4910848,14
4911480,15
4912104,15
4912732,14
4913360,14
4913984,10
4914616,10
4915248,11
4915872,11
4916500,14
4917124,15
4917752,15
4918380,11
4919000,15
4919628,17
4920252,19
4920876,23
4921508,19
4922128,17
4922756,18
4923380,19
4924004,17
4924636,12
4925260,11
4925888,10
4926520,10
4927136,11
4927764,13
4928392,15
4929020,14
4929648,14
4930264,11
4930896,11
4931520,11
4932144,11
4932772,10
4933392,11
4934020,13
4934648,14
4935268,11
4935900,15
4936524,15
4937156,14
4937784,15
4938404,15
4939032,17
4939656,15
4940284,15
4940916,12
4941536,13
4942164,10
4942788,11
4943412,10
4944044,14
4944664,15
4945292,16
4945916,15
4946544,15
4947172,11
4947800,11
4948428,11
4949060,10
4949680,11
4950312,11
4950936,12
4951560,11
4952192,11
4952808,15
4953436,15
4954064,15
4954688,17
4955320,14
4955936,15
4956568,14
4957196,12
4957816,11
4958448,12
4959072,12
4959700,11
4960332,10
4960952,13
4961580,15
4962204,14
4962828,14
4963460,11
4964080,11
4964708,11
4965332,11
4965960,11
4966588,10
4967208,12
4967836,11
4968464,14
4969088,17
4969716,15
4970340,14
4970972,15
4971600,17
4972224,21
4972852,23
4973476,23
4974100,20
4974732,14
4975352,12
4975984,11
4976608,13
4977232,13
4977860,15
4978480,17
4979108,14
4979740,21
4980360,24
4980988,17
4981612,11
4982244,11
4982876,10
4983496,11
4984128,11
4984752,13
4985376,13
4986008,14
4986624,14
4987256,15
4987880,16
4988504,12
4989136,11
4989752,11
4990384,12
4991016,10
4991636,11
4992268,11
4992892,13
4993520,12
4994148,14
4994768,15
4995396,15
4996024,16
4996648,14
4997276,10
4997896,11
4998524,11
4999148,11
4999772,11
5000404,11
5001028,11
5001656,10
5002288,14
5002904,15
5003536,16
5004160,15
5004788,15
5005420,13
5006040,13
5006672,13
5007296,13
5007920,13
5008552,11
5009168,11
5009796,11
5010424,11
5011048,15
5011676,15
5012304,15
5012936,14
5013564,11
5014184,11
5014816,11
5015440,11
5016072,11
5016700,11
5017320,13
5017952,12
5018576,12
5019200,15
5019828,16
5020448,19
5021076,18
5021708,16
5022328,18
5022960,19
5023584,17
5024216,11
5024844,10
5025464,12
5026092,11
5026716,11
5027344,15
5027972,14
5028592,15
5029224,16
5029848,15
5030472,11
5031100,13
5031720,17
5032352,17
5032980,14
5033600,11
5034228,11
5034856,11
5035488,15
5036120,16
5036736,17
5037368,17
5037996,15
5038620,14
5039252,18
5039872,20
5040504,17
5041128,13
5041752,13
5042384,11
5043000,10
5043632,12
5044260,13
5044880,15
5045508,14
5046136,16
5046764,13
5047396,10
5048016,11
5048644,11
5049268,11
5049896,12
5050524,11
5051144,11
5051776,11
5052400,15
5053024,15
5053656,15
5054280,18
5054912,17
5055544,12
5056164,12
5056792,13
5057416,12
5058048,12
5058676,10
5059296,11
5059924,11
5060552,14
5061176,13
5061808,14
5062424,14
5063056,15
5063688,11
5064304,13
5064936,11
5065560,12
5066192,13
5066824,11
5067444,12
5068076,13
5068700,11
5069328,15
5069956,14
5070576,16
5071208,17
5071832,15
5072456,15
5073088,16
5073708,16
5074340,12
5074972,10
5075592,10
5076224,11
5076848,11
5077480,15
5078112,14
5078728,14
5079360,14
5079988,11
5080612,11
5081244,10
5081864,10
5082492,11
5083120,11
5083744,12
5084376,12
5085000,12
5085628,15
5086260,15
5086880,15
5087512,16
5088136,15
5088764,11
5089396,10
5090016,12
5090648,12
5091272,13
5091896,13
5092528,12
5093144,14
5093776,15
5094408,15
5095024,15
5095656,15
5096280,16
5096912,13
5097544,11
5098164,10
5098792,11
5099420,10
5100044,11
5100676,10
5101296,11
5101928,13
5102552,16
5103180,15
5103812,14
5104432,15
5105064,12
5105696,12
5106320,15
5106952,13
5107576,11
5108208,11
5108840,12
5109460,11
5110092,11
5110716,14
5111344,15
5111976,15
5112596,16
5113228,15
5113860,12
5114480,12
5115112,10
5115740,11
5116372,13
5117004,12
5117628,14
5118260,15
5118884,18
5119512,16
5120144,14
5120764,16
5121396,15
5122016,15
5122636,12
5123268,12
5123888,14
5124516,11
5125144,11
5125760,11
5126388,10
5127012,11
5127640,14
5128272,14
5128888,15
5129516,14
5130140,11
5130764,11
5131392,10
5132016,13
5132644,13
5133268,11
5133892,11
5134520,10
5135144,12
5135772,14
5136404,14
5137024,16
5137652,17
5138276,14
5138904,15
5139536,16
5140152,16
5140784,16
5141408,14
5142032,14
5142660,11
5143280,11
5143908,14
5144532,15
5145156,15
5145788,14
5146408,14
5147036,13
5147664,14
5148288,15
5148916,11
5149540,11
5150172,11
5150800,11
5151424,13
5152052,16
5152676,16
5153300,15
5153928,15
5154552,15
5155180,11
5155808,13
5156432,13
5157060,11
5157680,11
5158308,10
5158940,10
5159560,12
5160192,12
5160816,15
5161444,14
5162072,14
5162696,16
5163324,11
5163948,11
5164572,11
5165204,10
5165824,11
5166452,11
5167076,12
5167700,12
5168332,10
5168952,14
5169580,16
5170212,16
5170832,15
5171464,15
5172084,17
5172716,17
5173344,13
5173968,13
5174596,13
5175220,13
5175844,11
5176476,10
5177096,14
5177724,15
5178348,15
5178972,15
5179604,14
5180228,10
5180860,10
5181488,11
5182108,10
5182736,11
5183360,11
5183988,12
5184620,12
5185240,11
5185868,15
5186492,14
5187116,15
5187748,14
5188368,11
5188996,13
5189620,15
5190244,13
5190876,14
5191500,14
5192132,13
5192764,11
5193384,15
5194016,16
5194640,16
5195268,17
5195900,14
5196520,11
5197152,11
5197776,12
5198400,12
5199028,11
5199648,11
5200280,11
5200908,11
5201528,12
5202156,14
5202780,15
5203412,15
5204040,14
5204664,15
5205292,12
5205916,11
5206540,11
5207172,12
5207792,14
5208420,15
5209044,13
5209668,11
5210300,12
5210920,15
5211548,14
5212180,14
5212800,15
5213428,11
5214052,12
5214684,11
5215316,10
5215936,11
5216568,11
5217192,11
5217816,11
5218444,11
5219064,14
5219696,15
5220320,17
5220944,18
5221572,16
5222192,14
5222824,18
5223456,15
5224072,12
5224700,11
5225324,11
5225956,10
5226584,10
5227208,14
5227836,15
5228464,14
5229088,14
5229716,12
5230336,11
5230968,11
5231592,11
5232216,11
5232844,10
5233464,11
5234092,11
5234724,10
5235344,15
5235972,17
5236600,16
5237228,17
5237860,18
5238480,17
5239108,13
5239736,14
5240360,12
5240988,10
5241608,11
5242236,11
5242864,11
5243488,11
5244116,14
5244740,14
5245372,14
5246000,15
5246616,11
5247248,11
5247872,11
5248500,11
5249128,10
5249748,11
5250380,12
5251004,13
5251624,11
5252252,13
5252872,15
5253500,16
5254124,15
5254744,14
5255376,16
5255992,15
5256620,13
5257252,12
5257872,12
5258500,14
5259124,13
5259752,12
5260384,15
5261000,15
5261628,15
5262252,14
5262876,15
5263504,10
5264128,11
5264756,11
5265380,12
5266004,12
5266632,12
5267248,11
5267876,11
5268504,12
5269128,15
5269756,15
5270380,16
5271012,16
5271644,14
5272264,15
5272892,14
5273516,12
5274144,11
5274772,10
5275392,11
5276020,10
5276644,11
5277268,15
5277896,14
5278520,14
5279148,15
5279780,10
5280400,12
5281028,10
5281652,10
5282280,11
5282908,11
5283528,11
5284156,17
5284780,17
5285404,14
5286032,18
5286648,20
5287276,19
5287900,16
5288524,13
5289152,16
5289768,15
5290396,13
5291028,12
5291648,12
5292276,10
5292900,11
5293528,12
5294160,13
5294776,15
5295404,15
5296028,14
5296652,11
5297280,11
5297896,12
5298528,11
5299152,11
5299776,12
5300404,12
5301024,15
5301652,14
5302284,14
5302904,15
5303532,16
5304160,17
5304788,14
5305420,13
5306040,15
5306668,13
5307292,11
5307916,11
5308548,10
5309168,11
5309796,11
5310420,16
5311048,15
5311676,14
5312296,14
5312928,15
5313556,12
5314176,16
5314804,13
5315428,13
5316060,13
5316688,11
5317312,14
5317940,15
5318568,15
5319188,16
5319820,20
5320440,23
5321068,24
5321692,19
5322316,11
5322948,10
5323568,11
5324200,13
5324828,12
5325444,13
5326072,13
5326696,14
5327328,14
5327956,15
5328576,16
5329204,15
5329828,13
5330452,11
5331080,11
5331700,10
5332328,11
5332952,10
5333576,11
5334204,10
5334824,11
5335452,15
5336084,14
5336704,14
5337332,14
5337956,12
5338584,11
5339216,10
5339832,11
5340464,10
5341084,11
5341708,13
5342340,14
5342960,16
5343588,18
5344216,15
5344836,15
5345468,14
5346088,15
5346716,11
5347344,10
5347968,10
5348596,10
5349220,11
5349852,11
5350480,12
5351104,15
5351732,11
5352356,14
5352980,15
5353608,16
5354232,17
5354860,15
5355484,16
5356112,18
5356740,19
5357360,20
5357988,14
5358620,10
5359240,11
5359868,12
5360496,15
5361124,15
5361756,14
5362376,15
5363004,12
5363632,11
5364256,12
5364884,12
5365504,11
5366132,11
5366756,11
5367380,11
5368012,11
5368632,17
5369260,18
5369892,18
5370512,17
5371140,15
5371768,13
5372396,14
5373028,14
5373648,11
5374276,11
5374904,13
5375528,11
5376160,10
5376776,13
5377404,15
5378028,14
5378648,14
5379276,14
5379896,12
5380524,11
5381152,10
5381776,12
5382404,11
5383028,12
5383656,12
5384288,13
5384904,10
5385536,15
5386160,16
5386784,16
5387412,16
5388032,15
5388660,16
5389284,15
5389908,14
5390540,12
5391160,13
5391792,11
5392420,10
5393040,12
5393668,14
5394292,15
5394924,15
5395552,14
5396176,13
5396804,11
5397428,11
5398052,11
5398684,10
5399304,11
5399932,11
5400560,11
5401184,11
5401816,14
5402436,14
5403068,15
5403696,14
5404320,17
5404948,15
5405572,13
5406204,11
5406836,10
5407456,13
5408084,15
5408708,13
5409332,12
5409960,12
5410576,14
5411204,14
5411828,15
5412452,14
5413084,11
5413708,11
5414336,11
5414968,11
5415584,12
5416212,11
5416836,11
5417468,11
5418096,11
5418720,15
5419348,14
5419976,17
5420600,17
5421228,14
5421848,14
5422476,11
5423100,11
5423728,14
5424360,15
5424984,12
5425612,11
5426244,10
5426864,15
5427496,14
5428120,14
5428740,15
5429372,14
5429992,11
5430620,10
5431244,11
5431868,11
5432500,10
5433120,12
5433748,11
5434380,11
5435000,11
5435628,15
5436252,14
5436884,15
5437516,15
5438136,13
5438768,14
5439392,14
5440016,12
5440644,10
5441264,13
5441892,11
5442516,10
5443140,12
5443768,14
5444388,14
5445016,15
5445644,14
5446264,11
5446892,10
5447516,11
5448148,10
5448776,11
5449392,11
5450024,12
5450648,11
5451272,11
5451900,14
5452520,15
5453148,15
5453772,16
5454396,20
5455028,17
5455648,18
5456276,17
5456908,12
5457528,11
5458156,10
5458780,10
5459412,11
5460040,13
5460656,14
5461288,15
5461912,14
5462536,15
5463164,10
5463784,12
5464412,12
5465036,11
5465664,12
5466292,10
5466912,9
5467488,11
5468120,11
5468744,14
5469372,14
5469992,15
5470624,14
5471252,10
5471872,11
5472504,16
5473128,19
5473756,19
5474388,16
5475008,13
5475640,11
5476264,11
5476888,15
5477516,14
5478136,15
5478768,15
5479392,13
5480016,12
5480644,10
5481264,11
5481892,10
5482524,10
5483144,11
5483776,11
5484400,11
5485028,14
5485660,15
5486280,16
5486908,15
5487536,17
5488160,14
5488788,15
5489408,17
5490036,14
5490660,13
5491284,11
5491916,10
5492536,12
5493164,11
5493796,14
5494416,16
5495044,15
5495668,15
5496300,11
5496932,10
5497552,12
5498184,11
5498808,12
5499432,11
5500064,11
5500680,11
5501312,12
5501936,17
5502560,16
5503192,15
5503816,15
5504448,12
5505076,10
5505696,12
5506324,12
5506948,12
5507580,15
5508212,14
5508832,12
5509460,11
5510084,14
5510708,14
5511340,14
5511960,15
5512592,15
5513220,11
5513840,11
5514472,11
5515096,11
5515724,11
5516356,10
5516976,13
5517604,13
5518228,13
5518856,16
5519488,19
5520104,18
5520732,18
5521356,15
5521984,16
5522612,13
5523232,15
5523860,13
5524492,10
5525112,11
5525744,11
5526368,11
5527000,15
5527632,14
5528252,15
5528880,15
5529508,11
5530132,10
5530764,10
5531384,11
5532012,11
5532636,13
5533260,14
5533892,12
5534512,11
5535144,16
5535772,17
5536392,15
5537020,15
5537644,15
5538276,12
5538904,11
5539528,11
5540156,12
5540784,15
5541408,15
5542036,14
5542656,15
5543284,15
5543908,14
5544536,15
5545164,14
5545784,15
5546412,11
5547044,10
5547664,11
5548296,11
5548920,12
5549548,11
5550180,10
5550800,12
5551428,13
5552056,15
5552680,15
5553308,14
5553928,15
5554556,11
5555184,12
5555808,12
5556440,14
5557064,16
5557696,14
5558324,12
5558944,15
5559576,19
5560200,15
5560832,14
5561460,15
5562080,15
5562708,13
5563336,13
5563960,11
5564592,11
5565212,12
5565840,11
5566472,11
5567092,11
5567724,12
5568348,16
5568980,15
5569612,15
5570232,16
5570864,16
5571488,12
5572112,13
5572740,11
5573360,13
5573988,12
5574616,12
5575240,11
5575868,10
5576488,12
5577116,14
5577748,15
5578368,16
5578996,16
5579624,15
5580252,13
5580884,11
5581504,11
5582132,11
5582756,12
5583380,12
5584012,11
5584632,13
5585260,17
5585888,17
5586512,16
5587140,15
5587760,13
5588392,19
5589024,18
5589640,19
5590272,20
5590896,17
5591528,13
5592156,11
5592776,11
5593408,15
5594032,15
5594656,17
5595288,15
5595904,13
5596536,11
5597160,11
5597784,12
5598416,11
5599032,12
5599664,12
5600296,10
5600920,12
5601548,15
5602172,19
5602804,16
5603432,14
5604052,14
5604680,11
5605304,14
5605928,11
5606560,10
5607176,11
5607804,13
5608428,14
5609052,12
5609684,13
5610308,17
5610936,16
5611568,16
5612184,15
5612816,11
5613440,11
5614068,11
5614700,12
5615320,12
5615952,11
5616576,12
5617200,11
5617828,11
5618448,15
5619076,14
5619704,15
5620328,18
5620956,15
5621584,15
5622216,16
5622844,16
5623464,15
5624096,13
5624720,12
5625348,10
5625980,10
5626600,14
5627232,15
5627856,15
5628480,16
5629108,14
5629728,12
5630360,17
5630992,17
5631612,13
5632244,11
5632864,11
5633496,11
5634124,10
5634744,14
5635372,17
5635996,16
5636620,15
5637248,14
5637872,13
5638500,11
5639124,11
5639748,11
5640376,10
5641000,11
5641628,11
5642260,10
5642880,13
5643508,17
5644132,16
5644764,16
5645392,14
5646016,12
5646644,11
5647268,11
5647892,11
5648524,11
5649144,15
5649772,12
5650396,12
5651024,13
5651652,18
5652272,21
5652904,19
5653532,16
5654152,17
5654780,15
5655404,14
5656036,11
5656664,10
5657288,11
5657916,10
5658540,11
5659164,10
5659796,12
5660416,15
5661044,15
5661668,15
5662292,15
5662924,11
5663544,11
5664176,12
5664804,10
5665424,11
5666052,11
5666676,12
5667308,11
5667936,12
5668556,17
5669184,17
5669812,17
5670436,15
5671064,11
5671684,15
5672312,18
5672936,15
5673560,12
5674192,10
5674808,9
5675388,11
5676016,12
5676640,14
5677272,14
5677896,15
5678528,15
5679156,12
5679776,11
5680408,11
5681032,11
5681660,12
5682292,10
5682912,12
5683544,13
5684164,13
5684788,15
5685420,14
5686040,15
5686668,15
5687292,16
5687920,17
5688552,13
5689176,13
5689804,12
5690436,10
5691056,11
5691688,11
5692312,10
5692936,12
5693568,13
5694184,15
5694812,14
5695440,15
5696064,11
5696692,11
5697312,11
5697940,11
5698572,14
5699192,17
5699824,11
5700448,11
5701076,12
5701708,15
5702328,15
5702960,17
5703584,19
5704208,18
5704836,14
5705456,15
5706088,13
5706712,14
5707336,15
5707968,11
5708584,11
5709216,12
5709848,16
5710468,16
5711096,15
5711724,15
5712352,16
5712984,12
5713608,11
5714240,11
5714864,11
5715488,11
5716116,13
5716736,13
5717368,16
5717992,13
5718616,15
5719248,15
5719864,16
5720496,19
5721128,17
5721744,14
5722376,14
5723000,13
5723632,12
5724264,11
5724880,11
5725508,11
5726136,12
5726760,13
5727392,14
5728012,14
5728640,15
5729264,13
5729888,13
5730520,14
5731144,11
5731776,10
5732408,12
5733028,14
5733660,14
5734284,11
5734916,16
5735548,16
5736168,18
5736796,16
5737420,13
5738044,11
5738676,12
5739296,15
5739924,15
5740556,16
5741176,15
5741804,11
5742428,11
5743060,13
5743692,14
5744312,15
5744944,14
5745568,15
5746192,11
5746820,10
5747440,11
5748068,11
5748692,11
5749316,11
5749948,10
5750568,14
5751196,13
5751828,14
5752448,16
5753076,16
5753704,15
5754332,11
5754964,10
5755584,11
5756216,12
5756840,11
5757464,11
5758092,11
5758712,11
5759344,13
5759968,14
5760596,16
5761224,16
5761840,15
5762472,12
5763100,10
5763720,12
5764348,11
5764972,11
5765600,10
5766232,11
5766848,11
5767476,12
5768100,14
5768724,15
5769352,14
5769976,16
5770604,15
5771228,15
5771852,16
5772484,14
5773104,11
5773732,11
5774364,10
5774984,11
5775612,10
5776236,12
5776868,14
5777496,14
5778116,15
5778744,14
5779368,11
5779992,14
5780620,14
5781240,13
5781868,11
5782492,11
5783116,11
5783748,10
5784368,11
5784996,15
5785628,14
5786248,18
5786876,18
5787500,15
5788128,15
5788760,13
5789380,13
5790008,12
5790632,10
5791256,11
5791888,13
5792504,12
5793132,15
5793756,15
5794380,16
5795012,15
5795632,15
5796264,11
5796892,10
5797512,11
5798144,11
5798768,10
5799396,11
5800028,10
5800648,12
5801276,13
5801900,15
5802524,15
5803156,14
5803776,14
5804404,13
5805032,15
5805656,15
5806284,12
5806904,15
5807532,16
5808164,11
5808784,11
5809412,10
5810040,13
5810668,15
5811300,14
5811920,15
5812548,14
5813172,13
5813800,11
5814428,10
5815048,11
5815676,11
5816304,13
5816928,11
5817556,11
5818184,15
5818812,16
5819444,14
5820064,15
5820692,14
5821320,17
5821948,22
5822580,22
5823200,16
5823832,11
5824456,12
5825080,11
5825708,10
5826328,15
5826956,14
5827584,14
5828208,17
5828836,15
5829460,11
5830092,11
5830724,10
5831344,11
5831976,15
5832600,15
5833224,13
5833856,13
5834472,11
5835104,16
5835728,15
5836352,19
5836984,19
5837600,15
5838228,11
5838860,10
5839480,14
5840108,15
5840732,14
5841364,12
5841992,11
5842616,15
5843244,15
5843868,14
5844492,14
5845124,14
5845744,11
5846376,12
5847000,12
5847624,11
5848256,12
5848872,14
5849504,11
5850132,10
5850752,11
5851384,15
5852008,14
5852636,16
5853268,16
5853888,15
5854520,15
5855144,13
5855768,11
5856400,10
5857016,10
5857648,11
5858272,12
5858896,13
5859524,11
5860144,14
5860776,16
5861404,15
5862024,15
5862656,12
5863280,12
5863908,13
5864540,12
5865160,15
5865788,11
5866416,11
5867040,12
5867668,11
5868288,13
5868916,15
5869544,15
5870168,17
5870796,16
5871416,15
5872048,16
5872676,13
5873296,11
5873928,11
5874552,12
5875184,13
5875816,16
5876436,18
5877068,17
5877692,16
5878316,15
5878948,12
5879568,12
5880200,13
5880824,11
5881448,13
5882080,13
5882704,12
5883336,11
5883968,11
5884584,14
5885216,15
5885840,17
5886472,17
5887104,16
5887724,12
5888356,10
5888976,10
5889600,13
5890232,15
5890848,16
5891480,15
5892108,11
5892728,11
5893360,14
5893984,15
5894612,15
5895244,14
5895864,14
5896496,16
5897120,14
5897744,11
5898376,12
5898992,14
5899620,17
5900244,14
5900868,12
5901500,14
5902120,16
5902748,17
5903380,18
5904000,17
5904628,16
5905252,13
5905884,12
5906516,10
5907136,15
5907768,15
5908392,12
5909016,11
5909644,14
5910264,15
5910896,15
5911520,16
5912144,15
5912776,10
5913392,11
5914024,11
5914652,11
5915272,11
5915904,12
5916528,11
5917156,11
5917788,12
5918408,15
5919040,15
5919664,15
5920288,16
5920916,14
5921536,15
5922164,13
5922788,11
5923412,11
5924044,11
5924664,10
5925292,11
5925924,10
5926544,14
5927172,15
5927800,14
5928428,15
5929060,10
5929680,10
5930308,11
5930932,11
5931556,11
5932188,10
5932808,12
5933436,11
5934064,12
5934688,14
5935320,15
5935944,17
5936576,17
5937208,15
5937824,13
5938456,13
5939080,16
5939712,15
5940340,16
5940960,16
5941588,10
5942212,11
5942836,13
5943468,14
5944088,15
5944716,15
5945340,14
5945968,13
5946596,11
5947220,11
5947852,12
5948484,10
5949104,11
5949736,11
5950360,12
5950984,11
5951616,14
5952232,14
5952864,16
5953488,17
5954112,15
5954740,13
5955360,13
5955988,15
5956620,12
5957240,11
5957868,11
5958496,10
5959124,11
5959756,12
5960376,15
5961004,15
5961628,15
5962252,11
5962884,10
5963504,11
5964136,12
5964760,13
5965384,12
5966012,11
5966632,12
5967264,13
5967892,16
5968512,15
5969144,15
5969768,16
5970396,15
5971028,11
5971648,11
5972280,13
5972904,12
5973528,11
5974160,10
5974776,10
5975408,11
5976032,13
5976656,13
5977288,15
5977904,14
5978536,15
5979168,10
5979784,10
5980416,12
5981040,11
5981672,11
5982304,11
5982920,11
5983552,12
5984176,11
5984800,16
5985428,15
5986048,16
5986676,16
5987304,14
5987928,14
5988556,13
5989176,14
5989808,13
5990436,10
5991056,11
5991684,10
5992308,11
5992940,14
5993572,15
5994192,16
5994824,15
5995448,14
5996072,11
5996704,11
5997320,12
5997952,12
5998576,12
5999200,11
5999832,11
6000456,11
6001088,14
6001716,16
6002336,17
6002968,16
6003592,17
6004220,14
6004852,14
6005472,15
6006104,12
6006728,12
6007352,13
6007984,10
6008600,10
6009232,11
6009864,14
6010480,14
6011112,15
6011736,15
6012368,13
6013000,10
6013616,11
6014248,11
6014872,12
6015496,10
6016128,11
6016752,11
6017380,12
6018008,16
6018632,15
6019260,14
6019880,15
6020508,15
6021140,12
6021760,14
6022388,13
6023016,11
6023648,9
6024224,11
6024852,10
6025480,10
6026108,14
6026736,15
6027368,15
6027984,14
6028616,14
6029240,11
6029864,11
6030496,11
6031112,10
6031744,11
6032372,11
6032996,11
6033628,11
6034252,11
6034884,15
6035512,15
6036136,16
6036768,17
6037392,15
6038024,15
6038656,12
6039276,10
6039904,10
6040532,10
6041156,10
6041788,10
6042408,11
6043036,13
6043668,14
6044288,15
6044916,17
6045544,15
6046172,13
6046804,10
6047424,11
6048056,11
6048680,11
6049304,11
6049932,10
6050552,12
6051184,17
6051808,17
6052436,19
6053064,18
6053688,17
6054320,17
6054952,18
6055572,19
6056204,19
6056828,16
6057460,12
6058088,10
6058712,11
6059344,13
6059968,13
6060596,15
6061228,14
6061848,14
6062480,12
6063108,11
6063728,11
6064360,11
6064984,13
6065612,13
6066244,11
6066864,13
6067496,13
6068120,14
6068744,16
6069376,15
6069992,16
6070624,13
6071248,17
6071872,18
6072504,17
6073120,15
6073752,15
6074384,13
6075000,16
6075632,13
6076260,14
6076892,14
6077520,15
6078144,15
6078776,13
6079400,11
6080024,10
6080656,10
6081272,11
6081904,12
6082528,14
6083152,13
6083784,11
6084400,15
6085028,17
6085660,18
6086280,16
6086912,17
6087536,20
6088168,18
6088796,14
6089416,11
6090048,13
6090672,15
6091296,11
6091928,10
6092544,11
6093176,13
6093800,14
6094424,15
6095056,15
6095676,10
6096308,11
6096936,10
6097560,12
6098192,11
6098816,15
6099448,15
6100076,12
6100696,11
6101328,15
6101952,15
6102576,15
6103208,15
6103824,13
6104456,11
6105080,13
6105704,11
6106332,11
6106960,11
6107588,13
6108220,16
6108840,15
6109468,16
6110096,15
6110728,14
6111356,14
6111976,14
6112612,12
6113236,15
6113864,15
6114492,14
6115112,11
6115744,13
6116376,14
6116996,15
6117628,16
6118252,16
6118884,17
6119516,20
6120136,21
6120768,17
6121392,15
6122016,15
6122648,15
6123268,11
6123900,11
6124524,11
6125148,11
6125780,11
6126404,14
6127036,14
6127668,14
6128288,14
6128920,10
6129548,11
6130176,10
6130808,10
6131432,11
6132064,11
6132692,11
6133316,11
6133948,10
6134568,14
6135200,15
6135832,15
6136452,14
6137084,12
6137708,13
6138340,12
6138972,12
6139592,12
6140224,11
6140852,13
6141476,13
6142108,12
6142732,14
6143364,15
6143988,14
6144616,15
6145244,15
6145868,12
6146496,11
6147128,11
6147744,11
6148372,11
6148996,12
6149628,11
6150256,10
6150876,12
6151504,16
6152128,16
6152752,17
6153380,15
6154000,13
6154628,13
6155252,14
6155876,13
6156508,14
6157132,13
6157760,11
6158392,11
6159012,12
6159640,14
6160268,14
6160896,15
6161524,14
6162144,14
6162772,12
6163396,12
6164020,12
6164652,11
6165272,13
6165900,12
6166528,10
6167152,12
6167784,15
6168408,15
6169036,15
6169668,16
6170288,19
6170916,17
6171540,19
6172168,21
6172796,18
6173416,14
6174048,10
6174672,11
6175296,11
6175928,13
6176544,14
6177176,15
6177808,15
6178424,15
6179052,11
6179680,12
6180308,11
6180940,10
6181560,12
6182192,13
6182816,12
6183440,12
6184072,11
6184688,15
6185320,16
6185944,16
6186568,17
6187196,12
6187816,12
6188448,13
6189080,12
6189696,11
6190328,11
6190952,11
6191584,11
6192216,13
6192832,15
6193464,15
6194088,15
6194712,15
6195344,11
6195960,11
6196592,12
6197216,13
6197840,13
6198468,15
6199088,14
6199720,12
6200348,11
6200968,19
6201596,23
6202224,21
6202856,19
6203488,17
6204104,16
6204736,17
6205360,14
6205984,11
6206616,10
6207232,10
6207864,10
6208488,11
6209112,11
6209744,13
6210364,15
6210992,14
6211624,14
6212244,11
6212876,10
6213500,11
6214132,12
6214760,11
6215384,11
6216016,11
6216640,12
6217264,11
6217896,15
6218516,15
6219144,17
6219772,16
6220400,15
6221032,13
6221656,11
6222288,11
6222916,10
6223536,12
6224168,17
6224792,19
6225416,15
6226048,15
6226664,15
6227292,15
6227916,15
6228544,14
6229172,10
6229792,12
6230424,11
6231052,12
6231672,12
6232304,12
6232928,10
6233560,11
6234192,14
6234808,15
6235440,17
6236064,15
6236688,16
6237320,16
6237936,16
6238568,17
6239192,14
6239816,11
6240448,12
6241072,11
6241704,11
6242332,11
6242952,14
6243584,15
6244208,14
6244836,15
6245468,11
6246088,11
6246720,11
6247340,10
6247964,11
6248596,10
6249216,11
6249844,11
6250468,11
6251092,14
6251724,14
6252344,16
6252976,15
6253604,12
6254224,14
6254856,13
6255480,14
6256108,16
6256740,14
6257360,10
6257988,11
6258616,11
6259240,15
6259868,14
6260488,15
6261116,15
6261744,17
6262368,12
