tempo_arduino_micro_s,valor_ADC
500,13
1004,13
1504,12
2000,10
2508,10
3000,10
3508,13
4000,16
4508,21
5000,22
5500,18
6000,13
6500,11
7004,12
7500,11
8000,11
8500,11
9000,12
9500,11
10000,11
10516,10
11036,10
11564,10
12084,14
12612,21
13132,15
13660,16
14180,20
14708,14
15228,12
15756,13
16276,12
16796,13
17316,14
17836,12
18356,13
18876,14
19396,14
19916,15
20436,13
20956,10
21476,10
21996,12
22516,12
23036,11
23564,15
24084,13
24612,12
25132,20
25660,22
26180,11
26708,16
27228,18
27756,17
28276,13
28804,11
29324,12
29852,11
30372,14
30900,16
31420,12
31948,12
32472,12
32996,14
33516,13
34044,14
34564,20
35092,20
35612,15
36140,13
36660,15
37188,12
37708,11
38236,12
38760,13
39284,16
39804,16
40332,14
40852,12
41372,12
41892,12
42412,13
42932,12
43452,11
43972,11
44492,10
45012,11
45532,10
46052,11
46572,11
47092,10
47612,11
48140,12
48660,12
49188,11
49708,15
50236,17
50756,14
51284,11
51804,10
52332,13
52852,18
53380,17
53900,15
54428,14
54948,10
55476,11
55996,10
56524,12
57044,11
57572,12
58096,12
58620,12
59140,11
59668,13
60188,12
60716,11
61240,11
61764,12
62284,15
62812,15
63332,16
63860,12
64384,10
64908,12
65428,12
65948,14
66468,15
66988,17
67508,16
68028,17
68548,16
69068,14
69588,14
70108,11
70628,11
71148,11
71668,14
72192,12
72716,10
73236,12
73764,13
74284,13
74812,12
75332,12
75860,12
76384,10
76908,10
77428,10
77956,11
78476,13
79004,15
79528,14
80052,12
80572,12
81100,11
81620,12
82148,12
82668,11
83196,12
83720,11
84244,10
84764,11
85292,12
85812,10
86340,12
86860,14
87388,11
87908,10
88436,12
88956,14
89484,12
90004,13
90524,18
91044,18
91564,17
92084,16
92604,15
93124,12
93644,11
94164,11
94684,13
95204,14
95724,12
96248,10
96764,11
97292,11
97812,12
98340,12
98860,12
99388,14
99908,15
100436,12
101000,10
101584,10
102156,11
102736,17
103304,15
103880,12
104456,12
105024,15
105600,20
106168,20
106744,17
107312,12
107896,13
108464,14
109040,14
109624,11
110192,13
110768,16
111336,18
111920,25
112492,24
113072,17
113640,14
114216,12
114792,30
115364,37
115944,31
116512,24
117096,17
117664,19
118244,18
118824,18
119392,19
119976,17
120548,16
121128,10
121696,12
122280,15
122848,14
123428,13
124008,13
124576,15
125160,16
125728,12
126312,10
126884,11
127456,11
128040,11
128608,11
129184,14
129752,16
130328,15
130896,15
131480,12
132048,13
132624,16
133200,15
133768,17
134344,22
134912,18
135496,16
136064,13
136648,10
137224,11
137792,11
138376,11
138944,11
139528,13
140096,16
140680,13
141248,11
141824,15
142408,18
142976,14
143560,11
144128,11
144712,11
145280,13
145864,11
146440,11
147008,14
147592,15
148164,14
148744,12
149312,15
149896,15
150464,20
151040,19
151624,17
152196,14
152776,12
153348,10
153928,12
154496,12
155072,13
155640,18
156216,22
156800,19
157368,16
157944,12
158516,12
159096,11
159668,13
160244,11
160824,11
161392,11
161968,17
162536,18
163120,15
163688,17
164272,15
164840,11
165408,16
165984,18
166552,19
167136,24
167704,25
168288,20
168856,13
169424,11
170008,11
170576,11
171152,11
171724,11
172304,11
172872,12
173456,11
174024,11
174604,14
175184,14
175756,12
176336,13
176904,14
177488,14
178056,11
178640,11
179216,15
179784,12
180360,11
180928,11
181512,12
182084,11
182664,12
183232,11
183808,16
184392,20
184960,23
185544,22
186116,17
186696,13
187264,11
187848,9
188364,10
188936,11
189520,11
190088,14
190672,17
191244,15
191824,12
192396,11
192976,10
193552,11
194124,11
194704,15
195272,15
195856,10
196424,14
197008,14
197576,13
198156,13
198736,14
199304,16
199888,20
200456,26
201040,25
201608,18
202192,15
202768,16
203340,14
203920,11
204492,10
205072,13
205640,17
206216,15
206784,11
207360,12
207936,13
208504,13
209088,11
209656,12
210232,11
210800,12
211384,13
211952,11
212520,11
213104,11
213672,10
214256,11
214824,11
215408,11
215976,12
216556,14
217136,14
217704,10
218288,11
218856,11
219440,12
220008,14
220592,11
221160,11
221736,13
222320,11
222892,13
223472,13
224044,11
224624,15
225192,21
225772,16
226352,14
226920,11
227504,12
228076,13
228656,12
229224,12
229808,10
230376,11
230956,10
231536,12
232108,11
232688,12
233256,13
233840,20
234408,32
234984,29
235568,22
236136,17
236720,15
237292,14
237872,9
238392,11
238968,9
239488,12
240064,12
240632,13
241212,12
241792,18
242364,22
242944,13
243516,11
244096,11
244664,11
245240,11
245824,11
246392,11
246976,11
247544,12
248128,13
248696,13
249280,17
249848,22
250424,18
251008,16
251580,16
252160,16
252728,19
253312,17
253884,14
254460,11
255040,11
255612,10
256192,13
256764,16
257344,13
257912,13
258488,12
259056,9
259572,10
260152,11
260720,11
261304,11
261872,11
262456,11
263024,12
263600,12
264168,19
264744,19
265328,16
265896,16
266480,12
267048,12
267624,13
268192,14
268768,14
269352,15
269920,13
270504,11
271072,11
271656,11
272228,11
272808,13
273376,14
273952,12
274536,13
275108,13
275688,12
276256,11
276840,11
277408,15
277988,13
278568,10
279136,11
279720,11
280292,11
280872,12
281444,14
282024,12
282592,11
283168,13
283752,14
284324,13
284904,11
285472,11
286056,11
286628,12
287204,13
287784,14
288356,18
288936,20
289504,15
290088,11
290656,14
291240,12
291808,11
292388,12
292968,11
293536,11
294120,10
294692,11
295272,11
295844,11
296420,11
297000,14
297568,14
298152,12
298724,16
299304,20
299876,21
300456,19
301028,18
301604,16
302184,13
302756,11
303336,9
303856,10
304432,11
305012,11
305592,13
306164,18
306740,16
307320,14
307892,15
308472,15
309044,13
309624,10
310196,11
310772,14
311352,15
311924,14
312504,18
313076,19
313656,21
314228,18
314808,14
315388,12
315964,17
316544,18
317116,15
317696,18
318276,24
318856,20
319428,19
320004,19
320584,16
321152,14
321736,14
322304,11
322888,21
323456,19
324040,12
324616,20
325188,22
325768,17
326336,12
326920,11
327492,14
328072,13
328640,11
329208,14
329784,19
330352,13
330928,13
331496,15
332080,16
332648,16
333232,21
333800,19
334376,14
334960,13
335528,14
336112,11
336680,11
337264,11
337832,11
338408,11
338992,11
339560,15
340144,17
340712,18
341296,13
341864,16
342448,23
343016,18
343596,10
344176,12
344744,13
345328,12
345900,13
346480,13
347048,13
347624,11
348208,14
348776,14
349360,13
349928,12
350512,11
351084,11
351664,14
352236,16
352808,15
353392,21
353964,18
354544,11
355116,11
355696,13
356276,14
356852,12
357432,13
358004,14
358584,16
359152,12
359736,9
360256,11
360832,10
361400,11
361976,11
362560,11
363128,11
363712,12
364284,14
364864,11
365432,13
366016,12
366588,11
367164,11
367744,11
368316,13
368896,15
369464,15
370048,13
370616,12
371196,11
371776,10
372348,10
372928,11
373496,12
374080,12
374648,11
375232,12
375804,11
376380,13
376960,14
377528,10
378112,11
378692,11
379272,11
379844,11
380420,11
381000,14
381572,14
382152,15
382724,18
383304,21
383876,18
384460,17
385040,21
385608,19
386192,16
386764,13
387344,10
387912,10
388496,10
389068,12
389644,14
390224,12
390796,11
391376,12
391948,13
392528,11
393100,11
393680,10
394256,11
394824,11
395408,12
395980,12
396560,11
397140,11
397720,12
398292,15
398868,14
399448,13
400020,13
400600,12
401168,11
401752,14
402324,13
402900,11
403480,11
404052,12
404632,14
405204,12
405784,13
406356,13
406936,12
407516,14
408092,12
408672,11
409244,11
409824,11
410392,10
410968,12
411536,12
412112,10
412688,11
413256,13
413840,12
414408,13
414992,12
415560,12
416144,16
416712,17
417280,18
417864,16
418432,15
419008,19
419576,22
420160,16
420728,11
421304,10
421872,11
422448,12
423032,13
423600,14
424184,13
424752,14
425336,15
425904,11
426484,11
427064,11
427636,13
428216,16
428784,14
429368,13
429940,11
430520,11
431088,11
431668,16
432248,20
432816,26
433400,21
433972,14
434552,9
435072,10
435648,11
436232,15
436800,15
437384,14
437956,14
438536,13
439108,12
439688,11
440256,11
440836,14
441416,11
441988,11
442568,13
443136,11
443720,9
444240,11
444816,10
445384,11
445964,11
446544,11
447116,11
447696,12
448276,13
448856,13
449424,14
450004,11
450584,11
451152,14
451736,11
452308,11
452888,12
453456,12
454040,10
454612,10
455184,11
455768,11
456340,11
456920,13
457492,14
458072,14
458644,11
459220,15
459800,12
460372,10
460952,11
461524,10
462104,11
462672,12
463256,13
463828,15
464404,14
464984,12
465552,13
466136,12
466708,11
467288,11
467856,16
468436,22
469016,22
469588,20
470168,16
470740,11
471320,11
471892,10
472472,11
473044,11
473620,11
474200,12
474772,12
475352,13
475924,15
476504,13
477084,11
477660,11
478240,12
478812,13
479392,15
479964,14
480548,12
481124,16
481704,23
482272,25
482852,24
483432,18
484004,15
484584,13
485156,15
485736,11
486308,11
486884,12
487464,12
488036,12
488616,14
489188,15
489768,13
490336,11
490920,13
491492,11
492068,11
492648,11
493216,11
493800,11
494368,14
494952,13
495524,10
496100,11
496680,11
497248,12
497832,13
498404,16
498984,19
499556,18
500136,18
500708,14
501284,13
501864,16
502436,18
503016,13
503588,10
504168,11
504748,11
505324,11
505904,13
506476,14
507056,12
507628,14
508208,12
508780,12
509360,13
509940,10
510516,10
511096,11
511672,11
512252,11
512824,11
513400,12
513968,13
514544,14
515128,14
515696,12
516280,13
516848,15
517432,15
518004,14
518584,13
519152,14
519732,11
520312,10
520884,11
521464,11
522032,13
522616,13
523184,14
523764,13
524344,12
524912,14
525496,11
526064,11
526648,11
527216,12
527800,16
528372,19
528944,14
529528,11
530100,11
530680,13
531252,12
531832,12
532404,14
532980,14
533560,10
534132,11
534712,11
535284,13
535864,9
536384,11
536960,9
537480,10
538056,13
538632,12
539204,11
539784,13
540356,14
540936,14
541504,11
542088,11
542660,11
543236,12
543816,20
544388,21
544968,14
545536,13
546120,15
546692,15
547272,12
547848,12
548416,17
549000,18
549572,18
550152,16
550732,14
551312,15
551884,16
552460,17
553040,13
553608,10
554192,9
554712,11
555288,11
555868,11
556448,13
557020,15
557596,16
558176,13
558748,13
559328,13
559900,10
560480,14
561060,14
561636,11
562216,11
562788,13
563368,13
563940,12
564520,17
565088,24
565672,17
566244,14
566820,17
567400,16
567972,14
568552,11
569132,11
569712,9
570232,10
570808,11
571388,11
571964,11
572544,12
573116,13
573696,15
574272,16
574856,13
575428,11
576004,15
576584,21
577152,18
577736,14
578308,11
578888,11
579456,11
580040,12
580616,13
581188,15
581768,16
582340,13
582920,14
583500,12
584080,11
584656,10
585236,14
585816,14
586388,11
586968,9
587488,10
588064,12
588644,15
589224,16
589792,16
590372,19
590952,19
591524,12
592104,11
592676,15
593256,17
593828,13
594404,11
594984,11
595556,15
596136,17
596708,17
597288,13
597860,11
598440,13
599020,15
599596,11
600176,11
600748,10
601328,11
601908,10
602488,10
603060,11
603636,13
604216,15
604788,14
605368,12
605940,11
606520,11
607100,12
607680,13
608264,10
608836,15
609416,19
609988,16
610568,15
611140,11
611724,11
612300,14
612876,15
613456,12
614032,15
614612,18
615184,19
615768,20
616340,17
616912,14
617496,10
618068,10
618648,11
619220,11
619800,10
620372,12
620952,11
621532,12
622108,13
622688,13
623260,12
623840,11
624420,12
625000,11
625572,11
626148,10
626728,10
627300,12
627880,12
628452,11
629032,11
629612,11
630192,14
630772,13
631348,12
631928,15
632504,21
633080,26
633660,24
634240,17
634812,15
635388,12
635968,10
636540,10
637120,10
637692,10
638272,11
638852,11
639432,13
640020,14
640588,14
641168,12
641736,11
642320,13
642888,13
643472,11
644044,11
644616,11
645200,11
645768,13
646352,15
646924,15
647504,12
648076,12
648656,12
649232,14
649804,19
650384,22
650956,27
651536,25
652108,18
652688,11
653260,10
653836,11
654416,11
654988,11
655568,14
656144,14
656728,12
657296,12
657872,12
658448,10
659016,11
659600,11
660168,11
660752,11
661320,11
661904,11
662476,11
663048,11
663632,14
664204,14
664784,21
665356,21
665936,17
666504,13
667080,12
667656,11
668224,11
668808,11
669376,16
669952,13
670524,11
671104,12
671676,12
672252,14
672832,18
673400,13
673984,11
674552,14
675136,13
675708,11
676288,9
676804,12
677376,15
677960,13
678532,11
679112,11
679684,14
680264,14
680832,14
681416,13
681992,15
682560,14
683144,14
683716,13
684296,11
684868,11
685448,11
686016,11
686596,12
687176,15
687748,16
688328,14
688896,14
689480,12
690052,14
690632,17
691208,15
691776,14
692360,15
692932,22
693512,21
694084,14
694664,11
695236,11
695812,11
696392,12
696964,13
697544,12
698116,11
698696,12
699268,13
699848,14
700424,18
700996,17
701576,15
702148,10
702728,12
703300,12
703880,12
704460,13
705032,11
705616,11
706188,11
706768,12
707340,14
707920,13
708492,18
709072,17
709648,15
710220,14
710800,13
711372,13
711952,15
712532,15
713112,13
713684,13
714260,12
714840,12
715412,14
715992,15
716572,12
717152,15
717732,13
718308,12
718888,11
719460,10
720040,12
720608,19
721192,23
721764,27
722344,27
722916,29
723492,25
724072,14
724644,11
725224,12
725796,13
726376,12
726948,11
727524,11
728104,13
728676,14
729256,14
729828,12
730408,12
730976,11
731560,13
732132,13
732708,12
733288,14
733860,14
734440,14
735020,10
735600,10
736180,11
736756,14
737336,17
737908,13
738488,11
739060,12
739640,12
740212,14
740792,15
741364,12
741940,11
742520,10
743092,10
743672,11
744244,15
744824,11
745396,11
745972,12
746552,11
747124,13
747704,13
748276,12
748856,12
749424,13
750008,18
750588,23
751164,21
751744,18
752320,18
752896,15
753468,11
754048,20
754628,20
755204,12
755784,13
756356,14
756936,13
757508,12
758088,12
758668,11
759248,11
759832,11
760404,11
760984,11
761556,13
762136,12
762716,11
763296,14
763876,13
764452,12
765032,13
765608,12
766184,11
766756,10
767336,10
767916,14
768492,18
769072,15
769644,10
770224,11
770796,11
771376,13
771948,13
772528,12
773100,19
773676,26
774256,24
774828,18
775408,11
775980,10
776560,11
777140,14
777716,14
778296,12
778868,11
779448,11
780020,12
780600,11
781172,13
781752,12
782324,14
782900,14
783480,13
784052,14
784632,13
785204,11
785784,11
786356,10
786932,11
787512,11
788084,11
788664,11
789236,13
789816,16
790396,15
790980,13
791560,15
792136,15
792712,15
793288,13
793864,11
794444,12
795024,12
795596,11
796172,12
796752,12
797324,12
797904,11
798484,11
799064,14
799644,13
800220,15
800800,17
801368,11
801952,11
802520,11
803104,10
803676,14
804256,14
804828,11
805404,15
805984,12
806556,12
807136,12
807708,11
808288,11
808860,11
809436,11
810016,11
810588,18
811168,25
811740,17
812320,11
812900,15
813480,19
814052,15
814628,12
815208,12
815780,12
816360,10
816940,10
817520,19
818100,18
818676,12
819256,10
819828,12
820408,15
820976,11
821560,16
822128,21
822712,13
823280,13
823856,12
824440,11
825008,10
825584,11
826156,11
826736,10
827304,10
827880,11
828464,11
829036,11
829616,11
830184,12
830768,11
831336,12
831920,12
832492,11
833064,11
833648,10
834216,11
834800,13
835368,17
835952,15
836524,14
837096,14
837680,13
838252,13
838832,11
839400,12
839984,12
840556,11
841136,12
841704,11
842280,11
842864,11
843436,14
844016,12
844584,11
845168,11
845736,12
846312,13
846896,13
847464,13
848048,15
848616,14
849192,15
849764,11
850344,11
850916,18
851492,20
852072,21
852644,17
853224,12
853796,10
854376,11
854948,12
855524,11
856104,12
856676,12
857256,12
857828,10
858408,10
858980,11
859560,10
860132,11
860708,13
861288,16
861856,15
862440,11
863012,11
863592,13
864164,12
864736,16
865320,15
865888,12
866472,10
867044,11
867624,10
868196,14
868776,24
869348,25
869924,15
870504,13
871072,13
871656,11
872228,13
872808,13
873376,13
873956,12
874536,11
875108,10
875688,11
876260,11
876840,9
877356,11
877936,11
878516,11
879092,16
879672,22
880248,19
880824,15
881392,15
881976,26
882548,28
883128,23
883700,27
884276,29
884856,26
885424,18
886008,10
886580,12
887160,13
887732,13
888308,12
888888,12
889460,13
890040,14
890612,14
891192,14
891772,11
892352,11
892936,11
893508,11
894088,11
894660,11
895240,16
895820,16
896404,11
896976,11
897552,12
898136,11
898708,15
899288,17
899856,13
900440,13
901012,15
901588,15
902168,16
902740,18
903320,16
903892,15
904472,12
905044,11
905624,15
906196,14
906772,13
907352,12
907924,11
908504,11
909076,12
909656,11
910228,15
910804,11
911384,12
911956,14
912536,15
913108,11
913688,12
914268,12
914848,11
915420,12
915996,11
916576,14
917148,15
917728,13
918300,14
918880,13
919460,12
920036,10
920616,10
921188,15
921768,17
922340,14
922920,13
923488,14
924072,12
924644,10
925220,11
925800,12
926372,15
926952,19
927532,12
928112,10
928680,11
929256,15
929840,20
930412,22
930992,26
931564,24
932144,19
932716,14
933296,13
933876,15
934452,15
935032,15
935604,10
936184,15
936764,17
937344,11
937924,11
938500,11
939080,11
939652,12
940232,13
940804,11
941384,11
941956,12
942540,13
943120,11
943692,12
944272,12
944844,13
945424,14
945996,13
946576,13
947156,15
947732,18
948312,16
948884,15
949464,12
950036,13
950616,15
951196,14
951772,12
952352,12
952924,14
953504,15
954080,13
954656,11
955228,12
955808,11
956388,12
956964,13
957544,12
958116,11
958696,11
959276,10
959860,11
960436,11
961012,14
961592,15
962164,13
962744,11
963316,14
963896,13
964468,17
965048,13
965620,15
966196,13
966776,11
967348,10
967928,11
968508,10
969088,11
969660,11
970236,10
970816,10
971392,11
971968,11
972544,11
973120,14
973700,11
974280,11
974856,11
975428,17
976008,22
976576,18
977160,12
977732,10
978312,10
978892,11
979468,11
980048,12
980620,13
981200,14
981780,14
982360,18
982940,16
983516,15
984096,10
984664,11
985248,10
985820,11
986400,11
986968,14
987552,12
988124,11
988700,11
989280,11
989852,13
990432,15
991004,15
991584,18
992164,13
992736,11
993320,10
993888,11
994472,12
995044,17
995624,19
996204,21
996784,20
997356,15
997932,14
998512,14
999084,11
999664,13
1000236,14
1000860,13
1001488,11
1002112,11
1002740,10
1003364,10
1003992,10
1004624,11
1005240,11
1005868,11
1006492,11
1007116,11
1007744,10
1008360,11
1008992,13
1009612,14
1010236,12
1010868,10
1011488,12
1012116,15
1012748,18
1013368,23
1013996,19
1014620,12
1015252,12
1015880,12
1016496,11
1017128,13
1017752,13
1018376,16
1019004,14
1019624,15
1020252,13
1020876,12
1021500,13
1022132,15
1022752,13
1023380,12
1024012,13
1024628,11
1025256,11
1025876,13
1026504,12
1027132,10
1027748,12
1028380,11
1029000,11
1029628,12
1030256,12
1030872,12
1031500,12
1032124,12
1032744,11
1033372,12
1033992,15
1034620,12
1035240,11
1035864,11
1036492,12
1037112,13
1037740,11
1038368,11
1038984,12
1039612,12
1040236,14
1040864,12
1041492,10
1042112,12
1042740,10
1043360,10
1043984,11
1044612,10
1045228,11
1045856,11
1046480,12
1047100,14
1047728,14
1048352,15
1048980,12
1049608,11
1050224,11
1050852,15
1051472,11
1052104,11
1052732,10
1053352,13
1053980,16
1054604,15
1055232,15
1055860,14
1056480,12
1057108,12
1057732,12
1058352,14
1058980,13
1059600,13
1060228,11
1060852,11
1061472,11
1062104,11
1062724,11
1063356,11
1063984,12
1064600,12
1065232,13
1065852,17
1066480,18
1067112,22
1067728,21
1068356,13
1068980,13
1069600,12
1070228,10
1070848,14
1071476,13
1072100,12
1072720,12
1073352,12
1073968,13
1074596,17
1075224,13
1075844,11
1076472,13
1077096,24
1077724,25
1078352,18
1078976,13
1079604,12
1080228,12
1080852,13
1081480,13
1082096,14
1082724,15
1083348,12
1083972,11
1084604,10
1085224,14
1085852,13
1086480,10
1087104,11
1087732,11
1088356,12
1088984,12
1089612,10
1090228,12
1090860,14
1091484,13
1092104,11
1092732,10
1093352,11
1093980,11
1094604,12
1095228,13
1095856,11
1096472,12
1097100,12
1097724,12
1098352,15
1098980,18
1099604,17
1100232,12
1100860,13
1101476,14
1102108,14
1102732,11
1103360,12
1103988,10
1104608,13
1105236,11
1105860,12
1106484,11
1107112,12
1107736,13
1108364,15
1108988,12
1109616,11
1110244,11
1110868,11
1111496,11
1112128,11
1112744,12
1113376,12
1114000,12
1114628,11
1115260,12
1115880,13
1116508,13
1117132,14
1117756,14
1118388,10
1119008,11
1119636,11
1120268,12
1120888,17
1121516,15
1122140,17
1122768,17
1123396,13
1124016,13
1124644,11
1125268,11
1125892,15
1126524,14
1127140,12
1127772,11
1128392,12
1129016,13
1129644,12
1130260,17
1130892,12
1131512,12
1132136,23
1132768,29
1133392,23
1134020,16
1134652,14
1135272,13
1135900,11
1136528,10
1137156,11
1137784,12
1138408,13
1139036,11
1139660,13
1140284,12
1140912,10
1141536,13
1142164,11
1142796,10
1143416,12
1144044,11
1144668,11
1145300,11
1145928,11
1146544,12
1147176,14
1147800,19
1148424,22
1149052,20
1149672,17
1150300,12
1150924,11
1151548,13
1152180,10
1152796,10
1153428,10
1154056,11
1154672,12
1155300,12
1155924,15
1156552,16
1157180,14
1157800,11
1158428,11
1159048,12
1159680,13
1160308,10
1160928,12
1161556,11
1162180,12
1162804,12
1163432,11
1164056,13
1164684,16
1165308,12
1165936,11
1166564,13
1167188,16
1167820,19
1168448,19
1169064,17
1169692,16
1170316,14
1170944,13
1171576,11
1172192,11
1172824,13
1173444,12
1174068,13
1174700,10
1175320,12
1175948,11
1176572,10
1177200,11
1177828,11
1178452,11
1179080,11
1179712,11
1180328,13
1180956,14
1181580,15
1182208,13
1182840,11
1183456,11
1184088,11
1184708,11
1185332,11
1185964,10
1186584,11
1187212,12
1187836,12
1188464,12
1189092,14
1189716,13
1190348,12
1190976,10
1191600,11
1192228,11
1192852,11
1193476,11
1194108,12
1194728,11
1195356,11
1195980,14
1196604,16
1197236,14
1197856,13
1198484,12
1199116,14
1199736,17
1200368,18
1200988,19
1201620,14
1202248,15
1202864,13
1203496,13
1204120,15
1204740,15
1205372,14
1205992,13
1206620,13
1207244,12
1207868,13
1208500,14
1209120,13
1209748,14
1210376,11
1211000,12
1211628,11
1212252,11
1212884,12
1213512,14
1214132,16
1214760,18
1215384,17
1216008,15
1216636,14
1217256,12
1217884,11
1218508,10
1219132,10
1219764,10
1220384,11
1221012,12
1221644,11
1222264,12
1222892,12
1223516,12
1224148,11
1224780,10
1225400,12
1226028,11
1226652,10
1227276,12
1227908,10
1228528,13
1229160,15
1229780,13
1230404,14
1231032,14
1231648,15
1232276,11
1232904,10
1233528,13
1234156,13
1234780,11
1235408,12
1236036,13
1236656,17
1237284,20
1237908,17
1238536,12
1239164,11
1239784,12
1240412,11
1241036,11
1241660,12
1242288,12
1242904,13
1243532,12
1244156,12
1244784,14
1245412,11
1246036,15
1246668,20
1247296,16
1247920,15
1248548,13
1249172,13
1249800,13
1250428,11
1251048,11
1251676,10
1252300,12
1252924,11
1253552,12
1254176,14
1254804,14
1255436,12
1256056,14
1256684,15
1257308,11
1257936,11
1258568,10
1259184,11
1259816,11
1260440,11
1261060,11
1261692,12
1262312,13
1262940,13
1263564,15
1264192,16
1264820,13
1265440,11
1266068,12
1266700,10
1267320,11
1267948,11
1268572,13
1269204,13
1269832,16
1270456,12
1271084,12
1271708,11
1272332,15
1272964,15
1273584,13
1274216,10
1274840,12
1275464,12
1276092,13
1276712,16
1277344,16
1277972,11
1278592,12
1279224,16
1279848,15
1280480,16
1281108,16
1281724,19
1282352,19
1282976,17
1283596,13
1284228,10
1284844,11
1285472,10
1286096,12
1286716,11
1287348,10
1287968,12
1288596,12
1289224,12
1289840,12
1290468,11
1291092,11
1291720,11
1292348,11
1292968,17
1293596,14
1294216,12
1294848,12
1295476,10
1296096,13
1296724,12
1297344,12
1297968,13
1298596,12
1299216,12
1299844,12
1300468,12
1301088,11
1301720,11
1302344,11
1302972,11
1303604,12
1304224,15
1304852,12
1305476,11
1306108,12
1306736,11
1307352,12
1307984,12
1308608,12
1309232,11
1309860,11
1310480,15
1311108,11
1311732,13
1312356,16
1312984,19
1313604,16
1314232,14
1314860,11
1315480,10
1316108,11
1316728,15
1317356,13
1317988,11
1318608,12
1319236,11
1319856,14
1320480,15
1321108,12
1321728,13
1322356,12
1322976,12
1323600,11
1324228,10
1324848,12
1325476,11
1326104,11
1326720,11
1327348,11
1327972,11
1328600,11
1329232,13
1329848,15
1330476,12
1331100,11
1331724,13
1332352,13
1332968,12
1333596,11
1334220,10
1334840,11
1335468,11
1336088,15
1336716,14
1337336,14
1337960,12
1338588,11
1339212,11
1339840,13
1340468,11
1341088,10
1341716,11
1342340,10
1342968,10
1343596,10
1344216,11
1344844,11
1345464,10
1346084,12
1346716,12
1347336,13
1347964,13
1348584,12
1349208,14
1349836,12
1350456,11
1351084,10
1351712,11
1352328,11
1352956,11
1353580,12
1354208,13
1354836,12
1355456,15
1356084,17
1356708,15
1357332,13
1357960,11
1358576,11
1359204,10
1359828,11
1360452,11
1361080,13
1361696,24
1362324,18
1362952,12
1363568,13
1364196,13
1364820,13
1365448,11
1366076,16
1366696,21
1367324,17
1367948,16
1368576,15
1369208,14
1369824,15
1370452,15
1371076,16
1371700,17
1372328,11
1372944,12
1373572,11
1374196,11
1374820,11
1375448,11
1376072,10
1376700,11
1377328,13
1377944,11
1378576,11
1379196,13
1379828,12
1380456,13
1381076,13
1381704,15
1382328,15
1382952,13
1383580,14
1384200,13
1384828,11
1385452,16
1386072,14
1386704,12
1387320,11
1387948,12
1388580,11
1389200,13
1389828,13
1390452,12
1391080,10
1391712,10
1392328,11
1392960,11
1393580,12
1394204,11
1394836,18
1395456,22
1396084,21
1396708,23
1397332,20
1397960,17
1398576,15
1399208,13
1399836,12
1400456,15
1401084,17
1401708,14
1402336,12
1402968,22
1403584,21
1404212,11
1404836,12
1405460,12
1406088,15
1406704,21
1407336,21
1407960,13
1408584,25
1409212,22
1409832,19
1410460,13
1411088,11
1411704,11
1412336,16
1412960,21
1413588,18
1414216,12
1414840,13
1415468,11
1416092,11
1416712,18
1417344,27
1417960,11
1418592,15
1419216,25
1419836,32
1420468,22
1421088,15
1421716,12
1422348,11
1422968,14
1423596,11
1424220,11
1424852,11
1425480,11
1426096,16
1426724,14
1427348,11
1427972,12
1428604,10
1429224,13
1429852,15
1430476,13
1431100,12
1431732,14
1432352,12
1432980,11
1433612,10
1434228,12
1434860,12
1435480,11
1436112,11
1436740,10
1437360,12
1437988,13
1438612,16
1439236,17
1439868,12
1440488,11
1441116,11
1441740,13
1442360,15
1442992,14
1443608,11
1444236,11
1444860,13
1445484,17
1446116,22
1446736,25
1447368,26
1447996,16
1448616,14
1449244,11
1449868,12
1450496,11
1451124,16
1451744,14
1452372,11
1452996,11
1453620,11
1454248,12
1454872,12
1455500,13
1456124,12
1456752,11
1457380,12
1458004,10
1458632,11
1459260,11
1459880,11
1460508,11
1461128,12
1461760,14
1462388,10
1463008,12
1463636,14
1464260,13
1464884,11
1465516,14
1466136,17
1466764,11
1467388,10
1468016,10
1468644,13
1469268,11
1469900,11
1470528,11
1471148,11
1471776,12
1472404,12
1473028,11
1473660,12
1474280,12
1474908,11
1475532,11
1476152,10
1476784,13
1477400,12
1478028,11
1478652,11
1479280,12
1479908,12
1480532,15
1481160,13
1481788,14
1482408,18
1483036,22
1483660,22
1484288,16
1484916,13
1485532,12
1486164,10
1486784,14
1487408,22
1488036,20
1488652,19
1489284,13
1489904,11
1490528,11
1491156,11
1491780,10
1492412,10
1493040,11
1493656,12
1494288,12
1494912,13
1495540,13
1496172,12
1496792,13
1497420,12
1498044,13
1498668,15
1499296,12
1499920,15
1500548,14
1501172,11
1501796,11
1502428,11
1503052,13
1503680,16
1504308,14
1504928,13
1505556,12
1506180,12
1506812,11
1507440,11
1508060,12
1508688,13
1509312,12
1509936,13
1510568,11
1511184,11
1511812,11
1512440,12
1513064,12
1513692,12
1514316,13
1514948,11
1515576,10
1516200,13
1516828,11
1517452,10
1518080,11
1518712,10
1519332,10
1519960,11
1520588,15
1521212,16
1521840,14
1522456,14
1523088,14
1523720,12
1524336,13
1524964,12
1525588,11
1526220,10
1526848,10
1527472,13
1528100,13
1528724,13
1529352,13
1529980,12
1530600,16
1531228,15
1531852,15
1532480,14
1533108,12
1533728,12
1534360,12
1534988,10
1535608,12
1536240,11
1536860,13
1537488,13
1538120,12
1538736,13
1539364,13
1539988,13
1540612,11
1541244,14
1541864,14
1542492,11
1543116,11
1543740,16
1544368,15
1544984,14
1545612,12
1546236,14
1546864,15
1547492,17
1548116,18
1548748,13
1549376,12
1550000,13
1550628,17
1551252,19
1551880,17
1552508,16
1553128,13
1553756,11
1554380,12
1555004,11
1555636,12
1556256,13
1556884,11
1557516,10
1558136,16
1558764,17
1559388,13
1560020,10
1560648,11
1561264,12
1561892,12
1562516,13
1563140,15
1563772,11
1564392,12
1565020,11
1565644,12
1566268,13
1566896,11
1567520,13
1568148,12
1568776,10
1569400,11
1570028,11
1570652,11
1571280,12
1571908,16
1572528,17
1573156,11
1573780,12
1574408,12
1575036,10
1575656,12
1576288,16
1576912,19
1577536,13
1578164,10
1578784,13
1579416,16
1580044,16
1580664,14
1581292,12
1581916,12
1582548,12
1583180,10
1583800,11
1584432,10
1585056,11
1585680,13
1586308,10
1586928,11
1587560,12
1588180,12
1588804,12
1589432,15
1590056,18
1590684,16
1591316,10
1591936,10
1592568,11
1593192,11
1593820,11
1594452,10
1595072,11
1595704,12
1596328,12
1596952,12
1597584,12
1598200,14
1598828,13
1599456,12
1600080,11
1600708,10
1601324,11
1601956,11
1602584,10
1603200,11
1603828,13
1604448,11
1605080,13
1605708,12
1606328,18
1606956,17
1607580,12
1608204,11
1608832,15
1609448,17
1610076,19
1610700,17
1611324,13
1611956,12
1612576,18
1613204,20
1613836,19
1614456,14
1615084,12
1615708,14
1616336,12
1616968,10
1617584,11
1618212,13
1618836,13
1619460,12
1620092,10
1620712,12
1621340,12
1621964,12
1622588,12
1623216,10
1623840,11
1624468,11
1625100,10
1625720,13
1626348,13
1626972,10
1627604,11
1628232,12
1628848,14
1629476,15
1630100,17
1630724,15
1631356,10
1631976,14
1632608,17
1633232,18
1633856,16
1634484,12
1635104,15
1635736,13
1636364,10
1636984,11
1637612,11
1638240,12
1638868,12
1639496,11
1640112,11
1640740,12
1641360,11
1641988,10
1642616,10
1643232,12
1643860,12
1644480,12
1645100,12
1645728,12
1646348,12
1646980,11
1647600,17
1648220,21
1648848,16
1649472,13
1650100,12
1650728,12
1651344,11
1651972,11
1652596,11
1653224,11
1653852,12
1654468,15
1655096,14
1655720,13
1656344,12
1656972,11
1657588,13
1658220,20
1658844,17
1659468,11
1660096,11
1660712,11
1661340,11
1661972,12
1662592,12
1663220,14
1663844,12
1664472,10
1665100,11
1665716,20
1666344,23
1666968,19
1667588,13
1668216,12
1668836,13
1669464,12
1670088,13
1670708,13
1671340,12
1671960,15
1672588,17
1673212,13
1673832,11
1674464,11
1675084,12
1675712,12
1676344,11
1676960,12
1677588,11
1678212,11
1678840,13
1679468,14
1680088,16
1680712,11
1681336,11
1681956,11
1682584,11
1683204,14
1683832,13
1684456,11
1685080,11
1685708,12
1686328,11
1686956,11
1687584,11
1688204,13
1688832,13
1689452,16
1690084,13
1690712,10
1691328,11
1691956,11
1692580,10
1693200,12
1693832,13
1694448,12
1695076,14
1695700,15
1696324,16
1696952,16
1697568,17
1698196,14
1698824,11
1699440,10
1700072,12
1700692,12
1701320,13
1701952,13
1702568,17
1703196,14
1703820,12
1704448,12
1705076,10
1705696,12
1706324,16
1706944,13
1707568,11
1708196,13
1708816,13
1709444,11
1710064,10
1710692,10
1711320,12
1711944,12
1712572,12
1713204,14
1713824,18
1714452,15
1715076,15
1715708,13
1716336,11
1716956,10
1717584,11
1718208,11
1718832,11
1719460,11
1720080,15
1720708,13
1721332,12
1721956,12
1722584,13
1723208,12
1723836,11
1724464,11
1725080,10
1725712,12
1726336,12
1726964,11
1727592,10
1728216,13
1728844,14
1729464,13
1730088,13
1730716,12
1731336,17
1731964,18
1732588,17
1733208,19
1733840,19
1734456,13
1735084,11
1735712,10
1736336,11
1736964,12
1737588,12
1738216,12
1738844,11
1739464,11
1740092,11
1740716,12
1741344,13
1741972,14
1742592,16
1743220,15
1743844,11
1744468,11
1745096,14
1745712,19
1746340,19
1746972,20
1747592,17
1748220,12
1748844,10
1749472,11
1750100,11
1750720,10
1751348,10
1751972,11
1752596,11
1753228,16
1753848,17
1754476,16
1755100,14
1755724,13
1756352,10
1756976,11
1757604,12
1758236,12
1758856,12
1759484,11
1760108,11
1760740,10
1761368,12
1761984,15
1762612,12
1763236,13
1763856,12
1764488,14
1765104,20
1765732,19
1766356,16
1766980,13
1767608,10
1768232,12
1768860,13
1769488,15
1770104,12
1770736,13
1771360,13
1771988,12
1772620,10
1773240,12
1773868,12
1774492,11
1775116,11
1775748,13
1776368,16
1776996,14
1777620,11
1778244,11
1778872,12
1779492,13
1780120,17
1780748,17
1781368,21
1781996,18
1782620,13
1783252,11
1783880,11
1784496,10
1785128,13
1785752,12
1786376,13
1787004,12
1787624,13
1788252,11
1788876,12
1789500,13
1790132,10
1790752,11
1791384,12
1792012,12
1792628,11
1793260,11
1793880,10
1794512,11
1795140,12
1795760,13
1796388,13
1797012,11
1797636,13
1798268,18
1798888,18
1799516,18
1800140,17
1800764,16
1801392,11
1802016,13
1802644,12
1803272,12
1803896,12
1804524,12
1805148,12
1805776,14
1806404,11
1807020,10
1807652,10
1808276,10
1808900,13
1809528,10
1810152,13
1810780,11
1811404,12
1812028,12
1812656,14
1813272,13
1813900,11
1814524,11
1815152,14
1815780,17
1816404,14
1817032,12
1817664,11
1818280,11
1818908,11
1819532,13
1820160,15
1820788,13
1821408,13
1822036,12
1822660,11
1823284,12
1823916,10
1824536,10
1825164,11
1825788,10
1826416,11
1827044,11
1827668,12
1828296,12
1828928,12
1829544,14
1830172,14
1830796,12
1831428,12
1832056,12
1832680,11
1833308,13
1833932,15
1834556,17
1835188,15
1835808,10
1836436,12
1837068,12
1837688,16
1838316,16
1838944,13
1839572,10
1840204,10
1840824,10
1841452,10
1842076,12
1842700,13
1843332,14
1843948,16
1844580,15
1845200,16
1845824,13
1846452,12
1847072,13
1847700,16
1848328,16
1848944,14
1849572,11
1850196,11
1850828,10
1851456,11
1852072,11
1852704,11
1853328,12
1853956,11
1854588,11
1855208,13
1855836,11
1856460,11
1857084,11
1857712,11
1858332,11
1858960,11
1859584,11
1860208,11
1860836,11
1861460,12
1862088,12
1862720,11
1863336,13
1863964,14
1864588,15
1865220,13
1865848,10
1866464,12
1867092,17
1867716,12
1868340,12
1868972,12
1869592,14
1870220,13
1870844,14
1871472,14
1872100,12
1872724,11
1873356,10
1873984,10
1874600,10
1875232,13
1875852,13
1876484,11
1877112,11
1877732,11
1878360,12
1878984,12
1879612,13
1880240,13
1880860,11
1881488,12
1882116,13
1882736,12
1883364,11
1883988,12
1884620,11
1885248,10
1885872,12
1886500,13
1887124,13
1887752,13
1888380,11
1889000,13
1889628,11
1890252,10
1890876,11
1891504,10
1892124,10
1892752,11
1893384,11
1894000,11
1894628,13
1895252,11
1895884,14
1896512,15
1897128,12
1897760,12
1898384,13
1899012,13
1899644,10
1900264,11
1900892,13
1901516,11
1902140,11
1902772,11
1903392,13
1904024,19
1904652,18
1905272,20
1905900,24
1906528,16
1907156,11
1907788,24
1908408,17
1909036,11
1909664,11
1910288,11
1910916,12
1911536,13
1912168,13
1912792,15
1913416,18
1914048,16
1914664,11
1915296,11
1915924,19
1916544,23
1917176,27
1917800,20
1918432,12
1919060,10
1919680,12
1920312,13
1920936,12
1921556,12
1922188,14
1922808,11
1923436,11
1924060,11
1924684,11
1925312,11
1925928,13
1926556,11
1927184,10
1927808,11
1928436,11
1929060,11
1929688,15
1930316,18
1930936,16
1931564,15
1932188,15
1932812,14
1933440,10
1934056,10
1934688,12
1935312,11
1935936,11
1936564,12
1937184,13
1937812,13
1938444,12
1939064,12
1939692,11
1940316,13
1940948,11
1941576,11
1942200,14
1942828,11
1943452,11
1944076,12
1944708,12
1945328,12
1945960,12
1946580,13
1947204,12
1947832,12
1948456,15
1949084,14
1949716,12
1950336,14
1950964,12
1951588,11
1952220,10
1952848,10
1953472,13
1954100,13
1954724,12
1955348,12
1955980,10
1956600,11
1957228,11
1957852,11
1958476,11
1959108,12
1959728,13
1960356,15
1960988,12
1961608,13
1962236,14
1962860,17
1963492,17
1964120,15
1964744,18
1965376,18
1966000,17
1966624,13
1967252,12
1967872,12
1968500,12
1969124,10
1969748,13
1970376,19
1970996,15
1971624,13
1972252,12
1972872,12
1973500,16
1974124,11
1974752,13
1975380,11
1976000,11
1976628,13
1977252,11
1977876,15
1978504,13
1979120,11
1979752,12
1980376,13
1981000,12
1981628,11
1982248,14
1982876,19
1983508,20
1984128,12
1984756,11
1985380,11
1986008,13
1986636,11
1987256,12
1987884,12
1988508,12
1989128,11
1989760,11
1990376,11
1991008,11
1991632,10
1992256,11
1992884,10
1993504,11
1994132,11
1994764,11
1995384,14
1996012,17
1996636,20
1997268,15
1997900,14
1998520,15
1999148,13
1999772,13
2000396,13
2001028,12
2001648,12
2002276,12
2002900,12
2003524,12
2004152,12
2004768,12
2005400,16
2006028,19
2006648,15
2007276,11
2007900,11
2008532,11
2009160,13
2009776,17
2010404,13
2011028,12
2011652,13
2012284,12
2012904,12
2013532,11
2014156,11
2014780,10
2015408,14
2016032,15
2016660,10
2017288,10
2017912,11
2018540,11
2019164,13
2019796,17
2020424,17
2021044,14
2021672,13
2022296,12
2022920,11
2023548,10
2024168,11
2024796,11
2025420,11
2026044,16
2026676,17
2027296,14
2027924,13
2028556,10
2029176,12
2029804,12
2030428,13
2031060,11
2031688,11
2032308,12
2032936,11
2033560,11
2034188,10
2034816,10
2035436,11
2036064,11
2036688,14
2037312,13
2037944,13
2038560,16
2039188,14
2039820,10
2040440,11
2041068,11
2041692,11
2042324,12
2042952,13
2043576,12
2044204,13
2044828,15
2045452,17
2046084,19
2046704,21
2047336,19
2047960,15
2048584,11
2049212,14
2049828,20
2050456,11
2051084,11
2051700,13
2052328,11
2052952,13
2053580,15
2054208,12
2054832,12
2055460,11
2056080,12
2056708,11
2057336,10
2057952,12
2058580,13
2059204,11
2059824,11
2060452,11
2061072,13
2061700,12
2062320,14
2062944,16
2063572,16
2064196,14
2064824,11
2065452,16
2066072,23
2066700,19
2067324,15
2067952,12
2068580,10
2069196,11
2069828,12
2070448,14
2071072,14
2071700,11
2072320,12
2072948,12
2073572,11
2074196,11
2074824,11
2075444,12
2076072,12
2076700,11
2077320,11
2077948,13
2078572,14
2079204,11
2079832,12
2080448,14
2081076,19
2081700,19
2082320,14
2082952,10
2083568,13
2084196,11
2084820,10
2085440,11
2086068,12
2086688,11
2087316,11
2087944,12
2088560,13
2089192,11
2089812,10
2090440,11
2091072,10
2091688,9
2092264,11
2092888,11
2093516,11
2094144,11
2094760,13
2095388,14
2096012,14
2096640,14
2097268,10
2097888,11
2098516,12
2099140,15
2099764,15
2100392,10
2101016,13
2101644,12
2102268,12
2102892,11
2103520,13
2104144,12
2104772,12
2105400,11
2106024,15
2106652,14
2107276,10
2107904,10
2108532,10
2109152,11
2109780,11
2110404,15
2111028,21
2111660,13
2112280,15
2112908,12
2113532,12
2114152,19
2114784,24
2115408,19
2116036,14
2116664,12
2117280,11
2117912,15
2118536,15
2119164,13
2119796,12
2120416,13
2121044,12
2121668,12
2122288,10
2122920,11
2123536,12
2124164,12
2124788,13
2125412,11
2126044,11
2126668,11
2127296,13
2127924,14
2128544,17
2129172,16
2129796,14
2130428,13
2131056,15
2131672,14
2132300,12
2132924,11
2133548,12
2134176,10
2134792,11
2135424,13
2136048,11
2136668,11
2137300,11
2137924,11
2138552,12
2139180,14
2139800,12
2140428,11
2141052,10
2141684,11
2142312,11
2142928,11
2143560,13
2144184,11
2144808,13
2145436,12
2146056,14
2146684,13
2147308,10
2147932,10
2148560,11
2149184,17
2149812,21
2150444,14
2151060,11
2151692,11
2152312,11
2152944,12
2153572,12
2154192,15
2154820,15
2155444,11
2156068,11
2156700,10
2157320,11
2157948,12
2158572,11
2159196,11
2159828,11
2160452,11
2161080,13
2161708,11
2162328,13
2162956,13
2163580,12
2164208,16
2164840,18
2165456,20
2166084,19
2166708,13
2167332,10
2167960,10
2168584,11
2169212,11
2169836,12
2170460,13
2171092,12
2171716,13
2172344,11
2172972,12
2173592,14
2174220,13
2174844,11
2175476,11
2176104,12
2176724,11
2177356,11
2177976,17
2178600,19
2179228,14
2179848,14
2180476,11
2181100,11
2181724,11
2182352,11
2182972,10
2183600,11
2184228,10
2184848,12
2185476,12
2186100,12
2186732,11
2187360,11
2187976,12
2188608,12
2189232,12
2189856,11
2190484,10
2191104,14
2191732,11
2192356,11
2192980,11
2193608,12
2194232,13
2194860,13
2195492,14
2196112,16
2196740,17
2197364,22
2197996,24
2198628,21
2199248,17
2199876,15
2200504,12
2201128,11
2201756,10
2202376,12
2203004,12
2203628,12
2204252,14
2204880,14
2205504,13
2206132,19
2206764,18
2207384,15
2208012,13
2208636,12
2209264,12
2209896,15
2210516,16
2211144,20
2211768,15
2212392,19
2213020,25
2213640,27
2214268,21
2214892,21
2215516,15
2216148,14
2216772,13
2217400,11
2218028,10
2218648,11
2219276,13
2219900,12
2220532,13
2221164,11
2221784,11
2222412,11
2223036,11
2223660,11
2224292,11
2224912,15
2225540,17
2226168,13
2226788,13
2227420,11
2228044,11
2228672,14
2229304,15
2229920,16
2230552,14
2231176,13
2231808,14
2232436,14
2233056,12
2233684,15
2234308,17
2234932,13
2235564,11
2236184,13
2236812,14
2237436,12
2238064,12
2238696,10
2239320,12
2239952,13
2240584,11
2241200,11
2241828,11
2242452,11
2243076,11
2243708,12
2244328,15
2244956,15
2245580,12
2246204,12
2246836,10
2247456,11
2248084,12
2248716,13
2249336,11
2249964,12
2250588,15
2251220,15
2251852,12
2252472,13
2253104,13
2253724,12
2254348,13
2254980,12
2255600,13
2256228,14
2256852,11
2257472,11
2258104,10
2258720,10
2259348,11
2259980,11
2260600,13
2261228,13
2261852,11
2262484,11
2263112,12
2263728,10
2264360,13
2264980,18
2265604,16
2266236,12
2266856,12
2267484,11
2268108,11
2268732,11
2269364,11
2269984,13
2270612,12
2271244,11
2271864,11
2272496,14
2273120,15
2273748,11
2274380,10
2275000,13
2275628,13
2276252,16
2276876,12
2277508,13
2278128,14
2278760,11
2279380,12
2280004,11
2280632,14
2281256,15
2281884,15
2282516,12
2283136,11
2283768,10
2284388,11
2285020,11
2285652,15
2286272,20
2286900,14
2287524,12
2288152,13
2288780,10
2289400,13
2290028,13
2290652,11
2291280,11
2291908,12
2292528,13
2293156,11
2293788,11
2294408,13
2295036,11
2295660,14
2296292,12
2296920,14
2297536,18
2298168,23
2298792,25
2299416,27
2300044,33
2300664,26
2301292,17
2301916,13
2302544,12
2303172,12
2303792,12
2304424,12
2305052,12
2305672,12
2306300,10
2306924,11
2307552,11
2308180,10
2308800,13
2309428,11
2310052,10
2310676,12
2311304,13
2311920,14
2312552,13
2313176,13
2313800,11
2314428,13
2315048,14
2315676,15
2316308,12
2316928,11
2317556,12
2318180,12
2318812,12
2319440,12
2320056,11
2320688,12
2321308,11
2321932,11
2322560,10
2323184,11
2323812,12
2324436,11
2325060,11
2325692,11
2326312,12
2326940,11
2327572,11
2328192,12
2328820,15
2329444,19
2330076,21
2330704,18
2331328,14
2331956,11
2332584,11
2333208,11
2333836,10
2334456,13
2335084,11
2335708,11
2336332,12
2336964,12
2337584,13
2338212,11
2338844,10
2339464,11
2340092,11
2340716,12
2341348,11
2341976,10
2342600,12
2343228,15
2343852,13
2344476,12
2345108,12
2345728,14
2346356,13
2346980,12
2347604,15
2348236,14
2348856,14
2349484,11
2350116,12
2350736,17
2351364,16
2351992,16
2352624,14
2353252,11
2353872,13
2354504,12
2355128,11
2355752,11
2356380,10
2357000,12
2357628,11
2358252,11
2358876,11
2359508,11
2360132,11
2360764,13
2361392,13
2362012,13
2362640,13
2363264,13
2363892,13
2364524,11
2365144,11
2365776,11
2366396,12
2367024,12
2367652,10
2368272,11
2368900,12
2369524,12
2370148,12
2370780,12
2371404,11
2372032,11
2372664,10
2373280,11
2373912,11
2374536,12
2375164,11
2375796,11
2376416,13
2377044,13
2377668,13
2378292,11
2378920,12
2379544,12
2380172,11
2380800,12
2381424,16
2382052,18
2382676,16
2383308,12
2383936,10
2384560,12
2385188,11
2385812,12
2386440,15
2387068,15
2387688,19
2388316,15
2388940,12
2389568,11
2390196,13
2390816,14
2391448,15
2392076,14
2392696,12
2393328,15
2393952,13
2394580,12
2395212,16
2395832,24
2396464,27
2397088,22
2397712,15
2398344,13
2398960,10
2399592,10
2400216,11
2400840,11
2401468,11
2402088,12
2402716,11
2403348,12
2403968,12
2404596,11
2405220,11
2405852,11
2406484,10
2407104,11
2407732,12
2408356,11
2408980,11
2409608,11
2410224,12
2410852,12
2411480,12
2412104,12
2412732,11
2413352,11
2413980,11
2414612,14
2415232,12
2415864,11
2416488,12
2417116,11
2417748,12
2418368,16
2418996,15
2419624,13
2420244,14
2420876,12
2421496,12
2422124,11
2422748,11
2423372,11
2424004,10
2424624,11
2425252,11
2425884,11
2426504,11
2427136,12
2427760,12
2428388,11
2429020,11
2429640,14
2430268,15
2430896,18
2431520,15
2432152,12
2432768,11
2433396,11
2434020,11
2434644,11
2435276,10
2435896,13
2436524,13
2437156,12
2437776,15
2438404,12
2439028,10
2439660,10
2440288,10
2440912,11
2441540,11
2442168,11
2442792,11
2443420,11
2444040,13
2444668,12
2445296,13
2445916,13
2446548,12
2447172,13
2447804,15
2448436,16
2449056,20
2449684,17
2450308,14
2450940,13
2451572,10
2452192,13
2452824,13
2453444,13
2454072,13
2454700,16
2455320,13
2455952,13
2456584,13
2457200,13
2457832,11
2458456,12
2459084,11
2459712,11
2460328,15
2460960,18
2461580,19
2462212,19
2462840,18
2463456,13
2464088,13
2464708,12
2465332,12
2465960,11
2466584,13
2467212,11
2467836,12
2468460,11
2469088,12
2469712,13
2470340,12
2470972,11
2471592,11
2472220,11
2472844,11
2473476,13
2474104,11
2474724,11
2475352,11
2475976,11
2476600,11
2477228,12
2477848,13
2478476,12
2479100,12
2479728,11
2480356,13
2480980,13
2481608,13
2482240,11
2482856,11
2483484,11
2484108,11
2484736,11
2485368,13
2485984,16
2486616,17
2487240,14
2487864,12
2488492,10
2489112,11
2489740,11
2490364,10
2490992,13
2491620,12
2492244,11
2492876,11
2493504,11
2494128,11
2494756,12
2495380,13
2496008,13
2496636,14
2497256,15
2497884,12
2498508,12
2499132,17
2499764,16
2500384,11
2501012,10
2501644,14
2502264,16
2502892,11
2503516,12
2504148,12
2504776,10
2505400,11
2506028,11
2506656,11
2507276,12
2507908,12
2508528,12
2509160,11
2509780,11
2510404,13
2511036,12
2511656,13
2512284,12
2512916,12
2513536,14
2514168,16
2514788,15
2515420,12
2516052,12
2516672,15
2517300,15
2517928,11
2518552,12
2519180,11
2519800,13
2520428,16
2521052,16
2521680,13
2522308,10
2522928,11
2523556,11
2524188,10
2524808,11
2525436,12
2526060,11
2526692,12
2527324,12
2527944,11
2528576,14
2529200,13
2529824,11
2530452,12
2531072,15
2531704,16
2532328,15
2532952,14
2533584,11
2534200,10
2534832,10
2535464,12
2536084,11
2536712,13
2537336,13
2537968,15
2538596,12
2539216,11
2539848,11
2540472,10
2541096,11
2541724,11
2542344,11
2542976,11
2543600,13
2544224,14
2544852,13
2545476,13
2546108,13
2546740,12
2547360,16
2547988,15
2548616,15
2549244,13
2549876,12
2550496,11
2551124,11
2551752,14
2552376,13
2553008,12
2553624,12
2554252,13
2554880,11
2555504,11
2556136,11
2556760,11
2557392,10
2558024,11
2558644,11
2559276,11
2559900,11
2560528,12
2561156,12
2561772,14
2562400,13
2563024,12
2563648,11
2564276,11
2564896,12
2565524,13
2566152,14
2566768,13
2567396,11
2568020,10
2568648,13
2569276,12
2569896,12
2570524,14
2571148,12
2571776,11
2572404,10
2573024,11
2573652,12
2574276,11
2574896,11
2575528,11
2576144,13
2576772,16
2577396,17
2578020,14
2578648,13
2579272,13
2579900,12
2580532,11
2581152,11
2581780,10
2582400,10
2583032,11
2583660,12
2584280,11
2584908,11
2585532,11
2586156,15
2586784,13
2587408,13
2588036,11
2588660,10
2589284,11
2589912,11
2590536,11
2591164,11
2591796,12
2592416,13
2593044,11
2593668,12
2594296,12
2594924,12
2595544,15
2596172,15
2596796,16
2597420,17
2598052,15
2598672,12
2599300,11
2599924,11
2600548,11
2601180,11
2601800,12
2602432,12
2603060,11
2603680,13
2604308,13
2604932,13
2605564,11
2606192,10
2606808,11
2607440,10
2608064,13
2608688,13
2609316,12
2609936,12
2610564,12
2611188,12
2611816,13
2612444,16
2613068,15
2613700,15
2614328,13
2614948,13
2615576,14
2616200,13
2616828,12
2617460,11
2618080,11
2618708,12
2619332,11
2619956,12
2620588,11
2621208,11
2621836,11
2622460,10
2623088,11
2623716,11
2624340,11
2624968,12
2625592,10
2626216,12
2626844,12
2627464,11
2628092,12
2628720,13
2629344,16
2629972,16
2630596,13
2631216,11
2631848,11
2632464,11
2633092,11
2633716,11
2634340,10
2634968,11
2635592,13
2636220,16
2636848,14
2637468,12
2638096,18
2638720,19
2639348,13
2639980,11
2640600,12
2641228,11
2641852,11
2642476,10
2643104,11
2643720,11
2644348,12
2644972,13
2645592,15
2646224,15
2646840,15
2647468,16
2648096,16
2648720,17
2649348,13
2649972,10
2650600,12
2651228,11
2651848,12
2652476,13
2653100,11
2653724,11
2654352,12
2654972,11
2655600,12
2656224,13
2656844,11
2657476,10
2658096,11
2658724,11
2659352,11
2659976,13
2660604,13
2661228,15
2661860,13
2662488,13
2663104,15
2663732,16
2664356,12
2664976,11
2665604,10
2666220,12
2666852,11
2667472,10
2668096,11
2668724,12
2669344,13
2669972,13
2670600,12
2671224,12
2671852,13
2672476,12
2673104,12
2673736,10
2674352,11
2674980,12
2675604,11
2676228,12
2676860,12
2677480,11
2678108,12
2678732,13
2679356,13
2679984,10
2680604,11
2681232,12
2681860,14
2682480,15
2683108,11
2683732,11
2684360,11
2684992,11
2685608,12
2686236,11
2686860,12
2687488,12
2688120,10
2688736,11
2689364,11
2689984,10
2690608,11
2691236,10
2691856,11
2692484,11
2693104,12
2693728,11
2694360,13
2694984,13
2695612,14
2696240,14
2696864,15
2697492,13
2698116,11
2698744,11
2699376,11
2699992,11
2700620,11
2701248,11
2701868,11
2702500,12
2703120,12
2703748,12
2704372,11
2704996,11
2705624,11
2706248,11
2706876,10
2707504,11
2708124,10
2708752,11
2709376,12
2710004,13
2710632,12
2711256,13
2711884,13
2712508,14
2713132,14
2713764,12
2714384,11
2715012,11
2715636,12
2716260,11
2716888,11
2717512,11
2718140,11
2718772,11
2719392,12
2720020,12
2720644,13
2721272,11
2721900,11
2722520,11
2723148,13
2723772,11
2724396,11
2725024,10
2725648,11
2726276,11
2726900,11
2727524,12
2728152,13
2728776,13
2729404,13
2730032,11
2730656,12
2731284,11
2731908,13
2732540,16
2733168,18
2733784,16
2734416,14
2735040,12
2735660,13
2736292,12
2736912,13
2737540,12
2738164,13
2738788,11
2739420,11
2740044,11
2740672,13
2741300,11
2741920,11
2742548,11
2743172,12
2743804,12
2744432,12
2745056,15
2745684,16
2746308,14
2746932,12
2747560,12
2748176,12
2748808,12
2749432,11
2750056,12
2750684,11
2751308,11
2751940,11
2752572,11
2753192,13
2753820,13
2754444,12
2755076,10
2755704,11
2756320,11
2756952,11
2757576,12
2758200,11
2758828,11
2759448,13
2760076,12
2760700,14
2761328,13
2761956,13
2762580,15
2763212,15
2763840,14
2764464,14
2765096,14
2765716,12
2766340,11
2766972,10
2767592,12
2768220,12
2768844,11
2769468,12
2770096,10
2770712,11
2771344,11
2771972,10
2772592,11
2773220,11
2773844,11
2774476,11
2775104,10
2775728,11
2776356,12
2776980,12
2777604,14
2778236,14
2778856,14
2779484,14
2780112,15
2780736,13
2781364,12
2781984,12
2782616,12
2783244,10
2783864,11
2784496,11
2785120,11
2785748,11
2786380,10
2787000,13
2787628,11
2788252,11
2788876,11
2789504,10
2790128,11
2790756,11
2791380,11
2792004,11
2792632,10
2793256,13
2793884,13
2794516,13
2795136,14
2795768,15
2796388,14
2797020,12
2797648,12
2798272,14
2798900,12
2799524,11
2800148,11
2800780,10
2801400,11
2802028,11
2802652,11
2803276,13
2803904,13
2804524,11
2805152,11
2805780,10
2806400,10
2807028,11
2807652,13
2808284,11
2808912,10
2809528,13
2810160,13
2810784,13
2811408,14
2812036,14
2812656,14
2813284,14
2813908,13
2814536,12
2815164,11
2815784,11
2816416,11
2817044,12
2817664,11
2818292,11
2818916,12
2819544,12
2820172,12
2820792,11
2821420,11
2822044,10
2822668,10
2823296,11
2823920,11
2824548,12
2825172,11
2825796,11
2826428,11
2827048,12
2827676,13
2828304,14
2828928,19
2829556,15
2830180,14
2830808,15
2831440,14
2832056,13
2832684,11
2833308,11
2833932,10
2834560,11
2835176,12
2835808,13
2836432,13
2837056,13
2837684,10
2838304,11
2838932,10
2839564,10
2840184,11
2840812,11
2841436,12
2842068,11
2842696,10
2843320,12
2843948,13
2844572,14
2845196,13
2845828,12
2846448,14
2847076,13
2847700,11
2848324,12
2848956,11
2849576,11
2850204,11
2850836,10
2851456,13
2852084,12
2852708,11
2853340,11
2853968,11
2854592,12
2855220,11
2855844,11
2856468,11
2857100,10
2857720,12
2858348,11
2858972,11
2859596,12
2860228,13
2860848,13
2861476,15
2862108,14
2862728,18
2863356,22
2863984,25
2864616,22
2865244,16
2865864,12
2866496,12
2867120,11
2867744,11
2868372,11
2868992,12
2869620,13
2870244,12
2870868,11
2871496,11
2872112,12
2872744,12
2873372,10
2873992,11
2874620,13
2875244,26
2875876,31
2876504,28
2877124,22
2877752,20
2878376,16
2879000,11
2879628,16
2880248,24
2880876,33
2881500,37
2882120,37
2882748,32
2883368,23
2883996,20
2884624,23
2885240,17
2885868,11
2886492,12
2887120,13
2887752,10
2888368,11
2888996,12
2889620,12
2890244,13
2890872,13
2891496,13
2892124,16
2892748,17
2893372,13
2894004,13
2894624,13
2895252,12
2895884,12
2896504,11
2897132,10
2897756,10
2898388,14
2899016,19
2899632,19
2900264,26
2900888,25
2901508,19
2902140,16
2902760,15
2903388,13
2904012,15
2904636,15
2905268,13
2905888,15
2906516,13
2907148,10
2907768,13
2908396,11
2909020,15
2909652,18
2910280,15
2910900,15
2911528,15
2912152,17
2912776,11
2913404,15
2914024,11
2914652,12
2915276,11
2915900,12
2916532,10
2917152,20
2917780,27
2918412,26
2919032,29
2919660,17
2920284,20
2920916,19
2921544,13
2922164,17
2922792,14
2923416,12
2924040,17
2924668,22
2925288,29
2925916,26
2926540,13
2927168,12
2927796,14
2928416,28
2929044,30
2929676,24
2930296,20
2930924,12
2931548,10
2932180,11
2932808,11
2933432,12
2934060,13
2934688,12
2935312,12
2935940,11
2936560,12
2937188,16
2937816,22
2938440,24
2939068,27
2939688,28
2940316,21
2940948,14
2941568,13
2942200,11
2942824,17
2943452,19
2944084,13
2944704,13
2945332,12
2945956,10
2946580,10
2947208,10
2947832,14
2948460,16
2949088,16
2949712,14
2950340,10
2950960,12
2951588,13
2952220,12
2952840,13
2953468,13
2954092,20
2954724,25
2955352,16
2955972,11
2956600,11
2957224,25
2957848,19
2958476,10
2959096,12
2959724,15
2960352,17
2960972,13
2961604,18
2962224,44
2962852,58
2963484,46
2964104,26
2964732,13
2965356,14
2965988,12
2966616,17
2967240,33
2967868,44
2968492,35
2969116,29
2969748,16
2970368,12
2970996,30
2971620,42
2972244,29
2972872,16
2973488,23
2974116,20
2974748,12
2975368,11
2975996,18
2976620,24
2977252,25
2977880,24
2978504,16
2979132,11
2979756,10
2980380,19
2981012,26
2981632,21
2982260,11
2982884,13
2983508,11
2984140,10
2984760,13
2985388,13
2986020,11
2986640,15
2987268,15
2987892,13
2988524,17
2989156,20
2989776,16
2990404,23
2991028,18
2991652,15
2992284,16
2992904,21
2993532,45
2994156,37
2994780,20
2995412,27
2996036,23
2996664,12
2997296,10
2997912,12
2998544,18
2999168,24
2999796,26
3000428,30
3001048,41
3001676,41
3002300,45
3002924,41
3003556,26
3004176,25
3004804,13
3005428,25
3006056,46
3006684,50
3007312,61
3007944,53
3008576,33
3009192,17
3009824,31
3010448,54
3011076,63
3011708,44
3012328,12
3012956,14
3013584,29
3014208,49
3014840,66
3015456,47
3016088,27
3016716,23
3017336,18
3017968,30
3018592,55
3019220,62
3019852,70
3020472,47
3021104,25
3021728,14
3022352,36
3022984,23
3023600,11
3024232,26
3024856,26
3025480,20
3026112,17
3026728,31
3027360,48
3027988,27
3028608,13
3029240,17
3029864,13
3030496,26
3031124,28
3031744,19
3032376,29
3033000,28
3033624,13
3034252,11
3034872,25
3035504,44
3036128,37
3036752,14
3037384,46
3038000,70
3038632,57
3039264,92
3039884,92
3040516,51
3041140,19
3041768,12
3042400,16
3043016,11
3043648,19
3044272,54
3044896,68
3045524,54
3046144,53
3046776,21
3047400,17
3048024,21
3048652,38
3049272,41
3049904,36
3050532,26
3051152,19
3051784,19
3052408,22
3053036,23
3053668,16
3054288,10
3054916,12
3055544,17
3056168,20
3056796,27
3057416,34
3058048,33
3058672,27
3059296,37
3059924,41
3060552,34
3061180,39
3061812,30
3062432,17
3063060,13
3063688,33
3064316,33
3064948,16
3065568,12
3066200,15
3066824,16
3067448,67
3068080,44
3068696,13
3069328,21
3069960,19
3070580,37
3071212,39
3071840,39
3072472,29
3073100,58
3073720,39
3074348,48
3074972,68
3075596,90
3076224,74
3076848,50
3077476,82
3078100,68
3078724,30
3079352,45
3079976,31
3080604,12
3081236,12
3081856,18
3082484,23
3083108,22
3083740,23
3084368,22
3084988,30
3085616,31
3086240,32
3086860,25
3087492,14
3088112,12
3088740,16
3089364,15
3089988,20
3090616,42
3091240,34
3091868,42
3092500,50
3093120,47
3093748,35
3094372,23
3095004,14
3095636,22
3096256,71
3096888,108
3097560,78
3098184,46
3098816,16
3099432,15
3100060,12
3100692,24
3101312,29
3101944,12
3102568,15
3103200,15
3103828,30
3104448,22
3105080,11
3105704,13
3106328,15
3106956,22
3107576,28
3108208,49
3108832,61
3109456,53
3110084,29
3110704,30
3111336,14
3111964,11
3112584,14
3113216,40
3113840,61
3114468,59
3115100,83
3115720,63
3116348,24
3116976,11
3117600,12
3118228,14
3118848,16
3119476,24
3120104,28
3120728,23
3121356,12
3121976,17
3122604,13
3123236,11
3123856,15
3124484,12
3125108,11
3125736,11
3126368,13
3126988,14
3127616,15
3128240,17
3128864,19
3129492,15
3130112,14
3130740,11
3131368,11
3131992,11
3132624,11
3133240,17
3133872,55
3134504,75
3135120,81
3135752,63
3136376,55
3137004,34
3137636,44
3138256,25
3138884,38
3139508,138
3140184,194
3140864,101
3141540,45
3142160,45
3142792,25
3143408,14
3144040,51
3144660,84
3145284,85
3145916,93
3146536,76
3147168,44
3147796,24
3148416,49
3149048,45
3149672,29
3150300,35
3150932,30
3151552,93
3152184,109
3152860,84
3153480,15
3154112,41
3154728,17
3155360,27
3155988,40
3156608,41
3157236,30
3157864,20
3158492,12
3159124,13
3159744,14
3160376,14
3161000,12
3161624,12
3162252,10
3162872,13
3163504,11
3164128,11
3164752,13
3165384,11
3166000,16
3166632,30
3167264,18
3167880,12
3168512,20
3169140,19
3169768,21
3170400,13
3171020,27
3171652,31
3172276,60
3172900,65
3173532,56
3174152,17
3174784,25
3175408,12
3176032,26
3176664,52
3177288,86
3177916,91
3178548,68
3179168,55
3179800,42
3180424,13
3181056,32
3181684,12
3182304,26
3182936,37
3183560,15
3184184,15
3184816,25
3185432,30
3186064,20
3186692,14
3187312,11
3187944,12
3188568,34
3189196,35
3189828,13
3190448,11
3191080,13
3191704,19
3192328,17
3192960,14
3193576,14
3194208,12
3194836,11
3195460,12
3196092,12
3196712,12
3197344,13
3197976,13
3198596,10
3199224,18
3199852,15
3200484,19
3201112,18
3201728,13
3202360,14
3202980,20
3203604,25
3204232,20
3204856,41
3205484,41
3206108,13
3206728,18
3207360,15
3207976,37
3208604,23
3209236,12
3209856,19
3210484,15
3211108,13
3211740,16
3212368,27
3212984,26
3213616,29
3214240,12
3214860,11
3215492,10
3216112,12
3216740,13
3217364,21
3217988,31
3218616,31
3219232,26
3219864,33
3220492,41
3221112,27
3221740,12
3222364,27
3222996,73
3223628,48
3224248,19
3224876,28
3225500,40
3226128,21
3226756,12
3227376,13
3228004,14
3228628,15
3229252,20
3229880,54
3230504,16
3231132,17
3231764,14
3232384,27
3233012,31
3233636,31
3234268,30
3234896,16
3235516,12
3236144,12
3236768,12
3237392,11
3238024,25
3238640,43
3239268,29
3239892,23
3240516,20
3241148,52
3241768,69
3242396,77
3243028,59
3243648,47
3244276,28
3244900,12
3245532,24
3246160,99
3246784,166
3247464,105
3248144,81
3248768,59
3249396,31
3250020,19
3250652,29
3251284,24
3251904,19
3252532,19
3253156,18
3253780,17
3254412,14
3255032,15
3255664,15
3256288,14
3256912,14
3257540,12
3258160,12
3258788,11
3259420,12
3260040,13
3260668,13
3261296,13
3261924,15
3262556,12
3263176,12
3263808,13
3264432,14
3265056,13
3265684,17
3266304,19
3266936,27
3267560,43
3268184,52
3268812,49
3269432,41
3270064,49
3270692,44
3271312,49
3271944,25
3272568,132
3273248,130
3273932,67
3274552,36
3275184,45
3275816,57
3276436,41
3277064,14
3277688,13
3278316,14
3278944,15
3279560,16
3280188,12
3280808,10
3281432,11
3282060,11
3282676,11
3283304,11
3283928,14
3284548,14
3285176,12
3285800,17
3286428,25
3287056,28
3287672,36
3288300,46
3288924,52
3289552,48
3290180,35
3290800,12
3291428,13
3292048,28
3292676,54
3293308,78
3293928,63
3294556,39
3295180,36
3295804,29
3296432,53
3297048,49
3297680,17
3298300,11
3298928,17
3299556,15
3300180,15
3300808,16
3301436,16
3302056,20
3302684,19
3303308,19
3303936,15
3304564,16
3305184,14
3305812,14
3306436,16
3307056,24
3307688,31
3308304,30
3308932,47
3309556,65
3310180,65
3310808,15
3311432,39
3312060,11
3312688,23
3313312,67
3313940,115
3314616,157
3315284,114
3315960,28
3316576,16
3317204,25
3317836,30
3318456,31
3319084,21
3319708,16
3320332,17
3320960,15
3321576,16
3322204,13
3322828,13
3323452,13
3324084,14
3324704,12
3325332,12
3325964,10
3326584,13
3327212,14
3327836,13
3328468,13
3329096,12
3329720,13
3330348,13
3330968,10
3331592,11
3332220,10
3332840,11
3333468,10
3334092,11
3334712,11
3335344,12
3335960,11
3336588,11
3337212,10
3337840,11
3338468,11
3339092,11
3339720,15
3340348,23
3340968,41
3341596,31
3342220,15
3342848,19
3343476,11
3344096,20
3344724,17
3345344,84
3345968,89
3346600,42
3347216,14
3347844,11
3348468,12
3349092,13
3349720,14
3350344,15
3350976,11
3351604,12
3352224,12
3352852,13
3353476,11
3354108,10
3354736,10
3355360,11
3355988,11
3356612,11
3357236,11
3357868,10
3358488,12
3359116,11
3359740,14
3360368,17
3360996,17
3361620,15
3362248,11
3362876,10
3363496,17
3364124,24
3364748,22
3365376,21
3366004,16
3366624,18
3367252,14
3367876,16
3368496,21
3369128,11
3369744,11
3370372,15
3370996,21
3371620,25
3372248,24
3372872,24
3373500,17
3374128,10
3374752,14
3375380,28
3376004,43
3376632,18
3377260,15
3377880,31
3378508,17
3379132,24
3379760,23
3380388,12
3381008,23
3381636,31
3382260,18
3382880,49
3383512,33
3384136,17
3384764,33
3385392,58
3386016,44
3386644,16
3387268,12
3387896,11
3388524,27
3389144,28
3389772,28
3390396,22
3391020,18
3391652,16
3392272,19
3392900,23
3393524,30
3394148,68
3394776,45
3395400,34
3396028,26
3396656,12
3397280,12
3397908,11
3398532,11
3399164,10
3399792,11
3400412,11
3401040,13
3401660,13
3402284,11
3402912,10
3403536,11
3404164,11
3404788,11
3405412,11
3406040,11
3406664,12
3407296,13
3407924,10
3408544,11
3409172,11
3409796,17
3410428,17
3411056,26
3411672,31
3412304,36
3412928,27
3413552,15
3414180,22
3414800,20
3415428,61
3416052,73
3416676,82
3417308,68
3417932,19
3418560,17
3419188,30
3419808,29
3420436,21
3421060,13
3421692,11
3422320,10
3422944,17
3423572,31
3424200,21
3424820,21
3425452,19
3426072,20
3426700,16
3427324,13
3427952,15
3428580,13
3429204,11
3429836,10
3430468,10
3431088,17
3431716,47
3432340,65
3432964,40
3433596,13
3434216,25
3434848,31
3435472,26
3436096,19
3436724,11
3437344,11
3437972,15
3438604,51
3439224,58
3439856,15
3440480,21
3441108,17
3441740,12
3442360,13
3442988,12
3443612,11
3444236,12
3444864,10
3445480,11
3446112,11
3446736,15
3447360,20
3447988,26
3448608,12
3449236,13
3449868,24
3450488,33
3451116,21
3451740,51
3452372,29
3453004,14
3453624,19
3454252,28
3454876,40
3455504,23
3456132,12
3456752,11
3457380,15
3458004,18
3458624,22
3459256,28
3459872,40
3460500,45
3461132,40
3461752,21
3462380,11
3463004,14
3463636,16
3464264,86
3464888,89
3465516,86
3466140,38
3466764,12
3467396,16
3468016,17
3468644,17
3469268,15
3469892,13
3470524,11
3471144,11
3471776,11
3472404,10
3473024,11
3473652,12
3474276,13
3474908,13
3475536,12
3476156,12
3476784,12
3477412,12
3478036,12
3478664,13
3479288,21
3479916,23
3480544,17
3481168,11
3481800,14
3482416,16
3483044,14
3483672,15
3484288,16
3484920,11
3485540,12
3486172,15
3486800,39
3487420,23
3488048,10
3488668,18
3489292,23
3489920,24
3490544,33
3491172,38
3491796,27
3492424,18
3493052,24
3493672,13
3494300,13
3494932,21
3495552,13
3496180,49
3496804,120
3497488,76
3498112,40
3498728,16
3499356,12
3499984,22
3500608,13
3501240,26
3501856,15
3502488,21
3503116,16
3503736,29
3504368,13
3504992,14
3505620,16
3506252,16
3506872,15
3507504,11
3508128,11
3508752,13
3509380,11
3510000,11
3510628,13
3511256,13
3511880,12
3512508,11
3513128,12
3513760,15
3514388,34
3515008,68
3515640,60
3516264,41
3516892,25
3517524,19
3518144,11
3518776,19
3519400,76
3520024,116
3520704,94
3521328,71
3521956,26
3522588,20
3523208,32
3523836,28
3524460,19
3525088,14
3525716,12
3526336,12
3526964,12
3527588,12
3528216,13
3528844,12
3529464,11
3530092,10
3530716,11
3531340,12
3531972,13
3532592,13
3533224,13
3533852,14
3534472,13
3535100,12
3535724,13
3536356,11
3536984,11
3537608,11
3538236,23
3538860,21
3539484,14
3540116,18
3540736,16
3541364,15
3541988,17
3542616,48
3543244,48
3543864,25
3544492,10
3545124,10
3545744,11
3546372,11
3546996,13
3547628,11
3548256,19
3548880,42
3549508,26
3550132,13
3550756,19
3551388,22
3552008,18
3552636,15
3553260,13
3553888,13
3554516,13
3555140,11
3555772,11
3556404,11
3557024,10
3557656,11
3558280,14
3558912,15
3559540,14
3560160,13
3560788,13
3561416,12
3562040,17
3562668,17
3563288,16
3563920,28
3564544,34
3565168,29
3565796,21
3566420,15
3567052,11
3567684,46
3568304,104
3568988,82
3569608,42
3570232,14
3570864,11
3571480,22
3572108,17
3572736,15
3573360,25
3573992,20
3574616,13
3575244,13
3575876,17
3576496,17
3577124,17
3577752,18
3578376,13
3579008,10
3579624,10
3580256,11
3580880,13
3581504,11
3582136,11
3582756,11
3583384,13
3584016,11
3584636,12
3585268,12
3585892,11
3586520,11
3587148,11
3587768,13
3588396,15
3589020,23
3589648,23
3590276,18
3590896,17
3591524,17
3592148,12
3592772,28
3593404,19
3594024,14
3594652,13
3595284,10
3595904,13
3596536,16
3597160,15
3597788,29
3598420,60
3599040,102
3599720,65
3600344,17
3600968,24
3601596,34
3602216,25
3602844,23
3603476,16
3604096,11
3604724,13
3605348,17
3605976,17
3606608,19
3607224,18
3607852,15
3608476,19
3609100,14
3609728,30
3610352,37
3610980,21
3611604,15
3612228,10
3612856,14
3613472,31
3614100,21
3614732,10
3615352,11
3615980,10
3616604,12
3617236,12
3617864,13
3618488,12
3619116,11
3619740,17
3620364,20
3620996,20
3621616,20
3622244,35
3622868,68
3623492,87
3624124,74
3624744,47
3625372,16
3626004,11
3626624,19
3627252,126
3627928,159
3628604,68
3629228,30
3629848,43
3630476,55
3631100,30
3631728,18
3632356,18
3632984,13
3633612,12
3634244,14
3634864,17
3635496,15
3636120,15
3636740,15
3637372,12
3637992,12
3638620,13
3639244,15
3639868,15
3640500,12
3641120,11
3641748,12
3642380,12
3643000,13
3643628,12
3644252,11
3644884,11
3645512,10
3646136,12
3646764,10
3647388,17
3648012,13
3648640,19
3649264,21
3649892,20
3650516,13
3651140,52
3651772,45
3652392,15
3653020,28
3653652,38
3654272,17
3654904,11
3655528,11
3656156,14
3656788,10
3657408,20
3658036,26
3658664,19
3659288,19
3659916,14
3660536,13
3661168,40
3661792,63
3662416,56
3663044,28
3663664,21
3664296,11
3664924,23
3665544,56
3666176,19
3666800,21
3667428,31
3668060,22
3668680,20
3669308,16
3669932,12
3670560,12
3671188,14
3671808,24
3672440,15
3673064,14
3673688,19
3674316,16
3674936,14
3675568,12
3676196,12
3676816,13
3677444,28
3678068,40
3678700,31
3679332,31
3679952,27
3680584,23
3681208,12
3681832,14
3682464,23
3683080,15
3683712,20
3684336,21
3684960,17
3685588,16
3686216,17
3686848,26
3687476,26
3688096,17
3688724,11
3689344,13
3689976,15
3690604,11
3691224,13
3691852,16
3692476,15
3693100,17
3693728,42
3694352,78
3694980,67
3695604,22
3696228,10
3696860,11
3697480,12
3698112,15
3698740,18
3699360,16
3699988,14
3700612,11
3701244,15
3701872,19
3702492,31
3703120,33
3703744,24
3704368,20
3704996,23
3705616,33
3706244,45
3706868,31
3707492,31
3708124,37
3708748,20
3709380,11
3710008,12
3710632,14
3711264,12
3711888,17
3712520,23
3713148,17
3713768,11
3714396,21
3715020,22
3715644,21
3716276,14
3716896,13
3717524,15
3718156,16
3718776,16
3719404,35
3720028,19
3720660,11
3721288,27
3721908,46
3722536,52
3723160,48
3723784,44
3724412,40
3725032,34
3725660,31
3726284,101
3726960,96
3727592,57
3728216,34
3728844,31
3729472,28
3730096,40
3730724,25
3731348,14
3731976,11
3732604,16
3733224,23
3733852,26
3734476,16
3735100,21
3735732,14
3736352,11
3736980,13
3737612,11
3738232,12
3738860,12
3739484,12
3740116,13
3740748,14
3741368,12
3741996,20
3742624,21
3743248,29
3743876,23
3744496,25
3745128,25
3745752,24
3746376,33
3747008,24
3747624,12
3748256,37
3748884,55
3749504,58
3750136,13
3750760,93
3751388,102
3752072,27
3752688,17
3753320,23
3753944,23
3754568,19
3755196,11
3755816,11
3756448,11
3757080,17
3757696,20
3758328,22
3758952,32
3759584,32
3760216,24
3760832,14
3761460,12
3762088,35
3762712,27
3763344,19
3763960,28
3764588,19
3765216,15
3765840,17
3766468,11
3767088,15
3767720,14
3768348,23
3768968,35
3769596,17
3770220,12
3770852,14
3771484,14
3772104,14
3772736,18
3773360,16
3773984,12
3774616,20
3775232,15
3775864,12
3776488,18
3777112,19
3777740,13
3778360,12
3778992,11
3779620,10
3780240,11
3780868,44
3781492,61
3782124,26
3782756,14
3783376,32
3784008,51
3784628,51
3785256,43
3785884,36
3786504,33
3787136,15
3787760,77
3788384,97
3789016,77
3789640,53
3790268,22
3790900,12
3791520,21
3792148,23
3792772,15
3793404,15
3794036,29
3794656,34
3795284,25
3795908,17
3796532,11
3797164,13
3797784,40
3798416,79
3799044,14
3799664,14
3800296,13
3800920,15
3801548,33
3802180,54
3802800,49
3803428,12
3804056,20
3804680,31
3805312,35
3805928,29
3806560,13
3807184,13
3807808,25
3808440,16
3809060,18
3809692,16
3810320,21
3810940,14
3811568,10
3812192,10
3812824,21
3813452,12
3814072,61
3814704,41
3815328,14
3815952,50
3816584,80
3817200,78
3817832,67
3818456,49
3819080,22
3819712,12
3820328,78
3820960,173
3821640,136
3822316,28
3822944,53
3823568,75
3824192,64
3824824,53
3825444,33
3826072,20
3826704,23
3827324,14
3827956,33
3828580,77
3829212,38
3829844,34
3830464,34
3831096,25
3831720,16
3832344,20
3832976,16
3833592,43
3834224,31
3834852,22
3835476,19
3836108,11
3836728,11
3837360,20
3837992,38
3838620,47
3839252,43
3839876,43
3840512,29
3841140,14
3841760,18
3842388,39
3843012,68
3843636,72
3844264,30
3844888,14
3845516,10
3846140,10
3846768,13
3847396,11
3848020,16
3848652,15
3849280,19
3849900,27
3850528,27
3851152,27
3851780,28
3852412,26
3853032,17
3853660,18
3854284,53
3854908,61
3855540,51
3856160,17
3856788,17
3857420,23
3858040,24
3858668,21
3859292,23
3859924,34
3860552,29
3861172,28
3861800,18
3862424,43
3863048,43
3863676,36
3864296,51
3864928,35
3865552,13
3866176,53
3866804,100
3867476,123
3868156,106
3868836,81
3869456,65
3870084,16
3870708,136
3871388,171
3872068,123
3872740,99
3873360,99
3873988,27
3874608,15
3875236,11
3875868,28
3876488,25
3877116,11
3877744,37
3878372,23
3879004,13
3879624,18
3880256,15
3880880,15
3881504,12
3882136,10
3882752,12
3883384,11
3884008,14
3884632,16
3885264,13
3885880,17
3886512,15
3887144,15
3887760,13
3888392,13
3889016,13
3889648,12
3890276,10
3890896,11
3891528,12
3892148,12
3892772,16
3893404,16
3894024,15
3894652,17
3895276,11
3895900,10
3896532,15
3897156,49
3897788,66
3898416,20
3899040,27
3899668,43
3900292,45
3900924,25
3901556,13
3902176,13
3902808,29
3903432,29
3904056,138
3904736,89
3905352,13
3905980,22
3906612,12
3907232,25
3907860,21
3908484,21
3909116,18
3909748,14
3910368,12
3911000,11
3911624,11
3912248,11
3912876,10
3913496,11
3914128,11
3914756,11
3915376,12
3916008,13
3916632,13
3917264,13
3917892,11
3918512,13
3919144,16
3919768,18
3920392,16
3921020,16
3921640,17
3922268,15
3922892,15
3923516,36
3924148,35
3924768,23
3925400,18
3926028,18
3926648,18
3927280,14
3927904,15
3928532,45
3929164,74
3929784,67
3930416,42
3931040,21
3931664,11
3932296,11
3932912,43
3933540,111
3934224,66
3934840,19
3935468,25
3936092,31
3936724,23
3937352,12
3937968,30
3938600,17
3939224,31
3939848,76
3940476,82
3941096,44
3941728,18
3942352,15
3942976,13
3943604,18
3944224,26
3944852,19
3945484,21
3946104,32
3946732,19
3947356,29
3947988,25
3948620,13
3949240,14
3949868,14
3950496,24
3951120,20
3951748,38
3952368,14
3952996,31
3953620,45
3954244,44
3954876,39
3955496,17
3956124,50
3956756,83
3957376,77
3958008,62
3958632,15
3959260,13
3959892,10
3960512,11
3961140,11
3961768,11
3962392,15
3963024,18
3963640,14
3964268,11
3964892,18
3965520,16
3966148,12
3966768,15
3967400,24
3968028,16
3968648,16
3969276,15
3969900,17
3970532,22
3971160,22
3971784,26
3972416,59
3973040,41
3973664,14
3974292,12
3974912,13
3975540,12
3976164,12
3976788,12
3977420,12
3978040,11
3978668,11
3979300,10
3979920,11
3980552,11
3981176,11
3981804,11
3982436,11
3983056,15
3983688,16
3984312,15
3984936,19
3985564,22
3986184,20
3986812,13
3987440,11
3988064,11
3988692,17
3989320,19
3989948,63
3990580,34
3991200,23
3991832,45
3992456,44
3993088,35
3993720,30
3994336,25
3994964,52
3995588,111
3996264,86
3996892,80
3997516,23
3998148,16
3998780,22
3999400,37
4000032,43
4000652,29
4001280,22
4001912,30
4002528,51
4003156,65
4003784,51
4004408,21
4005036,32
4005656,136
4006336,130
4007020,71
4007640,35
4008268,23
4008892,36
4009516,37
4010148,34
4010768,14
4011396,38
4012024,32
4012648,11
4013276,11
4013900,13
4014532,17
4015160,24
4015784,31
4016412,15
4017036,16
4017668,34
4018296,41
4018912,12
4019544,33
4020168,18
4020788,22
4021420,30
4022040,67
4022668,57
4023292,12
4023920,37
4024552,49
4025172,42
4025804,15
4026432,38
4027056,64
4027684,53
4028308,48
4028936,58
4029564,39
4030184,13
4030816,22
4031440,18
4032064,15
4032692,15
4033312,15
4033940,13
4034572,14
4035192,13
4035820,12
4036448,14
4037076,35
4037708,46
4038328,44
4038960,40
4039584,36
4040208,38
4040836,60
4041456,20
4042084,75
4042712,79
4043336,68
4043964,57
4044584,53
4045216,14
4045844,10
4046464,11
4047092,11
4047716,52
4048348,63
4048976,18
4049600,13
4050228,13
4050852,17
4051476,31
4052108,38
4052728,41
4053356,29
4053984,14
4054608,14
4055240,33
4055856,39
4056488,12
4057116,30
4057736,28
4058364,20
4058988,15
4059620,14
4060248,10
4060872,17
4061500,45
4062124,32
4062752,16
4063380,10
4064000,11
4064628,26
4065252,32
4065880,30
4066508,11
4067128,27
4067760,39
4068388,47
4069008,47
4069640,41
4070264,41
4070896,30
4071524,24
4072144,83
4072772,59
4073400,13
4074024,23
4074656,15
4075272,42
4075904,45
4076528,33
4077152,15
4077784,11
4078408,32
4079036,29
4079668,11
4080288,23
4080916,29
4081540,33
4082172,12
4082804,38
4083424,13
4084052,18
4084680,19
4085304,42
4085932,72
4086552,47
4087184,12
4087812,12
4088432,11
4089064,28
4089688,141
4090368,66
4091000,40
4091620,18
4092248,23
4092872,14
4093500,41
4094132,31
4094752,23
4095384,24
4096016,14
4096636,91
4097264,89
4097884,37
4098512,16
4099140,11
4099760,18
4100388,31
4101008,29
4101636,15
4102264,10
4102888,11
4103516,11
4104140,11
4104760,11
4105388,12
4106008,13
4106636,11
4107260,12
4107880,12
4108508,13
4109132,14
4109760,14
4110388,14
4111008,13
4111636,11
4112260,13
4112888,11
4113516,15
4114136,13
4114764,29
4115388,37
4116012,51
4116640,73
4117256,45
4117884,12
4118508,16
4119132,12
4119760,47
4120376,24
4121008,157
4121688,140
4122352,62
4122980,44
4123604,34
4124228,13
4124856,15
4125472,13
4126100,12
4126728,11
4127352,10
4127980,10
4128604,10
4129232,10
4129864,10
4130480,11
4131108,11
4131732,11
4132360,15
4132988,12
4133608,11
4134236,11
4134860,12
4135484,11
4136112,10
4136736,9
4137312,12
4137944,11
4138564,12
4139196,10
4139816,11
4140444,11
4141076,11
4141696,12
4142324,15
4142948,31
4143576,31
4144208,28
4144824,22
4145456,15
4146080,12
4146700,51
4147332,76
4147952,47
4148580,15
4149204,29
4149828,21
4150456,26
4151072,23
4151700,21
4152332,22
4152952,21
4153580,31
4154208,56
4154836,55
4155468,14
4156088,44
4156716,27
4157344,36
4157968,47
4158596,108
4159268,95
4159896,83
4160524,53
4161140,32
4161772,13
4162392,11
4163024,13
4163652,37
4164272,60
4164900,65
4165524,69
4166148,50
4166780,26
4167400,37
4168028,51
4168652,83
4169272,65
4169900,13
4170520,37
4171148,48
4171772,14
4172400,32
4173028,25
4173652,21
4174280,19
4174912,58
4175528,44
4176156,24
4176780,28
4177412,25
4178040,54
4178656,72
4179284,82
4179908,71
4180532,57
4181160,23
4181776,107
4182456,173
4183132,76
4183752,89
4184380,93
4185004,47
4185628,11
4186256,25
4186872,23
4187500,13
4188124,14
4188748,18
4189380,16
4190000,16
4190628,15
4191260,15
4191880,22
4192508,27
4193132,24
4193764,19
4194392,14
4195012,10
4195640,14
4196264,60
4196888,54
4197516,18
4198136,11
4198768,15
4199388,13
4200012,14
4200640,14
4201256,15
4201884,11
4202512,10
4203136,12
4203764,23
4204388,41
4205016,43
4205648,13
4206264,15
4206892,15
4207516,20
4208140,53
4208768,26
4209392,31
4210020,49
4210644,16
4211268,35
4211896,27
4212516,10
4213144,15
4213772,12
4214392,11
4215020,11
4215644,11
4216276,14
4216908,16
4217528,17
4218160,12
4218784,12
4219408,11
4220036,10
4220656,10
4221284,11
4221908,11
4222532,12
4223164,11
4223784,11
4224416,11
4225044,11
4225664,12
4226292,12
4226916,10
4227544,14
4228172,22
4228792,13
4229420,41
4230044,46
4230668,15
4231300,21
4231920,17
4232548,40
4233172,34
4233796,14
4234428,16
4235048,12
4235676,16
4236308,16
4236928,12
4237556,14
4238180,21
4238812,16
4239440,10
4240064,13
4240692,14
4241316,15
4241940,21
4242568,34
4243184,54
4243816,59
4244440,18
4245060,17
4245692,10
4246312,46
4246944,44
4247572,69
4248192,31
4248820,12
4249444,15
4250076,42
4250704,86
4251328,79
4251956,35
4252580,16
4253204,35
4253836,46
4254456,46
4255084,36
4255708,14
4256336,19
4256964,20
4257584,55
4258212,54
4258844,33
4259464,22
4260092,12
4260716,27
4261348,124
4262028,184
4262700,66
4263324,16
4263956,32
4264576,30
4265204,32
4265828,53
4266456,61
4267084,48
4267704,40
4268332,30
4268956,47
4269580,25
4270212,92
4270832,37
4271460,21
4272084,41
4272708,15
4273336,58
4273960,77
4274588,63
4275220,46
4275840,21
4276468,14
4277092,19
4277720,44
4278352,82
4278972,165
4279652,108
4280332,56
4280952,17
4281580,14
4282204,19
4282836,19
4283464,17
4284084,17
4284712,15
4285336,16
4285960,14
4286588,13
4287208,17
4287836,24
4288464,45
4289084,38
4289716,34
4290336,27
4290964,19
4291596,12
4292216,27
4292844,36
4293468,19
4294100,28
4294728,10
4295352,32
4295984,96
4296608,64
4297232,14
4297860,35
4298480,37
4299108,15
4299736,18
4300360,14
4300992,12
4301608,11
4302236,19
4302864,10
4303488,17
4304116,14
4304740,31
4305368,22
4306000,27
4306616,12
4307244,14
4307868,36
4308492,30
4309120,12
4309744,13
4310372,14
4311000,24
4311624,90
4312252,96
4312872,45
4313500,21
4314132,11
4314752,27
4315380,32
4316008,31
4316636,21
4317268,14
4317888,19
4318516,19
4319144,16
4319768,15
4320400,11
4321016,15
4321644,32
4322268,12
4322892,17
4323520,11
4324140,11
4324768,17
4325396,37
4326016,28
4326644,10
4327268,13
4327900,13
4328528,11
4329144,37
4329776,43
4330400,17
4331024,11
4331652,11
4332272,13
4332900,12
4333524,12
4334148,12
4334780,12
4335400,20
4336028,21
4336660,21
4337280,18
4337908,11
4338532,24
4339164,29
4339796,23
4340416,22
4341048,18
4341672,32
4342296,40
4342924,36
4343544,50
4344172,61
4344796,35
4345424,13
4346052,23
4346672,57
4347304,67
4347932,58
4348552,35
4349184,25
4349808,24
4350436,39
4351068,98
4351688,100
4352372,26
4352992,42
4353612,13
4354244,30
4354864,34
4355492,17
4356120,11
4356744,27
4357372,37
4357996,13
4358628,13
4359256,13
4359880,23
4360508,14
4361132,30
4361756,19
4362388,10
4363008,13
4363636,11
4364260,11
4364884,12
4365512,14
4366136,25
4366764,19
4367396,22
4368016,12
4368644,12
4369268,17
4369896,18
4370528,21
4371148,16
4371776,11
4372400,11
4373024,13
4373656,14
4374276,15
4374904,11
4375528,12
4376156,15
4376784,14
4377404,13
4378036,15
4378664,12
4379288,11
4379916,21
4380544,23
4381172,11
4381804,18
4382424,20
4383052,11
4383676,37
4384304,51
4384932,22
4385552,52
4386184,36
4386804,39
4387428,33
4388060,19
4388684,42
4389312,86
4389944,27
4390564,12
4391192,27
4391816,19
4392448,64
4393076,41
4393696,16
4394324,11
4394948,12
4395576,20
4396204,114
4396876,92
4397504,23
4398132,12
4398752,16
4399384,13
4400008,15
4400636,15
4401268,32
4401888,35
4402520,44
4403144,36
4403768,16
4404400,11
4405016,20
4405644,34
4406268,56
4406896,49
4407524,13
4408148,13
4408780,12
4409408,18
4410032,34
4410660,40
4411284,43
4411912,42
4412540,40
4413160,14
4413792,57
4414416,44
4415040,43
4415668,19
4416288,16
4416916,28
4417548,37
4418168,13
4418796,85
4419420,160
4420104,119
4420780,15
4421400,50
4422032,45
4422660,29
4423280,19
4423908,16
4424532,15
4425164,12
4425792,12
4426412,13
4427040,17
4427664,13
4428292,11
4428924,10
4429544,10
4430172,11
4430796,11
4431420,11
4432052,14
4432672,28
4433300,39
4433932,62
4434552,112
4435232,110
4435908,68
4436528,47
4437156,32
4437776,30
4438408,113
4439088,165
4439756,21
4440384,52
4441008,22
4441632,73
4442260,82
4442880,114
4443560,109
4444244,59
4444864,54
4445492,49
4446116,13
4446740,21
4447372,24
4447992,25
4448624,23
4449248,22
4449872,19
4450500,18
4451120,14
4451752,15
4452380,24
4453000,24
4453632,24
4454256,21
4454888,20
4455516,18
4456136,19
4456764,23
4457392,26
4458016,25
4458644,42
4459264,46
4459896,36
4460520,13
4461144,27
4461776,74
4462392,80
4463024,51
4463656,47
4464276,14
4464904,12
4465528,16
4466160,17
4466788,13
4467408,13
4468036,11
4468660,11
4469288,12
4469916,14
4470536,16
4471168,19
4471792,18
4472416,15
4473044,13
4473672,13
4474300,22
4474932,12
4475552,24
4476184,19
4476808,19
4477436,11
4478068,30
4478688,89
4479320,60
4479948,14
4480572,17
4481204,14
4481824,15
4482452,13
4483084,26
4483704,19
4484332,13
4484956,24
4485588,30
4486220,12
4486840,13
4487468,70
4488092,175
4488768,154
4489444,104
4490116,94
4490744,68
4491372,108
4492044,300
4492724,221
4493404,141
4494076,96
4494704,65
4495328,66
4495952,34
4496584,21
4497200,42
4497828,15
4498460,12
4499080,17
4499712,13
4500336,13
4500968,21
4501596,20
4502216,25
4502848,40
4503472,58
4504096,55
4504728,29
4505344,51
4505976,18
4506600,14
4507220,17
4507852,18
4508472,19
4509100,14
4509732,10
4510352,12
4510984,14
4511608,15
4512236,24
4512864,26
4513488,36
4514116,39
4514740,37
4515364,16
4515996,38
4516616,15
4517244,17
4517868,78
4518492,42
4519124,11
4519748,23
4520376,12
4521004,36
4521624,45
4522252,18
4522876,18
4523508,29
4524140,36
4524760,41
4525392,49
4526016,21
4526640,11
4527268,15
4527888,21
4528516,22
4529140,15
4529764,27
4530396,46
4531020,21
4531652,19
4532280,57
4532904,102
4533584,125
4534260,74
4534880,31
4535508,39
4536136,81
4536764,105
4537448,53
4538064,21
4538692,64
4539320,141
4539996,120
4540676,54
4541296,19
4541928,13
4542556,11
4543176,19
4543808,32
4544432,25
4545056,24
4545684,23
4546304,19
4546936,19
4547560,17
4548180,15
4548812,11
4549432,12
4550064,15
4550692,12
4551312,11
4551944,13
4552568,11
4553196,11
4553828,26
4554448,17
4555076,12
4555704,19
4556328,24
4556960,30
4557576,13
4558204,22
4558832,21
4559456,22
4560084,21
4560708,13
4561340,65
4561968,39
4562592,23
4563220,35
4563844,40
4564476,29
4565104,30
4565728,14
4566360,14
4566984,15
4567608,14
4568236,12
4568856,17
4569484,19
4570112,20
4570736,24
4571368,29
4571992,38
4572624,15
4573252,37
4573872,13
4574504,35
4575128,35
4575752,19
4576384,55
4577004,25
4577632,11
4578256,11
4578880,12
4579508,20
4580128,11
4580760,22
4581392,25
4582012,22
4582640,28
4583268,39
4583896,28
4584528,13
4585148,11
4585776,19
4586404,12
4587028,35
4587660,55
4588280,41
4588908,21
4589532,11
4590156,13
4590788,14
4591408,36
4592040,66
4592668,60
4593288,47
4593916,17
4594540,19
4595172,17
4595804,59
4596424,105
4597104,70
4597728,23
4598356,42
4598984,76
4599608,61
4600240,18
4600868,10
4601488,14
4602120,25
4602744,40
4603372,49
4604004,50
4604624,35
4605256,18
4605880,25
4606504,11
4607136,12
4607752,47
4608388,87
4609008,62
4609632,19
4610260,31
4610880,108
4611564,166
4612240,96
4612856,21
4613484,24
4614108,12
4614732,12
4615360,39
4615980,26
4616608,13
4617236,13
4617856,12
4618484,27
4619108,34
4619740,28
4620368,21
4620992,21
4621620,19
4622244,17
4622868,12
4623500,18
4624120,21
4624748,12
4625372,15
4625996,16
4626628,13
4627248,13
4627876,15
4628508,26
4629128,18
4629756,11
4630380,13
4631012,21
4631644,18
4632264,19
4632892,47
4633516,41
4634144,33
4634772,14
4635392,13
4636020,13
4636644,13
4637272,15
4637900,40
4638520,68
4639152,69
4639780,58
4640400,51
4641028,47
4641652,31
4642280,24
4642912,99
4643528,98
4644160,87
4644784,97
4645408,103
4646088,50
4646704,12
4647332,20
4647964,22
4648584,20
4649212,22
4649836,22
4650468,18
4651096,11
4651716,11
4652344,11
4652968,11
4653592,10
4654224,12
4654844,11
4655472,10
4656096,12
4656720,17
4657348,34
4657968,35
4658596,28
4659228,24
4659848,18
4660476,33
4661100,16
4661732,87
4662360,85
4662984,57
4663616,11
4664240,13
4664864,15
4665492,29
4666112,20
4666740,12
4667368,14
4667992,16
4668624,16
4669240,15
4669872,13
4670500,14
4671120,17
4671752,13
4672376,12
4673004,12
4673632,17
4674256,29
4674884,19
4675508,19
4676132,20
4676764,10
4677384,19
4678012,28
4678640,37
4679264,37
4679892,18
4680516,34
4681148,56
4681776,33
4682400,20
4683028,12
4683652,13
4684284,15
4684916,16
4685536,17
4686164,39
4686788,69
4687412,73
4688044,54
4688664,39
4689292,25
4689916,26
4690544,123
4691224,146
4691900,30
4692520,41
4693148,26
4693768,13
4694396,22
4695024,26
4695648,21
4696280,27
4696904,19
4697536,31
4698168,58
4698784,33
4699416,23
4700040,13
4700672,14
4701300,22
4701920,28
4702552,46
4703176,61
4703800,111
4704484,105
4705156,92
4705784,74
4706416,55
4707032,18
4707664,179
4708340,237
4709012,141
4709692,113
4710364,61
4710988,11
4711616,27
4712236,25
4712864,22
4713492,21
4714112,19
4714744,19
4715368,25
4715996,18
4716628,18
4717248,15
4717876,11
4718504,15
4719128,12
4719760,26
4720376,25
4721008,24
4721632,12
4722256,20
4722884,25
4723504,28
4724136,20
4724764,12
4725384,13
4726016,14
4726640,23
4727268,25
4727900,21
4728520,24
4729152,27
4729776,17
4730400,68
4731032,81
4731648,19
4732280,13
4732904,14
4733528,17
4734160,11
4734776,15
4735408,19
4736040,25
4736656,24
4737284,19
4737908,19
4738540,19
4739172,22
4739792,37
4740424,24
4741048,15
4741672,51
4742304,81
4742920,31
4743552,18
4744176,12
4744800,15
4745428,19
4746056,30
4746688,43
4747316,81
4747936,147
4748620,36
4749240,12
4749864,19
4750496,70
4751120,106
4751804,71
4752432,20
4753048,21
4753676,13
4754304,108
4754984,202
4755660,83
4756280,13
4756912,31
4757540,35
4758160,47
4758792,42
4759416,32
4760048,15
4760676,28
4761296,33
4761928,59
4762552,69
4763176,23
4763804,12
4764424,23
4765052,31
4765680,28
4766304,24
4766932,16
4767560,11
4768188,11
4768820,11
4769440,10
4770068,11
4770696,15
4771324,22
4771956,20
4772576,18
4773208,12
4773832,20
4774456,27
4775084,26
4775704,38
4776336,20
4776960,10
4777584,13
4778216,50
4778840,40
4779472,22
4780104,13
4780720,11
4781352,13
4781976,12
4782600,12
4783232,12
4783852,11
4784484,12
4785108,11
4785732,13
4786364,20
4786984,21
4787616,29
4788248,29
4788864,22
4789496,19
4790120,15
4790752,44
4791384,47
4792004,46
4792632,31
4793260,11
4793884,20
4794516,45
4795136,61
4795768,62
4796396,38
4797020,21
4797652,28
4798276,47
4798908,27
4799540,14
4800160,39
4800792,74
4801416,121
4802096,135
4802772,80
4803392,15
4804020,19
4804652,32
4805272,12
4805900,16
4806524,20
4807156,19
4807788,16
4808408,17
4809036,31
4809660,46
4810284,27
4810916,18
4811536,11
4812168,12
4812792,33
4813416,53
4814044,32
4814668,16
4815300,11
4815932,12
4816552,17
4817180,13
4817808,12
4818436,11
4819064,11
4819688,19
4820316,16
4820940,15
4821564,33
4822196,36
4822816,34
4823448,20
4824076,12
4824696,33
4825324,60
4825952,88
4826580,68
4827212,52
4827832,17
4828464,13
4829088,11
4829712,22
4830344,11
4830960,12
4831592,17
4832216,23
4832840,29
4833472,31
4834092,32
4834720,37
4835348,22
4835968,13
4836596,19
4837224,27
4837852,28
4838484,77
4839104,63
4839732,27
4840356,25
4840980,14
4841612,44
4842232,73
4842864,89
4843488,67
4844112,21
4844740,14
4845360,51
4845988,119
4846672,125
4847340,64
4847968,17
4848592,21
4849216,27
4849844,73
4850464,68
4851096,51
4851724,16
4852344,24
4852976,11
4853600,47
4854232,31
4854860,24
4855480,47
4856112,75
4856736,65
4857360,21
4857992,13
4858608,13
4859240,12
4859864,11
4860488,13
4861120,16
4861736,17
4862368,15
4863000,14
4863620,15
4864252,16
4864876,15
4865504,13
4866132,12
4866752,18
4867380,28
4868004,29
4868628,30
4869260,23
4869880,23
4870508,35
4871136,21
4871760,136
4872440,98
4873064,37
4873696,18
4874324,11
4874944,19
4875572,17
4876200,13
4876824,11
4877452,10
4878072,11
4878704,13
4879328,25
4879952,27
4880584,21
4881200,13
4881832,14
4882460,19
4883080,37
4883712,82
4884336,23
4884968,11
4885596,10
4886216,11
4886848,12
4887472,11
4888096,16
4888724,19
4889344,25
4889976,26
4890600,20
4891224,21
4891852,14
4892472,14
4893104,20
4893732,16
4894352,23
4894984,33
4895608,32
4896240,22
4896868,29
4897488,52
4898116,101
4898796,44
4899416,30
4900048,48
4900664,60
4901296,47
4901924,15
4902544,55
4903176,119
4903852,78
4904472,25
4905104,12
4905724,25
4906352,45
4906980,62
4907604,71
4908236,65
4908856,47
4909488,30
4910120,39
4910740,99
4911368,110
4912048,94
4912664,29
4913296,11
4913912,13
4914548,19
4915172,23
4915800,33
4916428,35
4917048,24
4917676,19
4918308,20
4918928,23
4919556,32
4920180,60
4920812,26
4921440,11
4922060,12
4922688,13
4923312,12
4923936,15
4924564,13
4925184,14
4925812,10
4926436,13
4927060,11
4927692,10
4928312,13
4928940,13
4929572,14
4930192,12
4930820,15
4931444,30
4932076,52
4932704,62
4933328,57
4933956,43
4934580,44
4935204,40
4935836,30
4936456,59
4937084,64
4937708,25
4938332,26
4938964,12
4939588,14
4940216,26
4940844,14
4941464,12
4942092,11
4942716,24
4943348,26
4943976,46
4944600,80
4945228,99
4945856,66
4946480,13
4947108,19
4947728,21
4948356,14
4948984,18
4949608,19
4950236,17
4950860,15
4951492,11
4952124,12
4952744,14
4953376,13
4954000,15
4954628,12
4955260,15
4955880,21
4956512,23
4957136,23
4957760,21
4958388,16
4959008,11
4959640,33
4960272,49
4960888,42
4961516,43
4962140,27
4962772,12
4963400,18
4964024,19
4964652,14
4965276,22
4965900,20
4966532,11
4967152,11
4967780,12
4968404,13
4969028,11
4969656,10
4970280,11
4970908,11
4971540,11
4972160,13
4972788,14
4973416,13
4974044,12
4974676,12
4975296,16
4975928,32
4976552,33
4977176,25
4977804,23
4978424,19
4979052,42
4979680,53
4980304,62
4980932,29
4981552,16
4982184,17
4982812,12
4983432,13
4984064,11
4984688,11
4985316,27
4985948,32
4986568,12
4987200,18
4987824,27
4988448,28
4989076,24
4989696,15
4990328,22
4990952,31
4991576,11
4992208,16
4992832,38
4993460,61
4994092,86
4994712,77
4995344,21
4995968,16
4996596,81
4997228,142
4997900,93
4998528,34
4999148,12
4999776,27
5000404,64
5001028,82
5001660,40
5002288,21
5002904,34
5003536,47
5004160,50
5004788,47
5005420,40
5006040,30
5006672,30
5007296,13
5007920,33
5008552,17
5009168,12
5009796,41
5010424,15
5011048,72
5011680,69
5012304,43
5012932,23
5013564,10
5014184,15
5014816,35
5015440,41
5016072,23
5016700,21
5017320,31
5017952,14
5018576,41
5019200,12
5019828,16
5020448,11
5021076,13
5021708,34
5022328,47
5022960,14
5023584,17
5024212,13
5024844,11
5025464,11
5026092,10
5026720,11
5027344,11
5027972,10
5028592,11
5029224,11
5029848,11
5030472,12
5031100,11
5031720,13
5032352,14
5032980,11
5033600,11
5034228,11
5034856,13
5035488,21
5036120,20
5036736,11
5037368,11
5037996,11
5038620,11
5039252,12
5039872,13
5040504,15
5041128,19
5041752,16
5042384,11
5043000,22
5043632,31
5044264,28
5044880,25
5045512,25
5046136,29
5046768,13
5047396,56
5048016,79
5048648,65
5049272,22
5049896,15
5050524,22
5051144,16
5051776,16
5052400,20
5053024,19
5053656,17
5054280,12
5054912,11
5055544,11
5056164,13
5056792,14
5057416,13
5058048,16
5058676,26
5059296,36
5059928,33
5060552,28
5061176,31
5061808,21
5062424,11
5063056,11
5063688,14
5064304,22
5064936,19
5065560,14
5066192,28
5066824,48
5067444,97
5068076,53
5068700,15
5069328,57
5069956,148
5070628,62
5071256,18
5071888,37
5072508,42
5073136,31
5073764,19
5074392,13
5075024,14
5075648,28
5076280,40
5076908,12
5077532,10
5078164,12
5078784,12
5079416,13
5080044,13
5080668,12
5081296,12
5081920,12
5082548,12
5083180,12
5083800,11
5084432,11
5085056,15
5085688,21
5086316,24
5086936,23
5087568,19
5088192,12
5088816,15
5089448,22
5090064,27
5090696,29
5091324,21
5091948,15
5092580,10
5093204,18
5093836,26
5094468,40
5095088,71
5095720,65
5096344,15
5096968,14
5097596,30
5098220,50
5098848,116
5099532,130
5100204,39
5100832,16
5101456,21
5102088,16
5102716,17
5103336,39
5103972,56
5104596,48
5105224,22
5105856,14
5106472,16
5107104,35
5107740,19
5108360,19
5108992,41
5109620,82
5110252,65
5110884,16
5111504,24
5112136,20
5112764,67
5113392,56
5114024,74
5114644,29
5115276,48
5115900,72
5116532,66
5117164,19
5117788,11
5118424,52
5119056,39
5119676,41
5120312,46
5120932,28
5121556,22
5122184,14
5122800,26
5123428,35
5124052,29
5124672,17
5125304,11
5125920,11
5126548,10
5127176,10
5127796,11
5128424,13
5129048,16
5129676,15
5130304,13
5130920,14
5131552,15
5132176,13
5132804,11
5133432,11
5134052,12
5134680,13
5135304,12
5135928,11
5136556,11
5137176,12
5137804,11
5138428,10
5139056,12
5139684,12
5140308,12
5140940,11
5141568,13
5142192,17
5142820,20
5143444,23
5144068,17
5144700,10
5145320,13
5145948,36
5146572,78
5147196,49
5147828,14
5148448,12
5149076,11
5149708,11
5150328,12
5150960,13
5151580,31
5152212,40
5152840,37
5153464,28
5154092,17
5154716,27
5155340,24
5155972,64
5156592,75
5157224,14
5157844,36
5158472,36
5159100,23
5159720,12
5160348,50
5160980,60
5161600,28
5162228,15
5162852,38
5163480,31
5164112,31
5164728,61
5165360,31
5165984,23
5166608,33
5167236,29
5167856,13
5168484,12
5169108,13
5169732,13
5170364,12
5170984,13
5171616,12
5172244,11
5172864,16
5173492,20
5174116,28
5174748,21
5175376,14
5175992,12
5176624,13
5177248,32
5177872,39
5178504,24
5179120,17
5179752,17
5180376,17
5181000,13
5181628,13
5182248,14
5182876,27
5183508,14
5184128,25
5184756,17
5185380,12
5186012,26
5186640,29
5187256,15
5187888,43
5188512,53
5189136,33
5189764,14
5190384,14
5191016,19
5191640,15
5192264,13
5192892,12
5193512,11
5194144,11
5194772,10
5195392,11
5196024,11
5196648,11
5197280,15
5197908,16
5198528,16
5199156,18
5199784,31
5200408,50
5201036,51
5201656,41
5202284,39
5202908,47
5203532,39
5204164,102
5204836,120
5205512,65
5206144,42
5206760,16
5207388,19
5208012,23
5208636,15
5209268,10
5209888,12
5210516,11
5211148,10
5211768,17
5212400,29
5213024,31
5213652,23
5214284,12
5214904,18
5215536,18
5216160,72
5216784,21
5217412,12
5218032,12
5218660,11
5219288,11
5219912,11
5220540,18
5221160,33
5221792,36
5222420,32
5223040,23
5223668,13
5224292,13
5224924,12
5225552,50
5226172,83
5226800,80
5227424,46
5228052,28
5228680,90
5229300,117
5229980,92
5230608,64
5231224,47
5231856,15
5232480,108
5233160,248
5233844,145
5234516,14
5235144,25
5235776,43
5236392,35
5237024,15
5237648,36
5238280,34
5238908,15
5239528,11
5240160,13
5240784,14
5241408,11
5242040,10
5242656,10
5243288,11
5243916,10
5244536,11
5245164,11
5245788,11
5246416,12
5247048,12
5247664,13
5248296,13
5248916,13
5249540,14
5250168,12
5250792,13
5251420,11
5252044,13
5252664,15
5253292,18
5253912,25
5254540,34
5255164,42
5255792,30
5256420,23
5257044,50
5257672,58
5258300,62
5258920,33
5259548,47
5260172,35
5260800,16
5261428,10
5262048,14
5262676,12
5263300,11
5263924,13
5264556,13
5265176,17
5265804,12
5266428,12
5267056,11
5267684,11
5268308,12
5268940,13
5269568,25
5270184,34
5270816,34
5271440,32
5272068,21
5272700,20
5273320,35
5273952,73
5274572,43
5275196,21
5275828,14
5276448,13
5277076,17
5277708,12
5278328,12
5278956,16
5279580,21
5280212,27
5280840,24
5281464,25
5282092,27
5282716,15
5283340,28
5283968,30
5284584,22
5285212,57
5285836,75
5286460,39
5287088,12
5287704,13
5288332,13
5288956,15
5289584,15
5290212,13
5290836,15
5291468,12
5292096,13
5292720,16
5293348,16
5293972,15
5294600,12
5295228,12
5295848,15
5296476,41
5297100,54
5297724,25
5298356,14
5298976,12
5299604,12
5300236,10
5300856,28
5301484,21
5302108,28
5302740,33
5303368,25
5303984,28
5304616,76
5305240,46
5305864,16
5306492,29
5307112,29
5307740,26
5308368,13
5308992,19
5309620,63
5310240,107
5310920,31
5311552,12
5312168,23
5312800,22
5313420,13
5314052,17
5314684,19
5315304,16
5315932,30
5316556,37
5317180,41
5317812,46
5318432,51
5319060,56
5319692,44
5320312,21
5320940,13
5321568,25
5322196,26
5322828,74
5323448,27
5324080,18
5324704,25
5325328,95
5325956,52
5326576,49
5327204,70
5327828,72
5328452,29
5329080,11
5329696,16
5330324,18
5330952,17
5331576,17
5332204,18
5332828,23
5333456,29
5334088,51
5334704,60
5335332,61
5335956,57
5336584,45
5337212,16
5337832,27
5338460,112
5339144,98
5339760,22
5340388,24
5341012,13
5341644,11
5342272,15
5342892,23
5343520,16
5344144,34
5344772,83
5345404,70
5346024,16
5346652,23
5347276,30
5347900,29
5348528,27
5349144,22
5349776,36
5350404,15
5351024,46
5351652,16
5352276,15
5352908,15
5353536,11
5354156,14
5354784,15
5355408,15
5356040,29
5356668,34
5357288,20
5357916,11
5358544,11
5359168,12
5359796,10
5360416,14
5361044,29
5361676,43
5362296,43
5362924,45
5363548,45
5364180,60
5364808,84
5365432,18
5366060,64
5366684,83
5367308,101
5367992,38
5368608,13
5369236,55
5369868,91
5370488,35
5371116,14
5371744,16
5372372,14
5373004,15
5373624,13
5374252,11
5374880,11
5375504,10
5376136,10
5376752,11
5377380,10
5378004,11
5378624,11
5379256,10
5379872,12
5380500,19
5381128,31
5381752,35
5382380,33
5383004,29
5383636,31
5384264,31
5384888,16
5385516,16
5386140,16
5386764,27
5387396,38
5388016,71
5388644,85
5389268,41
5389892,14
5390524,11
5391144,11
5391776,11
5392404,10
5393024,13
5393652,30
5394276,30
5394908,24
5395536,16
5396160,24
5396788,13
5397412,66
5398040,65
5398668,26
5399288,12
5399916,13
5400544,15
5401168,16
5401800,18
5402416,23
5403044,29
5403676,24
5404296,18
5404924,12
5405548,12
5406180,13
5406812,34
5407432,28
5408060,11
5408684,10
5409308,13
5409936,11
5410552,12
5411180,33
5411808,15
5412432,13
5413060,24
5413680,24
5414308,20
5414940,32
5415560,19
5416188,22
5416812,24
5417444,57
5418072,44
5418696,13
5419324,25
5419952,33
5420576,23
5421204,11
5421824,13
5422452,18
5423080,17
5423704,50
5424332,44
5424952,12
5425580,17
5426212,18
5426832,15
5427464,25
5428084,27
5428716,12
5429344,13
5429968,13
5430596,22
5431220,41
5431844,42
5432476,24
5433096,12
5433724,11
5434348,14
5434976,15
5435604,13
5436228,11
5436860,11
5437488,13
5438112,13
5438744,12
5439368,18
5439996,26
5440628,34
5441248,35
5441876,31
5442500,17
5443124,11
5443752,33
5444376,69
5445004,67
5445628,26
5446256,24
5446884,16
5447508,13
5448140,11
5448768,12
5449384,11
5450012,12
5450636,17
5451268,21
5451896,20
5452516,14
5453144,11
5453768,11
5454388,11
5455020,21
5455640,34
5456268,36
5456892,38
5457520,30
5458148,35
5458772,37
5459404,24
5460032,37
5460648,12
5461276,15
5461900,35
5462532,88
5463160,86
5463784,114
5464464,35
5465092,17
5465712,21
5466340,32
5466964,43
5467596,23
5468224,44
5468848,46
5469476,56
5470100,77
5470728,35
5471356,49
5471976,148
5472660,173
5473336,71
5473960,26
5474588,11
5475212,18
5475844,17
5476472,20
5477096,21
5477728,17
5478352,11
5478976,11
5479608,12
5480224,12
5480852,26
5481484,24
5482104,19
5482732,35
5483360,44
5483988,41
5484620,42
5485240,49
5485868,25
5486492,15
5487116,22
5487748,72
5488368,89
5489000,64
5489624,33
5490248,30
5490876,12
5491496,13
5492124,12
5492756,24
5493376,35
5494008,36
5494628,43
5495260,44
5495888,37
5496512,27
5497140,15
5497768,24
5498388,38
5499020,20
5499640,26
5500268,15
5500896,94
5501520,138
5502200,68
5502824,40
5503456,14
5504088,27
5504704,27
5505332,22
5505956,15
5506580,24
5507208,35
5507832,22
5508460,11
5509088,10
5509712,10
5510340,11
5510960,12
5511588,18
5512220,23
5512840,29
5513468,31
5514096,19
5514724,12
5515356,15
5515976,19
5516608,15
5517232,14
5517856,20
5518488,22
5519104,31
5519736,15
5520360,14
5520984,21
5521612,12
5522232,13
5522864,13
5523492,12
5524112,20
5524744,23
5525368,27
5526000,18
5526628,11
5527248,15
5527880,13
5528504,29
5529128,44
5529760,26
5530376,37
5531004,20
5531628,29
5532252,16
5532884,17
5533508,31
5534136,40
5534764,32
5535384,26
5536012,26
5536636,25
5537268,11
5537900,32
5538520,72
5539152,105
5539828,92
5540448,89
5541076,21
5541704,138
5542384,209
5543060,177
5543732,164
5544408,63
5545036,32
5545656,14
5546284,11
5546908,16
5547536,36
5548164,81
5548784,72
5549416,94
5550040,104
5550716,64
5551344,44
5551968,30
5552600,12
5553232,11
5553848,93
5554480,91
5555104,48
5555728,74
5556360,99
5556980,56
5557608,14
5558232,16
5558856,21
5559488,25
5560104,29
5560736,34
5561368,14
5561984,41
5562616,28
5563240,14
5563872,13
5564500,32
5565120,13
5565752,21
5566376,21
5567000,20
5567632,19
5568256,14
5568888,11
5569512,16
5570136,17
5570768,12
5571384,13
5572012,12
5572644,12
5573264,12
5573892,17
5574520,19
5575148,20
5575780,16
5576400,13
5577028,10
5577652,11
5578276,12
5578908,10
5579528,10
5580160,14
5580784,13
5581408,13
5582036,11
5582664,11
5583292,11
5583924,11
5584544,17
5585172,11
5585800,12
5586428,29
5587060,14
5587680,14
5588308,12
5588936,13
5589560,13
5590192,14
5590808,17
5591440,15
5592068,13
5592688,21
5593316,19
5593944,13
5594572,13
5595204,20
5595824,21
5596456,26
5597080,18
5597704,13
5598336,12
5598956,11
5599584,14
5600212,26
5600836,16
5601464,28
5602084,21
5602712,19
5603340,31
5603960,38
5604588,21
5605212,13
5605844,43
5606476,49
5607096,56
5607724,25
5608348,94
5608972,67
5609604,12
5610224,19
5610856,102
5611536,153
5612212,63
5612836,14
5613460,15
5614088,24
5614716,28
5615336,36
5615968,26
5616592,19
5617216,19
5617844,37
5618464,45
5619092,32
5619724,43
5620344,38
5620976,32
5621600,25
5622228,16
5622860,14
5623480,60
5624112,71
5624736,77
5625360,107
5626044,79
5626664,24
5627296,13
5627924,22
5628544,25
5629176,27
5629800,27
5630432,44
5631060,30
5631680,12
5632312,11
5632936,15
5633560,33
5634188,54
5634808,46
5635436,41
5636060,50
5636684,37
5637312,16
5637936,20
5638564,65
5639196,147
5639868,146
5640544,78
5641168,27
5641792,12
5642420,16
5643040,21
5643668,18
5644300,13
5644920,12
5645548,11
5646172,14
5646804,15
5647432,18
5648052,21
5648680,25
5649304,23
5649928,16
5650556,17
5651176,13
5651808,12
5652432,25
5653056,20
5653684,11
5654304,11
5654932,12
5655564,11
5656184,13
5656812,13
5657436,13
5658068,14
5658696,10
5659320,42
5659948,69
5660576,67
5661200,81
5661828,88
5662448,81
5663076,35
5663704,114
5664380,66
5665004,80
5665628,110
5666312,61
5666936,47
5667552,33
5668184,14
5668804,68
5669428,19
5670060,22
5670680,22
5671308,19
5671936,16
5672560,17
5673188,15
5673816,13
5674444,12
5675076,10
5675696,11
5676324,11
5676952,11
5677576,10
5678208,10
5678824,11
5679452,11
5680080,12
5680704,11
5681332,12
5681952,12
5682580,13
5683212,12
5683832,11
5684460,11
5685084,16
5685716,17
5686348,12
5686968,13
5687596,11
5688224,13
5688848,13
5689476,26
5690096,43
5690724,19
5691352,16
5691976,25
5692608,24
5693228,18
5693856,15
5694488,13
5695104,12
5695736,49
5696360,63
5696988,46
5697620,19
5698240,17
5698868,12
5699492,12
5700116,14
5700748,14
5701368,14
5702000,13
5702624,15
5703248,14
5703876,11
5704496,12
5705124,14
5705756,12
5706376,16
5707008,15
5707632,14
5708264,13
5708892,14
5709512,11
5710144,11
5710768,11
5711392,11
5712024,11
5712640,11
5713268,12
5713896,17
5714520,29
5715152,29
5715768,19
5716400,17
5717032,22
5717648,19
5718280,34
5718908,11
5719540,16
5720168,20
5720792,16
5721424,48
5722048,57
5722672,22
5723304,25
5723920,28
5724552,13
5725180,24
5725804,18
5726436,11
5727060,17
5727692,15
5728324,12
5728944,23
5729576,31
5730200,19
5730824,14
5731456,44
5732076,98
5732708,68
5733332,16
5733960,29
5734592,42
5735208,37
5735836,53
5736468,43
5737088,15
5737716,60
5738340,52
5738972,41
5739600,34
5740224,24
5740852,12
5741476,11
5742100,10
5742732,22
5743352,41
5743984,49
5744608,50
5745232,44
5745860,36
5746480,33
5747108,19
5747740,67
5748360,71
5748992,51
5749616,59
5750244,73
5750876,38
5751496,15
5752128,25
5752752,30
5753376,35
5754008,50
5754624,38
5755256,14
5755880,15
5756504,13
5757136,16
5757752,74
5758384,87
5759016,49
5759636,17
5760268,10
5760888,12
5761516,18
5762144,20
5762768,23
5763396,21
5764020,18
5764644,19
5765272,18
5765888,32
5766520,24
5767140,15
5767764,12
5768396,24
5769016,29
5769644,18
5770272,22
5770896,24
5771524,12
5772148,23
5772780,43
5773412,50
5774032,32
5774664,37
5775288,19
5775912,11
5776540,11
5777160,13
5777788,11
5778412,10
5779036,11
5779668,11
5780292,12
5780920,15
5781552,13
5782168,19
5782800,42
5783424,65
5784052,70
5784684,53
5785304,43
5785936,49
5786556,19
5787180,163
5787864,160
5788532,62
5789156,21
5789788,25
5790408,13
5791036,30
5791664,32
5792288,25
5792916,17
5793536,20
5794164,32
5794792,27
5795416,11
5796044,13
5796664,19
5797292,34
5797924,74
5798544,72
5799172,31
5799796,17
5800428,11
5801056,10
5801680,16
5802308,19
5802932,19
5803556,20
5804188,18
5804808,15
5805436,13
5806060,12
5806688,12
5807316,11
5807944,10
5808572,10
5809204,10
5809824,11
5810456,17
5811080,29
5811712,12
5812340,31
5812960,31
5813588,35
5814216,18
5814840,28
5815472,29
5816088,22
5816720,22
5817348,11
5817968,15
5818596,17
5819220,22
5819852,12
5820484,28
5821104,19
5821736,20
5822360,32
5822984,15
5823616,44
5824232,55
5824864,47
5825488,16
5826112,33
5826744,19
5827360,16
5827988,12
5828620,25
5829240,14
5829868,13
5830492,11
5831124,15
5831756,12
5832376,11
5833004,11
5833632,11
5834256,11
5834884,11
5835504,14
5836136,17
5836760,15
5837384,13
5838016,12
5838636,16
5839264,15
5839896,37
5840512,16
5841144,12
5841768,27
5842396,27
5843028,20
5843648,21
5844276,12
5844900,37
5845524,68
5846156,71
5846776,36
5847408,15
5848032,11
5848652,11
5849284,10
5849904,10
5850532,11
5851164,10
5851784,19
5852416,30
5853040,32
5853668,21
5854300,14
5854920,23
5855552,48
5856176,53
5856800,47
5857432,63
5858048,55
5858680,21
5859304,57
5859928,90
5860560,51
5861176,22
5861808,35
5862436,26
5863056,55
5863684,31
5864308,30
5864940,22
5865572,84
5866192,92
5866824,36
5867448,87
5868072,68
5868704,26
5869320,26
5869952,53
5870576,36
5871200,73
5871832,129
5872508,106
5873188,69
5873816,38
5874436,13
5875068,17
5875692,23
5876316,33
5876948,38
5877576,37
5878208,32
5878836,44
5879456,39
5880088,13
5880712,16
5881344,13
5881972,14
5882592,15
5883224,11
5883848,14
5884472,20
5885104,27
5885724,24
5886356,92
5886988,94
5887608,45
5888240,14
5888864,16
5889496,18
5890124,12
5890744,11
5891372,10
5892000,11
5892624,12
5893252,12
5893872,12
5894504,13
5895128,11
5895752,12
5896384,11
5897000,11
5897632,13
5898264,11
5898880,14
5899508,16
5900132,11
5900764,12
5901396,16
5902016,22
5902644,21
5903268,18
5903896,24
5904524,24
5905144,35
5905772,28
5906400,15
5907024,16
5907652,11
5908272,11
5908904,13
5909532,36
5910152,63
5910784,47
5911408,33
5912040,19
5912668,12
5913288,19
5913920,17
5914544,16
5915168,11
5915796,17
5916416,28
5917048,13
5917672,13
5918296,15
5918928,16
5919544,14
5920176,14
5920804,16
5921424,26
5922052,18
5922676,17
5923308,13
5923936,19
5924560,47
5925188,12
5925812,33
5926440,13
5927068,12
5927688,44
5928316,64
5928944,117
5929620,56
5930244,12
5930868,14
5931500,23
5932132,20
5932752,16
5933384,17
5934008,23
5934632,32
5935264,35
5935884,29
5936512,25
5937140,14
5937764,30
5938396,50
5939020,45
5939652,12
5940284,12
5940904,14
5941532,39
5942156,25
5942788,10
5943420,14
5944040,20
5944668,22
5945292,27
5945916,13
5946548,14
5947168,15
5947800,21
5948428,11
5949048,15
5949680,16
5950300,22
5950932,35
5951564,20
5952184,11
5952812,13
5953436,17
5954060,15
5954692,12
5955312,13
5955940,13
5956568,13
5957192,11
5957820,13
5958440,18
5959068,24
5959700,16
5960320,11
5960948,11
5961572,11
5962204,39
5962836,72
5963456,62
5964088,19
5964712,14
5965336,17
5965964,20
5966584,21
5967212,23
5967840,21
5968464,23
5969092,29
5969712,18
5970344,21
5970972,28
5971592,15
5972224,12
5972848,12
5973476,25
5974108,13
5974728,37
5975360,40
5975984,37
5976608,23
5977240,11
5977860,46
5978492,48
5979116,16
5979740,45
5980372,52
5980996,33
5981628,31
5982260,26
5982880,45
5983508,109
5984188,73
5984808,34
5985436,35
5986056,15
5986688,15
5987312,24
5987936,19
5988568,44
5989192,63
5989824,69
5990452,49
5991072,44
5991700,26
5992328,25
5992956,66
5993588,182
5994260,62
5994888,17
5995512,11
5996136,13
5996768,22
5997392,30
5998024,40
5998656,39
5999272,23
5999904,15
6000532,14
6001160,16
6001788,13
6002408,35
6003036,28
6003664,13
6004288,12
6004916,11
6005536,14
6006168,15
6006796,14
6007416,13
6008048,11
6008672,15
6009300,11
6009932,10
6010552,11
6011184,11
6011808,10
6012432,12
6013064,11
6013680,24
6014312,31
6014936,57
6015564,79
6016196,83
6016816,82
6017444,69
6018076,22
6018696,27
6019324,97
6019952,187
6020632,180
6021316,117
6021988,36
6022616,12
6023244,14
6023864,13
6024496,11
6025120,16
6025744,18
6026372,17
6026992,15
6027624,15
6028248,18
6028872,24
6029500,32
6030120,37
6030752,33
6031384,22
6032000,11
6032628,22
6033256,59
6033884,51
6034516,30
6035136,11
6035768,11
6036392,14
6037016,13
6037648,12
6038268,12
6038900,11
6039524,11
6040152,11
6040784,10
6041400,10
6042032,10
6042664,11
6043284,12
6043912,19
6044536,23
6045168,24
6045796,38
6046416,15
6047048,12
6047672,16
6048296,12
6048924,31
6049544,21
6050176,13
6050800,20
6051424,13
6052056,15
6052680,18
6053312,15
6053940,13
6054560,19
6055192,15
6055816,12
6056448,13
6057076,16
6057696,16
6058328,19
6058952,19
6059576,15
6060208,12
6060828,20
6061456,31
6062088,13
6062708,11
6063336,11
6063964,12
6064596,12
6065224,10
6065848,11
6066480,12
6067104,11
6067728,10
6068360,10
6068980,11
6069608,11
6070232,12
6070856,12
6071488,13
6072108,11
6072740,11
6073372,12
6073992,13
6074624,13
6075248,15
6075880,11
6076508,13
6077128,10
6077760,11
6078384,14
6079008,12
6079640,12
6080264,12
6080896,21
6081520,54
6082144,89
6082776,99
6083400,121
6084080,129
6084756,141
6085428,60
6086056,138
6086736,151
6087412,81
6088040,221
6088720,266
6089388,130
6090068,15
6090688,35
6091312,39
6091944,37
6092564,36
6093196,35
6093820,34
6094444,13
6095072,22
6095696,14
6096328,13
6096956,18
6097576,15
6098208,19
6098832,14
6099464,11
6100092,11
6100712,11
6101344,12
6101968,15
6102592,17
6103224,16
6103840,15
6104472,19
6105104,23
6105720,17
6106352,37
6106976,61
6107608,31
6108236,10
6108856,20
6109488,29
6110112,18
6110736,18
6111368,16
6111988,15
6112620,14
6113244,12
6113872,13
6114500,11
6115120,10
6115752,11
6116384,10
6117004,10
6117636,10
6118260,11
6118892,11
6119524,10
6120144,11
6120776,12
6121400,13
6122024,12
6122656,12
6123272,12
6123904,13
6124532,10
6125156,11
6125788,10
6126412,10
6127044,28
6127676,33
6128300,28
6128928,21
6129556,14
6130184,13
6130816,11
6131436,11
6132068,11
6132692,11
6133320,15
6133952,17
6134572,20
6135204,24
6135832,58
6136460,73
6137088,63
6137716,54
6138348,48
6138980,34
6139600,18
6140232,103
6140908,114
6141580,68
6142208,27
6142836,72
6143468,114
6144152,76
6144768,15
6145396,35
6146020,50
6146644,51
6147272,42
6147888,37
6148516,15
6149148,40
6149768,38
6150396,15
6151020,17
6151652,20
6152284,12
6152904,39
6153536,14
6154160,13
6154784,13
6155412,13
6156032,13
6156660,11
6157288,12
6157912,11
6158540,10
6159160,11
6159792,11
6160420,10
6161040,12
6161668,12
6162292,11
6162924,13
6163552,12
6164176,13
6164804,12
6165428,11
6166052,10
6166684,10
6167304,11
6167932,11
6168560,11
6169184,11
6169812,11
6170436,12
6171068,13
6171700,16
6172320,23
6172948,19
6173572,17
6174204,12
6174836,10
6175456,13
6176088,23
6176708,32
6177332,19
6177964,35
6178584,30
6179212,17
6179836,60
6180464,99
6181096,66
6181720,27
6182352,25
6182984,23
6183600,18
6184232,11
6184856,18
6185480,21
6186108,31
6186728,41
6187360,29
6187984,23
6188608,18
6189240,15
6189856,31
6190488,20
6191116,12
6191736,25
6192368,22
6192992,20
6193624,23
6194252,22
6194872,24
6195504,20
6196128,26
6196752,37
6197384,15
6198000,30
6198632,34
6199256,41
6199880,36
6200512,31
6201128,12
6201760,13
6202388,31
6203008,70
6203640,55
6204264,20
6204896,21
6205524,11
6206144,23
6206776,13
6207400,79
6208024,70
6208652,15
6209272,51
6209904,12
6210528,13
6211152,33
6211784,30
6212404,38
6213032,97
6213664,45
6214284,22
6214912,21
6215540,31
6216172,45
6216800,31
6217424,21
6218056,21
6218680,16
6219304,53
6219936,76
6220556,52
6221188,25
6221812,46
6222436,29
6223068,18
6223692,16
6224324,15
6224956,67
6225576,76
6226208,29
6226832,14
6227464,13
6228092,30
6228712,12
6229344,15
6229968,12
6230592,19
6231224,24
6231840,27
6232472,38
6233100,37
6233720,30
6234352,25
6234976,23
6235608,34
6236236,28
6236856,40
6237484,93
6238112,117
6238788,90
6239416,29
6240036,11
6240664,11
6241292,13
6241912,16
6242544,19
6243168,30
6243800,34
6244428,27
6245048,19
6245680,14
6246304,20
6246928,19
6247560,47
6248176,12
6248804,10
6249428,12
6250052,11
6250684,10
6251304,16
6251936,16
6252564,11
6253184,22
6253812,24
6254440,21
6255068,24
6255700,24
6256320,21
6256948,17
6257576,15
6258200,14
6258832,11
6259448,14
6260080,27
6260704,40
6261328,38
6261960,24
