tempo_arduino_micro_s,valor_ADC
500,11
1004,13
1504,18
2000,16
2508,13
3000,11
3508,13
4000,12
4508,17
5000,23
5500,18
6000,11
6500,22
7004,33
7500,35
8000,39
8500,44
9000,40
9500,24
10000,14
10516,12
11036,15
11564,19
12084,17
12612,13
13132,11
13660,16
14180,25
14708,26
15228,19
15756,11
16276,10
16796,14
17316,14
17836,13
18356,10
18876,15
19396,20
19916,17
20436,16
20956,15
21476,15
21996,10
22516,10
23036,10
23564,10
24084,22
24612,33
25132,37
25660,36
26180,30
26708,24
27228,17
27756,13
28276,14
28804,17
29324,14
29852,13
30372,12
30900,12
31420,11
31948,10
32472,11
32996,13
33516,20
34044,22
34564,27
35092,28
35612,21
36140,12
36660,14
37188,20
37708,19
38236,16
38760,15
39284,16
39804,20
40332,21
40852,19
41372,14
41892,14
42412,14
42932,11
43452,10
43972,13
44492,19
45012,20
45532,18
46052,16
46572,13
47092,10
47612,11
48140,14
48660,14
49188,15
49708,20
50236,21
50756,21
51284,21
51804,22
52332,23
52852,15
53380,12
53900,13
54428,14
54948,13
55476,13
55996,20
56524,27
57044,29
57572,34
58096,37
58620,33
59140,25
59668,20
60188,12
60716,12
61240,16
61764,12
62284,11
62812,11
63332,10
63860,11
64384,11
64908,10
65428,11
65948,10
66468,11
66988,12
67508,17
68028,20
68548,16
69068,13
69588,12
70108,12
70628,12
71148,12
71668,12
72192,18
72716,11
73236,12
73764,26
74284,35
74812,38
75332,34
75860,26
76380,23
76908,18
77428,14
77956,12
78476,12
79004,12
79528,14
80052,15
80572,11
81100,12
81620,12
82148,16
82668,19
83196,22
83716,23
84244,16
84764,16
85292,18
85812,17
86340,12
86860,11
87388,12
87908,12
88436,12
88956,19
89484,24
90004,25
90524,25
91044,24
91564,23
92084,23
92604,25
93124,22
93644,16
94164,14
94684,11
95208,12
95724,12
96248,12
96764,12
97292,13
97812,11
98340,10
98860,11
99388,11
99908,11
100436,14
101000,16
101584,16
102156,20
102736,16
103304,13
103880,12
104456,12
105024,11
105600,16
106168,21
106744,21
107312,22
107896,17
108464,15
109040,19
109624,16
110192,11
110768,12
111336,11
111920,11
112492,12
113072,11
113640,10
114216,11
114800,10
115368,11
115952,10
116520,12
117104,12
117676,14
118252,17
118832,20
119400,18
119984,16
120556,17
121136,13
121704,13
122288,17
122856,19
123436,22
124016,27
124584,30
125168,25
125736,21
126320,15
126888,12
127464,19
128048,26
128616,22
129192,15
129760,12
130344,14
130912,18
131496,27
132064,23
132640,17
133216,16
133784,16
134360,13
134928,11
135512,17
136084,15
136656,12
137232,12
137800,11
138384,13
138952,14
139536,17
140104,22
140688,23
141260,19
141832,19
142416,17
142984,14
143568,11
144136,12
144720,11
145288,12
145864,12
146440,11
147008,11
147592,11
148160,11
148744,12
149312,12
149896,10
150464,16
151040,20
151624,17
152196,14
152776,12
153348,12
153928,11
154504,12
155088,11
155664,13
156232,18
156816,27
157384,30
157968,25
158540,17
159120,16
159692,11
160268,11
160848,11
161416,12
161992,14
162560,11
163144,11
163716,10
164296,12
164872,11
165440,10
166016,11
166584,10
167168,12
167736,18
168320,18
168888,24
169456,23
170032,18
170600,12
171184,13
171756,15
172336,19
172904,22
173488,24
174056,19
174636,18
175216,15
175784,18
176368,12
176936,11
177520,11
178088,11
178664,13
179248,21
179816,17
180392,18
180960,11
181544,11
182112,13
182696,11
183264,16
183840,29
184424,42
184992,33
185568,13
186136,20
186720,29
187288,26
187864,17
188448,11
189016,12
189600,19
190168,24
190752,23
191324,24
191904,17
192476,13
193048,13
193632,13
194200,14
194784,13
195352,12
195936,11
196504,13
197080,14
197664,11
198236,11
198816,11
199384,11
199968,11
200540,12
201120,18
201688,23
202264,19
202848,14
203420,12
204000,12
204568,14
205152,13
205720,11
206288,16
206864,24
207432,31
208008,33
208576,26
209152,19
209720,14
210304,21
210872,24
211448,18
212032,16
212600,11
213176,14
213744,15
214328,17
214900,15
215480,11
216048,14
216624,16
217208,18
217776,19
218360,16
218928,18
219512,16
220084,19
220656,18
221240,12
221808,14
222392,27
222964,34
223544,37
224116,29
224696,26
225264,24
225844,17
226424,16
226992,21
227576,25
228144,17
228728,12
229296,11
229872,11
230456,11
231024,11
231608,11
232176,11
232760,11
233332,15
233912,22
234484,25
235056,24
235640,20
236208,15
236792,11
237364,11
237944,11
238516,14
239092,18
239672,24
240244,26
240824,25
241392,17
241976,13
242544,11
243128,11
243700,14
244272,20
244856,19
245424,16
246008,11
246576,11
247160,11
247728,11
248304,11
248888,11
249456,15
250040,12
250608,13
251192,19
251764,19
252344,15
252916,13
253492,13
254072,13
254644,11
255224,15
255796,16
256376,19
256952,19
257520,15
258104,18
258672,18
259248,13
259816,9
260340,12
260912,12
261496,13
262064,11
262640,14
263224,15
263792,13
264376,14
264944,11
265528,11
266100,10
266680,15
267248,27
267824,32
268408,27
268976,18
269560,12
270128,18
270712,23
271284,19
271856,24
272440,26
273008,26
273592,25
274164,15
274744,13
275316,22
275896,16
276468,13
277044,11
277624,13
278196,13
278776,11
279348,12
279928,15
280500,16
281072,11
281656,11
282224,12
282800,11
283368,16
283952,21
284524,28
285104,25
285676,19
286252,12
286832,13
287400,13
287984,12
288556,14
289136,21
289704,29
290280,30
290864,28
291436,30
292016,22
292584,19
293168,17
293736,14
294320,11
294892,11
295464,12
296048,13
296616,11
297200,11
297768,17
298352,17
298924,11
299496,14
300080,24
300652,28
301232,19
301804,11
302384,11
302956,13
303536,20
304116,20
304692,17
305272,21
305844,26
306424,23
306996,21
307576,15
308152,20
308732,17
309312,10
309884,14
310464,18
311032,13
311616,14
312196,14
312776,13
313352,11
313924,11
314504,11
315076,11
315656,13
316228,18
316808,21
317380,24
317956,24
318536,18
319108,12
319688,14
320260,15
320840,12
321408,12
321984,15
322552,19
323132,22
323712,19
324284,17
324864,17
325432,16
326016,11
326588,11
327160,13
327744,15
328312,13
328896,14
329464,15
330040,15
330608,11
331192,11
331764,14
332336,19
332920,18
333488,18
334064,17
334632,20
335216,21
335784,18
336360,15
336944,11
337512,12
338096,19
338664,24
339248,29
339816,25
340392,17
340964,14
341536,15
342120,16
342688,20
343272,20
343844,17
344424,11
344992,11
345568,15
346152,15
346724,15
347304,11
347876,11
348456,12
349024,14
349608,12
350176,18
350756,19
351336,18
351908,22
352488,26
353064,19
353648,15
354216,15
354796,12
355376,11
355948,11
356528,13
357096,14
357680,17
358252,26
358832,31
359408,34
359984,37
360568,27
361136,14
361720,12
362288,15
362872,15
363444,14
364020,11
364600,11
365172,12
365752,14
366324,15
366904,17
367476,15
368056,16
368624,17
369204,15
369784,13
370352,12
370936,13
371508,15
372088,27
372656,26
373236,19
373816,12
374384,11
374968,10
375540,15
376120,17
376692,20
377272,20
377844,18
378420,17
379000,12
379572,11
380152,11
380724,11
381304,14
381884,11
382460,10
383040,15
383612,18
384192,22
384764,21
385344,16
385912,13
386496,12
387068,11
387644,12
388224,13
388792,17
389376,22
389952,25
390536,24
391104,22
391684,24
392264,19
392836,16
393416,17
393988,15
394568,14
395136,14
395720,13
396304,10
396876,10
397456,14
398028,14
398608,12
399180,15
399760,17
400340,15
400912,18
401496,18
402068,17
402648,16
403216,12
403800,15
404372,13
404948,13
405528,15
406100,15
406680,21
407252,25
407832,23
408404,21
408984,21
409556,21
410132,17
410712,12
411280,13
411864,12
412432,15
413016,14
413584,11
414160,11
414744,12
415312,12
415896,14
416468,10
417048,17
417616,19
418200,18
418768,17
419344,16
419928,12
420496,11
421080,13
421648,17
422232,23
422804,23
423376,21
423952,19
424524,14
425104,13
425672,15
426256,20
426824,18
427408,14
427980,12
428556,11
429136,11
429708,12
430288,14
430856,13
431440,11
432008,12
432592,11
433168,13
433740,19
434320,20
434892,18
435472,13
436040,13
436624,12
437192,14
437772,11
438352,11
438924,11
439504,13
440076,18
440656,22
441224,26
441808,27
442384,24
442956,19
443536,15
444108,12
444688,11
445260,11
445840,11
446412,11
446988,11
447568,10
448140,10
448720,11
449288,13
449872,13
450444,16
451024,19
451600,19
452168,18
452752,18
453324,13
453904,12
454476,13
455056,15
455628,18
456204,19
456784,19
457356,13
457936,12
458508,13
459088,13
459660,16
460240,19
460816,18
461384,15
461960,12
462532,11
463112,10
463684,10
464264,12
464832,15
465408,15
465992,14
466560,17
467144,22
467716,16
468296,15
468868,14
469448,13
470024,13
470596,11
471176,13
471748,11
472328,16
472896,26
473480,29
474052,28
474628,23
475208,20
475780,18
476360,15
476932,13
477512,12
478084,18
478664,20
479240,18
479812,15
480392,13
480964,10
481544,10
482116,11
482696,11
483268,22
483840,32
484424,34
484996,29
485576,21
486148,16
486728,12
487304,18
487888,24
488464,24
489036,24
489616,22
490184,18
490768,19
491340,23
491920,20
492496,11
493072,11
493656,14
494228,14
494808,12
495376,12
495960,13
496532,11
497108,11
497688,12
498256,15
498840,14
499412,11
499992,15
500564,16
501144,21
501716,24
502292,13
502872,11
503444,15
504024,13
504596,11
505176,15
505748,20
506324,27
506904,27
507476,27
508056,21
508628,14
509208,10
509788,10
510368,12
510940,12
511516,14
512100,11
512668,13
513248,11
513816,13
514400,20
514968,19
515544,13
516128,11
516696,19
517280,24
517848,14
518432,11
519000,13
519584,12
520156,16
520728,19
521312,11
521880,12
522464,17
523032,24
523616,25
524184,22
524760,21
525344,13
525916,11
526496,14
527064,15
527648,16
528216,15
528800,13
529368,13
529948,11
530528,12
531100,13
531680,14
532260,14
532840,12
533408,11
533988,13
534568,13
535136,12
535720,11
536292,11
536872,13
537444,14
538024,15
538592,19
539168,18
539752,16
540324,17
540904,14
541472,18
542056,18
542628,15
543204,15
543784,14
544356,13
544936,12
545508,12
546088,13
546656,11
547240,11
547808,15
548388,12
548968,13
549540,17
550120,27
550692,26
551272,21
551844,17
552420,11
553000,12
553568,16
554152,18
554724,22
555304,22
555876,26
556456,29
557028,26
557604,19
558184,15
558756,10
559336,14
559908,12
560488,12
561064,11
561644,12
562224,13
562796,11
563376,9
563896,11
564472,11
565044,10
565624,11
566196,11
566772,13
567352,17
567924,18
568504,16
569076,13
569656,11
570224,12
570808,13
571380,14
571956,15
572536,16
573108,19
573688,17
574264,19
574848,17
575420,16
575996,15
576580,14
577148,11
577728,15
578300,15
578880,15
579448,13
580032,10
580600,11
581180,11
581760,14
582332,11
582912,11
583492,16
584072,17
584652,19
585228,19
585808,14
586380,11
586960,15
587532,15
588112,16
588684,17
589264,15
589848,15
590420,11
591000,14
591572,18
592152,15
592732,11
593312,11
593884,11
594460,11
595040,11
595612,11
596192,10
596764,10
597344,11
597916,11
598492,11
599072,11
599644,10
600224,13
600796,15
601376,15
601956,14
602536,12
603108,14
603684,17
604264,14
604836,12
605416,10
605988,14
606568,24
607148,23
607724,23
608304,19
608876,12
609456,11
610028,12
610608,13
611180,12
611764,12
612340,12
612916,11
613496,11
614072,12
614652,15
615224,15
615808,13
616380,19
616956,19
617536,13
618108,11
618688,11
619260,13
619840,12
620412,11
620992,11
621564,11
622140,16
622720,23
623292,26
623872,19
624452,19
625032,25
625604,24
626180,19
626760,14
627332,11
627912,11
628484,11
629064,11
629636,11
630216,11
630800,10
631372,12
631952,13
632528,16
633104,19
633684,20
634264,25
634836,24
635412,19
635992,14
636568,12
637144,15
637724,15
638304,14
638884,15
639460,17
640044,20
640612,19
641192,26
641764,29
642344,21
642916,16
643496,14
644068,12
644640,11
645224,18
645792,19
646376,13
646948,10
647528,12
648100,13
648672,11
649256,11
649828,14
650408,13
650976,14
651560,15
652132,14
652712,13
653292,12
653868,13
654448,13
655020,15
655600,17
656176,18
656760,21
657328,22
657904,17
658488,14
659056,13
659640,12
660208,15
660792,14
661364,12
661944,11
662512,14
663088,15
663672,11
664244,11
664824,17
665392,18
665976,13
666544,15
667120,19
667704,19
668272,19
668856,16
669424,15
670008,15
670576,16
671160,11
671732,15
672308,23
672888,26
673456,19
674040,22
674608,22
675192,15
675764,12
676340,12
676920,12
677488,11
678072,11
678644,11
679224,11
679792,11
680376,10
680944,11
681524,11
682104,16
682676,16
683256,17
683828,15
684408,13
684980,15
685552,12
686136,14
686708,12
687288,13
687860,14
688440,15
689008,19
689592,23
690164,23
690740,18
691320,21
691888,19
692472,15
693044,11
693624,11
694196,11
694772,12
695352,11
695924,13
696504,10
697076,11
697656,11
698224,11
698808,11
699380,11
699956,15
700536,23
701108,24
701688,22
702268,16
702848,11
703420,13
703996,14
704580,17
705148,20
705728,18
706300,16
706880,19
707456,19
708040,17
708616,16
709188,15
709768,20
710340,16
710920,14
711500,11
712080,14
712660,11
713236,11
713816,11
714388,11
714968,13
715548,17
716128,18
716708,16
717284,17
717864,26
718436,27
719016,15
719588,12
720168,11
720736,12
721320,19
721888,29
722468,32
723048,34
723620,27
724200,24
724772,24
725352,12
725924,11
726500,11
727080,11
727652,13
728232,11
728804,11
729384,10
729956,10
730536,10
731108,10
731684,10
732264,15
732836,17
733416,17
733988,15
734568,16
735148,18
735724,15
736304,11
736880,13
737456,15
738028,12
738608,13
739176,22
739760,27
740340,26
740916,22
741496,19
742068,10
742648,11
743224,12
743808,13
744380,14
744956,11
745536,13
746108,14
746688,13
747260,11
747840,9
748360,10
748936,12
749508,16
750084,17
750664,19
751236,18
751816,14
752392,13
752968,12
753548,13
754128,14
754712,11
755284,13
755864,23
756436,28
757016,29
757596,26
758180,22
758756,14
759332,11
759912,13
760488,13
761064,12
761636,12
762216,14
762788,12
763364,10
763944,11
764516,11
765096,13
765672,13
766248,17
766828,19
767408,25
767988,23
768564,19
769144,13
769712,11
770296,12
770868,15
771448,17
772020,22
772596,23
773176,21
773748,23
774328,25
774900,19
775480,14
776052,10
776632,11
777204,11
777780,11
778360,13
778932,12
779512,10
780084,10
780664,11
781236,11
781812,11
782392,10
782964,11
783544,14
784116,19
784696,23
785268,20
785848,22
786428,18
787004,11
787584,15
788156,17
788736,17
789316,19
789896,26
790476,22
791052,23
791632,26
792204,20
792784,11
793364,13
793944,14
794524,13
795100,12
795680,12
796252,12
796832,11
797404,10
797984,10
798564,11
799144,14
799724,17
800300,20
800880,30
801448,32
802032,17
802604,11
803184,12
803756,13
804332,11
804912,15
805484,18
806064,22
806636,23
807216,24
807788,22
808368,12
808940,11
809516,10
810096,13
810668,15
811248,18
811828,18
812408,15
812988,12
813564,11
814144,11
814716,14
815296,12
815872,10
816448,13
817028,18
817608,19
818192,17
818764,15
819344,12
819916,13
820496,13
821064,11
821640,10
822208,16
822784,28
823368,35
823936,33
824520,19
825088,15
825672,13
826240,19
826824,24
827400,18
827968,14
828552,11
829124,13
829704,15
830272,14
830856,14
831428,12
832004,10
832584,11
833152,12
833728,13
834296,14
834880,17
835448,16
836032,12
836600,14
837180,12
837760,11
838328,19
838912,21
839484,26
840064,28
840632,22
841208,15
841792,15
842360,13
842944,11
843512,11
844096,11
844664,11
845248,13
845816,11
846392,11
846976,11
847544,10
848128,10
848696,11
849280,10
849848,11
850428,15
851008,19
851580,20
852160,14
852728,12
853312,12
853884,14
854464,13
855036,16
855612,17
856192,22
856764,27
857344,25
857916,26
858496,19
859068,14
859644,11
860224,12
860792,13
861376,13
861948,11
862528,12
863100,11
863680,12
864252,13
864824,14
865408,14
865976,16
866560,19
867128,27
867712,23
868284,13
868860,13
869440,15
870012,16
870592,15
871164,17
871744,19
872316,22
872896,25
873468,22
874044,22
874624,15
875196,11
875776,10
876356,11
876936,13
877516,16
878092,18
878672,17
879244,11
879824,10
880396,12
880976,13
881544,11
882128,11
882704,13
883276,14
883856,18
884424,18
885008,19
885580,19
886160,21
886740,15
887316,11
887896,15
888468,23
889048,29
889620,30
890200,28
890772,27
891348,24
891928,19
892500,12
893080,11
893652,15
894232,16
894804,13
895384,11
895956,12
896532,12
897112,11
897684,11
898264,13
898836,17
899416,19
899988,24
900564,24
901144,23
901712,19
902296,14
902868,13
903448,12
904020,15
904600,21
905172,28
905748,30
906328,27
906900,22
907480,18
908052,12
908632,12
909204,16
909780,21
910360,19
910932,14
911512,12
912084,13
912664,13
913236,10
913816,9
914336,10
914908,11
915488,17
916060,16
916640,14
917212,13
917792,16
918364,19
918944,18
919524,13
920100,12
920680,17
921252,22
921832,24
922408,25
922992,27
923564,24
924140,23
924720,18
925292,11
925872,10
926444,11
927024,11
927596,11
928176,13
928752,14
929332,11
929912,11
930484,10
931064,11
931636,10
932216,10
932796,11
933372,15
933952,18
934524,21
935104,15
935676,12
936256,11
936836,12
937416,11
938000,12
938572,11
939152,12
939724,16
940304,19
940884,24
941464,23
942036,21
942612,15
943192,13
943764,14
944344,13
944924,11
945504,11
946076,11
946652,13
947232,12
947804,11
948384,10
948956,11
949536,12
950108,15
950688,17
951268,15
951844,13
952424,16
952996,13
953576,12
954156,10
954736,11
955316,13
955892,24
956472,31
957048,26
957624,23
958196,19
958776,15
959356,17
959940,19
960524,15
961096,12
961672,12
962244,12
962824,11
963396,10
963976,10
964548,14
965124,16
965704,18
966276,16
966856,14
967428,21
968008,30
968588,19
969168,16
969744,13
970316,12
970896,16
971468,25
972048,30
972628,28
973212,24
973788,24
974364,20
974944,17
975516,12
976096,11
976676,11
977256,11
977828,12
978404,12
978984,14
979556,11
980136,11
980708,11
981288,11
981868,11
982448,13
983028,16
983604,18
984184,19
984752,22
985336,18
985908,13
986488,11
987056,13
987636,14
988216,18
988784,25
989368,27
989940,25
990520,19
991092,13
991672,13
992252,10
992828,11
993408,11
993980,11
994560,11
995132,11
995712,11
996292,11
996868,11
997448,11
998020,11
998600,10
999172,12
999752,14
1000324,18
1000948,18
1001576,13
1002200,12
1002828,12
1003452,13
1004076,15
1004704,16
1005324,19
1005952,19
1006576,13
1007196,15
1007828,17
1008452,17
1009080,15
1009712,19
1010328,15
1010956,12
1011580,12
1012212,13
1012840,11
1013456,11
1014084,11
1014708,11
1015332,11
1015960,12
1016584,15
1017212,16
1017836,20
1018460,15
1019092,13
1019716,13
1020344,12
1020972,12
1021592,19
1022220,23
1022848,29
1023476,29
1024108,25
1024724,18
1025352,14
1025972,13
1026596,11
1027224,13
1027836,16
1028468,13
1029088,12
1029708,14
1030340,16
1030960,12
1031588,11
1032216,13
1032832,18
1033460,20
1034084,18
1034712,17
1035340,14
1035960,13
1036588,11
1037212,12
1037832,14
1038460,16
1039076,22
1039708,22
1040332,20
1040952,19
1041580,14
1042200,14
1042828,16
1043448,14
1044072,12
1044700,12
1045324,15
1045952,12
1046580,10
1047196,10
1047828,10
1048448,10
1049080,11
1049708,10
1050324,14
1050952,24
1051576,27
1052200,21
1052828,16
1053444,12
1054076,18
1054696,26
1055320,33
1055952,34
1056568,29
1057196,22
1057828,12
1058448,11
1059076,10
1059700,14
1060328,16
1060956,16
1061576,14
1062204,12
1062828,10
1063452,10
1064080,11
1064696,11
1065324,13
1065948,17
1066568,23
1067196,20
1067816,16
1068444,12
1069072,12
1069696,13
1070324,12
1070948,13
1071576,19
1072204,19
1072824,19
1073452,15
1074072,20
1074696,19
1075328,14
1075944,13
1076572,12
1077192,13
1077816,11
1078444,11
1079064,11
1079692,12
1080312,11
1080936,10
1081564,11
1082188,10
1082816,16
1083448,22
1084064,27
1084692,20
1085316,12
1085948,12
1086576,11
1087192,11
1087820,13
1088444,17
1089068,19
1089696,24
1090312,31
1090940,31
1091564,23
1092188,14
1092816,11
1093432,12
1094060,13
1094692,14
1095312,13
1095940,11
1096564,13
1097192,16
1097820,10
1098440,11
1099068,11
1099692,11
1100316,12
1100944,14
1101568,16
1102196,13
1102820,12
1103444,12
1104072,13
1104688,14
1105320,19
1105948,24
1106568,21
1107196,16
1107820,17
1108448,21
1109080,19
1109696,17
1110324,12
1110948,11
1111572,12
1112204,13
1112824,16
1113452,15
1114076,10
1114700,11
1115332,10
1115952,12
1116584,15
1117212,19
1117832,19
1118460,13
1119084,13
1119716,12
1120348,13
1120968,12
1121596,14
1122220,19
1122844,23
1123472,25
1124092,24
1124720,17
1125344,14
1125968,12
1126596,11
1127212,12
1127844,11
1128472,13
1129088,19
1129716,15
1130340,10
1130968,11
1131596,10
1132216,15
1132844,15
1133468,14
1134092,14
1134720,15
1135336,17
1135964,12
1136592,14
1137216,16
1137844,16
1138464,19
1139092,18
1139724,17
1140344,16
1140972,17
1141596,13
1142228,10
1142856,12
1143472,13
1144104,13
1144728,12
1145352,13
1145980,11
1146600,13
1147228,13
1147852,11
1148476,12
1149104,18
1149728,23
1150356,19
1150988,20
1151608,21
1152236,17
1152860,17
1153488,14
1154116,12
1154736,25
1155364,28
1155984,24
1156612,27
1157244,32
1157864,22
1158492,11
1159116,11
1159736,12
1160368,13
1160984,14
1161612,13
1162236,12
1162860,11
1163488,15
1164112,13
1164740,10
1165372,10
1165992,15
1166620,20
1167244,23
1167876,30
1168504,30
1169120,18
1169748,12
1170372,16
1170996,22
1171624,28
1172248,32
1172876,32
1173500,30
1174128,21
1174756,11
1175380,11
1176012,11
1176640,13
1177256,15
1177888,16
1178512,14
1179140,12
1179768,10
1180392,11
1181020,12
1181644,15
1182268,21
1182900,22
1183520,23
1184148,26
1184780,20
1185400,17
1186028,12
1186652,14
1187280,17
1187912,23
1188528,36
1189156,39
1189780,35
1190404,26
1191032,16
1191656,10
1192284,12
1192908,17
1193532,12
1194164,11
1194784,11
1195412,14
1196044,14
1196664,11
1197292,20
1197916,23
1198548,21
1199180,23
1199800,24
1200428,16
1201052,16
1201676,28
1202304,31
1202928,29
1203556,20
1204180,13
1204804,12
1205432,12
1206052,10
1206680,13
1207308,12
1207928,17
1208556,23
1209180,19
1209812,17
1210440,13
1211056,17
1211688,20
1212312,18
1212936,20
1213564,16
1214184,11
1214812,20
1215436,22
1216060,19
1216692,20
1217312,21
1217940,26
1218572,26
1219192,25
1219820,21
1220444,13
1221076,39
1221704,46
1222328,43
1222956,35
1223584,15
1224208,10
1224836,10
1225456,11
1226084,12
1226708,13
1227336,17
1227964,14
1228584,14
1229216,11
1229844,12
1230464,15
1231092,12
1231716,12
1232344,16
1232972,22
1233592,27
1234220,27
1234844,30
1235468,30
1236096,14
1236712,18
1237340,31
1237964,35
1238588,37
1239216,34
1239840,23
1240468,25
1241096,31
1241720,24
1242348,16
1242972,12
1243600,12
1244228,11
1244848,12
1245476,13
1246100,16
1246724,13
1247356,12
1247976,11
1248608,11
1249228,11
1249852,21
1250484,28
1251104,30
1251732,18
1252364,11
1252984,19
1253612,23
1254236,16
1254868,13
1255496,18
1256112,20
1256744,13
1257368,15
1257992,22
1258620,20
1259240,23
1259868,18
1260492,12
1261116,13
1261748,10
1262368,11
1262996,11
1263628,10
1264248,12
1264876,15
1265500,17
1266132,19
1266760,16
1267384,19
1268012,17
1268636,14
1269260,12
1269892,10
1270512,11
1271140,16
1271764,16
1272388,17
1273020,20
1273640,22
1274268,25
1274900,22
1275520,18
1276148,11
1276772,14
1277404,17
1278036,14
1278656,13
1279288,13
1279912,12
1280536,11
1281164,16
1281780,20
1282408,11
1283032,16
1283656,21
1284284,18
1284900,17
1285532,16
1286160,11
1286776,13
1287404,16
1288028,16
1288656,17
1289284,20
1289904,21
1290532,17
1291156,10
1291780,11
1292412,16
1293032,16
1293660,15
1294280,13
1294904,12
1295532,10
1296152,11
1296780,11
1297404,11
1298024,10
1298652,11
1299276,14
1299908,17
1300536,19
1301152,21
1301780,15
1302404,13
1303032,14
1303660,15
1304280,14
1304908,20
1305532,26
1306156,27
1306788,20
1307408,12
1308036,11
1308660,10
1309284,11
1309912,11
1310536,13
1311164,17
1311796,14
1312416,13
1313044,14
1313664,11
1314292,11
1314920,10
1315536,15
1316164,16
1316784,11
1317408,16
1318036,12
1318656,13
1319284,12
1319904,11
1320528,12
1321156,14
1321772,21
1322404,28
1323032,18
1323648,17
1324276,19
1324900,12
1325528,11
1326156,12
1326776,12
1327404,15
1328028,16
1328648,19
1329276,12
1329896,11
1330524,11
1331148,11
1331772,13
1332400,12
1333020,11
1333652,14
1334280,16
1334896,17
1335524,20
1336148,16
1336776,14
1337404,28
1338024,33
1338652,26
1339272,25
1339904,23
1340532,18
1341152,12
1341780,12
1342404,11
1343024,12
1343656,14
1344272,12
1344900,12
1345520,11
1346144,11
1346772,14
1347396,13
1348024,10
1348652,10
1349272,15
1349900,29
1350524,29
1351152,13
1351780,11
1352400,12
1353028,14
1353648,18
1354272,21
1354900,14
1355520,16
1356148,16
1356772,18
1357396,17
1358024,10
1358640,14
1359268,11
1359896,20
1360520,23
1361148,16
1361772,12
1362400,11
1363028,12
1363648,12
1364276,10
1364900,12
1365520,15
1366148,14
1366768,17
1367396,19
1368020,16
1368640,13
1369268,12
1369888,14
1370516,13
1371144,14
1371768,17
1372396,18
1373020,23
1373648,23
1374280,20
1374896,11
1375524,11
1376148,12
1376772,15
1377404,14
1378024,12
1378652,11
1379276,13
1379896,13
1380528,11
1381144,11
1381772,11
1382396,12
1383024,17
1383652,22
1384276,24
1384904,18
1385532,11
1386152,16
1386780,19
1387404,21
1388032,27
1388664,22
1389280,14
1389908,12
1390532,18
1391156,20
1391788,10
1392408,13
1393036,12
1393660,12
1394288,18
1394916,22
1395540,14
1396168,15
1396796,11
1397416,11
1398044,13
1398668,20
1399296,20
1399928,18
1400544,16
1401172,13
1401796,12
1402420,13
1403048,16
1403664,12
1404296,13
1404920,22
1405540,29
1406172,29
1406796,24
1407424,22
1408056,18
1408672,13
1409300,11
1409924,14
1410552,13
1411180,12
1411800,16
1412428,13
1413052,10
1413676,10
1414304,10
1414928,11
1415556,11
1416180,21
1416804,27
1417432,23
1418056,13
1418684,12
1419316,16
1419936,13
1420564,17
1421188,24
1421820,25
1422448,24
1423064,15
1423696,14
1424320,21
1424940,13
1425572,10
1426192,13
1426820,15
1427444,15
1428068,12
1428696,10
1429320,11
1429952,13
1430580,11
1431200,13
1431828,17
1432452,13
1433084,13
1433716,12
1434332,13
1434964,11
1435584,14
1436208,15
1436836,14
1437456,11
1438084,13
1438708,14
1439332,19
1439960,15
1440584,19
1441212,18
1441840,20
1442456,23
1443084,17
1443708,15
1444336,15
1444964,11
1445580,11
1446212,25
1446836,26
1447456,15
1448088,11
1448704,13
1449332,11
1449956,19
1450576,16
1451208,13
1451824,14
1452452,11
1453084,12
1453704,15
1454332,17
1454956,15
1455588,21
1456216,24
1456832,19
1457460,12
1458084,10
1458708,14
1459336,11
1459952,13
1460584,20
1461204,15
1461828,11
1462460,12
1463080,11
1463708,13
1464336,12
1464960,10
1465588,13
1466212,22
1466840,27
1467472,20
1468088,17
1468720,13
1469344,13
1469968,12
1470596,14
1471216,21
1471844,28
1472472,29
1473092,19
1473724,14
1474344,17
1474972,13
1475604,10
1476224,11
1476852,12
1477476,12
1478104,13
1478732,11
1479352,11
1479980,11
1480604,13
1481228,11
1481856,10
1482472,14
1483104,19
1483728,23
1484348,22
1484980,14
1485596,16
1486228,12
1486856,18
1487472,21
1488104,21
1488724,21
1489352,23
1489984,28
1490600,27
1491228,21
1491852,16
1492480,14
1493108,16
1493728,16
1494356,11
1494984,11
1495604,12
1496236,12
1496856,14
1497484,12
1498108,10
1498736,13
1499364,20
1499988,24
1500616,24
1501248,17
1501864,15
1502496,13
1503120,13
1503748,15
1504380,24
1505000,24
1505628,17
1506252,21
1506876,30
1507504,25
1508128,15
1508756,11
1509388,12
1510008,13
1510636,13
1511260,11
1511892,13
1512520,10
1513144,12
1513772,11
1514396,13
1515024,19
1515652,15
1516272,13
1516900,14
1517524,17
1518148,14
1518780,11
1519400,15
1520028,13
1520660,10
1521280,15
1521908,23
1522532,20
1523164,24
1523796,30
1524416,29
1525044,25
1525668,20
1526292,15
1526924,14
1527544,30
1528172,29
1528796,12
1529420,21
1530052,22
1530672,19
1531304,13
1531932,10
1532552,21
1533184,23
1533808,19
1534436,17
1535068,14
1535688,12
1536320,12
1536940,11
1537564,13
1538192,11
1538812,14
1539440,23
1540060,27
1540684,24
1541312,18
1541936,19
1542564,17
1543192,13
1543812,11
1544440,13
1545064,11
1545692,15
1546320,18
1546936,15
1547568,17
1548192,18
1548812,20
1549444,12
1550064,11
1550692,13
1551316,13
1551944,15
1552572,12
1553192,13
1553820,14
1554452,22
1555072,32
1555704,31
1556328,23
1556956,19
1557584,13
1558208,11
1558836,15
1559460,16
1560084,16
1560716,16
1561336,16
1561964,10
1562588,13
1563212,15
1563840,16
1564460,13
1565088,11
1565716,11
1566336,13
1566964,13
1567588,12
1568220,15
1568848,15
1569464,14
1570092,11
1570716,14
1571340,16
1571972,19
1572592,20
1573220,20
1573844,21
1574468,17
1575096,12
1575720,13
1576348,13
1576980,16
1577600,21
1578228,17
1578852,10
1579480,12
1580112,12
1580732,11
1581360,11
1581984,11
1582612,11
1583240,16
1583860,24
1584488,26
1585112,25
1585740,16
1586368,11
1586988,13
1587616,19
1588248,23
1588864,23
1589492,22
1590116,19
1590748,20
1591380,17
1592000,21
1592628,21
1593252,17
1593880,13
1594508,11
1595128,11
1595760,12
1596384,21
1597008,22
1597640,13
1598256,12
1598884,11
1599516,14
1600136,20
1600764,24
1601384,13
1602012,13
1602644,18
1603260,18
1603892,16
1604512,15
1605136,16
1605764,22
1606384,25
1607012,19
1607636,15
1608260,19
1608888,14
1609504,12
1610132,11
1610764,12
1611384,12
1612012,13
1612636,10
1613264,11
1613896,10
1614512,12
1615140,17
1615764,18
1616388,15
1617020,14
1617640,19
1618268,19
1618892,15
1619516,13
1620144,13
1620760,18
1621392,22
1622016,19
1622640,20
1623268,17
1623892,22
1624524,20
1625152,16
1625768,13
1626400,14
1627020,15
1627652,13
1628280,11
1628896,10
1629528,10
1630152,11
1630776,13
1631404,14
1632024,16
1632652,15
1633276,14
1633904,13
1634532,12
1635156,12
1635788,12
1636420,12
1637040,11
1637668,11
1638296,13
1638920,19
1639548,18
1640164,17
1640792,20
1641416,17
1642036,10
1642664,12
1643284,12
1643912,13
1644536,13
1645156,11
1645784,10
1646408,11
1647036,11
1647664,11
1648280,12
1648908,13
1649532,11
1650160,13
1650788,15
1651408,17
1652036,16
1652656,13
1653276,12
1653908,12
1654528,18
1655156,19
1655776,20
1656400,22
1657028,20
1657648,19
1658276,13
1658904,11
1659520,11
1660148,12
1660772,19
1661400,17
1662028,12
1662648,18
1663276,14
1663900,11
1664524,12
1665152,12
1665768,11
1666396,12
1667016,23
1667636,31
1668268,18
1668884,11
1669516,12
1670136,14
1670760,19
1671388,16
1672008,17
1672636,22
1673264,23
1673880,29
1674512,25
1675132,25
1675764,19
1676392,12
1677008,11
1677636,13
1678260,17
1678884,19
1679512,13
1680128,11
1680756,10
1681376,12
1681996,13
1682628,14
1683244,19
1683872,23
1684504,19
1685116,14
1685748,12
1686368,12
1687000,17
1687628,19
1688248,19
1688876,21
1689500,20
1690124,24
1690752,20
1691368,14
1691996,14
1692620,17
1693240,15
1693872,11
1694488,17
1695116,13
1695740,12
1696368,11
1696996,11
1697616,13
1698244,13
1698876,14
1699496,15
1700124,17
1700748,20
1701376,17
1702004,11
1702624,14
1703252,15
1703872,17
1704496,19
1705124,21
1705744,22
1706372,23
1706996,26
1707616,20
1708248,17
1708868,16
1709496,13
1710128,14
1710744,12
1711372,13
1711996,10
1712628,15
1713256,19
1713876,16
1714504,16
1715128,11
1715752,11
1716380,11
1717000,16
1717628,21
1718252,13
1718876,14
1719504,19
1720128,18
1720756,15
1721384,17
1722008,25
1722636,24
1723260,17
1723888,12
1724516,10
1725136,13
1725764,17
1726388,16
1727012,14
1727640,11
1728260,11
1728888,12
1729508,11
1730132,11
1730760,11
1731384,17
1732012,21
1732640,25
1733256,19
1733888,15
1734512,12
1735140,15
1735768,13
1736392,19
1737020,11
1737644,16
1738268,21
1738896,27
1739512,26
1740144,24
1740768,17
1741392,12
1742020,12
1742640,15
1743268,12
1743896,12
1744520,12
1745148,10
1745772,10
1746400,12
1747028,18
1747648,20
1748276,11
1748900,13
1749524,22
1750152,24
1750768,20
1751400,14
1752024,12
1752644,15
1753276,12
1753896,11
1754524,13
1755156,31
1755776,37
1756404,19
1757028,12
1757660,17
1758288,11
1758908,42
1759536,40
1760160,23
1760780,12
1761412,12
1762032,13
1762660,10
1763280,13
1763904,14
1764532,13
1765152,19
1765780,25
1766408,20
1767028,14
1767660,19
1768284,18
1768912,13
1769540,19
1770160,27
1770788,22
1771412,15
1772040,13
1772668,11
1773288,11
1773916,17
1774540,25
1775164,24
1775796,12
1776416,14
1777044,15
1777672,13
1778296,12
1778924,11
1779548,15
1780180,19
1780808,21
1781424,13
1782052,29
1782676,36
1783300,21
1783932,12
1784552,13
1785180,14
1785804,23
1786428,25
1787060,11
1787680,11
1788308,10
1788940,12
1789560,28
1790188,31
1790816,20
1791444,15
1792076,19
1792692,13
1793324,11
1793944,15
1794568,25
1795196,22
1795816,15
1796444,15
1797068,11
1797692,17
1798320,16
1798944,16
1799572,19
1800204,30
1800824,29
1801452,27
1802076,19
1802704,11
1803336,23
1803952,33
1804580,37
1805204,31
1805828,30
1806456,22
1807080,11
1807708,12
1808332,14
1808952,13
1809584,12
1810200,12
1810828,12
1811452,13
1812080,11
1812708,11
1813332,12
1813960,12
1814588,12
1815208,15
1815836,21
1816460,28
1817088,26
1817720,12
1818336,12
1818964,13
1819588,16
1820212,14
1820840,17
1821456,22
1822088,25
1822712,26
1823336,21
1823964,19
1824588,11
1825220,10
1825848,13
1826464,14
1827092,11
1827716,11
1828348,11
1828976,14
1829592,12
1830224,12
1830848,11
1831472,13
1832100,19
1832720,25
1833348,18
1833972,14
1834596,13
1835228,15
1835852,13
1836480,13
1837108,16
1837728,19
1838356,26
1838984,26
1839612,17
1840244,16
1840864,20
1841492,20
1842116,13
1842740,12
1843372,11
1843988,13
1844620,13
1845240,10
1845864,11
1846492,12
1847116,11
1847744,12
1848372,14
1848992,17
1849620,22
1850240,24
1850872,21
1851500,16
1852120,13
1852748,13
1853372,18
1853996,14
1854628,12
1855248,15
1855876,26
1856500,19
1857124,10
1857752,10
1858376,15
1859004,12
1859636,24
1860256,23
1860884,19
1861508,24
1862136,17
1862768,15
1863384,14
1864012,11
1864636,13
1865260,17
1865888,22
1866512,27
1867140,29
1867764,17
1868388,12
1869020,12
1869640,14
1870272,17
1870900,10
1871520,15
1872148,17
1872772,10
1873404,11
1874032,22
1874648,40
1875280,36
1875904,28
1876528,21
1877156,12
1877776,11
1878404,13
1879028,12
1879652,11
1880284,11
1880908,22
1881540,25
1882168,25
1882788,18
1883416,17
1884040,15
1884672,14
1885300,11
1885920,17
1886548,15
1887172,13
1887796,17
1888428,20
1889048,25
1889676,27
1890300,13
1890924,10
1891552,11
1892176,13
1892804,11
1893436,11
1894056,12
1894688,13
1895308,11
1895940,10
1896568,12
1897184,11
1897816,10
1898440,11
1899064,18
1899692,24
1900312,17
1900944,12
1901564,12
1902192,13
1902820,13
1903448,15
1904076,17
1904708,17
1905328,15
1905956,19
1906580,25
1907208,23
1907836,14
1908456,10
1909084,15
1909712,13
1910336,12
1910968,13
1911584,12
1912216,13
1912844,10
1913464,11
1914096,13
1914720,15
1915348,18
1915980,18
1916600,20
1917232,21
1917856,18
1918480,13
1919112,13
1919728,16
1920364,26
1920984,26
1921608,27
1922236,26
1922856,29
1923484,25
1924116,18
1924736,11
1925364,13
1925988,12
1926616,20
1927248,18
1927864,13
1928492,14
1929116,18
1929740,17
1930368,14
1930984,10
1931616,11
1932240,16
1932864,20
1933492,21
1934112,17
1934740,12
1935372,10
1935992,12
1936620,15
1937244,17
1937876,18
1938504,22
1939124,22
1939752,21
1940376,20
1941004,13
1941632,11
1942252,13
1942880,15
1943504,17
1944128,17
1944756,12
1945376,16
1946008,13
1946636,12
1947256,25
1947884,31
1948508,28
1949136,32
1949764,30
1950384,24
1951012,18
1951640,13
1952264,17
1952892,16
1953512,17
1954140,23
1954764,30
1955388,22
1956020,21
1956640,25
1957268,26
1957900,22
1958520,15
1959148,13
1959772,11
1960404,20
1961032,22
1961652,11
1962280,19
1962904,19
1963528,16
1964156,12
1964776,10
1965408,11
1966032,18
1966656,23
1967284,24
1967904,23
1968532,15
1969164,12
1969784,15
1970412,26
1971036,29
1971668,26
1972296,16
1972912,11
1973540,10
1974164,11
1974788,14
1975420,18
1976040,21
1976668,15
1977292,13
1977916,13
1978544,13
1979164,12
1979792,11
1980420,11
1981040,15
1981668,13
1982292,15
1982924,22
1983552,28
1984176,20
1984804,13
1985428,12
1986052,12
1986684,10
1987304,19
1987932,15
1988556,13
1989180,13
1989808,16
1990424,19
1991056,18
1991680,18
1992304,13
1992932,12
1993556,12
1994188,14
1994816,10
1995440,11
1996068,13
1996692,14
1997320,13
1997948,10
1998568,23
1999196,25
1999820,24
2000444,24
2001076,16
2001696,15
2002324,21
2002952,18
2003576,13
2004204,19
2004828,26
2005456,27
2006084,18
2006704,18
2007332,17
2007956,15
2008584,15
2009212,12
2009832,12
2010460,12
2011084,14
2011708,14
2012336,12
2012960,12
2013588,11
2014220,13
2014840,15
2015468,13
2016092,11
2016720,13
2017352,11
2017968,12
2018596,14
2019220,16
2019844,12
2020476,14
2021096,27
2021724,29
2022352,24
2022976,19
2023604,18
2024224,15
2024852,15
2025484,13
2026104,11
2026732,11
2027356,12
2027988,11
2028620,14
2029240,13
2029868,11
2030492,11
2031116,11
2031748,14
2032368,17
2032996,21
2033620,25
2034244,20
2034876,13
2035496,12
2036124,14
2036756,14
2037376,12
2038008,12
2038632,13
2039260,16
2039892,20
2040512,21
2041140,15
2041768,15
2042388,18
2043020,20
2043640,16
2044268,11
2044896,11
2045520,11
2046148,10
2046768,11
2047400,13
2048028,19
2048644,19
2049272,14
2049892,12
2050520,12
2051148,13
2051768,13
2052396,11
2053016,11
2053640,14
2054268,10
2054888,15
2055516,18
2056136,12
2056760,12
2057388,10
2058008,14
2058636,11
2059256,14
2059880,22
2060508,23
2061132,13
2061760,12
2062388,14
2063008,16
2063636,14
2064260,11
2064888,16
2065516,16
2066136,18
2066764,17
2067388,21
2068008,31
2068636,22
2069256,13
2069884,14
2070504,23
2071128,26
2071756,27
2072376,21
2073004,21
2073632,22
2074252,19
2074884,11
2075504,11
2076132,12
2076764,12
2077384,14
2078012,18
2078636,16
2079260,14
2079888,13
2080512,12
2081140,12
2081764,19
2082384,25
2083012,28
2083632,26
2084260,12
2084888,12
2085504,12
2086132,14
2086756,14
2087384,16
2088012,11
2088628,10
2089260,14
2089880,20
2090504,27
2091132,26
2091752,21
2092380,13
2093004,15
2093624,16
2094256,13
2094872,13
2095500,13
2096124,12
2096752,13
2097380,10
2098004,14
2098632,23
2099260,21
2099876,18
2100504,19
2101128,16
2101756,11
2102384,11
2103008,11
2103636,11
2104260,11
2104884,15
2105512,15
2106132,14
2106760,17
2107384,28
2108008,34
2108636,33
2109260,26
2109888,17
2110520,11
2111136,13
2111764,17
2112388,16
2113020,11
2113648,14
2114264,11
2114892,16
2115516,20
2116140,20
2116768,20
2117388,13
2118016,13
2118640,12
2119264,13
2119892,16
2120516,16
2121144,11
2121776,10
2122392,12
2123020,20
2123644,23
2124276,22
2124904,18
2125520,12
2126152,14
2126772,13
2127396,12
2128028,10
2128648,10
2129276,10
2129900,11
2130524,11
2131152,14
2131776,16
2132404,20
2133032,22
2133656,14
2134284,12
2134908,12
2135540,12
2136168,14
2136784,21
2137416,23
2138040,24
2138664,20
2139292,14
2139912,11
2140540,12
2141164,11
2141788,15
2142416,17
2143040,19
2143668,19
2144300,20
2144920,17
2145548,11
2146172,12
2146800,15
2147432,14
2148048,13
2148680,16
2149304,19
2149928,18
2150556,14
2151176,12
2151804,12
2152428,13
2153052,19
2153680,15
2154296,13
2154924,27
2155556,28
2156176,28
2156804,29
2157428,22
2158056,15
2158684,12
2159304,12
2159932,11
2160560,12
2161180,11
2161812,10
2162432,12
2163060,10
2163684,10
2164308,12
2164936,14
2165556,18
2166184,18
2166812,14
2167432,12
2168060,12
2168684,11
2169312,12
2169944,10
2170560,14
2171192,20
2171816,30
2172440,27
2173068,18
2173688,16
2174316,11
2174940,11
2175564,21
2176196,22
2176812,15
2177444,11
2178072,10
2178688,11
2179316,11
2179940,12
2180568,15
2181200,20
2181816,21
2182444,16
2183068,14
2183688,11
2184320,12
2184936,13
2185564,13
2186188,17
2186812,19
2187444,18
2188064,19
2188692,19
2189324,21
2189944,25
2190572,22
2191196,13
2191828,13
2192460,12
2193080,12
2193708,11
2194332,11
2194956,13
2195588,12
2196208,11
2196836,15
2197460,15
2198084,12
2198716,12
2199336,11
2199964,12
2200596,11
2201216,13
2201848,13
2202468,11
2203100,10
2203728,10
2204348,11
2204976,17
2205600,20
2206224,22
2206852,19
2207472,13
2208100,12
2208724,16
2209348,17
2209980,17
2210600,17
2211228,13
2211860,12
2212480,21
2213108,29
2213732,19
2214364,16
2214992,18
2215612,19
2216240,20
2216864,16
2217488,12
2218116,16
2218736,17
2219364,19
2219988,22
2220616,17
2221244,16
2221864,16
2222492,15
2223124,11
2223744,12
2224372,16
2224996,24
2225628,27
2226256,18
2226880,15
2227508,13
2228132,11
2228756,12
2229388,14
2230008,15
2230636,18
2231260,15
2231888,19
2232516,21
2233136,29
2233764,19
2234396,12
2235016,12
2235648,15
2236272,12
2236900,19
2237532,27
2238152,32
2238784,26
2239408,19
2240032,20
2240660,14
2241280,13
2241908,11
2242532,11
2243156,13
2243784,16
2244408,13
2245036,11
2245668,10
2246288,13
2246916,13
2247540,10
2248172,11
2248800,20
2249424,25
2250052,23
2250676,17
2251300,16
2251932,13
2252552,12
2253184,17
2253804,23
2254428,27
2255056,28
2255672,27
2256304,26
2256932,19
2257552,12
2258180,10
2258804,11
2259432,11
2260064,11
2260680,13
2261308,11
2261932,11
2262556,11
2263188,10
2263808,11
2264436,15
2265060,23
2265684,20
2266312,19
2266932,17
2267560,12
2268188,12
2268808,13
2269436,13
2270060,17
2270692,17
2271320,20
2271944,17
2272576,21
2273200,26
2273824,20
2274452,16
2275072,13
2275700,12
2276324,11
2276948,14
2277580,14
2278200,12
2278832,14
2279460,13
2280080,12
2280708,10
2281332,15
2281964,21
2282592,23
2283208,24
2283840,17
2284464,13
2285088,14
2285716,12
2286336,11
2286964,13
2287592,17
2288216,25
2288844,24
2289464,19
2290092,15
2290724,10
2291344,11
2291972,11
2292600,11
2293228,11
2293860,16
2294480,15
2295108,15
2295732,24
2296356,22
2296984,14
2297604,11
2298232,21
2298856,28
2299480,31
2300108,21
2300728,13
2301360,11
2301988,16
2302608,17
2303236,14
2303864,13
2304496,23
2305124,34
2305744,33
2306372,27
2306996,23
2307616,16
2308248,16
2308864,14
2309492,13
2310116,12
2310740,11
2311368,11
2311992,14
2312620,12
2313252,11
2313872,13
2314500,13
2315124,17
2315756,19
2316384,18
2317008,18
2317636,24
2318260,27
2318884,19
2319512,10
2320136,21
2320764,33
2321388,39
2322012,37
2322640,31
2323260,30
2323888,19
2324516,11
2325136,12
2325764,13
2326388,12
2327020,15
2327648,18
2328268,23
2328896,13
2329520,14
2330144,15
2330772,12
2331392,12
2332020,12
2332644,16
2333268,18
2333900,17
2334520,16
2335152,11
2335780,13
2336400,19
2337028,21
2337652,24
2338280,21
2338912,15
2339528,11
2340156,15
2340780,17
2341404,17
2342036,15
2342656,15
2343284,12
2343908,13
2344532,12
2345164,12
2345784,25
2346412,21
2347044,12
2347664,11
2348292,12
2348920,11
2349548,12
2350180,15
2350800,18
2351428,17
2352056,13
2352676,12
2353308,13
2353928,16
2354556,24
2355184,33
2355808,37
2356440,29
2357064,17
2357692,12
2358324,11
2358944,22
2359572,24
2360200,16
2360828,11
2361460,16
2362080,21
2362708,22
2363332,16
2363956,11
2364588,14
2365208,20
2365836,22
2366460,22
2367088,15
2367720,12
2368344,12
2368972,11
2369600,10
2370224,12
2370852,12
2371476,13
2372104,17
2372732,17
2373352,15
2373984,17
2374608,17
2375232,16
2375860,14
2376480,17
2377108,13
2377740,10
2378360,15
2378988,18
2379612,14
2380244,13
2380876,12
2381496,19
2382124,20
2382748,13
2383372,13
2384004,14
2384624,12
2385252,18
2385876,16
2386504,17
2387132,17
2387752,20
2388380,23
2389012,10
2389632,12
2390264,12
2390888,14
2391516,13
2392148,18
2392768,17
2393400,14
2394024,13
2394648,11
2395280,10
2395896,15
2396528,11
2397152,11
2397776,12
2398408,11
2399024,19
2399656,27
2400288,20
2400904,14
2401532,12
2402156,12
2402788,12
2403416,16
2404040,18
2404668,19
2405292,19
2405916,23
2406548,19
2407168,15
2407796,11
2408420,12
2409044,16
2409672,14
2410288,13
2410920,12
2411548,10
2412168,11
2412796,11
2413420,12
2414052,15
2414684,16
2415304,29
2415936,35
2416560,29
2417184,19
2417812,12
2418432,22
2419060,24
2419684,27
2420308,26
2420940,26
2421560,27
2422192,27
2422820,23
2423440,17
2424068,12
2424692,11
2425324,11
2425956,12
2426576,13
2427204,12
2427828,9
2428400,11
2429036,11
2429656,11
2430284,13
2430912,21
2431536,21
2432168,15
2432784,17
2433412,23
2434036,23
2434660,18
2435292,14
2435912,14
2436544,27
2437172,34
2437792,40
2438420,26
2439044,15
2439676,10
2440304,27
2440928,27
2441556,13
2442184,30
2442808,33
2443436,22
2444056,15
2444684,13
2445316,10
2445936,11
2446568,10
2447192,13
2447820,17
2448452,19
2449072,23
2449700,24
2450328,16
2450952,12
2451580,11
2452200,13
2452828,12
2453452,18
2454080,25
2454708,26
2455328,29
2455960,25
2456592,21
2457208,19
2457840,19
2458460,19
2459092,18
2459720,16
2460336,13
2460964,11
2461588,11
2462212,11
2462844,10
2463464,17
2464092,18
2464716,18
2465336,17
2465968,20
2466584,23
2467212,18
2467836,14
2468464,16
2469092,15
2469716,10
2470348,13
2470976,16
2471600,18
2472228,18
2472852,22
2473476,20
2474108,14
2474728,19
2475356,16
2475980,17
2476608,12
2477236,11
2477856,11
2478484,13
2479116,13
2479736,11
2480364,16
2480988,17
2481620,11
2482248,19
2482864,22
2483492,15
2484116,12
2484740,12
2485372,14
2485992,13
2486620,16
2487244,13
2487868,12
2488500,12
2489120,13
2489748,11
2490376,10
2491000,14
2491628,13
2492252,12
2492884,19
2493512,21
2494132,18
2494760,15
2495384,12
2496012,12
2496640,12
2497256,12
2497884,11
2498508,15
2499132,23
2499764,22
2500384,17
2501012,13
2501644,12
2502264,12
2502892,11
2503516,17
2504148,20
2504780,19
2505400,19
2506028,21
2506656,20
2507280,17
2507908,14
2508528,13
2509160,12
2509780,11
2510404,12
2511036,10
2511656,11
2512284,13
2512916,13
2513536,12
2514168,11
2514792,11
2515420,11
2516052,12
2516672,13
2517300,12
2517928,19
2518552,25
2519180,18
2519800,12
2520432,22
2521052,33
2521680,37
2522308,29
2522928,29
2523556,22
2524188,12
2524808,13
2525436,12
2526060,13
2526692,12
2527324,11
2527944,11
2528576,16
2529200,17
2529824,15
2530452,13
2531072,11
2531704,12
2532328,18
2532952,21
2533584,18
2534204,15
2534832,12
2535464,13
2536084,16
2536712,21
2537336,21
2537968,26
2538596,24
2539216,13
2539848,11
2540472,10
2541096,15
2541724,26
2542344,21
2542976,14
2543600,15
2544224,13
2544852,10
2545476,13
2546108,15
2546740,10
2547360,12
2547988,15
2548616,21
2549244,22
2549876,15
2550496,12
2551124,11
2551752,13
2552376,13
2553008,12
2553624,19
2554252,18
2554880,26
2555504,22
2556136,15
2556760,15
2557392,20
2558024,19
2558644,15
2559276,12
2559900,11
2560528,15
2561156,11
2561776,11
2562404,12
2563024,15
2563648,12
2564276,12
2564896,34
2565524,35
2566152,31
2566768,25
2567396,12
2568020,15
2568648,19
2569276,22
2569896,25
2570524,22
2571148,23
2571776,27
2572404,20
2573024,13
2573652,11
2574276,15
2574900,19
2575528,14
2576144,13
2576772,11
2577396,11
2578020,10
2578648,13
2579272,18
2579900,17
2580532,16
2581152,15
2581780,15
2582400,16
2583032,13
2583660,11
2584280,12
2584908,11
2585532,11
2586156,11
2586784,17
2587408,22
2588036,23
2588660,28
2589284,31
2589912,18
2590536,12
2591164,12
2591796,12
2592416,12
2593044,11
2593668,11
2594296,13
2594924,13
2595544,13
2596172,11
2596796,11
2597420,11
2598052,10
2598672,17
2599300,15
2599924,16
2600548,12
2601180,11
2601804,11
2602432,15
2603060,11
2603680,15
2604308,28
2604932,32
2605564,26
2606192,18
2606808,15
2607440,11
2608064,12
2608688,16
2609316,21
2609936,17
2610564,11
2611188,12
2611816,11
2612444,11
2613068,17
2613696,13
2614328,15
2614944,20
2615576,24
2616200,19
2616828,12
2617460,12
2618080,13
2618708,12
2619332,18
2619960,17
2620588,14
2621208,21
2621836,26
2622460,22
2623088,20
2623716,11
2624340,11
2624968,12
2625592,12
2626216,12
2626844,12
2627464,13
2628092,19
2628720,18
2629344,11
2629972,17
2630596,16
2631216,11
2631848,10
2632464,12
2633092,16
2633716,20
2634340,15
2634968,12
2635592,15
2636220,16
2636848,13
2637468,11
2638096,11
2638720,14
2639348,16
2639980,18
2640600,20
2641228,17
2641852,12
2642476,12
2643104,12
2643720,15
2644348,13
2644972,10
2645592,10
2646224,11
2646840,11
2647468,15
2648096,11
2648720,12
2649348,11
2649972,14
2650600,20
2651228,26
2651848,19
2652476,13
2653100,25
2653724,33
2654352,33
2654972,31
2655600,19
2656224,12
2656848,11
2657476,10
2658096,12
2658724,11
2659352,12
2659972,13
2660600,13
2661224,13
2661852,17
2662484,14
2663100,10
2663728,12
2664352,15
2664972,19
2665600,19
2666220,18
2666852,18
2667472,17
2668096,14
2668724,12
2669344,11
2669972,13
2670600,13
2671224,17
2671852,19
2672476,19
2673104,15
2673736,17
2674352,17
2674980,13
2675604,13
2676228,11
2676860,12
2677480,11
2678108,11
2678732,14
2679356,13
2679984,11
2680604,11
2681232,13
2681860,14
2682480,20
2683108,21
2683732,18
2684360,12
2684988,12
2685608,11
2686236,11
2686860,17
2687488,19
2688116,24
2688732,22
2689360,18
2689984,17
2690608,14
2691236,14
2691856,15
2692484,13
2693104,12
2693728,13
2694360,13
2694984,12
2695612,12
2696240,10
2696864,11
2697492,11
2698116,12
2698744,10
2699376,13
2699992,16
2700620,14
2701248,13
2701868,13
2702500,11
2703120,10
2703748,13
2704372,15
2704996,17
2705624,20
2706248,19
2706876,15
2707504,13
2708124,13
2708752,19
2709376,19
2710004,18
2710632,11
2711256,12
2711884,11
2712508,11
2713132,11
2713764,10
2714384,11
2715012,13
2715636,14
2716260,20
2716888,25
2717512,31
2718140,25
2718772,22
2719392,11
2720020,25
2720644,26
2721272,27
2721900,24
2722520,23
2723148,18
2723772,13
2724396,10
2725024,11
2725644,13
2726272,18
2726896,23
2727516,17
2728148,13
2728772,11
2729400,11
2730028,10
2730648,14
2731276,16
2731900,16
2732532,11
2733160,12
2733776,12
2734408,16
2735032,13
2735656,12
2736284,15
2736904,18
2737532,19
2738156,21
2738780,19
2739412,18
2740036,21
2740664,24
2741292,20
2741912,17
2742540,13
2743164,12
2743796,11
2744424,11
2745048,26
2745676,24
2746300,19
2746920,14
2747552,13
2748168,23
2748796,23
2749420,21
2750044,14
2750676,12
2751300,13
2751932,12
2752560,10
2753184,11
2753812,11
2754436,15
2755068,19
2755696,22
2756312,15
2756944,12
2757568,11
2758192,13
2758820,12
2759440,12
2760068,12
2760692,11
2761316,13
2761948,15
2762572,11
2763200,11
2763828,13
2764448,17
2765080,20
2765700,26
2766332,26
2766960,16
2767576,11
2768208,12
2768828,14
2769452,23
2770080,30
2770704,32
2771332,23
2771956,15
2772580,11
2773208,11
2773832,10
2774464,12
2775092,16
2775712,21
2776340,17
2776964,13
2777596,13
2778228,17
2778848,20
2779476,19
2780100,16
2780728,13
2781356,10
2781976,12
2782608,11
2783232,11
2783856,15
2784488,18
2785112,15
2785740,11
2786372,12
2786992,24
2787620,27
2788244,21
2788868,23
2789500,15
2790120,11
2790748,12
2791372,24
2791996,29
2792628,18
2793248,13
2793876,12
2794508,10
2795128,14
2795756,14
2796384,12
2797012,13
2797644,11
2798264,12
2798892,11
2799516,11
2800140,14
2800772,14
2801392,13
2802020,12
2802644,15
2803268,12
2803896,10
2804516,14
2805144,17
2805772,20
2806392,28
2807020,28
2807644,25
2808276,25
2808904,20
2809528,13
2810156,12
2810780,14
2811408,25
2812036,18
2812656,13
2813284,11
2813912,11
2814536,17
2815164,26
2815784,35
2816416,27
2817044,14
2817664,12
2818292,20
2818912,23
2819544,17
2820172,18
2820792,28
2821420,32
2822044,29
2822668,20
2823296,12
2823920,11
2824548,11
2825172,13
2825796,15
2826428,14
2827048,12
2827676,11
2828304,11
2828928,11
2829556,15
2830180,16
2830808,18
2831440,22
2832056,18
2832684,15
2833308,15
2833932,13
2834560,12
2835176,12
2835808,16
2836432,21
2837056,16
2837684,16
2838304,16
2838932,17
2839564,22
2840184,26
2840812,21
2841436,21
2842068,18
2842696,12
2843320,12
2843948,11
2844572,11
2845196,11
2845828,10
2846448,11
2847076,11
2847700,13
2848324,20
2848952,27
2849576,28
2850204,19
2850836,18
2851456,15
2852084,11
2852708,13
2853340,14
2853968,14
2854592,13
2855220,17
2855844,19
2856468,14
2857100,10
2857720,17
2858348,24
2858972,28
2859596,30
2860228,17
2860848,11
2861476,15
2862108,16
2862728,13
2863356,15
2863984,11
2864616,11
2865244,15
2865864,19
2866496,25
2867120,19
2867744,12
2868372,12
2868992,11
2869620,18
2870244,29
2870868,28
2871496,23
2872112,21
2872744,17
2873372,12
2873992,13
2874620,11
2875244,11
2875876,16
2876504,16
2877120,12
2877752,11
2878376,11
2879000,13
2879628,12
2880248,12
2880876,11
2881496,12
2882120,13
2882748,13
2883368,14
2883996,11
2884624,12
2885240,12
2885868,15
2886492,19
2887120,19
2887748,22
2888368,21
2888996,11
2889616,10
2890244,11
2890872,10
2891496,12
2892124,15
2892748,19
2893372,17
2894004,10
2894624,15
2895252,21
2895884,18
2896504,12
2897132,11
2897756,17
2898388,20
2899016,17
2899636,15
2900264,12
2900888,12
2901512,14
2902140,12
2902760,17
2903388,21
2904012,21
2904636,22
2905268,19
2905888,11
2906516,18
2907148,22
2907768,17
2908396,11
2909020,13
2909652,18
2910280,13
2910904,11
2911532,11
2912160,12
2912780,11
2913412,10
2914032,11
2914660,11
2915284,15
2915908,19
2916540,19
2917160,17
2917788,15
2918420,15
2919040,20
2919668,27
2920292,26
2920920,24
2921552,25
2922168,23
2922800,19
2923424,11
2924048,11
2924676,10
2925296,12
2925924,13
2926548,14
2927172,15
2927804,11
2928424,11
2929052,12
2929684,10
2930304,11
2930932,12
2931560,13
2932188,18
2932816,20
2933440,17
2934068,15
2934692,11
2935316,15
2935948,20
2936568,20
2937196,19
2937824,24
2938448,25
2939076,24
2939696,21
2940324,13
2940956,10
2941576,12
2942208,12
2942832,12
2943464,12
2944092,10
2944712,11
2945340,11
2945964,11
2946588,10
2947220,10
2947840,12
2948468,15
2949092,18
2949720,17
2950348,14
2950968,17
2951596,15
2952228,10
2952848,19
2953476,27
2954100,29
2954732,26
2955360,21
2955980,18
2956608,15
2957232,11
2957856,12
2958484,11
2959104,12
2959732,11
2960360,13
2960980,13
2961608,12
2962232,10
2962860,12
2963492,10
2964112,12
2964740,12
2965364,12
2965996,15
2966624,16
2967248,14
2967876,13
2968500,12
2969124,15
2969756,22
2970376,17
2971004,19
2971628,30
2972252,29
2972880,21
2973496,21
2974124,20
2974756,12
2975376,13
2976004,20
2976628,20
2977256,15
2977884,12
2978504,19
2979132,18
2979756,11
2980380,11
2981012,14
2981632,21
2982260,19
2982884,21
2983508,19
2984140,16
2984760,12
2985388,20
2986020,21
2986640,17
2987268,17
2987892,11
2988524,16
2989156,18
2989776,12
2990404,21
2991028,31
2991652,32
2992284,36
2992904,32
2993532,20
2994156,11
2994784,13
2995412,14
2996036,17
2996668,19
2997296,15
2997912,12
2998544,17
2999168,21
2999800,18
3000428,18
3001048,15
3001676,11
3002300,22
3002924,31
3003556,29
3004176,24
3004804,19
3005428,16
3006056,15
3006684,13
3007312,13
3007944,15
3008576,15
3009192,13
3009824,12
3010448,11
3011076,12
3011708,10
3012328,11
3012956,11
3013584,13
3014208,15
3014840,20
3015456,21
3016088,24
3016716,20
3017336,12
3017968,13
3018592,15
3019220,17
3019852,18
3020472,18
3021104,14
3021728,18
3022352,22
3022984,21
3023600,19
3024232,17
3024856,15
3025480,13
3026112,11
3026728,12
3027356,15
3027988,20
3028608,15
3029236,14
3029864,23
3030496,15
3031124,15
3031744,13
3032376,11
3033000,12
3033624,12
3034252,12
3034872,13
3035504,15
3036128,21
3036752,25
3037384,31
3038000,29
3038632,28
3039264,22
3039884,15
3040512,14
3041136,14
3041768,12
3042396,15
3043016,13
3043648,11
3044272,11
3044896,11
3045524,12
3046144,11
3046776,11
3047400,12
3048024,19
3048652,24
3049272,21
3049904,16
3050532,12
3051152,14
3051784,12
3052408,11
3053036,14
3053668,20
3054288,25
3054916,27
3055544,22
3056168,12
3056796,14
3057416,18
3058048,12
3058672,12
3059296,16
3059924,21
3060552,16
3061180,14
3061812,12
3062432,12
3063060,11
3063688,11
3064316,15
3064948,19
3065568,26
3066200,24
3066824,20
3067448,17
3068080,15
3068696,11
3069328,12
3069960,15
3070584,18
3071216,28
3071844,36
3072476,32
3073104,23
3073728,17
3074356,15
3074980,12
3075604,15
3076232,15
3076848,12
3077480,11
3078104,11
3078724,11
3079356,12
3079976,12
3080604,13
3081236,20
3081856,17
3082484,25
3083108,27
3083740,16
3084368,11
3084988,15
3085616,15
3086240,14
3086864,21
3087492,18
3088112,14
3088740,13
3089364,22
3089988,24
3090616,18
3091240,23
3091868,20
3092500,11
3093120,17
3093748,17
3094372,13
3095004,14
3095636,10
3096256,12
3096884,12
3097508,11
3098136,13
3098764,16
3099384,17
3100012,14
3100636,12
3101264,12
3101892,13
3102512,12
3103144,19
3103772,24
3104392,29
3105020,28
3105644,20
3106276,11
3106908,10
3107528,15
3108160,17
3108780,17
3109408,22
3110036,12
3110656,19
3111288,25
3111912,15
3112536,10
3113168,11
3113788,11
3114416,16
3115044,22
3115664,24
3116292,15
3116920,12
3117548,12
3118180,13
3118800,16
3119428,13
3120056,12
3120680,14
3121308,14
3121928,15
3122556,15
3123184,13
3123808,15
3124436,20
3125060,22
3125692,11
3126320,12
3126944,11
3127572,11
3128200,12
3128828,12
3129460,10
3130080,14
3130708,23
3131336,29
3131960,31
3132588,30
3133208,31
3133840,19
3134460,14
3135088,17
3135720,29
3136344,39
3136972,45
3137604,34
3138224,26
3138852,24
3139476,23
3140104,20
3140732,14
3141352,12
3141984,13
3142608,11
3143232,19
3143864,27
3144480,27
3145108,20
3145740,12
3146360,11
3146988,12
3147616,11
3148244,13
3148876,21
3149496,18
3150124,12
3150752,14
3151376,19
3152004,18
3152624,17
3153256,13
3153880,15
3154504,17
3155132,12
3155752,11
3156384,19
3157016,11
3157632,17
3158264,29
3158888,35
3159520,23
3160148,11
3160768,11
3161400,10
3162024,11
3162648,11
3163276,14
3163896,22
3164528,16
3165152,15
3165776,19
3166408,12
3167024,15
3167656,13
3168288,12
3168904,14
3169536,22
3170160,23
3170792,17
3171420,13
3172040,11
3172672,11
3173296,10
3173920,11
3174552,11
3175168,11
3175796,11
3176424,12
3177048,11
3177676,13
3178296,15
3178924,13
3179556,14
3180176,13
3180804,17
3181428,17
3182060,15
3182692,22
3183312,19
3183944,15
3184568,27
3185196,24
3185824,22
3186448,23
3187080,25
3187704,28
3188328,27
3188960,23
3189584,14
3190216,11
3190848,13
3191464,12
3192096,12
3192724,12
3193352,12
3193984,10
3194604,11
3195236,11
3195860,11
3196484,13
3197116,14
3197736,17
3198368,16
3199000,15
3199620,15
3200252,13
3200872,11
3201504,17
3202132,18
3202752,14
3203380,16
3204004,15
3204624,18
3205252,26
3205872,23
3206500,13
3207124,11
3207744,13
3208376,14
3208992,12
3209620,12
3210248,10
3210872,14
3211500,10
3212124,10
3212756,11
3213384,15
3214008,19
3214636,23
3215260,21
3215884,19
3216516,14
3217136,13
3217764,12
3218388,16
3219012,19
3219644,24
3220264,29
3220892,26
3221524,18
3222144,14
3222772,15
3223396,15
3224028,13
3224656,12
3225280,12
3225908,13
3226532,15
3227156,17
3227788,14
3228408,13
3229036,10
3229660,11
3230284,11
3230916,10
3231536,14
3232164,19
3232796,20
3233416,14
3234044,12
3234668,12
3235300,11
3235928,15
3236552,31
3237180,24
3237804,13
3238428,15
3239056,17
3239680,22
3240308,25
3240932,18
3241556,17
3242188,16
3242808,15
3243436,11
3244068,11
3244688,11
3245316,11
3245940,12
3246572,16
3247204,20
3247824,25
3248456,26
3249080,23
3249700,19
3250332,20
3250952,19
3251584,12
3252208,19
3252832,31
3253460,44
3254084,49
3254716,42
3255344,24
3255968,17
3256600,11
3257224,11
3257852,11
3258484,12
3259104,13
3259736,12
3260360,14
3260984,17
3261612,12
3262232,13
3262864,21
3263492,17
3264112,20
3264740,21
3265364,11
3265996,12
3266624,12
3267248,15
3267876,14
3268500,12
3269128,11
3269756,11
3270376,17
3271008,26
3271632,23
3272256,21
3272888,22
3273504,27
3274136,24
3274768,16
3275384,12
3276016,12
3276640,12
3277272,14
3277900,24
3278520,25
3279148,13
3279768,15
3280392,19
3281020,12
3281636,13
3282264,10
3282888,13
3283508,14
3284136,14
3284760,15
3285388,11
3286008,11
3286632,24
3287260,38
3287884,40
3288512,38
3289140,22
3289760,12
3290388,10
3291008,13
3291636,14
3292268,12
3292884,13
3293512,14
3294136,11
3294760,13
3295388,14
3296008,11
3296636,23
3297256,25
3297880,19
3298508,12
3299128,11
3299756,11
3300384,12
3301008,13
3301636,11
3302260,14
3302888,16
3303516,14
3304136,17
3304764,21
3305388,24
3306012,19
3306640,14
3307256,15
3307884,16
3308508,15
3309132,13
3309760,12
3310376,13
3311008,14
3311636,12
3312256,13
3312884,15
3313508,13
3314136,13
3314768,12
3315384,15
3316012,14
3316636,14
3317260,14
3317888,12
3318512,11
3319140,11
3319764,19
3320388,28
3321016,26
3321632,17
3322264,13
3322892,17
3323512,15
3324140,13
3324764,13
3325396,15
3326024,12
3326644,12
3327272,11
3327896,11
3328520,13
3329148,12
3329768,14
3330396,11
3331016,11
3331640,15
3332268,19
3332888,20
3333516,11
3334140,19
3334760,15
3335392,11
3336016,13
3336644,14
3337272,16
3337888,17
3338520,18
3339140,11
3339772,10
3340400,15
3341016,22
3341648,18
3342268,19
3342892,21
3343520,13
3344144,11
3344772,11
3345396,11
3346020,14
3346648,17
3347272,18
3347900,17
3348528,22
3349152,23
3349780,17
3350404,12
3351032,12
3351664,11
3352280,11
3352908,11
3353532,11
3354160,17
3354788,26
3355408,40
3356036,33
3356660,23
3357284,17
3357916,13
3358540,12
3359172,12
3359800,13
3360420,13
3361048,11
3361668,11
3362296,13
3362928,10
3363544,11
3364172,11
3364796,21
3365416,24
3366048,20
3366664,14
3367292,13
3367916,19
3368540,21
3369168,18
3369784,15
3370412,15
3371044,13
3371664,16
3372292,14
3372916,13
3373544,14
3374172,12
3374792,13
3375420,15
3376044,15
3376668,15
3377296,11
3377912,11
3378544,11
3379168,11
3379792,15
3380420,13
3381040,16
3381668,15
3382296,18
3382916,17
3383544,15
3384168,11
3384796,14
3385424,18
3386048,16
3386676,21
3387300,18
3387924,20
3388552,22
3389176,21
3389804,13
3390428,12
3391052,31
3391680,36
3392304,29
3392932,18
3393560,14
3394184,12
3394812,31
3395436,39
3396068,35
3396696,22
3397312,12
3397940,14
3398564,17
3399188,21
3399820,16
3400440,13
3401068,11
3401692,11
3402312,14
3402944,15
3403560,16
3404188,22
3404820,22
3405436,17
3406068,16
3406692,11
3407320,16
3407948,17
3408568,12
3409196,11
3409820,11
3410444,14
3411072,10
3411696,13
3412324,11
3412948,11
3413572,11
3414204,13
3414824,13
3415452,13
3416084,12
3416704,12
3417332,12
3417956,13
3418588,10
3419216,13
3419840,17
3420468,21
3421092,20
3421716,17
3422348,17
3422968,14
3423596,14
3424224,12
3424844,13
3425476,12
3426096,12
3426724,11
3427356,10
3427976,12
3428604,12
3429232,11
3429860,13
3430492,16
3431112,18
3431740,21
3432364,19
3432988,15
3433616,12
3434240,13
3434868,12
3435492,11
3436116,14
3436748,16
3437368,20
3437996,23
3438628,19
3439248,17
3439880,14
3440504,13
3441132,11
3441764,12
3442384,11
3443012,12
3443636,11
3444260,11
3444888,10
3445504,11
3446136,11
3446760,12
3447384,14
3448012,12
3448632,12
3449260,12
3449892,16
3450512,25
3451140,16
3451764,19
3452396,32
3453028,12
3453648,13
3454276,17
3454900,33
3455528,38
3456156,18
3456776,12
3457404,13
3458028,15
3458652,18
3459280,15
3459896,15
3460524,12
3461156,11
3461776,13
3462404,11
3463028,12
3463656,18
3464284,19
3464904,27
3465532,29
3466156,17
3466780,12
3467412,16
3468032,18
3468660,17
3469284,17
3469908,14
3470540,16
3471160,22
3471792,20
3472420,13
3473040,10
3473668,11
3474292,11
3474924,13
3475552,14
3476176,12
3476804,11
3477428,11
3478052,16
3478684,12
3479304,11
3479936,14
3480560,17
3481184,21
3481816,23
3482436,19
3483068,11
3483696,11
3484312,12
3484940,12
3485564,13
3486192,17
3486824,20
3487440,19
3488068,19
3488692,17
3489316,13
3489944,10
3490560,13
3491192,16
3491816,13
3492440,13
3493068,16
3493688,19
3494316,14
3494948,10
3495568,11
3496196,11
3496820,12
3497452,16
3498080,22
3498704,29
3499332,29
3499960,23
3500584,13
3501212,16
3501832,20
3502464,13
3503084,13
3503712,22
3504340,27
3504964,29
3505596,35
3506224,27
3506848,14
3507480,14
3508104,14
3508732,11
3509364,12
3509984,11
3510612,11
3511240,12
3511864,14
3512492,10
3513112,11
3513744,12
3514372,14
3514992,16
3515624,15
3516248,14
3516876,12
3517508,11
3518128,12
3518760,12
3519384,15
3520008,19
3520636,22
3521256,16
3521884,17
3522508,17
3523132,19
3523764,19
3524384,19
3525012,15
3525644,11
3526264,13
3526892,13
3527516,10
3528148,11
3528776,19
3529396,26
3530024,20
3530648,18
3531272,16
3531900,13
3532520,13
3533152,13
3533772,14
3534396,15
3535028,18
3535648,17
3536276,17
3536908,23
3537528,25
3538156,18
3538780,12
3539412,10
3540040,12
3540660,13
3541288,14
3541912,13
3542536,13
3543164,11
3543784,11
3544412,13
3545036,12
3545660,12
3546292,18
3546912,23
3547540,19
3548172,12
3548792,13
3549420,12
3550048,12
3550676,12
3551308,13
3551928,22
3552560,24
3553184,24
3553808,21
3554436,20
3555056,12
3555688,13
3556312,11
3556936,16
3557568,15
3558184,17
3558816,18
3559444,14
3560064,11
3560692,13
3561316,17
3561948,10
3562580,15
3563200,16
3563828,13
3564456,12
3565080,12
3565708,16
3566328,22
3566956,22
3567584,14
3568208,16
3568836,20
3569456,22
3570084,22
3570716,21
3571336,21
3571964,20
3572592,13
3573220,14
3573852,13
3574472,12
3575100,13
3575728,13
3576352,14
3576980,12
3577600,12
3578228,11
3578856,11
3579480,11
3580112,15
3580728,26
3581360,34
3581992,34
3582616,23
3583248,22
3583876,13
3584508,23
3585136,29
3585752,20
3586384,17
3587008,13
3587632,15
3588260,15
3588880,15
3589508,18
3590132,19
3590756,26
3591388,30
3592012,24
3592640,15
3593268,10
3593888,12
3594516,13
3595140,10
3595772,11
3596404,10
3597024,17
3597652,16
3598276,27
3598904,38
3599532,38
3600152,34
3600780,22
3601404,13
3602032,27
3602660,47
3603284,51
3603916,43
3604544,28
3605168,21
3605796,14
3606420,12
3607044,13
3607672,14
3608296,16
3608924,13
3609548,13
3610172,10
3610804,11
3611424,13
3612052,17
3612684,18
3613304,22
3613932,25
3614556,20
3615188,15
3615820,12
3616440,12
3617068,12
3617692,11
3618316,11
3618944,13
3619564,15
3620192,22
3620816,24
3621440,20
3622068,11
3622688,12
3623316,13
3623948,11
3624568,12
3625196,13
3625820,12
3626452,11
3627080,11
3627696,10
3628328,12
3628952,10
3629576,13
3630204,20
3630824,27
3631452,29
3632076,29
3632700,21
3633332,12
3633952,15
3634580,18
3635212,20
3635832,25
3636460,25
3637084,25
3637716,23
3638344,23
3638964,19
3639592,15
3640220,13
3640844,11
3641472,11
3642092,12
3642720,12
3643344,11
3643968,9
3644548,10
3645172,10
3645800,13
3646424,23
3647048,29
3647680,34
3648296,29
3648928,19
3649556,12
3650176,13
3650804,22
3651428,31
3652060,31
3652688,30
3653304,26
3653936,24
3654560,22
3655184,19
3655812,14
3656432,12
3657060,12
3657684,16
3658308,24
3658940,16
3659560,13
3660188,11
3660820,11
3661440,13
3662068,11
3662692,13
3663324,16
3663952,19
3664576,23
3665204,21
3665832,13
3666456,15
3667084,15
3667704,12
3668332,10
3668960,15
3669580,24
3670212,33
3670832,30
3671464,21
3672092,16
3672712,16
3673344,14
3673968,12
3674596,11
3675228,11
3675848,12
3676480,11
3677104,11
3677728,13
3678356,12
3678976,11
3679608,11
3680232,12
3680856,12
3681484,16
3682104,18
3682732,18
3683364,14
3683984,13
3684616,12
3685240,17
3685868,23
3686500,20
3687116,19
3687748,19
3688372,17
3688992,16
3689624,11
3690240,11
3690868,12
3691492,11
3692116,13
3692744,15
3693368,15
3693996,11
3694628,10
3695248,11
3695876,11
3696500,13
3697132,19
3697760,23
3698380,22
3699008,19
3699632,14
3700256,13
3700884,14
3701504,14
3702132,15
3702756,17
3703380,17
3704012,18
3704632,21
3705260,16
3705892,10
3706512,11
3707144,13
3707768,17
3708396,13
3709028,14
3709648,23
3710276,22
3710904,13
3711528,11
3712160,10
3712776,14
3713404,21
3714028,22
3714652,22
3715280,25
3715900,16
3716528,17
3717156,16
3717776,12
3718404,21
3719028,27
3719660,30
3720288,24
3720912,19
3721540,25
3722168,24
3722792,15
3723420,10
3724040,13
3724668,19
3725296,17
3725920,11
3726548,14
3727172,15
3727804,15
3728436,12
3729056,24
3729684,24
3730308,19
3730940,17
3731572,10
3732192,16
3732820,17
3733444,15
3734068,13
3734700,12
3735320,12
3735952,13
3736580,19
3737200,21
3737832,21
3738452,21
3739084,18
3739716,12
3740336,11
3740964,12
3741588,12
3742216,14
3742844,17
3743464,17
3744096,13
3744716,11
3745340,11
3745972,10
3746592,16
3747220,17
3747852,10
3748472,12
3749104,13
3749728,15
3750356,12
3750988,11
3751608,11
3752240,11
3752864,12
3753488,14
3754120,14
3754736,17
3755368,18
3755992,19
3756616,21
3757248,15
3757868,11
3758500,11
3759128,11
3759752,11
3760384,11
3761008,11
3761636,10
3762268,11
3762888,17
3763520,35
3764144,41
3764768,34
3765396,19
3766016,14
3766648,20
3767272,22
3767896,17
3768528,15
3769144,19
3769772,23
3770404,28
3771024,26
3771652,21
3772280,20
3772908,20
3773540,11
3774160,15
3774788,13
3775416,13
3776040,12
3776668,14
3777288,14
3777916,11
3778540,12
3779168,11
3779796,17
3780420,21
3781052,17
3781684,12
3782304,13
3782936,12
3783560,12
3784192,13
3784820,12
3785440,13
3786072,20
3786696,25
3787320,21
3787952,17
3788572,14
3789200,15
3789832,13
3790448,12
3791076,11
3791704,13
3792332,14
3792964,11
3793584,13
3794216,12
3794840,9
3795412,11
3796044,11
3796664,11
3797292,15
3797920,20
3798544,20
3799172,16
3799792,13
3800424,12
3801048,15
3801672,12
3802300,22
3802920,23
3803548,22
3804180,26
3804800,29
3805428,23
3806056,15
3806684,11
3807316,12
3807936,13
3808568,12
3809196,11
3809820,15
3810448,18
3811072,14
3811704,11
3812328,12
3812952,17
3813584,18
3814200,21
3814832,23
3815464,23
3816084,19
3816712,16
3817336,13
3817968,12
3818596,14
3819216,28
3819848,35
3820472,35
3821096,33
3821728,28
3822344,19
3822976,11
3823600,13
3824224,13
3824856,12
3825480,12
3826112,15
3826740,19
3827360,10
3827992,13
3828616,14
3829248,17
3829876,20
3830496,18
3831128,17
3831752,19
3832376,11
3833008,12
3833628,11
3834260,15
3834888,12
3835512,11
3836144,14
3836768,14
3837400,14
3838032,18
3838656,15
3839288,12
3839916,14
3840544,18
3841172,24
3841792,19
3842420,22
3843044,19
3843668,15
3844296,10
3844920,10
3845548,10
3846180,16
3846800,25
3847428,33
3848052,31
3848684,20
3849312,16
3849932,13
3850560,13
3851184,13
3851808,15
3852436,22
3853056,24
3853684,15
3854308,11
3854932,11
3855564,12
3856184,11
3856812,15
3857440,13
3858064,14
3858692,19
3859316,24
3859948,36
3860576,32
3861200,18
3861828,10
3862452,13
3863076,13
3863708,14
3864328,18
3864956,18
3865584,19
3866208,17
3866836,12
3867460,12
3868092,11
3868724,15
3869344,20
3869976,21
3870600,22
3871232,23
3871860,18
3872480,13
3873108,11
3873732,13
3874356,12
3874988,12
3875608,22
3876236,24
3876860,12
3877488,12
3878116,13
3878744,13
3879372,11
3880004,14
3880624,14
3881252,12
3881876,12
3882504,16
3883132,14
3883752,14
3884384,12
3885008,13
3885632,17
3886264,19
3886880,19
3887508,17
3888140,13
3888760,11
3889392,12
3890016,13
3890648,12
3891276,11
3891896,12
3892524,12
3893148,11
3893772,10
3894400,10
3895024,12
3895652,12
3896276,15
3896904,15
3897532,17
3898152,23
3898780,21
3899412,15
3900032,12
3900664,15
3901288,22
3901916,14
3902548,12
3903168,18
3903800,19
3904424,20
3905048,16
3905676,10
3906296,11
3906924,12
3907552,15
3908176,19
3908804,20
3909424,13
3910056,11
3910684,10
3911304,11
3911936,13
3912560,15
3913188,13
3913820,16
3914440,20
3915068,15
3915696,14
3916320,13
3916952,12
3917568,12
3918200,12
3918824,20
3919448,24
3920080,15
3920696,14
3921324,17
3921956,16
3922576,18
3923204,19
3923828,20
3924460,18
3925092,12
3925712,15
3926344,13
3926968,11
3927592,12
3928224,11
3928840,11
3929472,15
3930096,23
3930720,22
3931352,18
3931976,13
3932608,13
3933236,12
3933856,13
3934484,12
3935108,14
3935740,16
3936372,20
3936992,23
3937620,20
3938244,24
3938868,20
3939496,12
3940120,12
3940748,12
3941372,11
3942000,12
3942632,11
3943252,10
3943884,11
3944512,10
3945132,11
3945760,11
3946384,15
3947012,15
3947644,16
3948264,18
3948892,18
3949516,16
3950140,15
3950772,10
3951392,13
3952024,19
3952652,22
3953272,20
3953900,23
3954528,21
3955156,21
3955788,14
3956408,13
3957036,13
3957664,12
3958288,13
3958916,13
3959536,11
3960168,11
3960792,15
3961416,17
3962048,12
3962664,11
3963296,12
3963924,16
3964544,23
3965176,22
3965800,16
3966428,12
3967060,12
3967680,17
3968312,25
3968936,23
3969560,21
3970188,19
3970808,19
3971436,15
3972064,13
3972684,11
3973316,10
3973936,12
3974564,12
3975196,13
3975816,12
3976444,11
3977068,12
3977700,13
3978328,10
3978952,13
3979584,17
3980208,20
3980832,21
3981460,17
3982080,17
3982708,12
3983336,12
3983960,18
3984592,17
3985208,17
3985836,25
3986468,25
3987088,24
3987720,21
3988344,18
3988972,19
3989604,15
3990224,13
3990856,11
3991480,13
3992104,12
3992736,11
3993352,10
3993984,10
3994608,10
3995232,14
3995864,24
3996488,26
3997116,29
3997748,22
3998368,12
3999000,15
3999624,15
4000256,16
4000884,14
4001504,17
4002132,21
4002756,22
4003380,19
4004008,20
4004632,23
4005260,16
4005884,10
4006512,14
4007140,11
4007764,12
4008396,15
4009024,21
4009640,23
4010272,21
4010892,11
4011524,19
4012152,26
4012776,27
4013408,21
4014032,13
4014656,12
4015284,12
4015904,16
4016532,15
4017164,11
4017784,11
4018412,15
4019036,23
4019668,29
4020296,23
4020920,19
4021548,15
4022172,14
4022796,14
4023428,11
4024048,12
4024676,12
4025300,11
4025924,12
4026552,12
4027176,13
4027804,12
4028436,17
4029056,16
4029684,14
4030308,15
4030940,15
4031572,16
4032192,15
4032820,12
4033444,12
4034068,12
4034700,20
4035320,29
4035948,25
4036572,25
4037196,22
4037828,18
4038448,15
4039076,13
4039708,15
4040328,14
4040956,11
4041580,14
4042212,15
4042844,12
4043464,14
4044096,15
4044720,15
4045344,11
4045972,10
4046592,13
4047220,20
4047844,24
4048468,24
4049100,14
4049720,13
4050348,14
4050980,12
4051600,19
4052228,25
4052852,26
4053484,21
4054116,14
4054736,10
4055368,10
4055988,13
4056616,19
4057244,21
4057864,23
4058492,19
4059116,13
4059740,9
4060320,11
4060952,11
4061580,11
4062208,11
4062832,17
4063464,21
4064088,27
4064716,27
4065348,18
4065968,15
4066596,14
4067220,13
4067848,17
4068476,20
4069096,23
4069728,23
4070352,21
4070976,18
4071608,18
4072228,17
4072856,13
4073488,12
4074108,12
4074736,14
4075364,15
4075992,17
4076624,18
4077248,14
4077876,12
4078504,15
4079128,19
4079760,15
4080376,11
4081008,13
4081632,17
4082256,15
4082884,12
4083504,13
4084136,13
4084764,12
4085384,14
4086016,15
4086640,20
4087268,19
4087900,16
4088520,17
4089148,13
4089776,11
4090400,12
4091028,11
4091648,13
4092280,15
4092904,13
4093528,11
4094160,11
4094776,12
4095408,12
4096040,12
4096660,11
4097288,13
4097908,17
4098536,18
4099164,12
4099784,12
4100412,13
4101032,13
4101656,17
4102284,20
4102904,22
4103532,20
4104156,22
4104776,21
4105404,16
4106024,11
4106652,12
4107280,13
4107896,13
4108524,12
4109148,14
4109776,13
4110404,10
4111024,12
4111652,16
4112276,13
4112900,11
4113532,11
4114152,13
4114780,14
4115404,11
4116028,11
4116656,13
4117272,13
4117904,11
4118524,10
4119152,22
4119780,31
4120404,29
4121032,24
4121660,24
4122276,18
4122908,12
4123528,13
4124160,17
4124788,14
4125408,12
4126036,13
4126660,12
4127284,11
4127912,10
4128536,13
4129164,17
4129788,32
4130416,23
4131044,12
4131668,14
4132296,24
4132924,27
4133544,15
4134172,27
4134796,21
4135428,19
4136056,27
4136680,41
4137308,45
4137932,19
4138556,20
4139184,20
4139804,11
4140432,13
4141060,11
4141680,11
4142308,12
4142932,16
4143560,17
4144192,12
4144808,11
4145436,16
4146064,11
4146692,11
4147324,16
4147944,22
4148572,17
4149196,11
4149816,13
4150448,12
4151064,12
4151692,12
4152316,10
4152944,19
4153572,23
4154200,19
4154828,12
4155460,12
4156080,21
4156708,19
4157332,17
4157960,13
4158588,11
4159208,13
4159836,11
4160464,13
4161084,11
4161712,10
4162336,12
4162964,11
4163592,16
4164208,16
4164840,20
4165460,15
4166092,12
4166720,12
4167336,13
4167964,13
4168588,13
4169216,18
4169848,22
4170464,18
4171092,12
4171716,24
4172340,21
4172972,11
4173592,14
4174220,25
4174844,30
4175472,27
4176100,17
4176724,11
4177352,11
4177984,11
4178600,12
4179228,10
4179852,12
4180480,15
4181108,16
4181728,19
4182356,18
4182980,16
4183604,13
4184236,10
4184856,13
4185484,15
4186108,14
4186736,19
4187364,23
4187988,26
4188620,24
4189248,22
4189864,22
4190496,15
4191120,11
4191748,11
4192380,12
4193000,10
4193628,11
4194252,11
4194876,12
4195504,14
4196128,14
4196756,18
4197388,24
4198008,27
4198636,21
4199260,16
4199888,11
4200520,12
4201136,12
4201764,19
4202388,21
4203012,16
4203644,11
4204264,16
4204892,17
4205516,22
4206140,23
4206768,23
4207384,20
4208012,16
4208636,14
4209264,14
4209892,10
4210516,16
4211148,12
4211780,10
4212400,11
4213028,11
4213652,15
4214280,13
4214908,12
4215528,12
4216156,12
4216780,12
4217408,17
4218036,18
4218656,15
4219284,11
4219916,16
4220536,23
4221164,19
4221788,13
4222420,11
4223048,11
4223668,11
4224300,16
4224920,15
4225544,12
4226172,12
4226792,11
4227420,12
4228044,14
4228668,16
4229296,15
4229912,21
4230544,21
4231168,16
4231792,13
4232420,15
4233044,12
4233676,11
4234304,12
4234920,18
4235552,23
4236176,31
4236804,26
4237436,24
4238056,29
4238688,21
4239312,11
4239936,15
4240564,21
4241184,18
4241812,11
4242444,12
4243064,11
4243692,16
4244316,12
4244948,13
4245576,11
4246200,17
4246828,12
4247452,16
4248076,24
4248708,20
4249328,14
4249956,12
4250580,13
4251204,17
4251832,20
4252456,21
4253084,21
4253716,10
4254336,12
4254968,13
4255592,16
4256220,13
4256852,32
4257472,23
4258100,16
4258724,15
4259348,12
4259980,10
4260600,12
4261228,10
4261852,10
4262472,11
4263104,13
4263720,18
4264348,23
4264976,24
4265600,21
4266228,15
4266852,12
4267480,12
4268108,14
4268728,19
4269356,25
4269980,20
4270604,12
4271236,14
4271856,15
4272484,13
4273108,12
4273732,13
4274364,12
4274984,13
4275616,14
4276244,12
4276864,11
4277492,11
4278116,11
4278748,13
4279376,17
4279996,22
4280628,20
4281248,20
4281872,19
4282504,20
4283120,16
4283752,13
4284376,15
4285000,18
4285628,27
4286248,22
4286876,15
4287508,15
4288128,26
4288756,26
4289380,16
4290008,19
4290640,22
4291256,16
4291884,12
4292508,16
4293132,22
4293764,26
4294384,21
4295016,11
4295640,10
4296264,12
4296892,10
4297512,11
4298144,13
4298772,14
4299392,11
4300024,12
4300648,15
4301280,14
4301908,10
4302528,25
4303156,18
4303780,17
4304404,17
4305036,20
4305656,20
4306284,20
4306908,13
4307532,13
4308160,14
4308784,15
4309412,14
4310044,18
4310664,13
4311292,20
4311916,14
4312548,11
4313180,30
4313800,33
4314428,12
4315052,23
4315676,19
4316308,11
4316928,17
4317556,11
4318184,12
4318808,17
4319436,20
4320056,20
4320684,21
4321312,21
4321936,21
4322564,16
4323188,11
4323816,11
4324448,12
4325064,12
4325696,14
4326320,11
4326944,15
4327572,16
4328192,14
4328820,17
4329444,18
4330068,17
4330700,11
4331320,12
4331952,12
4332580,11
4333200,12
4333828,12
4334452,19
4335084,20
4335716,20
4336336,18
4336964,15
4337588,10
4338216,10
4338844,11
4339464,16
4340092,15
4340716,21
4341344,17
4341972,12
4342596,10
4343228,11
4343856,12
4344480,12
4345108,11
4345732,18
4346364,27
4346992,22
4347616,21
4348244,17
4348868,13
4349492,14
4350124,15
4350744,18
4351376,19
4352004,18
4352620,19
4353252,13
4353876,12
4354504,20
4355132,17
4355752,11
4356380,11
4357004,14
4357636,15
4358264,12
4358888,14
4359516,16
4360140,14
4360764,17
4361396,12
4362016,11
4362644,11
4363276,10
4363896,12
4364524,11
4365148,11
4365780,12
4366408,11
4367024,12
4367656,11
4368280,13
4368904,21
4369532,23
4370152,21
4370780,27
4371408,31
4372032,19
4372660,11
4373280,11
4373908,11
4374540,12
4375160,16
4375792,11
4376416,17
4377044,15
4377676,12
4378296,12
4378924,23
4379548,35
4380172,31
4380804,25
4381424,14
4382056,11
4382680,15
4383304,13
4383936,13
4384552,17
4385180,20
4385812,26
4386432,29
4387060,19
4387688,20
4388316,16
4388948,11
4389568,13
4390200,11
4390824,11
4391448,13
4392080,14
4392696,12
4393328,11
4393952,12
4394576,11
4395204,10
4395824,11
4396456,15
4397084,19
4397704,30
4398336,24
4398960,13
4399592,14
4400224,11
4400840,10
4401468,12
4402092,13
4402720,20
4403348,20
4403968,22
4404596,27
4405220,22
4405844,15
4406472,12
4407092,11
4407720,13
4408348,11
4408968,11
4409596,15
4410220,11
4410852,12
4411484,15
4412104,11
4412736,16
4413360,20
4413984,17
4414616,14
4415232,13
4415864,17
4416488,17
4417112,12
4417740,14
4418360,13
4418992,13
4419620,26
4420240,32
4420868,15
4421492,15
4422124,11
4422756,16
4423376,24
4424008,25
4424628,19
4425252,15
4425884,13
4426504,13
4427132,12
4427756,12
4428384,11
4429012,11
4429636,19
4430264,24
4430896,22
4431512,17
4432144,13
4432768,13
4433396,11
4434028,12
4434648,13
4435276,15
4435900,21
4436524,24
4437156,18
4437776,17
4438404,15
4439028,14
4439656,13
4440288,13
4440912,13
4441540,11
4442172,12
4442792,13
4443424,14
4444048,11
4444676,11
4445308,10
4445928,11
4446556,13
4447184,22
4447808,28
4448440,21
4449056,13
4449684,12
4450316,12
4450936,14
4451568,21
4452192,27
4452820,32
4453452,26
4454072,21
4454704,13
4455328,14
4455952,16
4456584,15
4457200,16
4457828,15
4458452,15
4459080,11
4459708,10
4460328,11
4460960,11
4461588,17
4462208,23
4462840,16
4463464,16
4464096,22
4464724,23
4465344,15
4465972,14
4466600,12
4467224,17
4467852,23
4468472,30
4469104,25
4469728,21
4470352,19
4470984,20
4471600,16
4472232,12
4472864,13
4473480,14
4474112,13
4474740,11
4475372,17
4476000,14
4476624,12
4477256,13
4477880,15
4478504,13
4479136,17
4479756,23
4480388,19
4481012,12
4481636,12
4482264,13
4482888,14
4483516,18
4484148,16
4484768,19
4485396,23
4486020,28
4486652,23
4487280,20
4487900,15
4488528,10
4489152,11
4489776,15
4490404,14
4491024,12
4491652,12
4492280,11
4492904,11
4493532,11
4494156,15
4494788,12
4495416,11
4496040,10
4496668,12
4497292,17
4497924,21
4498552,18
4499172,15
4499804,13
4500428,15
4501052,14
4501684,16
4502304,22
4502936,20
4503568,18
4504184,15
4504816,11
4505440,11
4506072,11
4506700,12
4507320,18
4507948,19
4508572,17
4509196,12
4509824,10
4510448,13
4511076,10
4511700,11
4512324,11
4512956,12
4513576,15
4514204,20
4514836,20
4515456,13
4516084,12
4516708,12
4517340,11
4517968,17
4518592,18
4519220,17
4519844,21
4520468,20
4521100,18
4521720,17
4522348,13
4522972,13
4523596,15
4524228,14
4524848,14
4525476,11
4526108,11
4526728,19
4527356,15
4527980,11
4528612,11
4529244,10
4529864,11
4530492,15
4531120,19
4531744,19
4532372,14
4532992,13
4533620,12
4534244,11
4534872,15
4535500,19
4536120,25
4536748,27
4537380,26
4538000,23
4538628,15
4539252,11
4539884,12
4540516,12
4541136,13
4541768,12
4542392,11
4543016,14
4543648,14
4544268,15
4544896,11
4545520,13
4546144,27
4546776,27
4547400,21
4548028,15
4548656,12
4549280,12
4549908,12
4550532,13
4551164,19
4551796,18
4552416,20
4553044,19
4553672,21
4554296,23
4554924,19
4555544,18
4556176,16
4556804,12
4557424,11
4558052,11
4558676,13
4559308,11
4559940,10
4560560,15
4561188,13
4561816,11
4562440,12
4563068,12
4563688,17
4564316,21
4564944,20
4565568,18
4566196,12
4566816,13
4567448,16
4568076,19
4568696,23
4569324,23
4569952,24
4570580,24
4571212,17
4571832,13
4572464,11
4573088,13
4573712,14
4574344,11
4574960,12
4575592,14
4576216,11
4576840,11
4577472,11
4578092,11
4578720,11
4579352,11
4579968,13
4580600,16
4581224,19
4581856,20
4582484,17
4583104,12
4583736,13
4584360,13
4584984,17
4585612,19
4586232,23
4586864,21
4587488,19
4588112,16
4588740,13
4589360,18
4589988,20
4590620,12
4591240,12
4591872,12
4592496,9
4593072,15
4593708,18
4594328,15
4594956,13
4595584,15
4596212,15
4596844,16
4597464,17
4598096,16
4598720,13
4599340,15
4599972,14
4600592,11
4601220,20
4601848,27
4602472,32
4603100,33
4603728,25
4604356,19
4604988,11
4605608,11
4606236,11
4606864,11
4607496,15
4608128,22
4608744,15
4609372,10
4609992,12
4610616,12
4611244,11
4611864,17
4612492,15
4613116,16
4613744,23
4614372,22
4614996,15
4615628,13
4616256,12
4616880,13
4617508,13
4618132,19
4618760,25
4619388,27
4620008,24
4620636,19
4621264,13
4621888,11
4622516,12
4623136,15
4623768,12
4624396,17
4625016,16
4625644,11
4626268,11
4626900,11
4627528,10
4628152,11
4628784,11
4629408,15
4630028,16
4630660,18
4631280,22
4631908,20
4632536,19
4633160,13
4633788,17
4634408,25
4635036,21
4635668,22
4636288,23
4636916,21
4637540,18
4638172,18
4638804,16
4639424,19
4640052,13
4640676,13
4641300,13
4641928,13
4642548,12
4643176,10
4643800,13
4644424,11
4645052,12
4645672,13
4646300,14
4646932,12
4647552,13
4648180,13
4648804,11
4649436,11
4650064,12
4650688,11
4651316,13
4651944,19
4652568,26
4653196,26
4653816,21
4654444,13
4655068,15
4655696,18
4656324,12
4656944,13
4657572,12
4658204,17
4658824,22
4659456,16
4660076,15
4660708,11
4661336,14
4661960,13
4662588,11
4663212,15
4663836,14
4664468,13
4665088,16
4665716,13
4666340,11
4666968,13
4667596,14
4668216,17
4668848,17
4669476,18
4670096,19
4670724,21
4671348,19
4671980,16
4672612,14
4673232,13
4673860,12
4674484,14
4675108,13
4675740,10
4676360,12
4676988,11
4677612,11
4678240,11
4678868,11
4679492,14
4680124,20
4680756,25
4681376,19
4682004,16
4682628,13
4683260,13
4683892,18
4684512,27
4685144,25
4685764,26
4686388,18
4687020,12
4687640,11
4688272,11
4688896,14
4689520,20
4690152,13
4690776,13
4691404,11
4692036,11
4692656,11
4693284,11
4693908,11
4694536,13
4695168,17
4695784,18
4696416,16
4697040,17
4697664,21
4698292,16
4698912,12
4699544,15
4700172,15
4700792,25
4701424,28
4702048,26
4702680,26
4703308,19
4703928,17
4704560,16
4705188,13
4705812,12
4706444,11
4707064,13
4707696,17
4708320,17
4708944,11
4709576,11
4710196,12
4710828,17
4711456,18
4712080,15
4712708,16
4713332,17
4713964,16
4714596,12
4715216,13
4715848,12
4716472,12
4717096,11
4717728,12
4718344,17
4718976,22
4719600,21
4720224,17
4720852,14
4721476,11
4722108,13
4722740,16
4723360,14
4723988,15
4724616,15
4725244,11
4725876,10
4726496,11
4727124,10
4727752,11
4728376,13
4729004,13
4729624,17
4730252,25
4730884,22
4731504,15
4732136,12
4732760,13
4733392,13
4734024,15
4734640,17
4735272,25
4735900,27
4736524,23
4737156,18
4737776,18
4738404,12
4739028,13
4739656,16
4740284,12
4740904,11
4741536,12
4742164,10
4742784,11
4743412,11
4744040,11
4744668,11
4745300,15
4745920,23
4746552,23
4747176,27
4747800,28
4748432,21
4749052,13
4749680,15
4750304,18
4750932,22
4751564,28
4752184,30
4752812,23
4753444,20
4754064,16
4754692,15
4755320,12
4755948,12
4756580,11
4757200,12
4757828,13
4758456,13
4759080,11
4759712,11
4760328,15
4760960,17
4761584,15
4762208,12
4762840,13
4763464,11
4764092,11
4764724,11
4765344,13
4765976,12
4766600,12
4767232,16
4767860,15
4768480,18
4769108,19
4769736,16
4770360,16
4770988,12
4771608,12
4772240,13
4772864,11
4773488,15
4774120,16
4774744,15
4775372,12
4776004,11
4776624,12
4777256,11
4777880,12
4778504,11
4779136,11
4779756,18
4780384,16
4781012,13
4781636,12
4782268,12
4782888,14
4783520,12
4784148,10
4784768,11
4785400,15
4786024,25
4786656,26
4787288,28
4787904,27
4788536,24
4789160,19
4789784,13
4790416,12
4791032,15
4791664,14
4792292,16
4792916,17
4793548,11
4794168,11
4794800,10
4795432,11
4796052,16
4796680,21
4797308,22
4797940,15
4798572,12
4799192,11
4799824,11
4800452,11
4801076,17
4801704,24
4802328,27
4802956,25
4803580,22
4804208,22
4804836,16
4805460,11
4806092,13
4806720,11
4807344,15
4807976,17
4808600,13
4809224,11
4809852,14
4810472,15
4811104,13
4811728,14
4812352,12
4812984,13
4813600,16
4814228,16
4814860,14
4815480,13
4816108,11
4816732,13
4817364,15
4817992,17
4818612,19
4819240,27
4819864,27
4820488,21
4821116,14
4821736,14
4822368,11
4822992,11
4823616,11
4824244,11
4824864,12
4825492,10
4826124,10
4826744,11
4827376,9
4827948,11
4828584,11
4829212,20
4829832,37
4830464,35
4831088,18
4831720,12
4832348,16
4832968,16
4833596,19
4834224,19
4834848,16
4835476,14
4836096,17
4836724,19
4837352,21
4837976,20
4838604,16
4839224,16
4839852,12
4840484,11
4841104,12
4841732,12
4842356,10
4842988,11
4843620,12
4844240,13
4844868,13
4845492,11
4846116,11
4846748,12
4847368,15
4847996,12
4848624,13
4849248,11
4849880,12
4850504,11
4851132,12
4851764,14
4852384,18
4853016,19
4853640,15
4854272,12
4854900,10
4855520,11
4856152,13
4856776,13
4857400,13
4858032,14
4858648,11
4859280,11
4859908,10
4860528,10
4861160,11
4861784,12
4862416,13
4863044,13
4863664,12
4864296,14
4864920,14
4865544,11
4866172,12
4866792,13
4867420,11
4868044,12
4868668,18
4869300,23
4869920,24
4870548,21
4871180,16
4871800,14
4872432,15
4873056,16
4873684,15
4874316,12
4874936,13
4875564,12
4876192,15
4876816,13
4877444,12
4878064,11
4878696,13
4879320,11
4879944,14
4880576,15
4881192,15
4881824,15
4882452,12
4883072,13
4883704,12
4884328,16
4884956,21
4885588,24
4886208,23
4886840,19
4887464,15
4888088,11
4888716,12
4889336,17
4889968,17
4890592,13
4891216,12
4891844,11
4892464,11
4893096,10
4893724,12
4894344,11
4894976,11
4895600,12
4896232,17
4896860,22
4897480,21
4898108,14
4898736,13
4899360,13
4899992,11
4900608,15
4901240,21
4901864,26
4902488,27
4903116,22
4903736,19
4904368,13
4905000,10
4905616,11
4906244,12
4906872,12
4907504,13
4908136,18
4908752,16
4909388,10
4910012,14
4910636,13
4911268,11
4911888,10
4912524,16
4913148,22
4913776,26
4914408,21
4915036,13
4915668,12
4916296,12
4916920,13
4917548,15
4918172,22
4918796,29
4919428,32
4920048,28
4920676,20
4921300,15
4921924,10
4922552,11
4923172,12
4923800,11
4924432,12
4925048,12
4925680,11
4926304,10
4926932,11
4927564,11
4928184,11
4928812,11
4929436,13
4930060,21
4930688,26
4931304,23
4931936,18
4932560,13
4933184,12
4933812,14
4934432,20
4935060,17
4935692,20
4936312,28
4936940,27
4937564,23
4938196,13
4938828,10
4939448,11
4940076,12
4940704,12
4941328,12
4941956,10
4942576,11
4943204,11
4943828,15
4944452,15
4945084,14
4945704,18
4946332,19
4946964,16
4947584,17
4948212,14
4948836,11
4949468,14
4950100,16
4950720,16
4951348,15
4951976,12
4952600,11
4953232,15
4953848,13
4954480,11
4955104,14
4955728,16
4956360,20
4956976,22
4957604,22
4958236,16
4958856,12
4959488,12
4960112,11
4960740,10
4961372,10
4961992,12
4962620,13
4963244,16
4963868,17
4964500,14
4965120,13
4965748,12
4966376,12
4967000,12
4967628,10
4968248,13
4968876,19
4969508,19
4970128,21
4970756,18
4971384,16
4972012,16
4972644,16
4973264,15
4973892,12
4974520,12
4975144,12
4975772,10
4976392,11
4977024,11
4977648,10
4978268,11
4978900,16
4979524,17
4980152,21
4980784,22
4981404,17
4982036,12
4982660,12
4983288,11
4983916,14
4984536,19
4985164,21
4985792,24
4986416,25
4987044,19
4987664,14
4988296,10
4988920,12
4989544,13
4990172,12
4990800,13
4991428,13
4992064,10
4992680,11
4993308,11
4993932,11
4994564,11
4995192,11
4995812,17
4996444,27
4997068,27
4997692,27
4998324,20
4998944,13
4999572,12
5000204,11
5000824,16
5001452,21
5002076,17
5002708,17
5003340,28
5003960,29
5004592,21
5005216,23
5005840,26
5006468,20
5007088,12
5007720,13
5008344,16
5008968,13
5009596,10
5010216,11
5010848,13
5011476,11
5012096,10
5012728,13
5013352,19
5013984,20
5014612,14
5015232,12
5015864,12
5016488,14
5017112,14
5017744,14
5018360,14
5018992,17
5019616,17
5020240,21
5020868,20
5021488,18
5022116,13
5022748,12
5023368,12
5023996,12
5024624,13
5025252,11
5025884,10
5026504,11
5027136,10
5027760,11
5028384,12
5029016,16
5029632,17
5030264,19
5030888,19
5031512,15
5032144,12
5032760,12
5033392,12
5034024,14
5034644,18
5035276,21
5035900,24
5036532,23
5037164,20
5037784,16
5038416,11
5039040,12
5039664,13
5040296,12
5040912,12
5041544,12
5042168,11
5042792,11
5043424,12
5044048,11
5044676,11
5045308,10
5045928,12
5046560,13
5047184,16
5047812,13
5048444,11
5049064,15
5049696,22
5050320,20
5050944,13
5051576,14
5052192,15
5052824,14
5053456,11
5054076,20
5054708,27
5055332,25
5055964,19
5056596,12
5057216,12
5057848,20
5058472,21
5059096,12
5059728,11
5060344,10
5060976,10
5061600,13
5062224,15
5062856,13
5063476,14
5064104,15
5064736,11
5065356,15
5065988,11
5066612,12
5067244,12
5067876,14
5068496,20
5069128,27
5069752,27
5070380,24
5071012,20
5071632,18
5072264,16
5072892,12
5073516,11
5074148,11
5074772,11
5075404,11
5076036,10
5076656,12
5077288,12
5077912,13
5078536,12
5079168,15
5079792,18
5080424,21
5081048,22
5081672,17
5082300,11
5082920,13
5083552,17
5084180,21
5084800,23
5085428,21
5086056,19
5086688,18
5087320,16
5087936,12
5088568,11
5089196,12
5089820,12
5090452,11
5091072,12
5091704,12
5092328,11
5092952,11
5093584,10
5094204,11
5094836,12
5095468,17
5096088,20
5096716,17
5097344,17
5097976,15
5098608,13
5099224,11
5099856,13
5100484,16
5101108,10
5101740,14
5102360,20
5102992,24
5103624,26
5104248,25
5104880,18
5105504,16
5106136,15
5106768,11
5107388,11
5108020,11
5108644,11
5109268,13
5109900,10
5110520,10
5111152,11
5111780,11
5112404,16
5113036,22
5113660,21
5114288,13
5114920,12
5115544,12
5116176,14
5116804,11
5117436,14
5118068,24
5118692,24
5119324,21
5119952,21
5120580,20
5121208,18
5121824,12
5122452,12
5123080,13
5123696,13
5124328,13
5124948,12
5125580,10
5126208,11
5126824,11
5127452,11
5128076,10
5128704,11
5129332,16
5129952,21
5130580,24
5131204,18
5131828,14
5132456,11
5133072,13
5133704,16
5134328,20
5134952,25
5135580,27
5136204,23
5136832,19
5137464,13
5138080,14
5138708,14
5139332,14
5139964,13
5140592,11
5141216,12
5141844,11
5142468,12
5143092,10
5143720,12
5144344,14
5144972,16
5145596,22
5146224,19
5146852,24
5147476,24
5148108,16
5148736,12
5149360,13
5149988,22
5150616,30
5151240,29
5151868,27
5152488,26
5153116,20
5153740,19
5154364,19
5154996,17
5155616,11
5156244,12
5156876,14
5157496,17
5158128,18
5158752,17
5159380,14
5160012,10
5160632,21
5161260,25
5161884,12
5162508,12
5163140,12
5163760,19
5164388,27
5165012,27
5165636,21
5166268,15
5166888,12
5167516,13
5168148,19
5168768,29
5169396,30
5170020,31
5170652,29
5171284,24
5171904,22
5172532,18
5173156,17
5173780,26
5174408,22
5175032,13
5175660,12
5176288,14
5176912,14
5177540,11
5178160,13
5178788,17
5179420,18
5180040,18
5180668,19
5181296,18
5181924,13
5182556,11
5183176,11
5183808,13
5184432,17
5185056,17
5185684,22
5186304,27
5186932,21
5187556,12
5188180,10
5188812,10
5189432,12
5190064,11
5190692,12
5191312,14
5191944,14
5192568,11
5193196,11
5193828,10
5194448,12
5195076,13
5195704,14
5196328,17
5196960,18
5197576,15
5198208,12
5198832,12
5199456,12
5200088,12
5200708,18
5201340,27
5201968,30
5202592,26
5203220,21
5203844,11
5204472,18
5205100,18
5205720,16
5206352,15
5206976,12
5207600,12
5208228,11
5208848,16
5209476,17
5210104,13
5210728,11
5211356,10
5211980,10
5212612,11
5213244,18
5213864,22
5214492,19
5215120,18
5215748,15
5216380,13
5217000,11
5217628,16
5218252,33
5218880,43
5219508,35
5220128,20
5220760,13
5221388,19
5222008,16
5222640,13
5223260,13
5223892,13
5224520,11
5225144,11
5225772,10
5226396,13
5227020,12
5227652,10
5228272,13
5228900,17
5229524,23
5230152,24
5230780,16
5231400,12
5232032,12
5232660,11
5233280,11
5233908,11
5234536,13
5235164,19
5235796,23
5236416,23
5237048,19
5237672,18
5238296,14
5238928,13
5239544,14
5240176,15
5240800,15
5241424,13
5242056,10
5242676,10
5243304,10
5243936,13
5244552,16
5245180,14
5245804,15
5246432,16
5247064,19
5247680,14
5248308,11
5248932,11
5249556,12
5250184,12
5250800,16
5251428,17
5252052,20
5252676,22
5253304,23
5253920,19
5254548,15
5255176,12
5255800,12
5256428,11
5257052,11
5257680,12
5258308,11
5258928,11
5259556,11
5260180,11
5260804,11
5261432,12
5262056,17
5262684,17
5263308,24
5263932,19
5264564,14
5265184,12
5265812,15
5266440,18
5267064,19
5267692,20
5268316,19
5268948,14
5269576,15
5270192,14
5270824,15
5271448,19
5272072,22
5272700,21
5273320,19
5273948,13
5274572,13
5275196,10
5275828,16
5276448,25
5277076,19
5277708,12
5278328,13
5278956,16
5279580,19
5280212,17
5280840,16
5281464,13
5282092,14
5282716,21
5283340,20
5283968,20
5284584,22
5285212,26
5285836,23
5286460,24
5287088,20
5287704,13
5288332,10
5288956,12
5289584,13
5290212,11
5290836,15
5291468,14
5292096,12
5292720,11
5293348,11
5293972,14
5294600,13
5295228,10
5295848,15
5296476,23
5297100,26
5297724,24
5298356,19
5298976,12
5299604,12
5300236,14
5300856,19
5301484,18
5302108,18
5302740,11
5303368,10
5303988,10
5304616,11
5305240,16
5305864,20
5306492,22
5307112,19
5307740,17
5308364,17
5308992,15
5309620,11
5310240,13
5310868,11
5311500,18
5312120,23
5312748,23
5313372,25
5314004,17
5314632,12
5315248,11
5315880,13
5316504,13
5317128,15
5317756,19
5318376,22
5319008,23
5319632,23
5320256,23
5320884,16
5321504,14
5322136,14
5322764,11
5323384,11
5324016,12
5324640,13
5325268,11
5325900,10
5326520,11
5327148,11
5327772,17
5328396,19
5329024,21
5329640,22
5330268,19
5330892,13
5331512,12
5332144,12
5332760,13
5333392,12
5334020,11
5334640,17
5335268,28
5335892,37
5336524,41
5337152,29
5337768,15
5338400,11
5339020,12
5339652,13
5340280,13
5340900,12
5341528,13
5342152,11
5342776,11
5343404,10
5344024,11
5344652,11
5345276,18
5345904,21
5346532,20
5347156,22
5347788,19
5348416,11
5349040,15
5349668,15
5350292,18
5350920,21
5351548,21
5352168,22
5352796,21
5353420,18
5354044,17
5354676,15
5355296,15
5355924,12
5356556,12
5357176,12
5357804,11
5358428,12
5359060,13
5359688,11
5360312,11
5360940,12
5361564,11
5362192,14
5362820,15
5363440,19
5364068,19
5364692,14
5365316,13
5365948,12
5366568,12
5367196,17
5367828,22
5368448,27
5369076,28
5369700,25
5370332,17
5370960,16
5371584,22
5372212,20
5372836,17
5373464,12
5374092,12
5374712,12
5375344,11
5375968,18
5376592,15
5377224,11
5377840,11
5378468,13
5379096,15
5379720,19
5380348,21
5380972,16
5381604,11
5382232,12
5382848,16
5383480,21
5384104,15
5384728,18
5385356,22
5385976,24
5386604,16
5387228,12
5387852,10
5388480,11
5389104,15
5389732,17
5390364,14
5390984,11
5391612,12
5392240,13
5392868,13
5393496,12
5394120,10
5394748,11
5395372,19
5395996,24
5396628,20
5397248,18
5397876,12
5398500,12
5399124,12
5399756,11
5400376,19
5401004,21
5401636,22
5402256,24
5402884,23
5403508,19
5404140,11
5404768,12
5405388,15
5406020,15
5406644,11
5407268,12
5407900,14
5408520,20
5409148,15
5409772,11
5410396,16
5411024,16
5411648,30
5412276,35
5412908,25
5413528,19
5414156,12
5414780,12
5415412,16
5416044,21
5416664,27
5417292,26
5417916,26
5418540,27
5419172,22
5419792,17
5420420,15
5421048,11
5421672,11
5422300,12
5422924,12
5423556,11
5424188,11
5424808,13
5425436,10
5426060,11
5426692,11
5427324,10
5427944,12
5428572,13
5429196,14
5429820,15
5430448,16
5431064,14
5431696,18
5432324,14
5432944,14
5433572,14
5434200,20
5434828,23
5435460,24
5436080,25
5436708,22
5437336,20
5437960,16
5438592,14
5439208,13
5439836,13
5440464,12
5441088,11
5441716,10
5442336,11
5442964,11
5443596,10
5444216,12
5444844,13
5445468,19
5446096,24
5446728,18
5447344,15
5447972,13
5448596,12
5449220,13
5449852,10
5450472,11
5451100,10
5451724,13
5452348,22
5452980,27
5453600,27
5454228,25
5454856,17
5455480,15
5456108,13
5456732,11
5457360,11
5457992,11
5458608,11
5459236,11
5459860,12
5460484,11
5461116,12
5461736,19
5462368,17
5462992,18
5463616,19
5464244,15
5464864,13
5465492,14
5466124,18
5466744,20
5467372,16
5467996,12
5468628,18
5469260,22
5469880,21
5470508,21
5471136,19
5471760,20
5472388,14
5473008,12
5473636,12
5474260,12
5474884,11
5475516,10
5476136,11
5476764,11
5477396,13
5478016,20
5478648,27
5479272,23
5479900,20
5480532,12
5481152,13
5481780,13
5482404,11
5483028,11
5483660,12
5484280,21
5484908,31
5485532,31
5486160,28
5486788,22
5487408,14
5488036,10
5488668,10
5489288,13
5489916,11
5490540,13
5491172,12
5491804,10
5492424,11
5493052,11
5493676,11
5494304,11
5494932,11
5495552,17
5496184,21
5496808,23
5497432,19
5498064,15
5498680,13
5499312,13
5499940,15
5500560,19
5501192,25
5501816,28
5502444,21
5503076,14
5503696,17
5504328,19
5504952,22
5505576,23
5506204,16
5506824,11
5507452,11
5508076,11
5508704,13
5509332,15
5509956,20
5510588,17
5511220,13
5511840,11
5512468,11
5513096,14
5513724,17
5514356,16
5514976,14
5515608,11
5516232,13
5516856,21
5517484,24
5518104,28
5518736,27
5519364,19
5519984,17
5520616,11
5521240,12
5521868,11
5522500,12
5523120,12
5523752,11
5524376,12
5525000,10
5525628,10
5526248,11
5526880,11
5527504,11
5528128,15
5528760,18
5529376,18
5530008,19
5530636,14
5531256,12
5531884,13
5532508,13
5533140,11
5533768,13
5534392,19
5535024,21
5535648,19
5536272,17
5536900,13
5537520,12
5538148,11
5538772,12
5539400,13
5540028,13
5540648,13
5541276,11
5541908,11
5542528,11
5543156,11
5543780,9
5544360,15
5544988,16
5545608,26
5546236,31
5546864,29
5547492,14
5548124,12
5548744,15
5549376,19
5550000,24
5550624,27
5551256,27
5551872,24
5552504,21
5553128,18
5553752,11
5554384,11
5555004,15
5555632,19
5556264,15
5556884,12
5557512,11
5558136,11
5558768,11
5559396,12
5560016,14
5560644,10
5561268,11
5561896,13
5562524,22
5563144,25
5563776,29
5564400,25
5565024,13
5565656,13
5566280,18
5566912,23
5567544,27
5568164,29
5568792,24
5569416,23
5570048,24
5570676,20
5571296,16
5571924,12
5572548,12
5573172,12
5573804,10
5574424,13
5575052,12
5575676,12
5576304,10
5576932,12
5577560,11
5578192,22
5578820,26
5579440,21
5580072,15
5580696,12
5581320,15
5581948,17
5582568,17
5583196,16
5583824,16
5584448,18
5585076,21
5585696,19
5586324,16
5586956,12
5587576,11
5588204,11
5588832,11
5589460,12
5590092,11
5590712,14
5591344,16
5591968,13
5592592,14
5593224,13
5593840,10
5594472,15
5595096,19
5595720,17
5596352,16
5596968,15
5597596,13
5598228,12
5598848,12
5599480,13
5600104,11
5600732,10
5601364,14
5601984,18
5602612,23
5603236,29
5603860,27
5604492,18
5605112,14
5605744,13
5606368,13
5606992,15
5607620,13
5608240,11
5608868,12
5609500,14
5610120,11
5610748,11
5611376,11
5612004,13
5612636,14
5613256,15
5613884,15
5614512,12
5615136,12
5615764,11
5616384,11
5617012,11
5617640,20
5618264,21
5618892,18
5619512,21
5620144,22
5620772,18
5621392,13
5622024,12
5622648,12
5623276,12
5623908,14
5624528,12
5625156,11
5625784,10
5626408,11
5627036,10
5627656,11
5628288,12
5628912,15
5629536,17
5630168,17
5630792,15
5631424,13
5632056,13
5632672,16
5633300,17
5633924,16
5634552,13
5635180,11
5635800,15
5636428,18
5637052,19
5637676,14
5638308,16
5638928,18
5639556,16
5640180,12
5640804,13
5641436,13
5642060,11
5642688,11
5643316,12
5643936,11
5644564,15
5645188,21
5645820,19
5646448,20
5647072,17
5647700,12
5648324,15
5648948,13
5649580,12
5650200,13
5650828,11
5651456,10
5652080,10
5652708,14
5653332,19
5653964,22
5654592,20
5655216,24
5655844,19
5656468,15
5657096,14
5657724,12
5658344,17
5658972,20
5659596,13
5660220,10
5660852,13
5661472,15
5662100,12
5662732,14
5663352,15
5663984,12
5664608,11
5665236,12
5665868,13
5666488,15
5667116,15
5667744,15
5668368,18
5668996,20
5669616,20
5670244,16
5670872,15
5671496,15
5672128,15
5672744,18
5673376,13
5674004,11
5674624,11
5675256,10
5675880,11
5676508,11
5677140,10
5677760,12
5678388,20
5679016,24
5679640,27
5680272,23
5680888,16
5681516,12
5682144,15
5682768,12
5683400,11
5684016,17
5684644,23
5685276,22
5685896,24
5686524,19
5687148,15
5687780,15
5688412,17
5689032,19
5689660,13
5690284,11
5690908,14
5691540,12
5692160,13
5692788,11
5693416,11
5694040,11
5694672,11
5695292,16
5695920,24
5696552,22
5697172,12
5697800,13
5698424,14
5699052,13
5699684,12
5700304,11
5700936,11
5701560,18
5702184,20
5702816,27
5703432,23
5704064,15
5704688,14
5705312,13
5705944,12
5706568,11
5707196,13
5707828,16
5708448,11
5709080,12
5709704,13
5710336,14
5710964,11
5711584,11
5712216,11
5712840,14
5713464,27
5714096,28
5714712,24
5715344,15
5715972,11
5716592,16
5717224,23
5717848,29
5718480,30
5719108,23
5719728,18
5720360,14
5720984,13
5721608,13
5722236,13
5722856,15
5723488,15
5724112,15
5724736,10
5725368,11
5725988,11
5726620,11
5727252,12
5727872,14
5728504,16
5729132,15
5729760,16
5730392,15
5731012,12
5731644,12
5732272,13
5732896,15
5733528,18
5734148,19
5734780,22
5735404,19
5736028,16
5736656,18
5737272,15
5737900,12
5738532,13
5739152,12
5739784,12
5740408,12
5741036,13
5741668,10
5742288,11
5742916,10
5743544,12
5744168,13
5744796,13
5745416,14
5746044,16
5746668,17
5747292,16
5747924,15
5748548,12
5749176,15
5749808,21
5750424,23
5751056,27
5751680,27
5752312,23
5752940,21
5753560,14
5754192,11
5754816,11
5755440,11
5756068,11
5756688,13
5757320,15
5757944,16
5758568,12
5759200,12
5759824,13
5760456,11
5761084,10
5761704,11
5762332,14
5762956,18
5763584,17
5764212,14
5764832,13
5765460,12
5766084,12
5766708,17
5767336,20
5767956,23
5768584,26
5769208,24
5769832,19
5770460,16
5771084,14
5771716,11
5772344,13
5772964,13
5773592,15
5774216,17
5774844,13
5775476,10
5776096,11
5776724,11
5777348,12
5777972,11
5778600,12
5779220,13
5779848,18
5780472,19
5781096,17
5781724,12
5782352,11
5782980,11
5783612,12
5784232,24
5784864,28
5785488,28
5786116,27
5786748,19
5787368,15
5787996,15
5788620,13
5789244,12
5789876,11
5790496,12
5791124,11
5791756,10
5792376,11
5793004,11
5793628,10
5794260,10
5794888,12
5795508,17
5796136,24
5796764,21
5797388,14
5798016,12
5798636,12
5799264,12
5799888,15
5800512,18
5801140,22
5801760,29
5802388,27
5803020,18
5803640,12
5804268,10
5804892,11
5805524,13
5806156,12
5806776,13
5807404,14
5808032,15
5808656,11
5809284,10
5809904,10
5810536,10
5811160,15
5811784,17
5812416,17
5813036,15
5813664,14
5814296,12
5814912,11
5815544,12
5816168,18
5816800,19
5817428,16
5818048,15
5818676,14
5819300,19
5819924,24
5820556,22
5821176,16
5821808,13
5822432,11
5823056,11
5823684,11
5824304,13
5824932,10
5825564,10
5826184,11
5826812,11
5827436,11
5828068,15
5828696,18
5829320,18
5829948,16
5830576,13
5831200,12
5831828,11
5832448,17
5833076,15
5833704,12
5834328,17
5834960,24
5835576,25
5836208,28
5836836,24
5837456,17
5838084,15
5838708,13
5839340,11
5839972,11
5840592,12
5841220,12
5841844,14
5842468,11
5843100,11
5843720,13
5844348,18
5844976,22
5845600,25
5846228,22
5846852,15
5847484,12
5848116,14
5848736,17
5849364,15
5849992,14
5850620,16
5851252,25
5851872,29
5852504,25
5853128,20
5853752,16
5854384,13
5855000,13
5855632,12
5856264,11
5856880,12
5857512,14
5858136,14
5858764,13
5859396,11
5860016,10
5860644,11
5861268,14
5861896,19
5862528,24
5863144,21
5863772,14
5864400,13
5865024,15
5865652,12
5866272,17
5866900,21
5867532,23
5868152,23
5868784,19
5869408,16
5870040,16
5870668,16
5871288,18
5871920,15
5872544,13
5873168,13
5873800,12
5874416,11
5875048,11
5875672,11
5876296,11
5876928,10
5877544,15
5878176,19
5878808,20
5879428,21
5880060,22
5880684,15
5881312,12
5881944,12
5882568,13
5883200,14
5883824,18
5884448,19
5885080,21
5885700,24
5886328,22
5886956,16
5887584,13
5888216,14
5888840,15
5889468,12
5890096,11
5890720,13
5891348,10
5891972,10
5892604,10
5893236,10
5893856,11
5894488,15
5895112,18
5895736,20
5896364,16
5896984,14
5897612,12
5898240,11
5898864,12
5899492,10
5900116,11
5900748,15
5901380,20
5902000,28
5902628,27
5903252,21
5903880,23
5904508,22
5905128,15
5905756,11
5906384,13
5907008,11
5907636,12
5908256,11
5908884,10
5909516,10
5910136,11
5910768,12
5911392,12
5912020,13
5912652,16
5913272,18
5913904,16
5914528,14
5915152,13
5915784,11
5916400,12
5917032,15
5917656,21
5918280,25
5918912,21
5919528,23
5920160,20
5920788,18
5921408,20
5922036,16
5922660,12
5923292,13
5923920,13
5924544,11
5925172,10
5925800,11
5926424,11
5927052,12
5927672,12
5928304,14
5928928,15
5929552,19
5930184,14
5930800,12
5931432,12
5932060,11
5932680,14
5933312,19
5933936,24
5934568,29
5935196,24
5935816,22
5936448,18
5937072,11
5937700,10
5938332,12
5938952,11
5939584,13
5940208,12
5940832,11
5941460,10
5942084,11
5942712,12
5943344,11
5943960,10
5944592,13
5945216,16
5945844,17
5946476,16
5947096,15
5947724,11
5948352,13
5948976,12
5949604,12
5950224,17
5950856,19
5951480,21
5952104,17
5952732,15
5953356,15
5953988,17
5954616,13
5955240,12
5955868,11
5956492,13
5957124,14
5957756,13
5958376,11
5959008,11
5959632,11
5960256,10
5960884,10
5961504,13
5962136,19
5962764,22
5963384,24
5964016,21
5964640,13
5965268,13
5965900,14
5966520,20
5967148,21
5967776,21
5968400,19
5969028,19
5969648,22
5970276,19
5970904,15
5971528,14
5972156,11
5972776,12
5973408,12
5974040,11
5974656,11
5975288,11
5975912,11
5976544,11
5977176,15
5977792,15
5978424,16
5979048,19
5979672,23
5980304,16
5980920,12
5981552,12
5982176,12
5982800,12
5983428,16
5984048,19
5984676,25
5985308,28
5985928,30
5986556,15
5987184,11
5987816,11
5988444,14
5989064,13
5989696,13
5990320,13
5990944,13
5991576,16
5992196,15
5992824,13
5993448,11
5994076,13
5994704,16
5995328,19
5995960,29
5996592,28
5997208,18
5997840,12
5998464,12
5999096,13
5999724,16
6000344,20
6000976,26
6001600,22
6002224,19
6002852,16
6003472,15
6004100,13
6004724,11
6005352,11
6005980,12
6006608,11
6007236,11
6007868,10
6008488,12
6009116,11
6009744,17
6010376,16
6011004,11
6011624,13
6012256,15
6012880,17
6013504,17
6014136,12
6014756,14
6015384,12
6016020,16
6016640,27
6017268,29
6017892,19
6018524,11
6019156,14
6019776,16
6020408,17
6021032,15
6021656,12
6022284,14
6022904,14
6023532,12
6024160,12
6024784,9
6025360,10
6025988,10
6026620,11
6027244,10
6027868,15
6028500,22
6029124,29
6029752,25
6030384,13
6031008,12
6031640,12
6032268,12
6032896,16
6033524,19
6034144,21
6034776,24
6035400,19
6036024,25
6036656,25
6037272,21
6037904,17
6038536,14
6039156,11
6039788,12
6040412,14
6041044,20
6041676,19
6042296,13
6042924,11
6043548,11
6044176,11
6044804,12
6045424,17
6046056,18
6046680,15
6047304,12
6047936,14
6048556,15
6049184,14
6049816,16
6050436,19
6051068,22
6051692,21
6052324,19
6052952,15
6053576,12
6054208,11
6054832,12
6055456,13
6056088,11
6056704,12
6057336,12
6057960,11
6058584,12
6059216,13
6059832,11
6060468,13
6061100,16
6061720,19
6062352,21
6062980,23
6063608,17
6064240,12
6064856,14
6065484,16
6066112,19
6066736,21
6067368,19
6067984,19
6068616,19
6069240,17
6069864,15
6070496,11
6071120,11
6071748,12
6072380,12
6073000,11
6073632,13
6074256,11
6074884,11
6075516,10
6076136,10
6076768,11
6077396,11
6078020,12
6078652,21
6079272,31
6079904,27
6080540,17
6081160,13
6081788,13
6082416,14
6083044,17
6083676,17
6084296,24
6084924,25
6085552,21
6086176,19
6086808,18
6087424,18
6088056,12
6088680,12
6089304,13
6089932,11
6090552,13
6091184,11
6091816,12
6092432,12
6093064,13
6093688,10
6094320,12
6094952,14
6095568,20
6096200,25
6096824,20
6097448,13
6098080,12
6098696,13
6099328,11
6099952,11
6100576,12
6101208,15
6101832,19
6102464,17
6103096,15
6103712,14
6104344,16
6104968,19
6105596,17
6106228,14
6106848,13
6107480,11
6108104,11
6108728,10
6109360,11
6109976,11
6110608,14
6111240,18
6111864,21
6112496,20
6113124,17
6113756,13
6114384,11
6115008,12
6115640,17
6116264,24
6116888,24
6117520,23
6118140,24
6118772,21
6119396,19
6120020,17
6120652,13
6121272,13
6121904,13
6122536,12
6123156,12
6123788,12
6124412,11
6125044,11
6125676,10
6126296,11
6126928,14
6127552,14
6128176,13
6128808,14
6129428,18
6130060,20
6130684,14
6131312,12
6131944,13
6132568,12
6133200,18
6133832,24
6134452,25
6135084,19
6135708,15
6136336,11
6136964,10
6137584,16
6138220,15
6138844,11
6139472,11
6140104,14
6140724,11
6141356,13
6141992,11
6142612,10
6143244,11
6143872,11
6144504,13
6145132,10
6145752,9
6146328,11
6146952,13
6147580,12
6148212,12
6148832,12
6149460,13
6150084,20
6150708,18
6151340,18
6151960,24
6152588,25
6153212,20
6153840,12
6154468,11
6155092,13
6155724,12
6156356,12
6156976,17
6157604,17
6158228,13
6158856,11
6159484,10
6160104,13
6160732,15
6161356,16
6161980,15
6162612,18
6163232,20
6163860,15
6164492,14
6165112,15
6165740,11
6166368,22
6166996,26
6167628,22
6168248,19
6168876,10
6169500,11
6170128,11
6170756,12
6171376,15
6172004,17
6172628,21
6173256,20
6173884,15
6174504,11
6175136,13
6175764,10
6176384,11
6177012,11
6177636,16
6178268,20
6178900,16
6179520,17
6180148,13
6180776,11
6181400,15
6182032,16
6182648,13
6183280,15
6183904,21
6184528,26
6185160,25
6185776,26
6186404,15
6187036,10
6187656,11
6188284,12
6188912,12
6189540,12
6190172,12
6190792,10
6191424,12
6192048,11
6192672,13
6193300,15
6193920,11
6194552,11
6195176,12
6195800,14
6196432,20
6197052,18
6197684,14
6198312,13
6198932,12
6199564,12
6200188,19
6200820,26
6201452,25
6202072,23
6202704,21
6203328,18
6203952,11
6204584,13
6205204,13
6205832,14
6206460,15
6207084,12
6207712,11
6208340,12
6208968,10
6209596,11
6210216,11
6210848,14
6211472,22
6212100,24
6212732,17
6213352,13
6213984,12
6214608,13
6215232,12
6215864,11
6216480,14
6217112,12
6217744,14
6218360,17
6218992,19
6219616,21
6220248,21
6220880,15
6221496,13
6222128,13
6222752,14
6223376,12
6224008,11
6224624,12
6225256,10
6225880,12
6226504,13
6227132,11
6227752,17
6228384,25
6229012,26
6229632,20
6230264,12
6230888,13
6231520,13
6232148,14
6232768,15
6233400,23
6234024,29
6234648,27
6235280,22
6235896,22
6236528,19
6237152,13
6237776,11
6238408,10
6239024,12
6239656,12
6240288,11
6240904,11
6241532,11
6242160,11
6242788,10
6243420,10
6244040,11
6244668,16
6245296,26
6245920,31
6246552,22
6247168,13
6247796,12
6248420,13
6249044,11
6249676,10
6250296,15
6250924,17
6251556,20
6252176,19
6252804,20
6253428,23
6254060,22
6254692,18
6255312,17
6255944,17
6256568,15
6257192,13
6257824,10
6258440,11
6259068,11
6259696,11
6260320,11
6260948,15
6261576,24
6262204,24
6262836,22
