tempo_arduino_micro_s,valor_ADC
500,21
1004,26
1504,29
2000,28
2508,21
3000,16
3508,13
4000,10
4508,10
5000,11
5500,10
6000,14
6500,14
7004,15
7500,17
8000,16
8500,11
9000,11
9500,10
10000,14
10516,12
11036,12
11564,11
12084,12
12612,12
13132,14
13660,17
14180,18
14708,14
15228,15
15756,16
16276,16
16796,13
17316,22
17836,25
18356,27
18876,26
19396,21
19916,19
20436,18
20956,14
21476,10
21996,11
22516,16
23036,16
23564,15
24084,16
24612,15
25132,11
25660,12
26180,11
26708,10
27228,11
27756,11
28276,12
28804,18
29324,21
29852,25
30372,20
30900,16
31420,15
31948,16
32472,16
32996,15
33516,12
34044,16
34564,26
35092,28
35612,27
36140,20
36660,15
37188,12
37708,12
38236,13
38760,14
39284,15
39804,16
40332,16
40852,15
41372,15
41892,13
42412,16
42932,18
43452,15
43972,12
44492,10
45012,11
45532,17
46052,19
46572,21
47092,22
47612,19
48140,15
48660,15
49188,15
49708,18
50236,29
50756,33
51284,24
51804,22
52332,24
52852,21
53380,18
53900,16
54428,12
54948,12
55476,17
55996,16
56524,16
57044,17
57572,14
58096,16
58620,13
59140,12
59668,12
60188,14
60716,12
61240,15
61764,19
62284,23
62812,16
63332,12
63860,11
64384,15
64908,15
65428,16
65948,16
66468,15
66988,14
67508,17
68028,20
68548,21
69068,18
69588,14
70108,12
70628,10
71148,10
71672,10
72192,12
72716,16
73236,22
73764,23
74284,21
74812,20
75332,13
75860,10
76384,10
76908,11
77428,11
77956,12
78476,13
79004,21
79528,23
80052,26
80572,23
81100,17
81620,17
82148,16
82668,16
83196,15
83720,19
84244,22
84764,23
85292,25
85812,25
86340,24
86860,19
87388,14
87908,12
88436,14
88956,16
89484,15
90004,14
90524,18
91044,21
91564,20
92084,15
92604,14
93124,11
93644,11
94164,11
94684,11
95208,11
95724,11
96248,14
96764,24
97292,26
97812,17
98340,15
98860,17
99388,19
99908,22
100436,27
101000,30
101584,31
102156,35
102736,25
103304,16
103880,11
104456,10
105024,10
105600,14
106168,17
106744,16
107312,16
107896,15
108464,11
109040,11
109624,12
110192,11
110768,11
111336,15
111920,21
112492,22
113072,21
113640,21
114216,16
114792,15
115364,16
115944,17
116512,17
117096,17
117664,23
118240,29
118824,34
119392,23
119976,14
120548,15
121128,11
121696,11
122280,15
122848,15
123428,15
124008,15
124576,15
125152,14
125720,19
126304,14
126876,14
127452,14
128032,15
128600,12
129176,20
129744,31
130320,29
130888,24
131472,17
132040,16
132616,19
133192,21
133760,27
134344,35
134912,33
135496,24
136064,14
136648,13
137224,19
137792,16
138376,13
138944,14
139528,17
140096,16
140680,15
141252,15
141824,12
142408,11
142976,10
143560,11
144128,11
144712,13
145280,17
145864,18
146440,19
147008,19
147592,16
148160,16
148744,16
149312,17
149896,20
150464,16
151040,18
151624,20
152196,19
152776,17
153348,14
153928,14
154496,14
155080,13
155656,15
156224,15
156808,16
157376,16
157952,15
158524,11
159104,11
159676,11
160252,10
160832,12
161400,15
161976,24
162544,27
163128,28
163700,26
164280,17
164848,15
165416,19
165992,16
166560,16
167144,16
167712,22
168296,26
168864,30
169432,30
170016,24
170584,17
171160,11
171728,11
172312,14
172880,16
173464,14
174032,15
174612,16
175192,11
175764,12
176344,11
176912,12
177496,11
178064,10
178640,12
179224,14
179792,20
180368,18
180936,15
181520,16
182088,17
182672,17
183240,21
183816,22
184400,22
184968,20
185544,19
186112,15
186696,16
187264,18
187848,14
188424,12
188992,16
189576,16
190144,16
190728,15
191296,16
191880,11
192452,10
193024,11
193608,11
194176,11
194752,19
195320,27
195904,27
196472,24
197056,18
197624,16
198200,15
198784,15
199352,19
199936,20
200508,20
201088,18
201656,23
202232,26
202816,22
203388,14
203968,11
204540,10
205120,11
205688,15
206264,15
206832,15
207400,16
207976,17
208544,13
209128,10
209696,10
210272,11
210840,14
211416,17
212000,22
212568,24
213144,22
213712,21
214296,15
214868,18
215448,16
216016,19
216592,17
217168,23
217740,21
218320,21
218888,22
219472,23
220044,19
220624,15
221200,11
221768,11
222352,15
222924,15
223504,15
224076,16
224656,15
225224,11
225800,10
226384,11
226952,14
227536,13
228104,16
228688,14
229256,11
229840,11
230416,12
230984,15
231560,17
232132,16
232712,15
233284,15
233864,15
234432,14
235012,17
235592,19
236164,18
236744,19
237316,21
237896,15
238468,13
239048,17
239624,17
240196,15
240776,16
241344,15
241928,12
242496,12
243080,13
243652,12
244228,11
244808,14
245376,20
245960,21
246528,26
247112,24
247684,22
248264,16
248840,16
249408,15
249992,17
250560,30
251144,28
251716,26
252296,29
252868,31
253440,24
254024,18
254596,15
255176,17
255748,17
256328,16
256904,15
257480,15
258056,16
258624,14
259200,15
259768,14
260344,11
260912,11
261496,16
262064,19
262640,16
263224,17
263792,17
264376,15
264944,16
265528,17
266096,17
266680,13
267248,23
267824,25
268408,25
268976,22
269560,19
270128,19
270712,15
271284,11
271860,13
272440,15
273008,14
273592,15
274164,15
274744,15
275316,11
275896,9
276416,13
276988,14
277568,11
278140,14
278720,23
279288,23
279872,25
280444,22
281024,15
281596,15
282172,18
282752,22
283320,24
283904,23
284476,24
285056,28
285628,27
286200,18
286784,15
287352,13
287936,10
288508,13
289088,15
289656,18
290240,15
290808,16
291384,16
291968,14
292540,11
293120,11
293688,11
294272,13
294844,16
295416,26
296000,27
296568,29
297152,20
297724,15
298304,16
298876,17
299456,17
300028,24
300604,26
301184,30
301756,34
302336,32
302916,26
303496,21
304068,12
304640,11
305224,14
305796,14
306376,15
306948,15
307528,16
308104,15
308688,11
309264,11
309836,13
310416,13
310984,14
311568,17
312140,20
312720,19
313292,24
313868,22
314448,14
315020,15
315600,16
316172,16
316752,14
317324,17
317904,17
318488,17
319060,19
319640,16
320212,15
320792,13
321360,11
321944,11
322512,17
323092,21
323672,21
324244,22
324824,15
325392,10
325976,10
326548,11
327120,11
327704,11
328272,11
328848,22
329416,24
329992,23
330560,19
331144,15
331712,15
332288,18
332872,16
333440,20
334016,26
334584,27
335168,32
335740,29
336320,23
336888,13
337456,9
337980,10
338552,11
339136,15
339708,15
340288,14
340856,16
341440,15
342008,11
342584,11
343168,11
343736,11
344320,12
344888,12
345472,21
346044,19
346616,19
347200,26
347768,18
348352,16
348920,23
349504,20
350072,18
350656,19
351228,25
351804,28
352384,27
352952,18
353536,17
354104,15
354688,16
355256,16
355832,16
356416,15
356988,15
357568,15
358140,15
358720,15
359296,14
359880,15
360456,13
361024,13
361608,14
362176,17
362752,20
363324,19
363904,17
364476,15
365052,15
365632,16
366204,17
366784,14
367356,19
367936,25
368516,27
369096,25
369672,25
370240,19
370824,12
371396,10
371976,17
372548,22
373128,17
373696,15
374276,20
374856,24
375428,21
376008,14
376576,14
377160,11
377732,14
378312,10
378888,16
379456,21
380040,20
380612,19
381192,16
381772,20
382352,23
382924,21
383500,21
384084,20
384652,19
385232,21
385804,20
386384,16
386956,18
387536,13
388112,11
388684,17
389264,18
389832,15
390416,15
390984,14
391568,12
392140,11
392716,10
393296,10
393868,10
394448,15
395016,18
395600,21
396172,20
396752,21
397328,17
397900,15
398480,15
399052,18
399632,19
400212,15
400792,15
401364,20
401940,27
402520,28
403092,25
403672,26
404252,19
404832,12
405400,11
405980,15
406560,14
407132,16
407712,15
408284,14
408864,14
409436,13
410016,13
410592,13
411160,15
411736,17
412304,21
412888,18
413456,17
414032,16
414600,16
415184,16
415760,15
416328,16
416912,15
417480,19
418064,25
418632,32
419216,27
419784,26
420364,22
420944,14
421512,11
422096,12
422664,15
423248,16
423816,15
424400,15
424976,13
425544,11
426128,10
426696,10
427280,11
427848,18
428432,23
429004,22
429576,22
430160,21
430728,18
431312,15
431884,15
432464,15
433032,16
433616,16
434192,21
434764,18
435344,22
435912,22
436496,25
437064,26
437648,20
438220,17
438796,18
439376,22
439948,20
440528,18
441104,16
441688,11
442256,13
442832,11
443416,11
443988,12
444568,16
445140,22
445720,28
446292,30
446872,29
447444,21
448020,15
448600,17
449168,18
449752,19
450324,21
450904,27
451472,32
452052,31
452632,30
453204,28
453784,26
454352,13
454936,11
455508,13
456088,15
456656,16
457232,16
457816,15
458388,11
458968,11
459540,11
460120,13
460692,14
461268,18
461848,18
462416,20
463000,21
463572,16
464152,15
464720,18
465304,19
465872,17
466452,15
467032,16
467604,25
468184,27
468756,25
469336,18
469908,18
470484,15
471064,10
471636,11
472216,15
472788,17
473368,16
473940,16
474520,15
475092,11
475668,11
476248,17
476816,17
477400,12
477972,11
478552,13
479132,15
479708,20
480288,23
480860,17
481440,15
482008,16
482592,15
483160,17
483744,19
484316,24
484892,27
485472,30
486044,24
486624,16
487192,14
487776,11
488348,11
488920,16
489504,15
490076,15
490656,16
491228,16
491808,11
492376,11
492960,10
493528,11
494104,11
494688,14
495256,17
495840,17
496412,21
496992,20
497560,16
498140,16
498720,16
499292,16
499872,14
500444,19
501024,25
501596,26
502176,28
502756,25
503332,26
503912,20
504484,14
505064,13
505636,18
506216,16
506788,15
507364,15
507944,15
508516,13
509096,10
509668,12
510248,13
510820,15
511400,16
511980,21
512556,23
513136,24
513704,21
514288,15
514856,18
515440,21
516008,24
516584,19
517168,19
517736,17
518320,24
518892,27
519472,22
520044,23
520624,17
521196,11
521772,10
522352,15
522920,15
523504,17
524076,15
524656,15
525228,11
525800,11
526384,10
526956,11
527536,13
528108,13
528688,11
529256,17
529840,20
530412,21
530988,15
531568,15
532140,17
532720,16
533288,16
533872,16
534444,18
535016,20
535600,21
536172,19
536752,18
537324,17
537904,15
538472,17
539056,21
539628,18
540204,15
540784,15
541356,16
541936,16
542508,14
543088,12
543660,13
544236,18
544816,19
545384,27
545968,26
546536,18
547120,15
547692,14
548272,15
548844,15
549416,18
550000,11
550572,16
551152,23
551724,36
552304,41
552876,43
553452,31
554032,19
554604,13
555184,15
555756,17
556336,16
556908,14
557488,15
558060,15
558636,11
559216,11
559788,12
560368,14
560948,14
561528,14
562100,18
562676,21
563256,20
563828,18
564408,14
564976,16
565560,17
566132,18
566712,16
567284,15
567860,19
568440,18
569008,14
569592,13
570164,16
570744,12
571316,11
571892,11
572472,15
573044,17
573624,15
574196,15
574776,15
575348,11
575928,14
576508,11
577084,10
577664,11
578232,12
578816,21
579384,19
579968,17
580540,18
581116,15
581696,18
582268,18
582848,17
583420,19
584000,22
584568,30
585152,32
585724,29
586300,20
586880,18
587452,11
588032,11
588612,13
589192,16
589772,15
590348,15
590928,15
591500,13
592080,11
592656,12
593240,13
593812,17
594388,15
594968,14
595540,20
596120,21
596692,21
597272,20
597844,17
598424,15
598996,19
599572,19
600152,23
600724,25
601304,23
601876,22
602456,16
603028,13
603604,15
604184,15
604756,15
605336,21
605908,28
606488,22
607068,19
607648,16
608228,14
608804,14
609384,14
609956,11
610536,11
611108,11
611692,12
612268,13
612844,19
613424,24
614000,22
614576,17
615148,15
615728,16
616296,19
616880,23
617452,26
618028,26
618608,26
619180,17
619760,11
620340,10
620920,13
621488,14
622068,14
622648,14
623220,15
623800,16
624372,15
624952,11
625524,10
626104,9
626624,10
627196,12
627780,13
628352,11
628928,17
629500,20
630080,20
630660,17
631240,16
631824,16
632400,16
632976,15
633548,14
634132,19
634708,23
635292,26
635868,19
636444,22
637024,25
637596,19
638176,16
638756,19
639336,24
639916,17
640492,15
641072,15
641640,14
642224,15
642796,14
643376,13
643944,14
644528,20
645100,19
645676,18
646256,17
646828,15
647408,15
647980,16
648560,17
649128,16
649704,17
650288,26
650856,26
651440,27
652012,25
652592,19
653164,13
653744,9
654264,14
654836,14
655416,12
655984,17
656568,19
657136,19
657720,17
658288,12
658872,10
659444,11
660016,11
660600,11
661168,11
661752,12
662324,19
662904,27
663476,25
664052,17
664632,15
665204,22
665784,25
666352,21
666928,20
667496,19
668080,22
668648,20
669224,14
669808,13
670376,14
670960,9
671480,10
672056,12
672624,17
673208,15
673776,15
674352,16
674936,11
675508,11
676088,9
676604,11
677184,11
677752,11
678336,12
678908,16
679484,15
680064,16
680632,16
681216,15
681784,15
682368,16
682936,21
683516,18
684096,21
684664,25
685248,27
685820,27
686400,25
686968,17
687552,10
688124,12
688696,11
689280,15
689848,14
690432,15
691004,15
691584,12
692164,11
692736,11
693320,14
693892,15
694472,18
695044,17
695624,16
696196,17
696776,19
697352,18
697924,16
698504,18
699076,19
699656,21
700228,23
700808,24
701380,22
701956,24
702536,19
703108,17
703688,12
704260,11
704840,12
705408,12
705992,17
706568,17
707136,15
707720,14
708292,11
708872,11
709444,11
710024,12
710596,11
711172,13
711752,18
712324,20
712904,23
713476,21
714056,18
714636,15
715216,16
715800,16
716376,16
716952,19
717524,24
718104,25
718672,21
719256,17
719828,25
720404,25
720984,22
721552,16
722136,17
722708,15
723288,16
723856,16
724436,16
725016,11
725588,11
726168,11
726740,15
727320,18
727892,21
728472,21
729044,26
729620,28
730200,26
730772,17
731352,16
731932,17
732512,17
733092,14
733668,11
734248,14
734820,21
735400,26
735972,27
736556,27
737132,22
737712,11
738292,16
738868,23
739448,19
740020,15
740600,16
741172,19
741752,15
742324,12
742900,13
743480,11
744052,11
744632,23
745204,32
745784,35
746356,35
746936,27
747516,18
748092,15
748672,15
749244,17
749824,19
750396,26
750976,29
751556,20
752132,14
752712,14
753284,11
753864,11
754436,12
755016,11
755596,18
756176,16
756760,15
757332,15
757912,17
758484,17
759064,21
759636,20
760216,12
760796,14
761372,21
761952,26
762524,25
763104,31
763684,27
764264,18
764844,15
765420,23
766000,27
766576,26
767152,29
767728,28
768308,27
768880,27
769464,24
770032,23
770612,17
771192,14
771764,18
772344,19
772916,16
773496,16
774068,15
774644,15
775224,13
775796,12
776376,14
776948,14
777528,16
778108,18
778688,24
779272,22
779844,16
780424,15
780996,15
781576,16
782148,16
782728,16
783300,14
783876,18
784456,20
785028,20
785608,20
786180,14
786760,13
787332,13
787912,11
788488,11
789060,15
789640,16
790212,15
790792,16
791372,14
791952,11
792532,11
793108,12
793692,13
794260,11
794840,10
795412,15
795992,18
796572,21
797148,20
797728,15
798300,15
798884,16
799452,16
800032,15
800608,24
801192,24
801764,32
802336,29
802920,22
803492,16
804072,13
804644,13
805224,15
805796,16
806372,15
806952,16
807524,17
808104,19
808676,19
809256,13
809828,14
810408,12
810980,11
811556,12
812136,14
812708,16
813288,19
813868,16
814448,16
815028,16
815604,16
816184,18
816756,24
817336,25
817908,27
818488,29
819068,23
819652,14
820232,11
820800,11
821384,11
821952,18
822536,19
823104,18
823688,17
824256,15
824832,13
825416,11
825988,10
826568,11
827136,13
827720,16
828288,18
828872,22
829448,21
830016,19
830600,18
831172,15
831752,15
832324,15
832904,21
833472,31
834048,31
834632,26
835200,31
835784,26
836356,19
836936,15
837508,10
838088,11
838664,11
839232,16
839816,15
840384,16
840968,15
841536,12
842120,9
842640,11
843216,11
843792,14
844364,14
844944,16
845512,19
846096,20
846664,19
847248,16
847820,15
848396,15
848976,15
849544,17
850128,11
850696,14
851280,17
851848,26
852432,29
853008,28
853580,20
854160,12
854732,10
855312,11
855884,13
856464,13
857036,15
857612,15
858192,12
858764,11
859344,11
859916,14
860496,16
861072,14
861652,11
862232,19
862804,27
863384,26
863956,19
864536,16
865116,16
865696,17
866264,21
866844,26
867424,24
867996,22
868576,22
869148,26
869728,21
870300,14
870876,10
871456,12
872028,16
872608,14
873180,15
873760,15
874332,16
874912,13
875484,15
876060,12
876640,10
877212,11
877792,10
878364,14
878944,15
879524,17
880100,19
880680,15
881248,16
881832,15
882404,15
882984,15
883556,18
884136,19
884708,18
885284,25
885864,18
886436,16
887016,16
887588,15
888168,14
888740,17
889316,20
889896,18
890468,15
891048,15
891620,11
892200,11
892772,11
893352,13
893932,11
894508,14
895088,20
895660,22
896244,26
896816,24
897400,16
897972,16
898548,19
899128,21
899700,21
900280,19
900852,15
901432,17
902004,19
902584,21
903152,24
903732,19
904312,10
904884,11
905464,14
906036,15
906616,15
907188,15
907764,17
908344,13
908916,11
909496,11
910068,12
910648,11
911228,12
911808,11
912392,24
912964,36
913544,25
914116,14
914696,15
915268,15
915848,15
916420,15
916996,21
917576,24
918148,25
918728,22
919300,15
919880,18
920460,14
921040,11
921624,11
922196,19
922776,18
923348,16
923928,16
924500,17
925080,13
925652,10
926228,11
926808,11
927376,11
927960,11
928532,16
929112,21
929684,27
930256,19
930840,16
931412,14
931992,15
932564,16
933144,13
933716,14
934296,18
934876,22
935452,22
936032,21
936604,20
937184,16
937764,11
938344,11
938916,15
939492,14
940072,14
940648,17
941224,18
941796,18
942376,13
942956,11
943536,13
944116,11
944692,12
945272,19
945844,23
946424,25
946996,24
947576,17
948156,15
948732,15
949312,15
949884,16
950464,24
951036,30
951620,27
952196,18
952776,23
953360,25
953932,15
954512,10
955088,13
955664,16
956244,14
956824,15
957404,15
957980,15
958564,11
959136,10
959716,10
960292,14
960872,17
961444,17
962020,21
962600,19
963168,22
963752,22
964324,18
964904,15
965476,19
966056,23
966628,19
967204,19
967784,22
968356,27
968936,25
969508,23
970088,21
970668,11
971244,11
971824,11
972396,15
972976,15
973548,15
974128,17
974700,14
975280,11
975860,11
976436,14
977016,13
977588,15
978168,19
978748,23
979328,30
979908,30
980484,20
981064,16
981636,21
982216,20
982792,20
983368,23
983944,28
984528,33
985104,35
985676,27
986256,23
986824,18
987408,9
987928,10
988504,14
989076,16
989652,15
990232,15
990804,15
991384,15
991956,15
992540,14
993116,11
993696,14
994276,13
994852,14
995432,23
996004,23
996584,19
997156,17
997736,16
998316,20
998892,19
999472,17
1000044,15
1000668,17
1001292,25
1001920,29
1002548,26
1003168,19
1003796,13
1004420,11
1005048,11
1005680,14
1006296,15
1006924,15
1007548,16
1008172,14
1008800,11
1009416,15
1010044,17
1010668,20
1011292,21
1011920,20
1012536,17
1013168,19
1013796,17
1014416,16
1015044,16
1015668,17
1016296,17
1016928,28
1017544,30
1018176,25
1018800,24
1019420,24
1020052,18
1020672,13
1021300,11
1021928,12
1022552,14
1023180,16
1023800,15
1024432,15
1025060,13
1025676,12
1026304,11
1026924,13
1027552,15
1028180,18
1028796,22
1029428,20
1030048,19
1030668,15
1031296,15
1031920,16
1032548,18
1033168,14
1033792,16
1034420,27
1035036,36
1035668,30
1036296,25
1036912,21
1037540,15
1038164,11
1038792,16
1039420,15
1040040,15
1040664,15
1041288,15
1041916,11
1042544,11
1043160,11
1043788,12
1044412,13
1045036,21
1045664,26
1046280,27
1046908,21
1047532,14
1048152,17
1048784,19
1049400,21
1050028,22
1050656,26
1051272,34
1051900,29
1052524,19
1053152,17
1053780,10
1054400,11
1055028,12
1055652,16
1056276,15
1056904,15
1057520,17
1058148,13
1058772,11
1059392,11
1060024,13
1060640,13
1061268,11
1061896,16
1062520,25
1063148,25
1063772,24
1064400,16
1065028,18
1065644,22
1066272,20
1066896,23
1067524,25
1068152,26
1068768,23
1069400,19
1070020,16
1070644,12
1071276,12
1071896,13
1072524,15
1073148,15
1073776,16
1074404,18
1075028,14
1075656,11
1076284,11
1076904,13
1077532,11
1078156,12
1078784,21
1079412,20
1080032,24
1080660,16
1081284,16
1081904,19
1082532,22
1083152,24
1083780,27
1084404,22
1085028,18
1085656,13
1086280,17
1086908,21
1087536,20
1088156,17
1088784,18
1089404,18
1090032,16
1090664,16
1091280,19
1091908,20
1092532,21
1093152,17
1093780,11
1094400,13
1095028,16
1095652,17
1096276,12
1096904,11
1097520,14
1098148,15
1098780,15
1099400,16
1100028,17
1100652,22
1101284,24
1101912,28
1102528,26
1103160,21
1103784,12
1104408,11
1105036,10
1105656,15
1106284,15
1106908,16
1107532,15
1108160,11
1108776,12
1109404,12
1110036,12
1110656,13
1111284,15
1111908,16
1112540,18
1113168,18
1113788,17
1114416,17
1115040,16
1115664,19
1116292,18
1116912,18
1117540,18
1118164,17
1118788,19
1119420,16
1120040,17
1120668,13
1121296,11
1121912,15
1122544,17
1123168,17
1123796,16
1124428,16
1125048,12
1125676,16
1126300,12
1126928,11
1127556,12
1128176,15
1128804,18
1129428,20
1130048,24
1130680,16
1131296,16
1131924,18
1132556,18
1133176,20
1133804,25
1134428,22
1135056,23
1135684,22
1136304,21
1136932,17
1137556,11
1138184,15
1138812,20
1139432,16
1140060,15
1140684,16
1141308,18
1141936,11
1142556,11
1143184,12
1143812,13
1144432,15
1145060,17
1145684,16
1146316,20
1146944,19
1147560,14
1148192,17
1148812,17
1149444,16
1150072,20
1150688,31
1151320,39
1151944,29
1152568,16
1153196,12
1153816,11
1154444,12
1155068,15
1155688,15
1156320,15
1156940,16
1157572,15
1158200,14
1158816,14
1159448,14
1160068,13
1160700,16
1161328,17
1161944,24
1162572,25
1163196,23
1163820,17
1164448,16
1165072,16
1165700,17
1166324,18
1166948,17
1167576,19
1168200,23
1168828,30
1169456,30
1170072,22
1170704,12
1171328,12
1171956,14
1172588,15
1173208,15
1173836,15
1174460,16
1175084,10
1175712,13
1176332,12
1176960,13
1177584,11
1178208,19
1178836,29
1179460,25
1180088,17
1180720,14
1181336,15
1181964,15
1182588,19
1183220,19
1183848,19
1184472,26
1185100,34
1185724,25
1186348,22
1186980,12
1187600,11
1188228,11
1188852,15
1189476,15
1190104,15
1190728,16
1191356,14
1191988,12
1192608,12
1193236,13
1193860,17
1194492,16
1195120,18
1195740,18
1196368,20
1196992,18
1197616,16
1198244,15
1198864,16
1199492,17
1200116,17
1200740,23
1201372,25
1201992,24
1202624,23
1203252,16
1203872,13
1204500,13
1205124,17
1205752,16
1206380,15
1207000,15
1207628,16
1208252,13
1208880,12
1209508,11
1210128,16
1210756,15
1211380,11
1212004,11
1212636,13
1213260,16
1213888,15
1214520,18
1215136,16
1215768,16
1216392,13
1217020,13
1217652,20
1218272,29
1218900,28
1219524,26
1220148,26
1220776,18
1221400,14
1222028,15
1222652,14
1223280,16
1223908,16
1224532,15
1225164,13
1225792,12
1226416,12
1227044,11
1227668,11
1228296,15
1228924,19
1229540,25
1230172,26
1230792,17
1231416,15
1232044,16
1232660,17
1233288,19
1233912,23
1234536,22
1235164,21
1235788,13
1236416,24
1237048,33
1237664,25
1238292,17
1238916,17
1239548,17
1240176,17
1240792,16
1241424,12
1242048,11
1242672,11
1243300,10
1243920,11
1244548,13
1245172,18
1245796,17
1246424,26
1247048,26
1247676,17
1248308,14
1248928,15
1249556,15
1250180,24
1250808,23
1251436,20
1252056,18
1252684,15
1253308,16
1253932,14
1254564,15
1255184,20
1255812,17
1256436,16
1257060,16
1257688,18
1258312,12
1258940,10
1259572,10
1260192,11
1260820,11
1261444,14
1262072,21
1262704,16
1263320,19
1263952,17
1264576,16
1265200,17
1265828,16
1266448,11
1267076,14
1267704,20
1268328,22
1268956,21
1269580,19
1270212,19
1270840,23
1271464,29
1272092,24
1272716,20
1273348,17
1273980,14
1274600,15
1275228,14
1275852,13
1276476,12
1277108,10
1277728,13
1278360,19
1278988,21
1279608,25
1280240,24
1280860,15
1281488,17
1282116,15
1282732,21
1283360,31
1283984,28
1284612,31
1285240,31
1285856,24
1286484,17
1287104,10
1287728,11
1288356,11
1288976,15
1289604,14
1290224,15
1290848,15
1291476,11
1292100,10
1292728,11
1293356,11
1293976,11
1294604,10
1295228,15
1295856,18
1296484,15
1297100,17
1297732,15
1298356,15
1298976,16
1299608,14
1300224,14
1300852,25
1301476,31
1302100,28
1302728,22
1303344,18
1303976,10
1304604,11
1305224,13
1305852,15
1306476,15
1307104,15
1307736,16
1308352,12
1308980,13
1309604,11
1310228,10
1310856,12
1311476,12
1312108,15
1312728,17
1313348,18
1313976,16
1314596,16
1315228,16
1315856,16
1316472,13
1317100,14
1317724,20
1318352,22
1318980,19
1319600,19
1320228,20
1320848,17
1321476,17
1322104,18
1322724,18
1323356,19
1323976,15
1324600,16
1325232,15
1325848,13
1326476,15
1327100,15
1327720,11
1328352,14
1328972,23
1329600,24
1330232,15
1330848,15
1331476,16
1332100,16
1332728,15
1333356,14
1333976,17
1334604,19
1335224,27
1335848,29
1336476,22
1337096,13
1337724,11
1338344,12
1338968,15
1339596,15
1340216,16
1340844,15
1341472,12
1342088,11
1342716,10
1343340,12
1343968,13
1344600,15
1345216,20
1345844,19
1346468,22
1347088,17
1347720,16
1348336,16
1348964,16
1349588,19
1350208,24
1350840,33
1351456,31
1352084,21
1352712,17
1353336,16
1353964,11
1354588,10
1355216,13
1355844,14
1356464,16
1357092,16
1357716,15
1358340,11
1358972,10
1359592,11
1360220,17
1360844,20
1361464,23
1362092,26
1362708,24
1363340,17
1363960,15
1364584,16
1365212,18
1365836,16
1366464,22
1367092,30
1367712,32
1368340,33
1368964,28
1369592,19
1370220,12
1370840,11
1371468,14
1372092,15
1372716,15
1373344,15
1373968,15
1374596,15
1375220,10
1375844,11
1376472,11
1377096,11
1377724,12
1378352,19
1378976,19
1379604,17
1380228,14
1380856,15
1381488,18
1382104,19
1382732,17
1383356,16
1383980,17
1384608,18
1385228,18
1385856,16
1386480,11
1387100,11
1387732,10
1388356,14
1388984,17
1389612,16
1390232,16
1390860,15
1391484,11
1392116,11
1392744,12
1393360,14
1393988,14
1394612,15
1395236,18
1395864,17
1396484,15
1397112,16
1397736,17
1398356,17
1398988,18
1399608,18
1400236,26
1400868,30
1401488,27
1402116,21
1402740,15
1403368,17
1404000,14
1404616,12
1405244,14
1405868,15
1406492,15
1407124,16
1407744,18
1408376,12
1408996,11
1409620,12
1410248,11
1410864,13
1411492,19
1412124,22
1412744,22
1413372,17
1413996,15
1414624,16
1415256,19
1415872,16
1416500,11
1417124,13
1417748,25
1418376,31
1418992,27
1419624,25
1420244,21
1420868,12
1421496,11
1422120,15
1422748,15
1423380,16
1424000,16
1424628,13
1425252,12
1425880,13
1426508,10
1427128,11
1427756,16
1428384,20
1429008,17
1429636,14
1430256,21
1430884,20
1431508,19
1432136,19
1432764,20
1433384,18
1434016,22
1434644,32
1435264,37
1435892,33
1436516,28
1437144,22
1437772,15
1438392,13
1439020,14
1439644,15
1440268,15
1440896,15
1441516,11
1442148,12
1442768,13
1443392,13
1444020,10
1444636,15
1445268,19
1445896,26
1446512,29
1447140,21
1447764,15
1448392,16
1449020,16
1449640,15
1450268,24
1450888,28
1451520,26
1452148,22
1452768,21
1453396,17
1454020,13
1454644,14
1455276,20
1455896,17
1456524,15
1457148,16
1457776,17
1458404,12
1459028,15
1459656,13
1460288,13
1460904,17
1461532,17
1462156,14
1462784,16
1463416,18
1464032,15
1464660,17
1465284,17
1465908,16
1466536,17
1467156,23
1467784,25
1468408,22
1469032,25
1469660,20
1470284,12
1470916,11
1471544,10
1472168,16
1472796,15
1473420,15
1474048,15
1474680,12
1475296,11
1475924,12
1476548,14
1477168,12
1477800,12
1478416,25
1479044,23
1479664,20
1480288,18
1480920,16
1481540,16
1482172,18
1482800,16
1483424,15
1484052,15
1484676,17
1485308,20
1485936,24
1486552,30
1487180,21
1487804,13
1488428,15
1489056,16
1489672,15
1490304,17
1490928,16
1491552,11
1492180,11
1492804,11
1493432,11
1494060,11
1494680,14
1495308,23
1495932,18
1496564,14
1497192,15
1497808,15
1498440,17
1499060,17
1499684,16
1500312,17
1500936,20
1501564,23
1502188,19
1502812,18
1503444,14
1504068,10
1504696,11
1505324,14
1505944,15
1506572,16
1507196,17
1507828,16
1508456,11
1509076,11
1509704,12
1510328,11
1510952,11
1511580,11
1512200,15
1512828,25
1513452,20
1514076,14
1514708,15
1515332,16
1515964,17
1516592,20
1517216,25
1517844,25
1518468,31
1519100,27
1519728,18
1520352,14
1520980,10
1521604,11
1522228,17
1522856,15
1523480,16
1524108,16
1524732,10
1525360,11
1525988,13
1526612,11
1527244,11
1527872,13
1528492,19
1529120,21
1529744,21
1530372,18
1531004,16
1531624,17
1532252,17
1532876,19
1533504,21
1534132,22
1534752,19
1535384,15
1536012,12
1536628,13
1537260,14
1537880,13
1538512,16
1539140,18
1539760,17
1540388,15
1541012,15
1541636,11
1542268,10
1542888,11
1543516,10
1544140,11
1544764,13
1545392,16
1546012,16
1546640,17
1547264,14
1547888,15
1548516,17
1549140,19
1549768,16
1550400,17
1551016,24
1551648,21
1552268,26
1552900,27
1553528,19
1554148,10
1554776,12
1555400,15
1556024,14
1556656,15
1557272,16
1557900,17
1558524,12
1559152,11
1559780,11
1560404,12
1561036,10
1561664,16
1562280,23
1562908,25
1563532,15
1564160,17
1564788,21
1565408,20
1566036,18
1566660,19
1567284,27
1567916,26
1568536,19
1569164,15
1569788,15
1570416,11
1571044,10
1571668,15
1572300,15
1572928,15
1573548,15
1574176,15
1574800,13
1575428,11
1576060,11
1576680,12
1577308,11
1577932,14
1578556,21
1579188,22
1579808,19
1580436,17
1581068,16
1581688,19
1582316,16
1582944,15
1583572,17
1584204,17
1584824,19
1585452,19
1586076,20
1586700,17
1587332,11
1587952,11
1588580,13
1589204,15
1589828,15
1590456,15
1591080,16
1591708,11
1592340,10
1592960,11
1593588,11
1594216,11
1594844,13
1595476,16
1596096,21
1596728,23
1597352,20
1597976,17
1598604,16
1599224,16
1599852,17
1600480,24
1601100,27
1601728,25
1602344,23
1602976,22
1603604,14
1604224,11
1604852,10
1605472,15
1606104,14
1606732,15
1607352,15
1607980,12
1608604,12
1609228,14
1609856,10
1610472,10
1611100,10
1611724,11
1612348,16
1612976,21
1613600,23
1614228,17
1614856,14
1615472,16
1616104,17
1616724,19
1617356,24
1617984,23
1618600,30
1619228,28
1619852,16
1620480,11
1621108,10
1621728,13
1622356,19
1622980,16
1623604,16
1624236,14
1624856,13
1625484,11
1626108,10
1626736,13
1627364,21
1627988,21
1628620,22
1629248,22
1629872,18
1630500,15
1631124,17
1631752,19
1632380,19
1633000,19
1633628,23
1634252,21
1634876,24
1635508,22
1636128,18
1636756,13
1637388,10
1638008,11
1638636,15
1639260,16
1639888,17
1640516,14
1641132,14
1641760,10
1642384,11
1643012,10
1643640,11
1644256,17
1644884,20
1645504,25
1646124,30
1646752,20
1647372,15
1648004,17
1648624,19
1649244,20
1649872,25
1650496,28
1651124,29
1651752,26
1652376,21
1653004,18
1653624,10
1654256,12
1654884,10
1655500,17
1656132,18
1656756,15
1657376,16
1658008,14
1658624,14
1659252,13
1659876,11
1660496,10
1661124,11
1661744,16
1662372,19
1663000,16
1663620,15
1664248,17
1664868,18
1665496,19
1666124,17
1666740,21
1667368,23
1667992,26
1668616,25
1669244,18
1669860,12
1670488,11
1671112,12
1671736,15
1672364,17
1672980,15
1673612,16
1674232,15
1674856,13
1675484,13
1676108,14
1676736,18
1677364,15
1677984,17
1678612,21
1679236,16
1679864,12
1680492,16
1681108,17
1681736,14
1682360,17
1682980,11
1683612,14
1684228,28
1684860,31
1685480,34
1686104,29
1686732,21
1687352,12
1687980,10
1688608,15
1689232,15
1689860,15
1690480,15
1691108,15
1691740,10
1692360,11
1692988,10
1693608,10
1694232,10
1694860,12
1695480,15
1696108,15
1696728,16
1697348,16
1697980,22
1698600,21
1699228,19
1699856,14
1700472,19
1701100,25
1701724,23
1702352,16
1702980,15
1703600,15
1704228,11
1704852,13
1705476,15
1706108,14
1706728,16
1707356,15
1707980,12
1708604,10
1709232,12
1709856,13
1710484,12
1711112,14
1711736,17
1712364,20
1712988,19
1713616,18
1714248,15
1714864,18
1715492,18
1716116,17
1716740,21
1717372,19
1717992,20
1718620,22
1719244,16
1719868,16
1720500,18
1721120,17
1721748,17
1722376,14
1722992,15
1723620,15
1724244,15
1724872,11
1725500,11
1726120,12
1726748,12
1727372,14
1728000,12
1728628,11
1729248,17
1729876,19
1730500,15
1731120,16
1731752,15
1732368,15
1732996,14
1733620,20
1734244,20
1734872,27
1735496,21
1736124,15
1736756,12
1737376,11
1738004,11
1738628,21
1739260,22
1739888,19
1740504,17
1741136,15
1741756,11
1742380,12
1743012,14
1743632,19
1744260,15
1744884,15
1745504,15
1746136,18
1746760,15
1747388,15
1748016,16
1748632,16
1749264,16
1749888,16
1750516,22
1751144,26
1751768,33
1752396,29
1753020,25
1753644,15
1754272,10
1754892,11
1755520,15
1756144,16
1756768,16
1757396,16
1758020,13
1758652,11
1759280,10
1759904,13
1760536,19
1761156,18
1761788,15
1762416,15
1763032,22
1763660,19
1764284,16
1764908,15
1765536,16
1766152,14
1766784,21
1767404,32
1768028,34
1768656,25
1769272,18
1769904,21
1770532,18
1771152,17
1771780,19
1772404,17
1773036,15
1773664,15
1774280,15
1774912,11
1775536,11
1776160,12
1776788,10
1777408,16
1778036,21
1778660,24
1779284,23
1779912,20
1780528,14
1781160,17
1781788,20
1782408,19
1783036,15
1783660,16
1784292,18
1784920,23
1785540,20
1786168,17
1786792,20
1787416,15
1788044,11
1788664,15
1789292,15
1789916,16
1790540,16
1791172,13
1791792,12
1792424,11
1793052,10
1793672,11
1794300,12
1794924,18
1795552,20
1796180,24
1796800,24
1797428,17
1798052,15
1798676,16
1799304,22
1799920,21
1800552,21
1801176,18
1801800,19
1802428,19
1803044,18
1803676,11
1804304,11
1804920,11
1805548,15
1806172,16
1806800,17
1807428,16
1808048,11
1808676,11
1809296,11
1809924,10
1810552,12
1811172,16
1811800,21
1812424,24
1813048,24
1813676,16
1814296,17
1814924,17
1815548,16
1816176,15
1816804,13
1817428,15
1818060,18
1818688,21
1819304,25
1819936,22
1820560,16
1821188,16
1821816,20
1822440,20
1823068,16
1823692,14
1824316,15
1824944,10
1825568,11
1826196,10
1826824,10
1827448,18
1828076,25
1828700,27
1829328,23
1829960,12
1830576,15
1831208,17
1831832,17
1832456,17
1833084,15
1833704,21
1834332,24
1834956,27
1835580,21
1836212,18
1836832,12
1837460,10
1838092,11
1838712,17
1839344,19
1839968,16
1840596,16
1841228,16
1841848,14
1842476,13
1843100,12
1843728,11
1844356,11
1844976,13
1845604,19
1846224,20
1846848,16
1847476,19
1848096,22
1848724,17
1849352,16
1849972,14
1850600,15
1851224,24
1851852,33
1852480,24
1853104,20
1853732,15
1854356,12
1854984,15
1855612,16
1856232,17
1856860,15
1857484,16
1858104,11
1858736,10
1859352,12
1859980,11
1860604,11
1861232,16
1861860,23
1862484,25
1863112,25
1863744,17
1864360,17
1864988,19
1865612,19
1866240,15
1866868,14
1867488,24
1868116,28
1868740,22
1869364,18
1869996,18
1870616,16
1871244,11
1871868,14
1872496,16
1873124,16
1873748,16
1874380,14
1875008,11
1875628,11
1876256,13
1876880,13
1877508,17
1878140,23
1878760,23
1879388,19
1880012,16
1880636,15
1881268,15
1881888,15
1882516,17
1883148,22
1883768,29
1884396,31
1885020,31
1885652,24
1886280,17
1886900,10
1887528,13
1888152,11
1888776,15
1889404,15
1890024,16
1890652,15
1891276,19
1891900,15
1892528,10
1893152,11
1893780,15
1894412,18
1895032,22
1895660,18
1896284,21
1896912,17
1897544,16
1898160,16
1898792,17
1899416,19
1900040,21
1900668,21
1901288,20
1901916,15
1902544,13
1903168,13
1903796,11
1904416,11
1905044,12
1905676,14
1906296,16
1906924,15
1907548,16
1908180,11
1908808,10
1909432,11
1910064,11
1910688,11
1911312,14
1911940,24
1912560,27
1913192,25
1913816,14
1914440,18
1915068,23
1915688,25
1916316,22
1916948,21
1917568,24
1918200,30
1918824,31
1919456,23
1920088,18
1920700,11
1921332,12
1921952,14
1922576,16
1923204,15
1923824,16
1924452,13
1925076,12
1925700,11
1926328,14
1926952,15
1927580,17
1928212,17
1928832,20
1929460,18
1930084,14
1930712,18
1931340,16
1931960,19
1932588,20
1933212,20
1933836,25
1934468,30
1935088,28
1935716,18
1936340,12
1936964,11
1937592,10
1938212,11
1938840,15
1939472,16
1940088,17
1940720,17
1941344,11
1941972,12
1942604,11
1943224,12
1943852,11
1944480,16
1945100,22
1945732,22
1946352,21
1946980,17
1947604,15
1948228,16
1948856,16
1949472,17
1950100,21
1950732,30
1951352,27
1951984,19
1952608,14
1953236,15
1953868,10
1954488,11
1955116,15
1955740,17
1956368,16
1956996,15
1957616,16
1958244,11
1958868,10
1959492,11
1960124,10
1960744,11
1961372,13
1962004,12
1962624,17
1963252,15
1963876,15
1964508,15
1965140,16
1965760,17
1966388,15
1967012,25
1967636,24
1968268,22
1968888,18
1969516,18
1970140,15
1970764,12
1971392,11
1972008,15
1972636,15
1973264,16
1973888,17
1974516,12
1975140,12
1975768,11
1976400,10
1977016,12
1977644,11
1978268,13
1978892,15
1979520,11
1980136,15
1980768,17
1981392,17
1982016,16
1982644,14
1983264,16
1983892,23
1984524,27
1985144,25
1985772,21
1986396,17
1987024,14
1987656,15
1988272,18
1988900,15
1989524,16
1990148,18
1990780,16
1991400,17
1992028,14
1992652,13
1993276,13
1993904,12
1994528,16
1995156,18
1995788,12
1996408,12
1997036,17
1997660,18
1998292,15
1998920,16
1999536,17
2000168,19
2000788,23
2001412,23
2002044,20
2002664,25
2003292,25
2003916,16
2004540,11
2005168,15
2005784,15
2006412,15
2007036,16
2007664,19
2008292,21
2008916,15
2009544,11
2010176,10
2010792,10
2011424,16
2012048,16
2012676,19
2013308,15
2013928,15
2014556,17
2015180,17
2015808,18
2016436,17
2017056,17
2017684,20
2018312,16
2018936,13
2019564,17
2020188,19
2020820,15
2021448,13
2022064,16
2022696,15
2023320,17
2023944,17
2024572,11
2025192,13
2025820,15
2026444,15
2027068,12
2027700,10
2028320,13
2028948,13
2029580,20
2030200,27
2030828,19
2031452,15
2032084,16
2032712,20
2033336,28
2033964,27
2034588,27
2035212,25
2035844,22
2036464,22
2037092,12
2037720,12
2038344,15
2038976,15
2039592,15
2040224,15
2040852,15
2041472,12
2042104,13
2042728,11
2043356,11
2043988,13
2044608,18
2045240,21
2045864,21
2046488,19
2047116,14
2047736,15
2048368,15
2048992,16
2049612,20
2050240,22
2050856,23
2051484,23
2052112,22
2052728,24
2053356,18
2053976,13
2054608,13
2055236,16
2055856,16
2056484,15
2057104,16
2057732,13
2058360,12
2058976,14
2059604,13
2060228,13
2060848,16
2061476,24
2062092,26
2062724,19
2063344,15
2063968,18
2064596,21
2065220,25
2065848,24
2066476,16
2067096,17
2067724,24
2068348,27
2068976,27
2069604,19
2070224,15
2070852,15
2071476,15
2072096,15
2072728,15
2073344,15
2073972,15
2074596,12
2075220,12
2075848,13
2076464,12
2077092,12
2077724,12
2078344,19
2078972,23
2079596,20
2080228,16
2080856,16
2081472,17
2082100,17
2082720,16
2083344,21
2083972,24
2084592,25
2085220,21
2085840,19
2086464,15
2087092,10
2087712,11
2088340,17
2088968,17
2089584,16
2090212,15
2090836,15
2091464,12
2092096,10
2092712,11
2093340,11
2093964,13
2094592,17
2095224,18
2095840,15
2096468,11
2097092,16
2097716,16
2098344,14
2098964,16
2099592,14
2100216,16
2100836,19
2101464,19
2102088,19
2102716,21
2103344,16
2103968,12
2104596,11
2105220,15
2105852,16
2106480,17
2107096,16
2107724,13
2108348,10
2108972,11
2109600,10
2110224,11
2110852,13
2111476,17
2112100,19
2112728,19
2113352,17
2113980,15
2114608,15
2115224,18
2115856,17
2116476,19
2117108,25
2117736,24
2118360,23
2118988,23
2119612,22
2120236,11
2120868,10
2121488,16
2122116,17
2122740,15
2123364,15
2123992,18
2124620,17
2125248,14
2125876,12
2126496,11
2127124,11
2127748,12
2128380,16
2129008,17
2129624,18
2130252,16
2130876,16
2131500,17
2132128,20
2132744,16
2133376,19
2134000,16
2134620,17
2135252,16
2135876,23
2136504,24
2137132,10
2137752,12
2138380,15
2139004,16
2139632,14
2140264,15
2140880,15
2141508,11
2142132,10
2142756,10
2143384,10
2144004,11
2144632,17
2145256,20
2145880,22
2146508,22
2147128,16
2147756,15
2148388,16
2149008,17
2149636,17
2150260,21
2150892,24
2151520,20
2152136,16
2152768,14
2153392,11
2154012,9
2154592,11
2155216,21
2155844,25
2156468,22
2157092,19
2157720,13
2158340,11
2158968,15
2159592,13
2160216,11
2160844,13
2161464,19
2162092,19
2162720,14
2163340,14
2163968,16
2164592,16
2165220,15
2165848,16
2166472,19
2167100,21
2167724,23
2168348,27
2168976,22
2169600,19
2170228,13
2170852,11
2171476,11
2172108,14
2172728,16
2173356,15
2173988,14
2174608,11
2175236,11
2175860,11
2176492,11
2177120,13
2177736,17
2178368,21
2178988,24
2179612,22
2180244,15
2180864,19
2181492,17
2182116,17
2182740,17
2183368,22
2183984,20
2184616,20
2185244,16
2185864,16
2186492,11
2187116,10
2187748,16
2188376,26
2188996,19
2189624,17
2190248,17
2190872,16
2191500,11
2192120,13
2192748,14
2193372,15
2193996,10
2194624,14
2195248,19
2195876,25
2196508,24
2197128,19
2197756,15
2198380,17
2199012,16
2199644,14
2200264,19
2200892,19
2201516,18
2202144,19
2202772,22
2203392,20
2204020,14
2204644,13
2205268,15
2205900,15
2206520,15
2207148,16
2207780,12
2208400,13
2209028,16
2209652,13
2210280,12
2210912,13
2211528,16
2212160,14
2212784,13
2213408,16
2214036,16
2214656,17
2215284,15
2215908,14
2216532,14
2217160,19
2217784,27
2218412,23
2219044,20
2219664,20
2220292,16
2220916,17
2221548,16
2222180,14
2222800,15
2223428,15
2224052,15
2224676,13
2225304,14
2225928,13
2226556,14
2227180,17
2227808,18
2228436,19
2229060,16
2229692,13
2230324,15
2230944,16
2231576,16
2232200,16
2232828,12
2233460,14
2234080,23
2234708,28
2235332,24
2235956,18
2236588,14
2237208,11
2237840,11
2238464,14
2239088,15
2239720,15
2240344,16
2240972,14
2241600,12
2242224,13
2242852,11
2243476,12
2244100,25
2244732,38
2245352,29
2245980,19
2246604,20
2247228,16
2247860,17
2248480,25
2249108,23
2249740,22
2250360,29
2250988,30
2251616,29
2252244,25
2252876,22
2253492,16
2254124,11
2254744,12
2255368,16
2255996,16
2256616,16
2257244,16
2257868,12
2258492,11
2259120,11
2259740,11
2260368,11
2260996,10
2261616,15
2262244,23
2262868,30
2263500,21
2264128,15
2264744,17
2265376,17
2266000,19
2266628,23
2267256,20
2267880,26
2268508,23
2269132,20
2269756,22
2270388,16
2271008,15
2271636,16
2272268,15
2272888,15
2273516,16
2274140,16
2274772,12
2275400,11
2276020,11
2276648,11
2277272,11
2277896,16
2278524,22
2279144,24
2279772,16
2280396,15
2281020,20
2281652,22
2282272,20
2282900,12
2283532,12
2284152,17
2284780,19
2285408,17
2286036,14
2286668,13
2287288,12
2287916,12
2288544,17
2289168,17
2289796,15
2290416,17
2291044,13
2291672,15
2292296,13
2292924,11
2293544,11
2294176,13
2294804,26
2295424,30
2296052,33
2296676,23
2297304,16
2297932,19
2298552,18
2299180,19
2299804,20
2300428,23
2301060,20
2301680,24
2302308,21
2302936,16
2303560,12
2304192,11
2304808,14
2305436,14
2306064,16
2306680,16
2307308,17
2307932,13
2308560,14
2309188,14
2309808,17
2310436,16
2311060,12
2311684,14
2312316,12
2312936,13
2313564,20
2314188,26
2314816,26
2315444,18
2316064,13
2316692,17
2317324,21
2317944,23
2318572,22
2319196,22
2319828,19
2320460,12
2321080,13
2321708,15
2322332,14
2322956,17
2323584,15
2324208,14
2324836,11
2325460,11
2326084,13
2326712,15
2327332,16
2327960,12
2328592,15
2329208,21
2329840,21
2330464,15
2331092,15
2331724,16
2332344,17
2332972,16
2333596,21
2334220,25
2334852,27
2335472,21
2336100,13
2336724,10
2337348,12
2337976,12
2338596,15
2339224,18
2339852,17
2340472,16
2341100,11
2341724,12
2342356,11
2342988,10
2343608,12
2344236,14
2344860,16
2345484,19
2346116,20
2346736,19
2347364,15
2347988,15
2348616,16
2349244,13
2349864,18
2350492,26
2351124,26
2351744,24
2352376,24
2353000,21
2353628,11
2354260,10
2354880,13
2355512,21
2356132,18
2356756,17
2357388,14
2358008,14
2358636,10
2359260,11
2359884,11
2360516,14
2361136,22
2361764,20
2362396,18
2363016,18
2363644,17
2364272,18
2364900,16
2365532,14
2366152,15
2366784,33
2367408,36
2368032,30
2368660,24
2369280,19
2369908,11
2370532,11
2371156,13
2371788,17
2372408,16
2373036,15
2373668,15
2374288,17
2374920,13
2375544,13
2376172,13
2376804,11
2377424,11
2378052,18
2378676,25
2379300,30
2379932,16
2380552,18
2381184,20
2381808,22
2382428,23
2383060,27
2383684,29
2384312,25
2384944,21
2385564,13
2386192,11
2386816,11
2387448,11
2388076,15
2388696,19
2389324,18
2389952,16
2390576,17
2391204,12
2391824,12
2392456,11
2393080,11
2393704,15
2394332,19
2394960,27
2395588,25
2396220,22
2396840,19
2397468,17
2398092,15
2398724,17
2399356,18
2399976,22
2400608,29
2401232,33
2401856,23
2402488,17
2403104,17
2403732,13
2404364,13
2404984,15
2405612,15
2406236,15
2406868,16
2407500,28
2408120,27
2408748,15
2409372,10
2409996,12
2410624,10
2411248,11
2411876,12
2412500,19
2413128,19
2413756,16
2414376,17
2415008,19
2415636,22
2416256,25
2416884,25
2417508,22
2418140,17
2418768,22
2419388,22
2420016,16
2420640,13
2421264,15
2421892,17
2422512,17
2423140,15
2423764,15
2424388,12
2425020,12
2425640,15
2426268,14
2426900,16
2427520,15
2428148,15
2428772,14
2429404,22
2430036,20
2430656,17
2431288,15
2431912,19
2432536,19
2433168,21
2433784,26
2434416,26
2435040,24
2435664,22
2436292,21
2436912,14
2437544,13
2438172,15
2438792,15
2439420,15
2440044,15
2440676,15
2441304,13
2441924,12
2442552,11
2443176,11
2443800,13
2444428,16
2445048,26
2445676,26
2446300,22
2446928,16
2447556,14
2448176,16
2448804,18
2449436,18
2450056,26
2450684,25
2451312,25
2451940,21
2452572,22
2453192,17
2453824,11
2454448,13
2455072,22
2455704,16
2456320,15
2456952,16
2457576,15
2458204,12
2458832,11
2459448,11
2460080,11
2460708,12
2461328,17
2461956,19
2462580,24
2463208,18
2463840,15
2464456,19
2465084,20
2465708,19
2466332,17
2466960,20
2467580,24
2468208,22
2468832,19
2469452,21
2470084,14
2470704,11
2471332,12
2471964,16
2472584,16
2473212,16
2473836,18
2474468,16
2475096,16
2475716,14
2476344,14
2476968,12
2477592,15
2478220,16
2478840,17
2479468,16
2480092,16
2480716,16
2481344,21
2481964,22
2482592,21
2483220,25
2483840,25
2484468,27
2485092,21
2485720,17
2486348,10
2486968,13
2487596,11
2488220,15
2488844,14
2489476,16
2490096,16
2490724,16
2491348,11
2491972,14
2492604,10
2493224,15
2493852,16
2494484,12
2495104,14
2495736,17
2496360,19
2496988,16
2497620,15
2498240,15
2498868,16
2499492,13
2500116,21
2500748,30
2501368,39
2501996,23
2502620,13
2503244,11
2503876,10
2504496,11
2505124,15
2505756,16
2506376,17
2507004,17
2507632,13
2508260,11
2508892,10
2509512,12
2510140,12
2510764,12
2511388,23
2512016,22
2512640,22
2513268,17
2513892,15
2514516,15
2515148,16
2515768,20
2516396,16
2517028,18
2517648,25
2518280,27
2518904,23
2519536,19
2520164,16
2520784,14
2521412,15
2522040,15
2522664,16
2523292,17
2523912,17
2524544,13
2525168,11
2525792,11
2526420,11
2527044,13
2527676,14
2528308,21
2528928,23
2529556,19
2530184,15
2530812,17
2531444,18
2532064,17
2532692,15
2533320,19
2533944,23
2534576,23
2535192,19
2535824,17
2536452,14
2537072,13
2537704,13
2538328,17
2538956,18
2539588,16
2540208,17
2540836,17
2541460,13
2542088,11
2542716,11
2543336,11
2543968,15
2544592,19
2545216,25
2545848,26
2546464,21
2547096,15
2547724,15
2548344,18
2548976,16
2549600,21
2550228,27
2550860,22
2551480,26
2552112,27
2552736,25
2553360,18
2553992,11
2554612,13
2555240,17
2555868,16
2556492,15
2557124,15
2557744,12
2558376,11
2559008,10
2559628,10
2560260,11
2560880,15
2561508,20
2562136,26
2562760,31
2563388,22
2564008,15
2564628,16
2565260,16
2565880,18
2566508,25
2567128,35
2567752,37
2568380,26
2569000,17
2569628,14
2570256,11
2570872,11
2571500,14
2572124,16
2572756,15
2573384,15
2574000,15
2574632,15
2575256,15
2575880,16
2576508,16
2577128,18
2577756,18
2578380,16
2579004,18
2579632,17
2580256,15
2580884,16
2581512,17
2582136,20
2582764,19
2583388,26
2584016,26
2584648,29
2585264,26
2585892,18
2586516,18
2587140,14
2587772,10
2588392,15
2589020,16
2589644,16
2590268,15
2590896,13
2591520,11
2592148,11
2592776,11
2593400,14
2594028,19
2594652,26
2595280,23
2595908,20
2596528,17
2597156,16
2597780,18
2598404,17
2599036,17
2599656,29
2600284,32
2600908,30
2601532,29
2602164,22
2602784,21
2603412,16
2604044,12
2604664,13
2605292,15
2605916,15
2606548,16
2607176,18
2607800,14
2608428,11
2609052,11
2609676,11
2610308,10
2610928,11
2611556,20
2612180,20
2612804,19
2613432,17
2614056,16
2614684,15
2615316,16
2615936,17
2616568,21
2617188,25
2617820,31
2618452,22
2619072,16
2619700,17
2620324,17
2620952,19
2621580,22
2622200,19
2622828,15
2623452,15
2624072,15
2624700,10
2625316,11
2625944,12
2626576,16
2627188,17
2627820,20
2628444,22
2629072,26
2629700,25
2630320,17
2630948,16
2631572,17
2632196,17
2632828,21
2633448,25
2634076,22
2634700,19
2635320,16
2635952,19
2636568,15
2637196,14
2637820,15
2638448,15
2639076,17
2639700,17
2640328,16
2640956,16
2641576,17
2642204,12
2642828,11
2643456,11
2644084,10
2644700,17
2645332,22
2645952,26
2646576,19
2647204,16
2647824,19
2648452,22
2649076,21
2649696,22
2650324,20
2650948,18
2651576,17
2652208,21
2652824,21
2653452,17
2654076,12
2654704,13
2655336,16
2655952,17
2656584,16
2657208,17
2657828,11
2658460,10
2659080,13
2659708,13
2660332,15
2660956,16
2661584,19
2662212,18
2662840,21
2663468,15
2664088,15
2664712,16
2665336,18
2665964,21
2666592,20
2667208,19
2667836,20
2668460,21
2669084,19
2669712,14
2670328,11
2670956,11
2671580,15
2672204,17
2672832,16
2673452,15
2674084,14
2674712,11
2675328,11
2675960,11
2676580,11
2677212,11
2677840,16
2678456,19
2679084,20
2679708,20
2680332,15
2680960,15
2681576,17
2682204,17
2682828,16
2683452,19
2684084,23
2684704,25
2685332,19
2685964,24
2686584,19
2687212,10
2687836,11
2688468,18
2689096,17
2689712,16
2690340,15
2690964,11
2691588,11
2692220,10
2692840,12
2693468,14
2694092,18
2694712,26
2695344,20
2695960,17
2696588,16
2697212,16
2697840,17
2698468,17
2699092,19
2699720,21
2700352,24
2700968,27
2701600,27
2702220,21
2702852,14
2703484,10
2704104,9
2704680,12
2705300,17
2705924,15
2706552,16
2707176,17
2707804,13
2708428,13
2709052,11
2709684,16
2710304,13
2710932,11
2711564,14
2712184,24
2712812,21
2713436,16
2714068,15
2714696,16
2715320,17
2715948,17
2716572,22
2717196,23
2717824,24
2718448,24
2719076,19
2719700,19
2720324,13
2720952,11
2721576,15
2722204,15
2722832,14
2723456,15
2724084,14
2724708,12
2725336,13
2725964,10
2726584,11
2727212,13
2727836,18
2728456,23
2729088,23
2729704,22
2730332,15
2730956,17
2731580,17
2732208,16
2732824,14
2733456,19
2734080,22
2734704,23
2735332,23
2735956,21
2736588,15
2737216,14
2737840,17
2738468,17
2739092,16
2739720,16
2740348,14
2740968,13
2741596,11
2742220,11
2742844,10
2743476,10
2744096,13
2744724,21
2745356,25
2745976,21
2746604,16
2747228,15
2747856,15
2748488,16
2749104,17
2749732,24
2750356,29
2750984,29
2751612,25
2752232,24
2752860,22
2753484,13
2754108,11
2754736,12
2755360,15
2755988,15
2756620,17
2757240,17
2757868,11
2758492,10
2759124,10
2759752,10
2760372,15
2761000,25
2761624,29
2762244,26
2762876,18
2763496,14
2764128,17
2764752,20
2765376,17
2766004,12
2766624,22
2767252,29
2767884,30
2768504,27
2769132,23
2769756,14
2770388,10
2771016,10
2771636,16
2772264,17
2772888,15
2773512,16
2774140,15
2774760,16
2775388,16
2776012,15
2776636,12
2777268,10
2777888,11
2778516,11
2779148,14
2779768,16
2780396,15
2781020,15
2781652,15
2782284,20
2782904,26
2783532,24
2784160,26
2784784,23
2785412,14
2786032,15
2786660,11
2787284,11
2787904,14
2788536,14
2789152,15
2789784,17
2790412,17
2791032,13
2791660,11
2792284,11
2792916,11
2793544,10
2794164,12
2794792,18
2795416,22
2796040,20
2796668,18
2797288,16
2797916,15
2798540,17
2799164,13
2799796,16
2800416,21
2801044,24
2801676,24
2802296,18
2802924,13
2803548,11
2804180,13
2804808,18
2805424,22
2806052,18
2806676,16
2807300,14
2807932,12
2808552,13
2809180,12
2809804,16
2810428,18
2811060,18
2811680,19
2812308,18
2812940,16
2813560,15
2814188,15
2814816,18
2815444,17
2816076,16
2816692,14
2817324,12
2817944,14
2818568,24
2819196,20
2819816,12
2820444,12
2821068,12
2821692,16
2822320,18
2822944,19
2823572,19
2824204,18
2824824,14
2825452,11
2826076,11
2826708,10
2827336,11
2827952,16
2828584,17
2829208,14
2829828,16
2830460,20
2831080,21
2831708,23
2832332,24
2832956,31
2833584,35
2834208,35
2834836,33
2835468,24
2836088,21
2836716,16
2837340,13
2837972,15
2838600,16
2839224,17
2839852,16
2840476,15
2841100,11
2841732,10
2842352,11
2842980,11
2843604,12
2844228,17
2844856,15
2845480,17
2846108,20
2846740,14
2847360,15
2847988,17
2848612,18
2849244,16
2849872,23
2850492,24
2851120,29
2851744,28
2852368,21
2852996,10
2853616,15
2854244,11
2854872,15
2855496,15
2856124,14
2856744,16
2857372,14
2858004,11
2858624,14
2859252,12
2859876,14
2860508,17
2861140,20
2861760,28
2862388,25
2863016,19
2863640,17
2864272,19
2864888,17
2865516,20
2866144,27
2866768,27
2867400,36
2868016,29
2868644,21
2869272,13
2869888,11
2870516,10
2871140,11
2871768,13
2872400,15
2873016,15
2873644,15
2874268,11
2874892,11
2875520,19
2876136,14
2876768,13
2877392,12
2878016,12
2878644,13
2879264,21
2879892,16
2880524,16
2881140,18
2881772,17
2882392,15
2883024,20
2883652,21
2884272,23
2884900,19
2885524,18
2886148,15
2886780,12
2887400,15
2888028,19
2888652,15
2889272,15
2889900,14
2890520,16
2891148,12
2891772,12
2892400,12
2893028,13
2893652,15
2894280,15
2894908,16
2895528,19
2896156,17
2896780,15
2897408,15
2898040,15
2898656,15
2899284,10
2899908,11
2900532,23
2901160,39
2901776,32
2902408,20
2903032,17
2903656,13
2904284,12
2904908,16
2905540,17
2906172,16
2906792,16
2907420,13
2908048,12
2908676,10
2909308,10
2909928,14
2910556,18
2911180,15
2911808,16
2912436,17
2913056,17
2913684,15
2914316,14
2914936,16
2915564,17
2916188,20
2916820,24
2917448,24
2918072,29
2918704,25
2919328,19
2919952,14
2920580,11
2921200,15
2921828,15
2922452,16
2923076,15
2923708,16
2924328,17
2924956,15
2925588,10
2926208,21
2926836,15
2927460,11
2928092,16
2928720,15
2929344,15
2929972,15
2930596,15
2931220,16
2931848,15
2932472,12
2933100,12
2933728,13
2934352,17
2934980,21
2935600,25
2936228,24
2936860,12
2937480,13
2938112,15
2938736,16
2939368,16
2939996,14
2940616,15
2941248,13
2941872,11
2942496,12
2943128,11
2943744,20
2944376,25
2945000,26
2945624,28
2946252,25
2946872,20
2947500,29
2948132,24
2948752,16
2949384,13
2950004,23
2950636,33
2951264,35
2951884,26
2952512,18
2953136,12
2953760,11
2954388,16
2955008,18
2955636,16
2956260,15
2956884,21
2957512,11
2958136,12
2958764,10
2959396,10
2960016,11
2960644,12
2961268,18
2961896,17
2962524,18
2963144,18
2963776,18
2964396,22
2965024,20
2965652,14
2966272,14
2966900,16
2967528,20
2968152,21
2968780,21
2969400,23
2970032,13
2970660,14
2971280,17
2971908,14
2972532,16
2973160,16
2973792,15
2974408,11
2975036,11
2975660,12
2976284,12
2976916,10
2977536,15
2978164,15
2978788,14
2979412,13
2980044,15
2980664,18
2981292,16
2981920,14
2982544,16
2983172,23
2983796,21
2984428,16
2985056,11
2985672,10
2986304,11
2986928,11
2987552,12
2988180,15
2988800,20
2989428,15
2990052,16
2990680,16
2991308,11
2991928,12
2992560,13
2993188,12
2993808,15
2994436,15
2995060,13
2995692,17
2996324,16
2996944,16
2997572,16
2998200,20
2998824,20
2999452,18
3000072,19
3000700,16
3001328,21
3001952,17
3002580,10
3003204,25
3003836,22
3004464,16
3005088,15
3005720,16
3006344,16
3006972,15
3007604,11
3008224,11
3008852,11
3009476,12
3010100,13
3010732,14
3011352,22
3011980,24
3012608,22
3013232,20
3013860,16
3014488,16
3015116,18
3015748,12
3016368,17
3016996,23
3017624,28
3018248,30
3018876,24
3019496,24
3020128,16
3020752,16
3021376,18
3022008,16
3022624,14
3023256,15
3023888,17
3024504,19
3025136,15
3025760,11
3026392,13
3027020,11
3027640,15
3028272,21
3028896,17
3029520,15
3030152,16
3030768,15
3031400,14
3032024,17
3032648,17
3033280,16
3033896,19
3034528,26
3035156,27
3035776,23
3036408,14
3037032,11
3037664,14
3038292,16
3038912,14
3039544,15
3040168,15
3040792,13
3041420,11
3042040,13
3042668,11
3043292,14
3043916,12
3044548,16
3045168,18
3045796,16
3046428,14
3047048,17
3047676,21
3048300,31
3048932,40
3049564,35
3050184,27
3050816,14
3051440,16
3052064,20
3052692,10
3053312,12
3053944,15
3054568,12
3055192,18
3055824,22
3056444,21
3057072,16
3057704,11
3058320,11
3058952,11
3059576,10
3060208,14
3060836,18
3061456,23
3062088,19
3062712,23
3063336,28
3063968,18
3064588,15
3065216,18
3065844,25
3066468,19
3067100,12
3067724,14
3068356,19
3068988,26
3069608,27
3070240,25
3070864,32
3071496,26
3072128,18
3072744,15
3073372,19
3073996,21
3074620,23
3075248,27
3075864,22
3076496,17
3077116,24
3077744,28
3078372,24
3078996,23
3079628,14
3080256,21
3080880,23
3081508,18
3082132,19
3082760,29
3083388,27
3084008,31
3084636,27
3085260,18
3085884,13
3086516,10
3087136,11
3087764,11
3088396,12
3089016,17
3089644,17
3090268,20
3090900,18
3091528,11
3092152,11
3092784,12
3093408,10
3094032,14
3094660,21
3095280,21
3095908,23
3096536,18
3097160,22
3097788,24
3098408,17
3099036,11
3099668,12
3100288,17
3100916,24
3101540,21
3102172,19
3102804,18
3103424,11
3104056,13
3104676,15
3105300,17
3105932,17
3106552,17
3107184,16
3107808,11
3108432,12
3109064,14
3109680,22
3110312,19
3110944,11
3111560,16
3112192,19
3112816,13
3113448,15
3114076,16
3114696,20
3115328,16
3115952,16
3116576,18
3117208,19
3117824,22
3118456,18
3119080,13
3119704,13
3120332,12
3120952,12
3121580,14
3122212,14
3122832,15
3123464,16
3124084,11
3124716,13
3125344,12
3125968,11
3126596,14
3127220,22
3127844,30
3128476,21
3129096,15
3129724,16
3130348,17
3130976,15
3131604,19
3132228,21
3132860,29
3133492,32
3134112,29
3134740,28
3135368,25
3135996,27
3136628,24
3137248,14
3137876,15
3138504,17
3139128,20
3139756,18
3140376,17
3141004,11
3141632,14
3142256,11
3142888,12
3143512,15
3144144,13
3144772,12
3145392,17
3146024,13
3146648,15
3147272,15
3147900,15
3148520,18
3149152,24
3149776,32
3150400,32
3151028,24
3151648,12
3152280,11
3152908,10
3153528,10
3154160,11
3154784,15
3155412,21
3156044,28
3156664,33
3157292,19
3157920,11
3158544,16
3159172,23
3159792,15
3160424,13
3161048,23
3161672,24
3162300,21
3162920,19
3163548,15
3164180,19
3164800,21
3165428,16
3166056,18
3166684,28
3167316,36
3167936,38
3168568,27
3169192,18
3169820,13
3170448,10
3171072,11
3171704,16
3172328,16
3172952,21
3173584,21
3174204,16
3174836,15
3175464,18
3176088,14
3176716,20
3177344,13
3177972,19
3178604,32
3179224,35
3179856,23
3180480,16
3181104,15
3181736,16
3182352,12
3182984,11
3183612,17
3184236,45
3184868,51
3185492,40
3186124,16
3186752,13
3187376,15
3188008,18
3188632,28
3189256,44
3189888,46
3190504,39
3191136,21
3191764,10
3192388,24
3193020,34
3193640,31
3194272,46
3194904,64
3195520,57
3196152,34
3196776,15
3197408,21
3198040,18
3198664,18
3199296,27
3199920,40
3200548,45
3201176,44
3201792,34
3202424,19
3203044,13
3203668,17
3204296,15
3204920,21
3205548,16
3206176,14
3206800,16
3207428,11
3208052,13
3208680,12
3209308,16
3209928,13
3210556,13
3211180,27
3211804,16
3212436,14
3213056,15
3213684,22
3214308,23
3214932,16
3215564,16
3216184,31
3216812,21
3217440,19
3218064,13
3218692,10
3219316,11
3219944,15
3220576,17
3221192,19
3221820,19
3222444,16
3223068,15
3223700,15
3224320,15
3224948,40
3225572,24
3226200,12
3226828,12
3227448,20
3228076,15
3228708,12
3229328,12
3229956,22
3230580,33
3231212,36
3231844,32
3232464,24
3233092,17
3233716,13
3234340,11
3234972,11
3235592,16
3236224,10
3236844,19
3237468,31
3238100,39
3238724,39
3239352,23
3239980,16
3240600,13
3241228,19
3241852,25
3242484,24
3243112,25
3243728,35
3244360,45
3244984,32
3245608,24
3246236,16
3246856,21
3247484,28
3248108,33
3248732,30
3249364,23
3249988,19
3250616,11
3251248,11
3251864,11
3252496,11
3253120,18
3253748,14
3254380,12
3255000,15
3255632,16
3256256,15
3256880,15
3257508,11
3258128,11
3258756,14
3259384,15
3260008,29
3260636,36
3261264,23
3261892,12
3262524,10
3263144,17
3263776,34
3264400,59
3265028,34
3265660,16
3266280,11
3266908,23
3267532,31
3268156,25
3268788,22
3269408,18
3270036,11
3270668,12
3271288,16
3271920,15
3272544,24
3273172,15
3273804,14
3274424,12
3275056,11
3275680,13
3276304,13
3276936,18
3277552,22
3278180,22
3278800,21
3279424,15
3280052,20
3280668,34
3281296,35
3281916,30
3282544,27
3283172,31
3283796,30
3284424,21
3285052,11
3285672,12
3286300,23
3286924,31
3287552,19
3288180,18
3288796,23
3289428,17
3290052,14
3290672,20
3291300,16
3291920,11
3292548,11
3293172,10
3293792,19
3294424,18
3295044,13
3295676,17
3296304,20
3296920,16
3297548,19
3298172,18
3298800,20
3299428,27
3300048,42
3300676,49
3301300,41
3301920,31
3302552,14
3303168,12
3303796,18
3304420,14
3305040,15
3305672,18
3306288,22
3306916,31
3307544,26
3308168,14
3308796,10
3309420,15
3310048,15
3310680,10
3311296,15
3311924,14
3312548,21
3313172,25
3313804,18
3314424,16
3315052,19
3315676,27
3316300,40
3316932,36
3317552,49
3318180,63
3318812,24
3319432,20
3320060,15
3320684,14
3321312,14
3321944,14
3322560,20
3323188,18
3323812,16
3324436,15
3325068,14
3325688,14
3326316,14
3326940,12
3327564,13
3328196,30
3328812,40
3329440,31
3330068,19
3330688,15
3331316,15
3331936,21
3332568,29
3333196,25
3333816,33
3334444,26
3335064,19
3335688,11
3336316,10
3336936,12
3337564,11
3338188,14
3338812,17
3339440,20
3340064,15
3340692,16
3341320,12
3341944,12
3342572,10
3343196,13
3343824,12
3344456,12
3345072,15
3345700,21
3346324,15
3346948,16
3347580,16
3348200,29
3348828,29
3349452,29
3350076,39
3350704,24
3351328,10
3351956,38
3352588,68
3353208,46
3353836,24
3354460,13
3355088,25
3355720,62
3356336,49
3356968,21
3357592,11
3358216,11
3358844,10
3359464,11
3360092,11
3360712,13
3361336,19
3361964,18
3362584,54
3363212,38
3363832,27
3364456,20
3365088,33
3365708,32
3366340,10
3366968,11
3367584,22
3368216,29
3368840,44
3369468,50
3370096,37
3370712,27
3371344,27
3371968,17
3372592,17
3373220,18
3373840,18
3374468,20
3375092,17
3375716,12
3376344,16
3376968,15
3377600,26
3378228,44
3378848,56
3379476,34
3380100,15
3380728,28
3381360,30
3381976,53
3382604,52
3383228,49
3383848,31
3384480,11
3385096,13
3385724,22
3386348,22
3386972,21
3387600,15
3388216,14
3388848,16
3389476,14
3390096,15
3390724,23
3391348,11
3391980,21
3392608,31
3393232,13
3393860,14
3394484,11
3395108,14
3395736,13
3396356,15
3396984,16
3397608,27
3398232,43
3398860,42
3399480,49
3400108,38
3400740,36
3401360,13
3401988,53
3402612,48
3403240,24
3403872,11
3404488,14
3405116,14
3405740,16
3406364,16
3406992,14
3407616,13
3408244,17
3408868,16
3409492,12
3410120,11
3410736,11
3411368,15
3411996,12
3412616,12
3413244,20
3413868,18
3414500,19
3415128,31
3415748,29
3416376,34
3417000,49
3417624,31
3418252,12
3418872,12
3419500,11
3420128,21
3420752,19
3421380,18
3422000,16
3422628,19
3423260,17
3423880,13
3424512,12
3425136,12
3425764,11
3426392,15
3427016,25
3427644,37
3428272,24
3428896,17
3429524,16
3430144,31
3430776,34
3431396,29
3432020,19
3432652,18
3433272,29
3433900,17
3434532,10
3435152,11
3435784,21
3436408,28
3437036,27
3437668,14
3438288,23
3438916,35
3439544,55
3440168,50
3440796,22
3441416,20
3442044,16
3442668,11
3443292,13
3443920,30
3444536,39
3445164,33
3445796,26
3446416,17
3447044,17
3447668,23
3448296,16
3448928,12
3449544,11
3450176,16
3450800,32
3451424,51
3452052,64
3452672,65
3453300,51
3453928,20
3454552,24
3455180,26
3455800,16
3456432,16
3457060,14
3457680,14
3458308,17
3458932,11
3459560,11
3460188,27
3460808,45
3461436,31
3462060,15
3462684,12
3463312,15
3463932,17
3464560,16
3465184,15
3465808,17
3466436,16
3467056,23
3467684,14
3468316,12
3468936,12
3469564,17
3470188,17
3470820,13
3471448,37
3472068,51
3472696,47
3473320,47
3473944,19
3474572,26
3475192,24
3475824,29
3476448,22
3477072,13
3477700,26
3478320,32
3478952,36
3479580,24
3480200,17
3480828,31
3481456,35
3482084,28
3482712,20
3483336,23
3483964,28
3484588,19
3485212,25
3485840,14
3486464,29
3487092,36
3487716,28
3488340,21
3488972,16
3489592,20
3490220,24
3490852,11
3491472,16
3492100,11
3492724,11
3493356,36
3493984,26
3494608,13
3495236,11
3495860,11
3496484,51
3497116,71
3497736,59
3498364,19
3498988,15
3499612,11
3500244,11
3500868,12
3501496,11
3502124,14
3502744,14
3503372,14
3503996,12
3504628,16
3505260,16
3505880,15
3506512,15
3507136,13
3507760,11
3508388,12
3509008,14
3509636,19
3510260,21
3510888,24
3511516,33
3512144,38
3512772,27
3513404,17
3514024,35
3514652,58
3515280,57
3515908,43
3516540,22
3517160,13
3517792,12
3518416,13
3519040,20
3519672,13
3520292,18
3520920,16
3521548,16
3522168,16
3522796,17
3523420,19
3524048,16
3524680,12
3525296,25
3525924,15
3526548,15
3527172,12
3527804,10
3528424,19
3529052,12
3529676,21
3530300,27
3530932,26
3531552,17
3532180,12
3532812,13
3533432,24
3534060,32
3534684,20
3535312,16
3535944,27
3536564,22
3537192,19
3537816,16
3538440,28
3539068,52
3539688,47
3540316,16
3540940,28
3541564,26
3542196,16
3542816,17
3543444,19
3544076,12
3544696,22
3545324,15
3545948,14
3546580,14
3547208,17
3547828,19
3548456,16
3549080,18
3549704,30
3550332,35
3550952,19
3551584,13
3552208,11
3552832,17
3553460,16
3554080,11
3554708,15
3555340,22
3555960,32
3556592,26
3557216,12
3557844,15
3558476,10
3559096,12
3559724,13
3560352,19
3560976,13
3561604,20
3562224,27
3562856,18
3563480,19
3564104,21
3564732,16
3565352,19
3565980,24
3566612,19
3567232,22
3567864,15
3568488,20
3569116,27
3569748,22
3570368,13
3571000,24
3571624,32
3572248,30
3572880,17
3573496,21
3574128,15
3574752,13
3575376,12
3576004,10
3576624,11
3577256,14
3577884,18
3578504,15
3579136,14
3579760,15
3580392,16
3581020,20
3581640,15
3582272,20
3582896,11
3583520,17
3584156,26
3584776,31
3585404,29
3586028,19
3586652,19
3587280,24
3587896,49
3588524,42
3589156,18
3589776,26
3590404,24
3591028,18
3591660,14
3592288,13
3592912,14
3593540,20
3594168,57
3594792,69
3595424,50
3596040,22
3596668,23
3597296,43
3597916,59
3598548,42
3599172,20
3599804,11
3600436,12
3601056,22
3601684,31
3602308,23
3602940,10
3603568,11
3604192,24
3604820,24
3605444,25
3606068,16
3606696,14
3607312,11
3607940,16
3608564,34
3609188,15
3609820,11
3610440,18
3611068,26
3611696,18
3612320,13
3612948,19
3613572,21
3614200,17
3614832,16
3615448,17
3616076,15
3616700,22
3617324,15
3617952,11
3618568,12
3619200,17
3619820,36
3620444,54
3621076,30
3621700,15
3622328,14
3622956,14
3623576,15
3624204,11
3624828,12
3625460,19
3626088,21
3626704,16
3627336,11
3627960,13
3628584,25
3629212,27
3629832,21
3630460,16
3631084,17
3631708,19
3632340,11
3632964,12
3633592,18
3634224,30
3634844,39
3635472,34
3636096,13
3636724,16
3637356,12
3637976,17
3638604,28
3639228,29
3639852,20
3640484,10
3641104,19
3641732,19
3642356,16
3642980,13
3643612,12
3644236,15
3644864,23
3645496,38
3646112,30
3646744,19
3647368,17
3647996,27
3648628,30
3649248,53
3649876,47
3650500,31
3651124,12
3651756,27
3652376,21
3653004,16
3653628,14
3654256,18
3654884,20
3655508,15
3656140,28
3656772,24
3657392,15
3658020,15
3658648,25
3659272,23
3659900,19
3660520,12
3661152,15
3661776,18
3662396,13
3663028,16
3663648,22
3664276,15
3664908,14
3665528,15
3666160,20
3666780,30
3667412,32
3668044,24
3668664,26
3669292,21
3669916,12
3670544,11
3671172,19
3671792,19
3672424,15
3673048,15
3673672,14
3674300,11
3674920,12
3675548,15
3676180,33
3676800,58
3677428,71
3678056,67
3678684,57
3679316,15
3679936,49
3680568,67
3681192,77
3681820,49
3682448,22
3683068,12
3683696,11
3684320,13
3684944,12
3685576,13
3686196,28
3686828,36
3687456,37
3688076,35
3688704,15
3689324,19
3689956,16
3690584,12
3691200,10
3691832,28
3692456,41
3693080,21
3693708,48
3694328,32
3694956,25
3695580,17
3696208,16
3696836,18
3697456,17
3698084,19
3698712,18
3699336,15
3699964,15
3700588,26
3701220,31
3701848,22
3702464,15
3703096,13
3703720,12
3704344,15
3704972,14
3705592,20
3706224,26
3706848,26
3707472,13
3708100,11
3708720,11
3709348,11
3709980,10
3710600,31
3711232,48
3711856,40
3712488,17
3713116,14
3713736,20
3714364,21
3714988,18
3715612,11
3716244,13
3716864,15
3717492,42
3718116,54
3718740,59
3719372,26
3719992,16
3720624,13
3721252,14
3721872,17
3722500,16
3723124,15
3723756,15
3724388,15
3725008,11
3725636,10
3726260,11
3726884,11
3727516,18
3728136,14
3728764,17
3729388,17
3730012,40
3730644,27
3731268,24
3731896,29
3732524,18
3733144,11
3733772,22
3734400,32
3735028,30
3735660,22
3736280,15
3736912,25
3737536,21
3738160,17
3738788,27
3739408,39
3740036,22
3740660,11
3741288,11
3741916,11
3742540,15
3743172,33
3743804,44
3744424,47
3745052,44
3745676,25
3746308,17
3746940,52
3747560,45
3748192,17
3748816,12
3749436,23
3750068,18
3750688,32
3751316,28
3751948,28
3752568,20
3753200,21
3753824,19
3754452,19
3755084,16
3755704,16
3756336,25
3756960,17
3757584,11
3758216,10
3758832,11
3759464,11
3760088,15
3760712,28
3761344,30
3761960,26
3762592,24
3763220,16
3763840,19
3764468,16
3765092,18
3765724,11
3766356,14
3766976,25
3767608,30
3768232,29
3768856,11
3769484,10
3770104,13
3770732,13
3771360,21
3771984,24
3772612,20
3773232,17
3773864,11
3774492,23
3775112,17
3775744,24
3776368,27
3776996,11
3777628,36
3778248,57
3778876,63
3779504,39
3780128,15
3780756,21
3781376,43
3782008,40
3782632,29
3783256,17
3783884,38
3784504,39
3785136,15
3785764,11
3786384,11
3787016,12
3787640,19
3788272,30
3788900,23
3789520,15
3790148,19
3790772,26
3791396,44
3792028,44
3792648,31
3793276,11
3793900,17
3794528,30
3795156,26
3795784,12
3796412,26
3797044,19
3797664,16
3798296,17
3798920,12
3799552,13
3800180,20
3800800,23
3801428,12
3802056,11
3802680,11
3803308,10
3803928,11
3804560,16
3805188,19
3805808,18
3806440,21
3807064,16
3807696,11
3808324,10
3808944,11
3809576,21
3810200,19
3810824,13
3811452,12
3812072,21
3812700,36
3813328,23
3813952,19
3814584,15
3815200,24
3815832,45
3816464,74
3817080,60
3817712,25
3818336,9
3818916,19
3819552,25
3820168,18
3820800,23
3821424,39
3822056,47
3822684,35
3823304,15
3823936,21
3824560,59
3825188,74
3825820,19
3826440,25
3827072,38
3827696,53
3828320,44
3828952,18
3829576,52
3830208,57
3830840,39
3831460,17
3832088,11
3832716,17
3833348,24
3833976,23
3834600,13
3835232,18
3835856,13
3836480,13
3837112,12
3837732,15
3838364,20
3838996,18
3839616,16
3840252,25
3840872,12
3841504,12
3842132,11
3842752,9
3843328,11
3843952,17
3844580,25
3845212,18
3845832,15
3846460,17
3847084,16
3847708,16
3848340,22
3848960,41
3849588,23
3850212,29
3850836,28
3851468,12
3852088,11
3852716,11
3853348,10
3853968,13
3854596,14
3855220,19
3855852,21
3856480,15
3857104,11
3857732,11
3858356,15
3858980,18
3859612,20
3860232,28
3860860,28
3861484,21
3862108,19
3862740,26
3863364,16
3863992,22
3864624,22
3865244,16
3865872,26
3866496,23
3867128,27
3867756,16
3868376,11
3869004,13
3869628,11
3870252,34
3870884,37
3871504,25
3872136,19
3872756,15
3873384,17
3874012,26
3874636,29
3875268,12
3875896,22
3876520,40
3877148,19
3877776,18
3878404,12
3879036,16
3879656,18
3880288,18
3880912,23
3881536,15
3882168,11
3882784,11
3883416,13
3884044,15
3884664,19
3885296,16
3885920,11
3886548,11
3887180,10
3887800,31
3888432,50
3889056,59
3889680,46
3890312,14
3890928,12
3891560,14
3892184,10
3892808,11
3893436,20
3894056,29
3894684,16
3895316,16
3895936,14
3896568,15
3897192,15
3897820,15
3898452,17
3899072,28
3899700,36
3900328,29
3900952,25
3901580,22
3902200,18
3902832,11
3903456,16
3904080,15
3904708,20
3905328,21
3905956,17
3906588,22
3907208,22
3907836,17
3908460,20
3909092,13
3909724,38
3910344,40
3910976,25
3911600,24
3912224,47
3912852,39
3913472,15
3914104,16
3914728,18
3915352,39
3915984,37
3916604,24
3917232,10
3917864,11
3918484,25
3919112,39
3919740,37
3920372,22
3921000,14
3921620,14
3922248,20
3922872,46
3923500,40
3924128,15
3924752,15
3925384,13
3926008,21
3926632,32
3927264,25
3927888,26
3928520,29
3929148,18
3929768,15
3930396,16
3931024,20
3931656,19
3932288,10
3932904,22
3933532,30
3934156,16
3934780,21
3935412,28
3936032,17
3936660,15
3937288,12
3937912,18
3938540,20
3939164,16
3939796,15
3940428,18
3941048,27
3941676,32
3942304,32
3942928,22
3943556,33
3944176,33
3944804,20
3945428,13
3946052,42
3946684,52
3947304,32
3947932,15
3948564,14
3949184,11
3949812,30
3950436,45
3951068,37
3951700,24
3952320,15
3952948,13
3953572,15
3954200,17
3954828,16
3955448,23
3956076,50
3956700,52
3957324,13
3957956,20
3958576,24
3959204,28
3959836,42
3960456,46
3961084,43
3961708,30
3962340,14
3962972,20
3963592,43
3964224,45
3964848,24
3965472,20
3966100,14
3966720,11
3967348,20
3967976,29
3968600,37
3969232,31
3969848,12
3970480,13
3971108,16
3971728,23
3972356,15
3972984,18
3973612,12
3974244,10
3974864,27
3975492,17
3976116,10
3976740,12
3977372,19
3977992,17
3978624,16
3979248,16
3979872,31
3980504,21
3981128,21
3981756,30
3982388,22
3983008,14
3983640,23
3984264,45
3984892,55
3985524,32
3986144,11
3986772,23
3987400,13
3988024,15
3988652,22
3989272,36
3989904,23
3990532,10
3991152,12
3991784,11
3992408,13
3993040,20
3993668,17
3994288,26
3994916,39
3995540,25
3996168,22
3996796,16
3997416,17
3998048,21
3998672,26
3999296,39
3999928,27
4000544,10
4001176,11
4001804,12
4002424,12
4003052,11
4003676,11
4004308,14
4004936,16
4005552,19
4006184,49
4006808,40
4007432,11
4008060,12
4008680,15
4009308,16
4009932,18
4010556,12
4011188,20
4011808,19
4012436,13
4013068,15
4013688,21
4014316,15
4014940,15
4015572,13
4016200,14
4016824,22
4017452,31
4018076,35
4018700,26
4019328,18
4019952,12
4020580,15
4021204,15
4021828,19
4022456,15
4023080,16
4023708,13
4024340,10
4024960,11
4025588,10
4026212,12
4026844,26
4027472,41
4028096,25
4028724,33
4029352,33
4029976,17
4030604,19
4031224,24
4031856,16
4032480,16
4033104,15
4033732,10
4034352,11
4034984,11
4035612,10
4036232,13
4036860,31
4037484,49
4038116,33
4038748,26
4039368,17
4039996,17
4040624,13
4041248,17
4041876,10
4042496,12
4043124,11
4043748,17
4044376,24
4045004,25
4045624,24
4046252,17
4046884,20
4047504,19
4048132,22
4048756,11
4049388,16
4050016,26
4050640,60
4051268,49
4051892,27
4052516,13
4053148,10
4053768,12
4054400,16
4055020,15
4055648,14
4056276,17
4056904,51
4057532,69
4058164,28
4058784,26
4059412,51
4060040,60
4060668,32
4061300,10
4061920,29
4062552,27
4063176,20
4063800,22
4064432,18
4065048,15
4065680,12
4066308,15
4066928,34
4067560,54
4068184,51
4068812,26
4069444,11
4070064,13
4070696,19
4071320,15
4071944,15
4072576,15
4073192,19
4073824,20
4074448,12
4075072,18
4075704,13
4076320,18
4076952,30
4077584,37
4078200,34
4078832,31
4079456,15
4080088,55
4080716,58
4081336,21
4081964,32
4082592,66
4083216,95
4083844,82
4084464,27
4085096,12
4085720,16
4086344,18
4086976,12
4087592,15
4088224,15
4088856,14
4089472,26
4090104,14
4090728,12
4091360,14
4091988,10
4092608,11
4093240,13
4093868,13
4094492,31
4095124,59
4095744,31
4096380,28
4097000,17
4097620,35
4098248,37
4098864,57
4099492,27
4100120,30
4100736,28
4101364,19
4101988,29
4102616,18
4103244,18
4103864,43
4104492,45
4105112,18
4105736,41
4106364,24
4106980,12
4107612,11
4108232,14
4108856,17
4109484,16
4110104,13
4110732,14
4111356,25
4111976,27
4112608,16
4113232,17
4113860,21
4114488,26
4115112,17
4115740,31
4116364,40
4116996,60
4117624,66
4118240,49
4118868,34
4119492,11
4120116,23
4120744,25
4121360,44
4121992,47
4122616,46
4123236,24
4123864,16
4124488,37
4125116,51
4125744,42
4126368,13
4126996,32
4127620,41
4128248,20
4128880,15
4129496,28
4130124,15
4130748,17
4131368,16
4132000,17
4132616,17
4133244,16
4133868,11
4134492,11
4135120,19
4135744,17
4136372,11
4137004,12
4137624,15
4138252,15
4138872,14
4139504,17
4140132,16
4140752,11
4141380,13
4142004,13
4142628,10
4143260,16
4143880,27
4144508,35
4145132,39
4145756,37
4146388,18
4147012,15
4147644,23
4148272,20
4148888,23
4149516,37
4150140,31
4150768,29
4151400,20
4152016,20
4152644,11
4153268,12
4153892,29
4154524,22
4155144,19
4155772,21
4156400,37
4157024,33
4157652,25
4158276,11
4158904,13
4159536,11
4160156,37
4160784,47
4161404,37
4162032,25
4162664,23
4163280,55
4163908,56
4164532,28
4165152,19
4165784,17
4166400,19
4167028,22
4167652,11
4168276,23
4168904,24
4169520,13
4170152,11
4170780,27
4171400,39
4172028,49
4172652,18
4173284,23
4173912,34
4174528,36
4175160,26
4175784,13
4176408,18
4177036,10
4177656,13
4178284,19
4178908,28
4179532,24
4180160,16
4180776,25
4181404,54
4182036,27
4182656,13
4183284,13
4183908,17
4184536,11
4185168,12
4185784,12
4186412,11
4187036,10
4187660,17
4188288,16
4188912,16
4189540,21
4190164,24
4190788,12
4191416,12
4192040,11
4192668,11
4193296,16
4193920,19
4194548,24
4195172,11
4195804,19
4196432,24
4197056,24
4197684,16
4198308,16
4198936,23
4199564,48
4200184,44
4200812,22
4201436,11
4202056,12
4202688,19
4203304,28
4203932,25
4204564,35
4205184,26
4205812,15
4206436,24
4207064,25
4207696,55
4208312,66
4208944,22
4209568,46
4210188,64
4210820,51
4211440,17
4212068,12
4212692,30
4213316,48
4213944,21
4214568,16
4215196,13
4215828,10
4216448,14
4217076,11
4217700,11
4218332,19
4218964,32
4219584,19
4220212,11
4220836,15
4221460,15
4222088,14
4222712,17
4223344,15
4223968,14
4224592,13
4225220,11
4225840,21
4226468,23
4227096,17
4227720,17
4228348,23
4228972,31
4229604,16
4230232,31
4230852,23
4231480,17
4232104,20
4232728,26
4233356,36
4233976,34
4234604,19
4235228,17
4235852,11
4236484,10
4237104,11
4237732,20
4238364,26
4238984,25
4239612,29
4240236,13
4240868,28
4241496,58
4242112,39
4242744,12
4243368,12
4243992,25
4244620,34
4245240,31
4245868,21
4246492,17
4247116,17
4247744,15
4248368,15
4248996,10
4249628,18
4250248,12
4250876,26
4251500,29
4252128,59
4252760,31
4253380,17
4254008,21
4254632,29
4255260,15
4255888,34
4256512,30
4257140,28
4257764,12
4258388,12
4259020,37
4259640,13
4260268,31
4260900,23
4261520,15
4262148,13
4262772,15
4263400,15
4264032,16
4264648,19
4265276,16
4265900,30
4266524,33
4267152,31
4267776,20
4268404,12
4269028,19
4269652,11
4270284,10
4270904,15
4271532,15
4272164,14
4272784,15
4273412,15
4274036,12
4274668,10
4275296,11
4275920,18
4276548,33
4277172,62
4277796,47
4278424,30
4279048,19
4279676,30
4280300,35
4280928,35
4281556,27
4282180,39
4282808,52
4283440,38
4284056,39
4284688,25
4285312,14
4285940,26
4286572,32
4287192,13
4287824,24
4288448,31
4289072,33
4289700,43
4290320,37
4290948,12
4291572,27
4292196,54
4292828,24
4293452,13
4294080,17
4294708,16
4295328,20
4295956,35
4296584,30
4297212,17
4297844,16
4298464,40
4299092,43
4299720,48
4300344,47
4300976,45
4301592,35
4302220,33
4302844,14
4303472,12
4304100,13
4304724,15
4305352,19
4305984,29
4306600,21
4307232,24
4307852,27
4308484,23
4309112,17
4309732,15
4310360,11
4310988,42
4311612,24
4312240,12
4312864,20
4313492,26
4314124,18
4314744,16
4315372,15
4315996,11
4316628,15
4317260,27
4317880,39
4318512,48
4319136,36
4319760,40
4320392,59
4321008,45
4321636,34
4322260,23
4322884,68
4323512,89
4324132,15
4324760,40
4325388,28
4326008,16
4326636,13
4327260,13
4327892,30
4328520,15
4329136,34
4329768,30
4330392,17
4331016,25
4331644,14
4332264,12
4332892,17
4333516,25
4334140,33
4334772,26
4335392,25
4336020,13
4336652,10
4337272,13
4337904,18
4338528,35
4339160,31
4339788,37
4340408,13
4341036,19
4341664,25
4342288,16
4342916,22
4343536,30
4344168,19
4344788,14
4345416,18
4346044,16
4346664,15
4347292,15
4347924,16
4348544,18
4349176,13
4349800,12
4350428,16
4351060,11
4351680,15
4352312,21
4352932,20
4353556,13
4354188,14
4354808,18
4355436,19
4356060,43
4356684,42
4357312,16
4357936,28
4358564,75
4359196,44
4359816,13
4360444,33
4361068,33
4361700,30
4362328,30
4362948,15
4363576,33
4364200,37
4364824,17
4365452,40
4366072,31
4366700,13
4367328,31
4367952,47
4368580,37
4369200,24
4369828,41
4370460,36
4371080,17
4371712,21
4372336,19
4372964,19
4373596,44
4374216,47
4374848,13
4375472,25
4376096,43
4376724,25
4377344,18
4377976,24
4378600,19
4379220,16
4379852,18
4380472,23
4381104,23
4381732,18
4382352,19
4382984,20
4383608,22
4384236,28
4384868,26
4385488,13
4386116,10
4386740,10
4387364,15
4387996,14
4388616,15
4389244,15
4389868,15
4390496,13
4391124,17
4391748,14
4392380,28
4393012,38
4393632,41
4394260,56
4394884,59
4395516,13
4396148,30
4396768,41
4397400,53
4398024,42
4398648,19
4399280,10
4399896,11
4400528,15
4401156,17
4401776,20
4402404,52
4403032,58
4403664,39
4404292,15
4404912,21
4405540,20
4406164,18
4406792,12
4407420,10
4408040,11
4408668,10
4409292,14
4409916,29
4410548,42
4411168,27
4411800,25
4412428,26
4413048,29
4413676,25
4414304,18
4414932,34
4415564,39
4416184,23
4416812,19
4417436,12
4418060,12
4418692,21
4419312,37
4419940,37
4420568,29
4421192,15
4421820,17
4422440,15
4423068,20
4423700,28
4424320,21
4424948,11
4425572,15
4426204,11
4426832,18
4427452,31
4428080,27
4428704,21
4429328,15
4429960,24
4430576,29
4431208,33
4431832,26
4432456,28
4433084,30
4433704,38
4434332,22
4434964,11
4435584,22
4436212,32
4436840,31
4437468,17
4438096,27
4438720,57
4439348,51
4439976,19
4440600,17
4441228,28
4441848,25
4442476,39
4443100,47
4443728,28
4444356,12
4444976,11
4445604,20
4446236,38
4446856,25
4447484,24
4448112,30
4448740,28
4449372,12
4449992,13
4450620,19
4451248,15
4451872,12
4452500,11
4453120,11
4453748,13
4454376,16
4455000,17
4455632,17
4456252,16
4456880,21
4457508,18
4458128,16
4458756,14
4459384,11
4460012,22
4460644,34
4461264,25
4461896,38
4462520,34
4463144,21
4463776,15
4464396,15
4465024,14
4465648,44
4466276,35
4466904,39
4467528,41
4468156,35
4468788,22
4469408,12
4470040,13
4470664,15
4471292,16
4471924,16
4472544,14
4473176,27
4473800,20
4474424,11
4475056,14
4475672,21
4476304,23
4476936,16
4477552,13
4478184,18
4478812,30
4479444,23
4480076,19
4480696,28
4481324,31
4481948,32
4482568,30
4483200,30
4483816,19
4484444,11
4485068,11
4485696,24
4486324,34
4486944,24
4487572,15
4488204,26
4488824,34
4489452,33
4490076,22
4490708,37
4491336,56
4491960,46
4492592,18
4493216,21
4493840,16
4494468,30
4495088,15
4495720,24
4496344,27
4496968,18
4497596,16
4498216,25
4498848,52
4499476,46
4500096,24
4500724,11
4501352,17
4501980,15
4502612,12
4503232,17
4503864,25
4504488,48
4505112,49
4505744,17
4506360,16
4506988,19
4507612,13
4508236,11
4508864,12
4509480,12
4510112,12
4510740,18
4511360,23
4511988,24
4512612,18
4513244,17
4513872,18
4514496,16
4515124,17
4515748,17
4516376,19
4517004,22
4517624,16
4518252,17
4518876,17
4519500,11
4520132,10
4520752,17
4521380,21
4522012,14
4522632,15
4523260,16
4523888,22
4524516,19
4525148,18
4525768,12
4526396,21
4527024,30
4527648,40
4528276,12
4528896,19
4529524,15
4530148,23
4530776,32
4531404,18
4532024,11
4532652,14
4533284,30
4533904,32
4534536,31
4535160,35
4535788,31
4536420,28
4537040,19
4537668,17
4538292,14
4538916,15
4539548,18
4540168,28
4540796,23
4541424,20
4542048,19
4542680,18
4543304,13
4543936,17
4544568,22
4545184,16
4545816,26
4546440,17
4547068,37
4547700,44
4548320,49
4548948,20
4549572,25
4550200,16
4550828,16
4551448,11
4552080,30
4552704,42
4553328,32
4553960,23
4554584,17
4555212,16
4555844,15
4556464,19
4557096,11
4557720,19
4558344,11
4558976,14
4559592,21
4560224,21
4560848,17
4561472,12
4562100,12
4562720,17
4563348,26
4563980,20
4564600,29
4565228,17
4565856,18
4566484,11
4567116,10
4567736,19
4568368,20
4568988,27
4569612,57
4570244,58
4570864,47
4571496,18
4572120,29
4572744,34
4573376,22
4573992,14
4574624,13
4575256,13
4575876,11
4576508,11
4577132,11
4577764,13
4578392,16
4579016,18
4579648,21
4580272,23
4580896,33
4581528,14
4582144,32
4582776,43
4583400,39
4584028,30
4584656,17
4585276,10
4585908,12
4586536,14
4587160,36
4587792,50
4588416,40
4589044,21
4589676,28
4590296,54
4590928,78
4591552,35
4592176,11
4592804,18
4593424,15
4594052,35
4594676,34
4595304,21
4595932,16
4596556,16
4597188,15
4597820,16
4598440,23
4599068,23
4599692,21
4600324,27
4600956,28
4601576,42
4602208,31
4602832,13
4603456,15
4604088,16
4604704,16
4605336,19
4605968,20
4606584,16
4607216,11
4607840,11
4608472,12
4609100,14
4609720,12
4610348,19
4610972,25
4611596,25
4612224,20
4612840,16
4613472,17
4614096,16
4614720,18
4615348,18
4615968,11
4616596,13
4617228,10
4617848,11
4618476,11
4619100,41
4619732,58
4620360,48
4620984,18
4621612,16
4622236,16
4622860,20
4623492,14
4624112,15
4624740,16
4625364,13
4625988,11
4626620,10
4627240,39
4627868,55
4628500,44
4629120,19
4629748,27
4630372,31
4631004,44
4631636,27
4632256,12
4632884,13
4633508,16
4634136,25
4634764,23
4635384,19
4636012,15
4636636,13
4637264,17
4637892,16
4638512,20
4639144,15
4639772,16
4640392,20
4641020,14
4641644,10
4642272,15
4642904,23
4643520,21
4644152,42
4644776,23
4645400,17
4646028,14
4646648,15
4647276,15
4647900,15
4648524,11
4649156,12
4649776,16
4650404,15
4651036,20
4651656,33
4652284,44
4652908,35
4653540,15
4654168,20
4654792,18
4655424,16
4656048,16
4656668,19
4657300,22
4657920,13
4658548,28
4659176,36
4659800,40
4660428,21
4661048,22
4661676,35
4662308,24
4662928,17
4663556,25
4664184,30
4664812,14
4665444,22
4666064,35
4666696,43
4667320,48
4667944,56
4668572,30
4669192,11
4669824,11
4670448,12
4671072,15
4671700,16
4672324,15
4672956,16
4673584,15
4674204,17
4674832,12
4675456,15
4676084,24
4676716,21
4677336,27
4677964,22
4678592,21
4679216,18
4679844,14
4680464,19
4681092,15
4681716,12
4682340,18
4682972,17
4683596,14
4684228,21
4684856,56
4685476,53
4686104,48
4686728,27
4687356,16
4687988,27
4688608,27
4689236,28
4689864,25
4690488,17
4691116,20
4691736,16
4692368,13
4692996,12
4693616,31
4694248,12
4694872,20
4695504,29
4696132,16
4696752,17
4697384,16
4698008,35
4698632,39
4699264,19
4699880,11
4700512,11
4701136,15
4701760,11
4702392,12
4703012,17
4703644,15
4704272,15
4704896,19
4705528,17
4706152,18
4706784,23
4707412,23
4708032,15
4708664,21
4709288,14
4709912,31
4710544,23
4711160,11
4711792,11
4712416,15
4713040,21
4713668,22
4714288,21
4714916,13
4715548,10
4716168,16
4716796,26
4717424,21
4718056,11
4718684,11
4719304,14
4719936,15
4720560,17
4721184,19
4721816,14
4722432,15
4723060,14
4723688,12
4724312,19
4724940,14
4725560,19
4726192,33
4726820,30
4727440,31
4728072,33
4728696,21
4729324,25
4729956,38
4730576,19
4731208,15
4731832,11
4732456,12
4733088,11
4733704,10
4734336,13
4734960,31
4735588,27
4736220,15
4736844,14
4737472,15
4738100,14
4738720,15
4739348,22
4739972,14
4740604,10
4741236,12
4741856,14
4742484,16
4743108,11
4743736,32
4744364,35
4744984,35
4745612,31
4746240,16
4746864,19
4747496,39
4748120,37
4748752,28
4749384,20
4750000,18
4750632,22
4751256,18
4751880,14
4752512,11
4753132,11
4753760,15
4754384,15
4755008,21
4755640,15
4756256,17
4756888,17
4757516,12
4758136,11
4758768,12
4759392,32
4760024,49
4760652,23
4761272,12
4761904,13
4762528,29
4763152,51
4763784,25
4764400,15
4765028,12
4765652,14
4766280,16
4766908,16
4767528,13
4768160,10
4768788,12
4769408,15
4770036,11
4770664,18
4771292,19
4771924,15
4772544,19
4773172,15
4773800,19
4774424,16
4775052,24
4775672,29
4776304,33
4776928,19
4777552,11
4778184,17
4778800,36
4779432,32
4780064,16
4780684,15
4781312,16
4781940,28
4782572,23
4783200,10
4783824,16
4784456,36
4785080,78
4785704,72
4786336,26
4786952,11
4787584,15
4788212,21
4788836,22
4789468,15
4790092,15
4790724,16
4791352,12
4791976,14
4792612,11
4793236,13
4793864,13
4794496,12
4795112,18
4795744,16
4796368,18
4796996,21
4797628,32
4798248,47
4798880,15
4799512,10
4800132,11
4800760,12
4801384,12
4802012,14
4802644,14
4803264,13
4803892,14
4804516,15
4805140,17
4805768,14
4806392,18
4807024,21
4807648,11
4808272,11
4808900,10
4809520,13
4810152,20
4810780,33
4811400,33
4812032,25
4812656,15
4813288,17
4813916,20
4814536,20
4815164,13
4815788,12
4816412,31
4817044,32
4817664,31
4818292,30
4818916,22
4819540,19
4820172,10
4820792,17
4821424,17
4822052,15
4822672,17
4823304,12
4823928,11
4824556,14
4825188,12
4825808,12
4826436,20
4827060,27
4827684,31
4828316,34
4828936,23
4829564,15
4830192,18
4830816,23
4831448,16
4832072,15
4832700,47
4833332,59
4833952,60
4834580,45
4835204,27
4835836,13
4836464,22
4837088,27
4837720,20
4838344,19
4838968,15
4839596,14
4840216,16
4840844,19
4841468,16
4842096,20
4842724,11
4843352,27
4843980,34
4844612,29
4845232,14
4845860,20
4846488,17
4847112,16
4847740,16
4848360,20
4848988,26
4849612,28
4850236,28
4850868,18
4851488,20
4852116,21
4852748,14
4853368,11
4854000,16
4854624,16
4855252,16
4855884,18
4856504,17
4857136,19
4857760,24
4858384,19
4859016,11
4859632,11
4860264,17
4860888,12
4861512,13
4862144,16
4862764,15
4863392,16
4864024,14
4864648,20
4865276,37
4865900,20
4866532,21
4867160,36
4867780,33
4868412,16
4869036,10
4869660,10
4870288,10
4870912,14
4871544,17
4872168,18
4872792,22
4873424,15
4874040,13
4874672,17
4875300,16
4875920,17
4876552,11
4877176,12
4877804,11
4878436,12
4879056,15
4879688,20
4880312,23
4880936,20
4881564,14
4882184,11
4882812,11
4883440,16
4884064,16
4884692,12
4885316,11
4885948,16
4886580,18
4887200,20
4887828,21
4888456,21
4889084,18
4889716,14
4890336,28
4890968,39
4891592,43
4892216,29
4892844,16
4893464,13
4894096,28
4894724,38
4895344,24
4895976,25
4896600,22
4897228,17
4897860,36
4898480,63
4899112,33
4899736,15
4900360,12
4900992,11
4901608,28
4902240,15
4902864,11
4903488,24
4904120,31
4904736,27
4905368,17
4906000,16
4906616,12
4907248,13
4907872,11
4908504,15
4909136,19
4909752,25
4910388,38
4911012,42
4911640,31
4912272,23
4912888,15
4913520,37
4914144,20
4914772,14
4915404,16
4916024,24
4916652,19
4917280,17
4917896,26
4918528,31
4919152,24
4919780,21
4920412,16
4921032,14
4921660,15
4922284,15
4922908,15
4923536,10
4924152,12
4924784,12
4925408,11
4926032,15
4926660,19
4927280,31
4927908,33
4928540,32
4929160,19
4929788,15
4930412,27
4931040,33
4931672,13
4932288,13
4932916,14
4933540,19
4934164,19
4934796,32
4935416,32
4936048,15
4936668,12
4937292,17
4937924,14
4938544,15
4939172,20
4939804,24
4940424,23
4941052,17
4941676,11
4942308,35
4942936,39
4943560,50
4944188,39
4944812,22
4945436,31
4946068,40
4946688,23
4947316,21
4947940,14
4948564,11
4949196,16
4949816,19
4950448,13
4951076,18
4951696,28
4952324,11
4952952,19
4953580,13
4954212,16
4954832,19
4955464,24
4956088,34
4956712,33
4957344,22
4957960,13
4958592,12
4959216,23
4959840,26
4960472,45
4961096,42
4961724,25
4962356,16
4962976,20
4963604,26
4964228,36
4964860,19
4965488,10
4966112,11
4966744,16
4967364,22
4967988,26
4968620,28
4969240,21
4969868,13
4970492,14
4971120,16
4971752,18
4972376,15
4973004,17
4973636,20
4974256,20
4974884,16
4975508,14
4976136,15
4976764,14
4977384,18
4978012,14
4978636,17
4979260,15
4979892,16
4980512,17
4981140,15
4981772,10
4982392,13
4983024,15
4983648,11
4984280,21
4984908,47
4985528,56
4986160,28
4986784,12
4987408,14
4988036,16
4988656,15
4989288,20
4989912,32
4990536,32
4991168,27
4991788,20
4992420,12
4993048,20
4993672,24
4994300,13
4994928,12
4995556,15
4996188,14
4996808,16
4997436,15
4998060,13
4998688,19
4999316,23
4999936,26
5000564,31
5001192,32
5001816,23
5002444,12
5003064,11
5003692,15
5004324,13
5004944,18
5005572,29
5006200,36
5006828,33
5007460,42
5008080,27
5008708,13
5009332,27
5009956,19
5010588,12
5011208,16
5011836,11
5012464,15
5013088,15
5013720,15
5014344,17
5014976,13
5015608,11
5016224,12
5016856,14
5017480,12
5018112,11
5018740,10
5019360,12
5019988,18
5020616,18
5021240,21
5021868,34
5022488,32
5023120,24
5023748,20
5024368,13
5024996,13
5025624,19
5026252,18
5026884,20
5027504,22
5028136,22
5028760,25
5029384,20
5030016,15
5030632,17
5031264,17
5031888,21
5032512,27
5033144,25
5033760,23
5034392,16
5035024,14
5035644,16
5036272,16
5036900,17
5037528,17
5038160,18
5038784,15
5039416,15
5040040,11
5040664,12
5041292,14
5041912,12
5042544,12
5043168,19
5043792,34
5044424,50
5045044,57
5045672,34
5046304,17
5046924,18
5047552,23
5048180,27
5048812,54
5049440,80
5050060,47
5050692,41
5051316,43
5051940,37
5052572,25
5053192,11
5053824,40
5054448,38
5055072,27
5055704,24
5056328,25
5056960,20
5057588,11
5058208,10
5058840,14
5059464,23
5060096,50
5060724,14
5061344,23
5061976,27
5062600,16
5063224,15
5063856,15
5064472,16
5065104,19
5065736,18
5066356,20
5066984,20
5067612,14
5068244,11
5068872,11
5069496,12
5070128,13
5070752,19
5071376,17
5072008,16
5072624,18
5073256,19
5073880,16
5074504,11
5075136,11
5075756,13
5076388,17
5077020,23
5077640,33
5078272,31
5078900,16
5079532,23
5080164,44
5080784,35
5081416,35
5082040,24
5082664,17
5083296,11
5083912,10
5084544,17
5085168,14
5085792,15
5086424,27
5087048,21
5087680,15
5088308,14
5088928,15
5089560,14
5090184,11
5090816,11
5091444,22
5092064,13
5092696,21
5093320,14
5093944,15
5094576,19
5095196,15
5095824,15
5096456,15
5097076,15
5097708,16
5098332,16
5098964,18
5099596,22
5100216,27
5100848,21
5101472,13
5102096,12
5102728,13
5103344,11
5103980,15
5104604,15
5105232,16
5105864,15
5106484,20
5107116,27
5107748,20
5108368,11
5109000,11
5109628,13
5110260,15
5110892,32
5111512,31
5112148,15
5112772,25
5113400,36
5114032,44
5114652,27
5115284,19
5115916,18
5116540,18
5117172,17
5117800,12
5118432,21
5119064,21
5119684,13
5120316,17
5120940,35
5121560,33
5122192,15
5122808,17
5123436,13
5124060,14
5124680,30
5125312,34
5125928,39
5126556,42
5127184,26
5127808,18
5128436,31
5129060,39
5129688,17
5130320,18
5130936,45
5131564,50
5132188,25
5132812,23
5133440,23
5134056,22
5134684,23
5135308,16
5135932,12
5136564,14
5137184,15
5137812,16
5138444,16
5139064,16
5139692,14
5140316,15
5140948,11
5141576,13
5142200,13
5142828,11
5143452,18
5144076,21
5144708,17
5145328,16
5145956,18
5146580,18
5147204,20
5147832,15
5148456,17
5149084,20
5149716,22
5150336,24
5150968,18
5151592,19
5152220,12
5152852,12
5153472,14
5154100,17
5154724,17
5155348,16
5155980,22
5156600,16
5157228,11
5157852,14
5158476,11
5159108,12
5159728,17
5160356,22
5160988,22
5161608,27
5162236,19
5162860,15
5163488,26
5164120,41
5164740,32
5165368,27
5165992,30
5166616,33
5167244,19
5167864,11
5168492,29
5169116,29
5169740,15
5170372,14
5170992,31
5171624,41
5172252,46
5172872,27
5173500,11
5174124,13
5174756,22
5175384,13
5176008,26
5176636,38
5177260,43
5177884,39
5178516,30
5179136,16
5179768,17
5180392,19
5181016,25
5181648,35
5182264,33
5182896,27
5183524,22
5184144,13
5184772,12
5185396,11
5186028,14
5186656,15
5187272,15
5187904,20
5188528,17
5189152,19
5189780,24
5190400,41
5191028,23
5191656,11
5192280,21
5192908,31
5193528,39
5194160,49
5194788,54
5195408,39
5196040,24
5196664,17
5197296,31
5197924,61
5198544,56
5199176,38
5199800,27
5200424,24
5201052,23
5201672,22
5202300,11
5202924,11
5203548,14
5204180,13
5204804,15
5205432,16
5206064,23
5206680,16
5207308,12
5207932,23
5208564,21
5209196,23
5209816,20
5210444,18
5211068,16
5211692,14
5212324,16
5212944,19
5213572,18
5214200,23
5214824,27
5215452,17
5216080,15
5216708,27
5217340,57
5217960,64
5218588,31
5219212,17
5219844,19
5220472,21
5221096,17
5221728,23
5222352,15
5222976,24
5223608,24
5224224,20
5224856,14
5225484,16
5226104,11
5226732,21
5227356,14
5227988,12
5228620,14
5229240,15
5229868,15
5230496,15
5231120,15
5231748,14
5232368,22
5233000,26
5233624,28
5234248,22
5234876,15
5235496,11
5236128,16
5236756,11
5237376,23
5238008,17
5238632,15
5239260,15
5239892,11
5240512,11
5241144,15
5241768,11
5242392,29
5243024,12
5243640,32
5244268,39
5244892,35
5245516,15
5246144,15
5246760,16
5247392,16
5248020,11
5248636,11
5249264,10
5249888,11
5250516,18
5251144,19
5251768,14
5252396,32
5253020,49
5253644,40
5254272,18
5254896,29
5255524,15
5256148,14
5256772,11
5257400,11
5258016,11
5258648,11
5259276,11
5259896,12
5260524,11
5261148,15
5261780,16
5262408,18
5263024,27
5263652,17
5264276,15
5264900,11
5265532,12
5266152,36
5266780,56
5267404,51
5268028,41
5268656,25
5269280,11
5269908,11
5270536,14
5271160,15
5271788,17
5272412,15
5273044,11
5273676,12
5274296,13
5274924,14
5275548,16
5276172,21
5276800,37
5277416,49
5278044,39
5278672,16
5279296,21
5279924,17
5280544,14
5281172,14
5281804,26
5282424,32
5283052,19
5283676,18
5284304,31
5284936,36
5285552,24
5286180,20
5286804,15
5287428,16
5288060,19
5288680,18
5289308,16
5289928,11
5290552,11
5291180,11
5291800,13
5292428,16
5293052,26
5293680,28
5294308,27
5294932,19
5295564,15
5296192,20
5296808,20
5297436,24
5298064,23
5298692,19
5299324,24
5299944,25
5300572,17
5301196,20
5301820,28
5302448,24
5303072,19
5303700,15
5304332,16
5304952,16
5305580,18
5306204,26
5306836,34
5307464,32
5308088,26
5308716,11
5309344,20
5309968,31
5310596,18
5311216,16
5311848,22
5312472,19
5313096,33
5313724,30
5314344,16
5314972,23
5315604,31
5316224,43
5316852,58
5317476,41
5318108,26
5318740,12
5319360,13
5319988,11
5320616,14
5321240,15
5321868,18
5322488,27
5323116,26
5323744,22
5324368,19
5325000,11
5325616,15
5326244,11
5326872,30
5327488,24
5328116,17
5328740,31
5329368,26
5329996,16
5330616,17
5331244,15
5331868,15
5332492,17
5333120,16
5333736,26
5334364,27
5334992,22
5335616,15
5336244,13
5336864,20
5337492,14
5338124,16
5338744,21
5339372,22
5339996,13
5340628,15
5341256,22
5341880,28
5342508,29
5343132,25
5343760,13
5344388,11
5345008,13
5345636,18
5346260,23
5346884,17
5347512,15
5348132,25
5348760,28
5349388,31
5350008,25
5350636,21
5351260,19
5351892,19
5352520,12
5353144,12
5353772,15
5354396,15
5355020,14
5355652,14
5356272,12
5356900,12
5357524,11
5358148,11
5358780,14
5359400,21
5360028,30
5360660,31
5361280,15
5361908,14
5362532,14
5363164,17
5363796,15
5364416,16
5365044,28
5365668,32
5366296,18
5366924,10
5367544,11
5368172,13
5368796,25
5369420,28
5370052,14
5370672,19
5371304,21
5371932,14
5372552,22
5373184,52
5373808,23
5374436,11
5375068,11
5375688,11
5376320,16
5376940,23
5377564,31
5378192,38
5378812,31
5379440,28
5380064,19
5380688,23
5381316,46
5381936,40
5382564,35
5383196,36
5383816,27
5384444,34
5385068,30
5385700,11
5386328,21
5386944,25
5387576,22
5388200,15
5388824,22
5389452,24
5390072,13
5390700,11
5391324,17
5391952,17
5392580,11
5393200,13
5393828,11
5394460,14
5395080,19
5395712,15
5396336,16
5396964,16
5397596,14
5398216,12
5398848,14
5399472,15
5400096,17
5400724,14
5401344,19
5401976,22
5402600,16
5403224,11
5403852,14
5404472,16
5405104,16
5405732,14
5406352,13
5406984,29
5407608,39
5408236,25
5408864,13
5409488,14
5410116,14
5410740,13
5411364,12
5411992,18
5412616,24
5413244,61
5413868,42
5414492,18
5415124,27
5415748,78
5416376,107
5417056,60
5417680,23
5418308,14
5418932,14
5419556,25
5420188,44
5420808,30
5421436,18
5422060,26
5422688,23
5423316,18
5423944,15
5424572,12
5425204,14
5425824,33
5426456,47
5427080,48
5427708,41
5428340,23
5428960,29
5429588,57
5430212,59
5430836,21
5431468,20
5432088,26
5432716,12
5433340,34
5433968,35
5434596,26
5435220,14
5435852,11
5436484,10
5437104,15
5437736,21
5438360,30
5438984,28
5439616,16
5440232,10
5440860,17
5441484,15
5442108,13
5442736,12
5443360,22
5443988,14
5444616,10
5445240,23
5445868,27
5446492,25
5447120,22
5447752,13
5448368,11
5448996,15
5449620,15
5450244,11
5450876,18
5451496,28
5452124,21
5452752,12
5453376,14
5454004,13
5454624,18
5455252,18
5455884,15
5456504,13
5457132,12
5457756,16
5458388,15
5459016,15
5459640,27
5460268,33
5460892,38
5461516,26
5462148,14
5462768,18
5463396,21
5464020,25
5464644,28
5465276,30
5465896,28
5466524,26
5467156,12
5467776,15
5468408,17
5469032,19
5469660,15
5470292,25
5470912,43
5471540,29
5472168,24
5472788,27
5473420,28
5474040,13
5474668,12
5475292,19
5475916,33
5476548,35
5477168,43
5477800,36
5478428,19
5479048,15
5479676,17
5480300,17
5480932,20
5481560,30
5482184,33
5482812,31
5483440,26
5484064,41
5484692,32
5485312,14
5485944,12
5486568,19
5487192,18
5487824,19
5488440,23
5489072,25
5489700,18
5490320,17
5490948,11
5491572,17
5492204,20
5492832,30
5493456,17
5494084,24
5494708,24
5495332,17
5495964,16
5496584,19
5497212,28
5497840,27
5498464,19
5499092,11
5499716,17
5500348,19
5500980,12
5501600,11
5502228,13
5502856,15
5503488,16
5504116,17
5504736,23
5505364,17
5505988,14
5506612,11
5507244,14
5507864,23
5508492,15
5509116,13
5509744,18
5510372,27
5511000,22
5511632,15
5512260,35
5512880,25
5513508,15
5514136,15
5514760,17
5515392,22
5516008,29
5516640,31
5517264,23
5517888,16
5518520,10
5519136,24
5519768,22
5520400,16
5521016,17
5521644,35
5522272,27
5522900,12
5523532,18
5524152,24
5524784,51
5525408,49
5526032,18
5526664,14
5527280,23
5527912,28
5528536,21
5529164,15
5529792,18
5530416,15
5531044,13
5531676,18
5532296,30
5532924,31
5533548,18
5534180,15
5534808,10
5535432,13
5536064,13
5536684,14
5537308,16
5537940,15
5538560,16
5539188,19
5539816,27
5540440,25
5541068,11
5541688,19
5542316,25
5542948,12
5543568,17
5544200,21
5544824,25
5545452,15
5546084,15
5546704,18
5547336,17
5547960,11
5548584,13
5549216,34
5549832,53
5550464,49
5551088,33
5551712,41
5552344,38
5552968,22
5553596,20
5554228,20
5554848,19
5555480,15
5556104,12
5556732,22
5557364,33
5557984,30
5558616,21
5559240,12
5559864,12
5560496,14
5561112,12
5561744,14
5562372,15
5562992,15
5563624,17
5564248,24
5564880,27
5565508,26
5566128,23
5566760,19
5567384,17
5568008,15
5568636,10
5569256,12
5569888,13
5570512,15
5571136,19
5571768,25
5572384,20
5573016,11
5573644,14
5574264,14
5574896,12
5575520,11
5576148,14
5576780,18
5577400,29
5578032,45
5578656,39
5579280,21
5579908,19
5580528,28
5581160,35
5581784,51
5582408,39
5583036,22
5583656,13
5584288,12
5584916,18
5585536,15
5586168,11
5586792,26
5587420,18
5588052,15
5588672,15
5589300,17
5589928,13
5590552,15
5591184,16
5591800,15
5592432,20
5593056,14
5593680,12
5594308,19
5594928,27
5595560,17
5596188,16
5596808,22
5597436,15
5598064,27
5598696,25
5599328,27
5599944,40
5600576,28
5601200,13
5601824,11
5602456,12
5603072,15
5603704,23
5604328,18
5604952,15
5605580,17
5606200,15
5606832,21
5607460,22
5608080,17
5608708,12
5609332,11
5609964,14
5610596,11
5611216,15
5611848,17
5612468,16
5613096,19
5613724,22
5614344,34
5614976,15
5615600,17
5616224,20
5616852,26
5617476,23
5618108,14
5618736,10
5619360,19
5619988,16
5620612,15
5621244,15
5621876,22
5622496,35
5623124,35
5623748,15
5624376,27
5625004,62
5625624,43
5626252,12
5626876,18
5627504,29
5628136,31
5628760,18
5629392,16
5630024,18
5630640,15
5631272,12
5631900,15
5632524,11
5633156,14
5633776,33
5634404,45
5635028,46
5635652,24
5636280,11
5636900,15
5637528,17
5638156,15
5638776,16
5639404,15
5640028,11
5640660,12
5641288,28
5641904,31
5642536,25
5643160,27
5643784,31
5644412,26
5645032,21
5645660,28
5646284,19
5646908,16
5647540,14
5648160,11
5648788,10
5649420,12
5650040,16
5650668,33
5651292,43
5651924,29
5652556,22
5653176,12
5653804,15
5654428,18
5655052,24
5655680,19
5656304,11
5656932,14
5657560,13
5658184,11
5658812,11
5659432,19
5660060,29
5660692,35
5661312,41
5661944,19
5662568,18
5663196,16
5663828,36
5664448,42
5665076,31
5665700,13
5666324,23
5666956,26
5667576,24
5668208,11
5668828,15
5669452,15
5670084,14
5670704,19
5671332,28
5671964,27
5672584,18
5673216,12
5673840,13
5674468,15
5675100,10
5675720,15
5676348,33
5676976,47
5677600,36
5678228,26
5678848,18
5679476,22
5680104,45
5680728,45
5681356,34
5681976,37
5682608,29
5683236,16
5683856,11
5684484,11
5685108,13
5685740,12
5686368,26
5686992,22
5687624,21
5688248,22
5688872,20
5689500,31
5690120,29
5690752,16
5691376,11
5692000,16
5692632,13
5693256,17
5693888,12
5694516,19
5695136,25
5695768,21
5696392,20
5697020,23
5697652,14
5698272,34
5698900,56
5699524,33
5700148,13
5700780,16
5701400,23
5702032,19
5702660,16
5703280,29
5703912,17
5704536,17
5705164,17
5705796,16
5706416,16
5707044,21
5707672,28
5708296,23
5708928,22
5709544,25
5710176,16
5710800,15
5711424,17
5712056,19
5712672,22
5713304,34
5713932,38
5714552,28
5715184,11
5715808,11
5716440,11
5717068,11
5717688,13
5718320,12
5718944,11
5719568,11
5720200,15
5720820,21
5721448,32
5722072,29
5722696,13
5723328,20
5723944,28
5724576,19
5725208,12
5725828,11
5726460,12
5727084,12
5727716,16
5728348,16
5728968,15
5729600,15
5730224,16
5730848,14
5731480,16
5732100,31
5732732,31
5733356,30
5733984,18
5734616,11
5735240,13
5735868,11
5736496,12
5737120,17
5737748,22
5738372,17
5739004,15
5739632,13
5740252,14
5740880,15
5741504,15
5742128,21
5742756,24
5743376,27
5744004,23
5744628,21
5745256,15
5745884,17
5746508,20
5747140,17
5747772,10
5748392,12
5749024,20
5749648,25
5750276,32
5750908,32
5751528,19
5752160,13
5752784,13
5753408,30
5754040,36
5754656,15
5755288,24
5755916,29
5756536,32
5757168,27
5757792,19
5758424,13
5759052,24
5759672,29
5760304,16
5760928,12
5761548,32
5762180,43
5762800,36
5763428,27
5764052,18
5764676,15
5765304,21
5765920,28
5766552,29
5767180,19
5767800,17
5768428,13
5769052,11
5769684,11
5770312,13
5770928,15
5771560,17
5772184,18
5772808,19
5773436,16
5774056,15
5774684,13
5775312,13
5775936,12
5776564,12
5777184,12
5777812,23
5778444,14
5779064,15
5779692,15
5780316,17
5780948,13
5781576,11
5782200,20
5782828,27
5783456,28
5784080,32
5784708,26
5785328,17
5785960,11
5786580,14
5787204,15
5787836,16
5788456,21
5789084,21
5789716,14
5790336,17
5790968,20
5791592,41
5792220,45
5792852,48
5793472,36
5794100,16
5794724,18
5795348,44
5795980,34
5796600,32
5797228,32
5797852,46
5798476,52
5799108,38
5799728,25
5800356,12
5800988,11
5801608,11
5802236,11
5802860,11
5803492,15
5804124,14
5804744,19
5805376,17
5806000,14
5806624,14
5807252,14
5807872,11
5808504,12
5809128,14
5809752,21
5810380,21
5811000,13
5811632,20
5812264,19
5812880,18
5813512,18
5814136,15
5814768,13
5815396,14
5816016,14
5816644,12
5817268,13
5817892,15
5818524,10
5819144,19
5819776,14
5820400,18
5821024,16
5821652,36
5822280,35
5822908,23
5823540,12
5824160,15
5824788,16
5825412,16
5826044,12
5826672,15
5827296,16
5827924,13
5828548,15
5829172,15
5829804,16
5830424,16
5831052,15
5831680,21
5832304,27
5832936,30
5833560,23
5834192,19
5834824,16
5835440,13
5836072,11
5836696,15
5837320,16
5837952,15
5838568,17
5839200,19
5839824,13
5840448,11
5841076,10
5841696,14
5842324,19
5842956,27
5843576,29
5844204,19
5844828,14
5845460,16
5846088,19
5846712,21
5847344,19
5847968,18
5848592,22
5849220,27
5849840,20
5850468,15
5851092,17
5851720,16
5852348,11
5852968,12
5853596,15
5854228,15
5854848,18
5855480,18
5856104,11
5856732,21
5857364,24
5857984,23
5858612,18
5859236,14
5859860,11
5860492,12
5861112,12
5861744,15
5862368,15
5862992,14
5863624,15
5864240,14
5864872,20
5865504,31
5866120,40
5866752,36
5867376,11
5868008,19
5868636,14
5869256,11
5869888,17
5870512,19
5871136,21
5871768,20
5872388,16
5873016,22
5873644,26
5874268,19
5874900,11
5875524,11
5876156,20
5876788,38
5877408,48
5878040,51
5878664,27
5879296,27
5879924,67
5880544,79
5881176,57
5881800,35
5882424,45
5883056,26
5883676,10
5884308,12
5884940,20
5885560,11
5886192,13
5886816,31
5887448,43
5888080,24
5888696,16
5889324,25
5889948,22
5890572,29
5891204,28
5891824,25
5892456,17
5893080,11
5893704,13
5894336,16
5894956,15
5895584,17
5896216,19
5896836,17
5897468,15
5898092,17
5898724,21
5899352,24
5899976,25
5900604,24
5901232,21
5901856,12
5902484,10
5903104,13
5903736,25
5904360,25
5904984,17
5905612,14
5906232,15
5906864,23
5907492,26
5908112,14
5908744,23
5909368,29
5909996,25
5910628,14
5911248,12
5911880,15
5912504,15
5913128,16
5913760,14
5914376,15
5915008,19
5915632,19
5916256,15
5916884,14
5917508,18
5918140,16
5918772,10
5919392,12
5920024,17
5920644,17
5921276,18
5921904,16
5922528,13
5923156,12
5923784,11
5924408,11
5925036,10
5925656,21
5926288,35
5926916,34
5927536,31
5928168,17
5928792,20
5929420,22
5930052,22
5930672,21
5931304,19
5931928,21
5932552,22
5933184,22
5933800,12
5934432,12
5935056,11
5935680,15
5936312,15
5936928,13
5937560,19
5938192,46
5938812,54
5939444,17
5940064,48
5940696,64
5941324,57
5941944,17
5942572,48
5943196,73
5943820,41
5944452,17
5945072,54
5945700,79
5946324,63
5946948,35
5947580,17
5948200,13
5948828,15
5949460,14
5950080,13
5950708,14
5951336,15
5951968,11
5952600,18
5953216,22
5953844,15
5954468,18
5955096,31
5955724,26
5956344,13
5956972,22
5957600,35
5958224,31
5958852,17
5959472,18
5960104,14
5960732,14
5961352,28
5961984,20
5962608,18
5963236,16
5963868,19
5964488,23
5965120,23
5965740,17
5966368,14
5966996,15
5967616,18
5968248,15
5968872,11
5969496,12
5970124,18
5970744,24
5971376,24
5972004,17
5972624,11
5973256,15
5973880,18
5974512,11
5975140,22
5975760,38
5976392,37
5977016,36
5977640,25
5978268,17
5978888,33
5979520,19
5980144,15
5980768,14
5981400,17
5982024,41
5982656,63
5983284,49
5983904,18
5984536,15
5985160,10
5985792,11
5986420,13
5987040,15
5987672,15
5988296,17
5988920,15
5989552,30
5990168,27
5990800,11
5991432,11
5992052,10
5992680,21
5993304,20
5993936,15
5994564,11
5995184,17
5995816,19
5996440,21
5997064,19
5997696,15
5998312,15
5998944,14
5999572,16
6000196,18
6000828,26
6001448,23
6002076,16
6002708,16
6003328,19
6003956,16
6004584,16
6005212,15
6005844,12
6006464,13
6007092,22
6007720,26
6008344,25
6008972,26
6009592,29
6010224,25
6010848,22
6011472,19
6012104,17
6012720,21
6013352,25
6013984,16
6014604,15
6015232,17
6015860,20
6016492,17
6017124,18
6017744,22
6018376,14
6019000,11
6019624,17
6020256,15
6020872,18
6021504,16
6022128,21
6022752,16
6023380,11
6024008,20
6024636,24
6025268,12
6025888,13
6026520,17
6027144,13
6027772,17
6028404,17
6029024,17
6029652,15
6030280,16
6030904,21
6031536,29
6032152,36
6032784,11
6033416,11
6034032,11
6034664,19
6035288,13
6035916,31
6036548,49
6037168,28
6037800,15
6038424,25
6039048,33
6039680,33
6040296,16
6040928,32
6041556,28
6042180,15
6042812,12
6043432,37
6044064,34
6044692,20
6045312,16
6045944,15
6046568,22
6047200,32
6047828,25
6048448,37
6049080,50
6049704,43
6050328,29
6050960,14
6051576,11
6052208,12
6052832,14
6053456,15
6054088,17
6054704,17
6055336,16
6055968,14
6056588,15
6057216,16
6057844,11
6058472,10
6059104,14
6059728,31
6060360,33
6060988,17
6061612,15
6062244,16
6062864,16
6063496,15
6064120,12
6064744,13
6065372,15
6066000,23
6066628,37
6067260,43
6067880,29
6068508,11
6069136,10
6069764,15
6070396,16
6071016,15
6071648,16
6072276,15
6072900,11
6073532,10
6074152,10
6074784,13
6075416,15
6076040,12
6076672,11
6077296,19
6077928,20
6078560,15
6079180,18
6079812,25
6080436,21
6081060,11
6081692,10
6082312,12
6082944,19
6083568,29
6084192,16
6084820,14
6085444,24
6086076,47
6086708,31
6087328,15
6087960,18
6088584,17
6089212,11
6089844,11
6090464,15
6091096,11
6091720,11
6092344,12
6092976,20
6093592,26
6094224,13
6094852,17
6095472,19
6096104,19
6096728,16
6097356,13
6097988,14
6098608,25
6099236,24
6099864,31
6100488,34
6101116,40
6101736,16
6102368,12
6102996,13
6103620,13
6104252,15
6104872,15
6105504,19
6106136,15
6106752,12
6107384,12
6108008,11
6108640,12
6109268,16
6109888,22
6110520,21
6111144,16
6111768,14
6112400,15
6113024,15
6113656,16
6114280,17
6114904,23
6115536,24
6116152,23
6116784,25
6117416,24
6118040,20
6118672,11
6119300,11
6119932,15
6120564,14
6121184,15
6121816,15
6122440,13
6123064,16
6123696,17
6124312,17
6124944,19
6125576,15
6126196,11
6126828,21
6127452,30
6128084,24
6128716,16
6129336,15
6129968,15
6130592,15
6131216,13
6131848,31
6132468,58
6133100,42
6133724,23
6134352,18
6134984,16
6135604,11
6136236,25
6136868,19
6137488,14
6138120,15
6138748,15
6139380,14
6140012,16
6140632,13
6141268,10
6141892,11
6142520,15
6143152,12
6143772,25
6144408,43
6145036,18
6145656,19
6146284,28
6146908,35
6147536,23
6148168,17
6148784,22
6149412,34
6150036,30
6150664,23
6151292,16
6151912,11
6152544,17
6153168,17
6153792,15
6154420,22
6155040,25
6155668,14
6156300,11
6156920,21
6157548,15
6158172,13
6158804,11
6159436,12
6160056,13
6160684,13
6161308,15
6161932,17
6162560,16
6163184,17
6163816,17
6164440,17
6165064,21
6165692,26
6166312,31
6166944,20
6167572,10
6168192,11
6168820,11
6169448,15
6170076,15
6170708,24
6171328,25
6171956,24
6172584,30
6173208,22
6173836,23
6174456,67
6175088,65
6175712,26
6176336,33
6176964,35
6177584,33
6178216,29
6178844,16
6179464,23
6180096,18
6180720,14
6181348,13
6181980,10
6182600,14
6183228,21
6183856,11
6184480,15
6185108,15
6185728,29
6186356,29
6186980,15
6187608,15
6188236,20
6188856,15
6189484,14
6190116,14
6190736,12
6191368,12
6191992,12
6192624,12
6193256,28
6193872,39
6194504,32
6195128,15
6195756,15
6196384,20
6197008,38
6197640,35
6198264,19
6198888,11
6199516,13
6200144,13
6200776,13
6201404,12
6202024,11
6202652,40
6203280,41
6203908,29
6204540,28
6205160,15
6205792,13
6206416,11
6207040,15
6207672,11
6208292,13
6208920,21
6209548,38
6210168,57
6210800,54
6211424,25
6212052,15
6212684,22
6213304,46
6213936,67
6214560,54
6215184,27
6215816,10
6216436,11
6217064,17
6217688,27
6218312,29
6218944,14
6219560,15
6220192,14
6220824,31
6221440,37
6222072,23
6222696,17
6223328,32
6223960,24
6224580,20
6225212,10
6225836,22
6226460,53
6227092,64
6227712,55
6228344,25
6228968,28
6229592,57
6230220,55
6230840,39
6231472,27
6232104,18
6232720,19
6233352,23
6233976,22
6234608,23
6235240,12
6235856,17
6236488,37
6237112,28
6237736,17
6238368,15
6238988,13
6239616,11
6240244,25
6240868,28
6241496,22
6242120,16
6242752,12
6243384,22
6244000,29
6244628,46
6245256,28
6245884,15
6246516,16
6247136,16
6247764,13
6248388,18
6249012,21
6249644,16
6250264,11
6250892,12
6251516,14
6252144,16
6252776,13
6253400,17
6254032,16
6254660,19
6255280,23
6255912,16
6256536,24
6257160,17
6257792,16
6258408,20
6259036,22
6259664,32
6260288,20
6260920,12
6261536,18
6262168,16
6262796,27
