tempo_arduino_micro_s,valor_ADC
500,14
1004,15
1504,16
2000,16
2508,15
3000,14
3508,17
4000,17
4508,12
5000,10
5500,10
6000,10
6500,10
7004,10
7500,10
8000,14
8500,12
9000,11
9500,12
10000,18
10516,17
11036,16
11564,16
12084,16
12612,16
13132,16
13660,16
14180,17
14708,17
15228,16
15756,14
16276,12
16796,11
17316,10
17836,11
18356,18
18876,15
19396,16
19916,19
20436,18
20956,16
21476,11
21996,11
22516,12
23036,12
23564,12
24084,10
24612,13
25132,16
25660,17
26180,12
26708,15
27228,15
27756,15
28276,15
28804,17
29324,15
29852,15
30372,19
30900,16
31420,14
31948,10
32472,10
32996,11
33516,15
34044,18
34564,16
35092,14
35612,15
36140,14
36660,15
37188,15
37708,12
38236,10
38760,10
39284,10
39804,14
40332,14
40852,10
41372,11
41892,11
42412,13
42932,16
43452,17
43972,15
44492,15
45012,15
45532,16
46052,18
46572,20
47092,21
47612,19
48140,13
48660,11
49188,11
49708,11
50236,11
50756,10
51284,11
51804,15
52332,15
52852,16
53380,16
53900,17
54428,12
54948,10
55476,12
55996,12
56524,11
57044,14
57572,14
58096,18
58620,14
59140,13
59668,14
60188,14
60716,15
61240,15
61764,15
62284,15
62812,12
63332,13
63860,16
64384,16
64908,15
65428,17
65948,20
66468,18
66988,18
67508,17
68028,17
68548,17
69068,16
69588,15
70108,16
70628,15
71148,11
71668,11
72192,12
72716,13
73236,15
73764,17
74284,18
74812,20
75332,15
75860,12
76384,11
76908,17
77428,18
77956,16
78476,17
79004,17
79528,16
80052,14
80572,12
81100,12
81620,14
82148,15
82668,15
83196,11
83720,10
84244,10
84764,12
85292,14
85812,15
86340,14
86860,16
87388,15
87908,10
88436,10
88956,10
89484,10
90004,10
90524,11
91044,14
91564,20
92084,19
92604,14
93124,12
93644,14
94164,15
94684,16
95204,16
95724,16
96248,17
96764,15
97292,15
97812,14
98340,15
98860,17
99388,21
99908,21
100436,15
101000,11
101584,14
102156,15
102736,15
103304,15
103880,16
104456,13
105024,11
105600,11
106168,10
106744,13
107312,16
107896,15
108464,12
109040,12
109624,13
110192,15
110768,17
111336,16
111920,16
112492,22
113072,28
113640,30
114216,27
114800,22
115368,16
115952,13
116520,14
117104,11
117676,11
118252,14
118832,15
119400,15
119984,16
120556,15
121136,11
121704,10
122288,9
122804,10
123376,11
123960,11
124528,15
125112,15
125680,16
126264,13
126832,15
127416,15
127988,16
128564,19
129144,17
129712,15
130288,15
130856,13
131432,15
132000,13
132576,11
133152,11
133720,11
134296,11
134864,15
135448,14
136016,15
136600,15
137168,16
137744,11
138328,14
138896,18
139480,14
140048,11
140632,11
141204,11
141776,11
142360,11
142932,11
143512,14
144080,15
144664,16
145232,15
145808,15
146376,11
146952,11
147536,18
148104,21
148688,17
149256,17
149840,11
150408,11
150992,12
151568,15
152140,15
152720,15
153292,16
153872,17
154440,11
155024,12
155596,13
156172,14
156752,15
157324,14
157904,13
158476,11
159056,12
159628,12
160208,14
160784,16
161352,16
161928,19
162496,15
163072,10
163644,11
164224,17
164792,17
165360,18
165944,18
166512,16
167096,14
167664,13
168240,17
168808,19
169384,17
169952,17
170528,14
171104,13
171676,11
172256,13
172824,12
173408,11
173976,11
174556,15
175136,15
175704,17
176288,14
176856,15
177440,15
178008,15
178592,16
179160,16
179740,18
180320,18
180888,18
181472,17
182040,14
182624,12
183192,12
183772,14
184352,13
184920,15
185496,15
186064,17
186648,18
187216,18
187800,13
188368,11
188944,11
189528,11
190096,11
190680,11
191252,11
191832,11
192404,11
192976,11
193552,16
194124,15
194704,14
195272,16
195856,13
196424,13
197008,14
197576,17
198156,22
198736,24
199304,22
199888,17
200456,15
201040,11
201608,16
202192,15
202768,15
203340,15
203920,15
204492,14
205072,15
205640,14
206216,11
206784,11
207352,11
207928,11
208496,11
209080,15
209648,19
210224,15
210792,16
211376,16
211944,18
212520,20
213104,23
213672,21
214256,21
214828,22
215408,17
215976,17
216556,12
217136,11
217704,11
218288,16
218856,15
219440,15
220008,16
220592,15
221160,11
221736,11
222320,14
222892,14
223472,13
224044,14
224624,14
225192,14
225772,11
226352,12
226924,15
227504,16
228072,18
228656,17
229224,14
229808,11
230376,14
230956,19
231536,21
232104,22
232688,17
233256,14
233840,11
234408,11
234984,16
235568,15
236136,16
236720,15
237292,15
237872,11
238444,18
239024,17
239596,14
240172,16
240752,16
241320,14
241904,13
242476,11
243056,13
243628,17
244200,17
244784,17
245356,18
245936,12
246504,13
247088,16
247656,18
248240,20
248808,19
249384,19
249968,16
250536,14
251120,15
251692,16
252272,16
252844,15
253416,17
254000,16
254572,13
255152,13
255724,13
256304,11
256880,10
257456,12
258024,16
258592,13
259168,13
259736,15
260320,15
260888,17
261472,16
262040,19
262616,20
263200,21
263768,20
264352,19
264920,15
265504,12
266076,13
266656,11
267224,11
267800,11
268384,15
268956,15
269536,15
270104,16
270688,16
271260,11
271836,11
272416,12
272984,14
273568,11
274140,12
274720,15
275288,16
275872,13
276444,14
277020,16
277600,16
278168,16
278752,19
279324,19
279904,21
280476,20
281052,21
281632,19
282200,13
282776,11
283348,11
283928,10
284500,11
285080,15
285652,15
286228,15
286808,14
287376,15
287960,11
288532,11
289112,10
289684,11
290256,11
290832,11
291404,12
291984,11
292556,12
293136,17
293704,15
294288,15
294860,16
295432,18
296016,15
296584,19
297168,15
297736,14
298320,12
298888,14
299472,16
300048,13
300620,10
301200,11
301772,14
302352,15
302924,15
303504,14
304076,14
304652,11
305232,15
305804,11
306384,9
306904,12
307480,13
308056,13
308640,13
309208,15
309784,15
310368,15
310940,15
311520,16
312092,15
312672,11
313244,13
313820,14
314400,13
314972,11
315552,13
316124,15
316704,13
317276,11
317856,11
318436,18
319012,17
319592,15
320168,15
320744,13
321312,11
321896,12
322464,16
323044,18
323624,15
324192,11
324776,12
325348,12
325928,15
326500,17
327080,15
327648,15
328228,16
328808,19
329376,17
329952,15
330520,16
331104,17
331672,15
332248,12
332832,14
333400,12
333976,11
334544,13
335128,14
335696,15
336280,17
336848,17
337424,13
338000,14
338568,15
339144,12
339716,11
340296,11
340864,12
341448,13
342024,16
342592,11
343176,19
343748,23
344328,20
344896,19
345480,21
346052,18
346624,17
347208,22
347776,18
348360,16
348928,16
349512,12
350084,11
350664,11
351240,11
351812,14
352392,15
352964,15
353544,15
354116,13
354696,10
355264,11
355840,11
356424,12
356996,12
357576,11
358148,11
358728,15
359304,16
359888,15
360464,15
361032,16
361616,16
362184,18
362768,13
363340,14
363920,13
364492,15
365064,16
365648,16
366216,12
366800,11
367368,11
367952,15
368524,16
369104,15
369680,18
370248,18
370832,12
371404,11
371984,11
372556,15
373136,11
373708,10
374284,12
374864,11
375436,11
376016,11
376584,14
377168,15
377740,17
378320,17
378896,17
379464,15
380048,18
380620,18
381200,18
381772,18
382352,13
382924,11
383500,11
384084,11
384652,14
385232,14
385804,14
386384,14
386956,15
387536,13
388112,14
388684,14
389264,12
389832,11
390416,11
390984,13
391568,12
392140,14
392712,13
393296,15
393868,14
394448,15
395020,18
395600,18
396180,15
396756,14
397336,14
397908,21
398488,25
399060,21
399640,17
400220,14
400800,14
401368,16
401944,15
402528,15
403100,15
403680,15
404260,14
404840,13
405408,11
405988,10
406568,10
407140,11
407720,11
408292,11
408872,12
409444,13
410024,18
410600,19
411168,17
411744,16
412312,18
412896,17
413464,17
414040,18
414608,19
415184,21
415768,18
416336,11
416920,11
417488,10
418064,14
418632,14
419216,15
419784,18
420364,18
420944,15
421512,12
422096,13
422664,18
423248,17
423816,14
424400,10
424976,11
425544,11
426120,11
426688,15
427272,14
427844,15
428424,16
428996,13
429568,11
430152,16
430720,19
431304,19
431876,17
432456,17
433024,14
433608,13
434184,11
434756,15
435336,14
435904,15
436488,15
437056,15
437640,12
438212,12
438788,11
439368,11
439940,11
440520,11
441092,12
441672,12
442240,12
442824,12
443400,14
443972,15
444552,15
445124,15
445704,13
446276,14
446856,14
447428,15
448004,14
448584,13
449152,18
449736,13
450308,12
450888,11
451456,15
452040,14
452616,15
453184,18
453768,18
454336,13
454920,12
455492,11
456072,12
456640,15
457216,18
457800,14
458368,11
458952,11
459524,14
460104,19
460676,17
461256,17
461840,16
462408,14
462992,13
463564,11
464144,12
464712,14
465296,13
465868,11
466444,14
467024,14
467596,11
468176,13
468748,14
469328,15
469900,15
470480,16
471064,12
471636,11
472216,10
472788,10
473368,12
473940,14
474520,17
475092,13
475668,12
476248,15
476820,16
477400,18
477972,19
478552,17
479132,15
479708,20
480288,25
480860,25
481440,21
482008,22
482592,21
483160,16
483744,12
484316,14
484892,16
485472,15
486044,15
486624,17
487192,19
487776,14
488348,10
488920,10
489504,11
490076,11
490656,13
491228,16
491808,17
492376,15
492960,15
493528,15
494104,15
494688,16
495260,17
495840,15
496412,17
496992,20
497560,22
498140,20
498720,16
499292,11
499872,10
500444,11
501024,13
501596,16
502176,16
502756,15
503332,15
503912,13
504484,11
505064,9
505584,10
506160,11
506740,12
507320,14
507900,14
508476,14
509056,15
509628,15
510208,15
510780,15
511360,18
511940,16
512516,15
513096,15
513664,18
514248,18
514816,17
515392,17
515960,16
516544,11
517112,11
517692,11
518272,15
518844,15
519424,14
519996,15
520576,13
521144,11
521724,11
522304,10
522872,11
523456,13
524028,14
524608,15
525180,14
525760,13
526328,15
526904,15
527488,16
528056,15
528640,15
529208,14
529792,13
530364,15
530940,15
531520,14
532092,18
532672,22
533240,16
533824,11
534392,13
534976,15
535560,14
536132,15
536712,15
537284,12
537864,10
538432,12
539016,11
539588,13
540164,11
540744,15
541316,16
541896,17
542468,17
543048,15
543620,15
544200,15
544776,18
545348,19
545928,21
546496,26
547080,23
547652,15
548232,13
548804,14
549376,10
549960,12
550532,10
551112,14
551684,15
552264,14
552836,15
553416,15
554000,11
554572,13
555152,11
555724,11
556304,11
556876,13
557456,14
558028,15
558604,18
559184,15
559756,15
560336,16
560916,17
561496,16
562068,17
562644,14
563224,15
563792,20
564376,24
564948,22
565528,21
566100,21
566680,15
567252,13
567828,15
568408,15
568976,15
569560,15
570132,15
570712,11
571284,10
571860,11
572440,11
573012,11
573592,12
574164,15
574744,15
575316,17
575896,14
576476,14
577048,15
577632,15
578200,17
578784,16
579356,14
579936,17
580508,16
581084,16
581664,15
582236,15
582816,13
583388,12
583968,11
584540,15
585120,13
585692,14
586264,15
586848,15
587420,12
588000,11
588572,14
589152,15
589732,14
590308,11
590888,12
591460,10
592040,13
592608,14
593192,13
593764,15
594344,17
594916,17
595492,14
596072,15
596644,18
597224,22
597796,26
598376,22
598956,14
599532,10
600112,10
600684,11
601264,15
601836,16
602416,16
602988,15
603568,15
604140,11
604716,11
605296,10
605868,11
606448,11
607020,13
607600,14
608180,13
608756,12
609336,13
609908,15
610488,15
611060,17
611640,16
612220,14
612800,11
613384,11
613956,11
614540,11
615108,13
615688,15
616256,19
616840,21
617412,29
617988,30
618568,19
619140,15
619720,16
620292,18
620872,15
621444,14
622024,11
622600,13
623172,13
623752,11
624328,14
624904,13
625476,11
626056,14
626636,16
627212,15
627792,16
628364,15
628944,12
629516,13
630096,13
630676,15
631252,15
631832,14
632408,13
632984,11
633556,10
634140,14
634716,16
635300,14
635876,15
636452,15
637032,14
637608,11
638184,11
638756,11
639336,10
639916,11
640492,14
641072,16
641640,13
642224,12
642796,15
643376,15
643944,18
644528,19
645100,19
645676,18
646256,18
646828,19
647408,19
647980,18
648560,16
649128,14
649704,11
650288,12
650856,13
651440,14
652012,16
652592,15
653164,15
653744,13
654316,11
654892,11
655472,11
656040,11
656624,11
657192,13
657776,13
658344,14
658920,14
659504,15
660072,15
660656,15
661224,16
661808,15
662376,14
662960,16
663528,16
664104,17
664688,16
665256,18
665840,17
666408,15
666984,13
667552,12
668128,16
668712,14
669284,15
669864,16
670432,14
671016,11
671588,11
672168,11
672736,9
673252,11
673832,11
674404,15
674984,17
675556,12
676136,15
676704,15
677288,16
677856,18
678432,16
679016,15
679588,15
680168,15
680736,15
681320,16
681888,15
682464,11
683048,11
683620,14
684200,13
684768,15
685352,15
685924,16
686504,15
687072,14
687652,11
688232,11
688804,11
689384,10
689956,12
690536,12
691108,12
691684,12
692264,12
692836,15
693416,16
693988,15
694568,17
695140,18
695720,13
696300,10
696876,10
697456,11
698028,10
698608,9
699128,10
699704,15
700276,22
700856,29
701428,26
702004,20
702584,18
703156,17
703736,15
704316,10
704896,11
705468,13
706044,13
706624,11
707192,10
707776,11
708348,13
708928,16
709500,15
710080,15
710652,15
711228,15
711808,14
712380,14
712960,19
713532,24
714112,24
714692,16
715268,12
715848,10
716420,10
717000,11
717572,13
718152,17
718724,15
719304,15
719880,15
720452,12
721032,11
721604,11
722184,13
722752,11
723336,11
723908,10
724484,11
725064,14
725636,18
726216,17
726788,15
727368,15
727940,16
728520,16
729096,14
729668,21
730248,21
730820,16
731400,15
731972,17
732552,18
733132,15
733708,11
734288,12
734860,15
735440,15
736020,15
736600,16
737172,12
737748,11
738328,12
738900,11
739480,10
740052,11
740632,12
741204,12
741784,13
742356,12
742932,14
743512,15
744084,15
744664,15
745236,17
745816,13
746388,17
746964,18
747544,19
748116,17
748696,13
749268,12
749848,11
750420,10
751000,13
751572,14
752148,15
752728,16
753300,15
753880,12
754452,10
755032,11
755612,11
756188,14
756768,12
757340,12
757920,11
758492,13
759072,12
759644,15
760224,15
760804,17
761380,20
761960,17
762532,15
763112,19
763692,23
764272,20
764852,15
765428,15
766012,13
766584,11
767160,10
767736,15
768316,15
768888,16
769472,15
770040,15
770616,11
771200,11
771768,11
772352,11
772924,12
773504,11
774076,12
774652,18
775232,24
775804,22
776384,16
776956,15
777536,17
778116,15
778696,18
779280,21
779852,21
780432,24
781004,26
781584,25
782156,22
782736,11
783308,11
783884,11
784464,15
785036,15
785616,15
786188,15
786768,15
787340,13
787920,12
788496,13
789064,11
789648,13
790220,12
790800,11
791380,10
791960,11
792540,13
793116,15
793700,15
794272,14
794848,14
795420,13
796000,16
796580,18
797156,20
797736,20
798312,17
798892,17
799464,13
800040,18
800616,19
801200,20
801772,18
802344,17
802928,15
803500,16
804080,20
804648,21
805232,12
805804,10
806380,11
806960,11
807532,11
808112,11
808684,11
809264,13
809836,16
810416,17
810988,17
811564,15
812144,13
812716,13
813296,16
813876,14
814456,13
815036,11
815612,14
816192,10
816764,10
817344,11
817916,14
818500,15
819076,14
819660,15
820240,15
820808,11
821384,10
821952,9
822476,10
823048,11
823632,11
824204,11
824784,11
825360,11
825928,15
826512,16
827084,16
827664,17
828232,19
828816,16
829384,14
829964,15
830544,15
831116,14
831696,13
832268,13
832848,11
833416,11
834000,12
834576,15
835144,16
835728,16
836296,16
836880,15
837448,11
838032,12
838604,13
839176,13
839760,12
840328,13
840912,13
841484,12
842064,11
842632,15
843216,15
843792,16
844364,16
844944,16
845512,15
846096,13
846664,19
847248,19
847820,16
848396,12
848976,13
849544,13
850128,11
850696,12
851280,16
851848,17
852432,14
853008,15
853580,15
854160,11
854732,12
855312,12
855884,14
856464,12
857036,11
857612,11
858192,14
858764,13
859344,16
859916,17
860496,15
861072,18
861652,19
862232,15
862804,14
863384,18
863956,19
864536,18
865116,17
865696,17
866264,18
866844,16
867424,16
867996,16
868576,15
869148,15
869728,16
870300,13
870876,11
871456,11
872028,11
872608,10
873180,11
873760,12
874328,11
874912,11
875484,11
876060,15
876640,15
877212,15
877792,15
878364,14
878944,14
879524,14
880100,13
880680,15
881248,16
881832,14
882404,14
882984,13
883556,15
884136,16
884708,15
885284,15
885864,16
886436,15
887016,11
887588,10
888168,9
888688,10
889264,11
889836,12
890412,10
890992,11
891564,11
892144,11
892716,15
893296,18
893876,18
894452,15
895032,15
895604,10
896184,14
896756,21
897336,28
897904,27
898488,25
899060,17
899636,11
900216,10
900788,13
901368,15
901944,15
902528,13
903096,14
903676,12
904256,11
904828,11
905408,10
905980,11
906560,13
907128,15
907712,15
908284,17
908860,15
909440,16
910012,19
910592,19
911172,15
911752,15
912332,16
912908,18
913488,19
914060,19
914640,17
915212,17
915792,15
916364,11
916944,11
917528,15
918100,15
918680,15
919252,17
919832,17
920412,13
920992,9
921512,9
922032,11
922600,10
923176,11
923760,12
924332,14
924912,13
925484,11
926064,15
926636,14
927212,15
927792,15
928364,15
928944,16
929516,18
930096,19
930668,22
931248,23
931820,24
932396,21
932976,13
933548,10
934128,13
934708,14
935288,14
935868,15
936444,15
937024,11
937596,11
938176,11
938752,10
939328,11
939908,17
940488,21
941072,17
941644,15
942224,12
942796,15
943376,17
943956,20
944536,20
945116,20
945692,14
946272,12
946844,12
947424,16
948004,16
948584,17
949156,16
949732,14
950312,10
950888,15
951464,15
952036,14
952616,16
953196,15
953776,11
954356,11
954932,11
955512,11
956088,13
956664,14
957244,17
957824,18
958404,18
958980,15
959564,14
960136,15
960712,17
961284,18
961864,19
962436,20
963016,21
963592,22
964164,18
964744,14
965316,11
965896,12
966468,13
967048,11
967620,15
968196,15
968776,15
969348,14
969928,15
970500,10
971080,11
971660,11
972240,12
972824,12
973396,11
973976,12
974548,12
975128,13
975700,14
976280,15
976860,15
977436,17
978016,18
978588,15
979168,16
979740,17
980320,16
980900,15
981476,16
982056,13
982632,11
983208,13
983780,15
984360,15
984932,15
985512,16
986084,15
986656,16
987240,14
987812,13
988392,11
988972,10
989552,10
990124,11
990700,11
991280,11
991852,13
992432,15
993004,18
993584,16
994156,15
994736,15
995308,10
995884,11
996464,15
997036,19
997616,15
998196,14
998776,11
999356,11
999932,11
1000512,14
1001128,16
1001760,15
1002380,15
1003012,16
1003640,12
1004256,12
1004884,13
1005508,12
1006128,11
1006760,10
1007376,12
1008004,13
1008628,12
1009248,15
1009880,15
1010504,17
1011132,17
1011764,14
1012384,11
1013012,14
1013636,15
1014268,13
1014896,14
1015516,17
1016144,16
1016768,13
1017392,17
1018020,16
1018640,15
1019268,15
1019892,15
1020516,11
1021148,12
1021772,12
1022400,11
1023028,11
1023648,12
1024280,11
1024900,11
1025528,11
1026156,14
1026772,15
1027400,14
1028024,16
1028644,15
1029272,14
1029888,15
1030516,15
1031136,15
1031760,15
1032388,14
1033004,12
1033636,11
1034264,15
1034880,16
1035508,15
1036128,15
1036760,15
1037388,12
1038008,15
1038636,12
1039260,12
1039880,15
1040512,15
1041128,11
1041756,11
1042380,14
1043000,16
1043628,14
1044248,15
1044876,15
1045496,11
1046116,12
1046748,12
1047368,10
1047996,11
1048628,16
1049248,16
1049876,14
1050496,13
1051124,14
1051756,16
1052376,16
1053004,16
1053628,15
1054248,12
1054876,13
1055496,24
1056124,18
1056744,16
1057368,15
1057996,10
1058616,13
1059244,16
1059872,15
1060488,16
1061116,15
1061740,14
1062368,15
1062996,18
1063616,21
1064244,16
1064868,13
1065492,14
1066120,13
1066736,12
1067364,13
1067988,14
1068608,15
1069240,16
1069856,17
1070484,11
1071112,11
1071732,11
1072360,12
1072984,14
1073612,12
1074240,12
1074856,12
1075488,12
1076108,14
1076736,16
1077368,15
1077984,16
1078612,15
1079236,19
1079856,23
1080488,22
1081104,18
1081732,18
1082356,14
1082980,13
1083608,12
1084232,14
1084860,15
1085488,15
1086104,15
1086732,15
1087356,12
1087984,12
1088612,10
1089228,10
1089860,11
1090480,12
1091104,14
1091732,14
1092352,15
1092980,15
1093604,15
1094228,15
1094856,16
1095472,15
1096104,17
1096732,16
1097352,16
1097980,12
1098604,11
1099232,13
1099860,13
1100480,15
1101108,14
1101732,15
1102356,19
1102984,20
1103608,15
1104236,11
1104860,10
1105484,11
1106112,10
1106736,12
1107364,13
1107992,11
1108612,11
1109240,17
1109864,20
1110492,23
1111120,27
1111744,29
1112372,24
1112996,20
1113620,18
1114248,13
1114872,11
1115500,11
1116124,11
1116748,12
1117380,14
1118000,15
1118628,15
1119260,14
1119880,15
1120512,13
1121132,12
1121764,11
1122392,12
1123012,12
1123640,15
1124264,14
1124888,15
1125516,12
1126136,15
1126764,15
1127388,15
1128012,16
1128640,15
1129256,20
1129884,23
1130512,20
1131136,17
1131764,14
1132388,12
1133016,11
1133648,12
1134264,14
1134892,15
1135516,15
1136140,15
1136768,13
1137392,13
1138020,13
1138644,13
1139268,11
1139896,11
1140512,13
1141140,13
1141772,12
1142392,15
1143020,16
1143644,15
1144276,17
1144904,17
1145528,15
1146160,19
1146780,18
1147408,15
1148036,14
1148656,16
1149284,13
1149908,12
1150532,11
1151160,15
1151780,15
1152408,15
1153036,14
1153656,11
1154284,10
1154904,10
1155536,11
1156164,11
1156784,11
1157412,16
1158036,18
1158660,21
1159292,18
1159912,17
1160540,17
1161164,16
1161788,16
1162416,22
1163032,21
1163664,20
1164288,24
1164912,33
1165540,26
1166164,17
1166792,12
1167420,15
1168040,16
1168668,17
1169288,16
1169920,15
1170548,10
1171168,11
1171796,11
1172420,11
1173044,11
1173676,10
1174296,17
1174924,25
1175548,26
1176176,17
1176804,17
1177428,25
1178060,27
1178688,29
1179308,22
1179936,19
1180560,17
1181188,12
1181820,14
1182440,13
1183068,17
1183692,15
1184316,16
1184948,14
1185568,15
1186196,15
1186828,10
1187448,11
1188076,11
1188700,12
1189328,15
1189960,16
1190576,17
1191204,15
1191828,15
1192456,15
1193084,15
1193704,15
1194332,15
1194956,15
1195580,16
1196212,16
1196832,19
1197460,19
1198092,16
1198712,16
1199340,13
1199968,11
1200596,14
1201228,14
1201848,16
1202476,15
1203100,16
1203724,13
1204356,12
1204976,11
1205604,10
1206228,11
1206852,11
1207480,12
1208104,15
1208732,13
1209364,14
1209984,17
1210612,19
1211236,19
1211868,19
1212496,17
1213112,16
1213744,15
1214368,14
1214992,14
1215624,13
1216240,11
1216868,11
1217492,14
1218116,15
1218744,14
1219368,17
1219996,15
1220628,11
1221248,11
1221876,11
1222500,11
1223132,12
1223760,17
1224380,20
1225008,18
1225632,17
1226256,15
1226884,16
1227504,18
1228136,20
1228760,16
1229384,15
1230012,13
1230632,12
1231260,11
1231888,12
1232512,13
1233140,14
1233764,15
1234392,16
1235020,14
1235640,15
1236268,15
1236892,13
1237516,12
1238144,12
1238760,11
1239392,13
1240016,13
1240636,15
1241268,14
1241888,13
1242516,15
1243144,16
1243768,18
1244396,18
1245020,13
1245648,15
1246280,18
1246896,15
1247524,12
1248148,13
1248772,14
1249404,15
1250024,12
1250652,15
1251276,15
1251900,15
1252528,15
1253144,15
1253776,14
1254404,15
1255020,14
1255652,10
1256276,11
1256904,11
1257536,11
1258152,11
1258784,13
1259408,17
1260036,15
1260668,15
1261288,16
1261916,12
1262540,12
1263164,15
1263796,20
1264416,19
1265044,17
1265676,15
1266296,14
1266924,11
1267548,14
1268180,15
1268808,14
1269432,16
1270064,12
1270688,11
1271308,11
1271940,10
1272560,11
1273188,11
1273812,14
1274436,12
1275068,11
1275688,15
1276316,15
1276948,14
1277568,16
1278200,15
1278824,12
1279452,18
1280084,21
1280700,21
1281328,18
1281948,15
1282572,11
1283200,10
1283812,12
1284444,14
1285064,15
1285688,21
1286316,16
1286936,13
1287564,10
1288188,10
1288808,10
1289436,13
1290060,14
1290688,11
1291320,11
1291936,11
1292564,16
1293188,16
1293816,18
1294444,18
1295064,15
1295692,17
1296316,22
1296936,22
1297568,16
1298184,13
1298812,11
1299436,11
1300060,11
1300688,14
1301304,14
1301936,15
1302564,16
1303184,15
1303812,14
1304436,12
1305064,11
1305696,10
1306312,11
1306940,12
1307564,11
1308188,12
1308816,13
1309432,15
1310060,15
1310684,15
1311312,15
1311940,12
1312560,16
1313188,17
1313816,19
1314432,19
1315060,17
1315684,12
1316312,11
1316940,13
1317560,16
1318188,15
1318812,15
1319432,15
1320060,11
1320676,11
1321308,11
1321928,12
1322548,11
1323180,12
1323800,15
1324428,15
1325052,14
1325672,15
1326304,16
1326924,17
1327552,20
1328184,19
1328800,17
1329428,14
1330052,15
1330680,13
1331308,14
1331924,17
1332552,15
1333176,15
1333796,15
1334428,14
1335044,15
1335676,15
1336296,15
1336920,12
1337548,11
1338168,11
1338796,11
1339424,16
1340048,17
1340676,15
1341300,15
1341928,12
1342556,14
1343176,15
1343804,17
1344428,17
1345052,17
1345680,21
1346296,25
1346924,23
1347548,19
1348168,14
1348796,13
1349416,12
1350044,12
1350676,14
1351296,15
1351924,15
1352548,15
1353176,15
1353804,12
1354424,16
1355052,13
1355676,11
1356296,10
1356928,11
1357544,12
1358172,16
1358796,19
1359416,15
1360048,14
1360664,22
1361292,21
1361912,15
1362536,15
1363168,23
1363788,21
1364420,14
1365048,13
1365664,11
1366292,13
1366916,13
1367544,16
1368176,16
1368792,17
1369420,15
1370044,11
1370668,11
1371296,11
1371912,13
1372544,16
1373168,15
1373788,14
1374420,11
1375040,11
1375672,17
1376300,16
1376920,17
1377548,19
1378172,17
1378800,19
1379428,20
1380048,21
1380676,15
1381300,11
1381924,11
1382552,12
1383168,12
1383800,14
1384420,15
1385044,15
1385672,15
1386288,15
1386920,11
1387548,10
1388168,13
1388796,12
1389420,10
1390048,12
1390680,10
1391296,11
1391928,12
1392552,15
1393176,15
1393804,16
1394424,17
1395052,14
1395676,15
1396300,16
1396928,14
1397544,14
1398172,14
1398804,14
1399424,11
1400052,11
1400676,14
1401304,15
1401932,15
1402552,16
1403180,12
1403804,11
1404428,10
1405056,10
1405680,11
1406308,13
1406932,16
1407556,14
1408188,11
1408804,15
1409432,18
1410064,17
1410680,17
1411308,19
1411932,15
1412560,15
1413188,15
1413808,15
1414436,13
1415056,12
1415684,12
1416312,12
1416936,13
1417564,15
1418188,16
1418812,16
1419440,15
1420064,12
1420692,10
1421324,11
1421944,11
1422572,12
1423196,12
1423828,12
1424456,12
1425080,14
1425708,15
1426332,15
1426956,16
1427588,18
1428208,17
1428836,17
1429460,18
1430084,16
1430712,14
1431336,13
1431964,12
1432596,10
1433216,12
1433848,15
1434468,15
1435096,15
1435724,14
1436344,17
1436972,12
1437596,12
1438220,12
1438848,10
1439464,11
1440096,11
1440716,13
1441340,13
1441968,12
1442584,15
1443212,15
1443836,16
1444460,16
1445088,15
1445712,17
1446340,17
1446968,17
1447592,16
1448220,18
1448844,15
1449472,11
1450100,10
1450720,15
1451348,14
1451972,16
1452596,15
1453224,12
1453848,13
1454476,13
1455100,12
1455728,14
1456356,15
1456980,13
1457608,13
1458236,10
1458856,17
1459484,17
1460108,17
1460736,17
1461368,17
1461984,18
1462612,18
1463236,19
1463860,16
1464488,12
1465112,11
1465740,11
1466364,12
1466992,14
1467620,19
1468244,16
1468872,15
1469504,15
1470120,13
1470748,11
1471372,11
1472004,11
1472632,12
1473248,13
1473880,13
1474504,13
1475128,12
1475756,14
1476376,15
1477004,17
1477628,16
1478256,18
1478884,14
1479508,20
1480136,24
1480764,18
1481384,13
1482012,11
1482636,10
1483264,11
1483892,14
1484512,15
1485140,15
1485764,15
1486388,14
1487016,11
1487632,12
1488264,12
1488884,14
1489508,15
1490136,14
1490760,19
1491388,17
1492020,14
1492640,15
1493268,16
1493892,17
1494520,19
1495152,15
1495768,19
1496396,18
1497020,19
1497644,19
1498272,16
1498888,10
1499520,11
1500140,14
1500764,16
1501396,16
1502020,15
1502652,15
1503280,12
1503900,15
1504528,13
1505152,11
1505784,12
1506412,10
1507032,14
1507660,13
1508284,14
1508908,15
1509540,14
1510160,17
1510792,16
1511416,13
1512040,14
1512668,17
1513292,17
1513920,15
1514552,13
1515168,12
1515800,11
1516424,11
1517052,14
1517684,14
1518304,15
1518932,16
1519560,16
1520184,11
1520812,10
1521432,11
1522060,11
1522684,10
1523312,15
1523940,13
1524564,13
1525196,12
1525824,14
1526448,15
1527076,17
1527700,21
1528328,19
1528956,17
1529576,16
1530208,13
1530832,11
1531456,11
1532084,10
1532704,11
1533336,13
1533964,14
1534584,15
1535216,16
1535840,17
1536472,13
1537100,10
1537720,11
1538348,11
1538972,12
1539592,14
1540224,17
1540840,13
1541468,11
1542092,17
1542716,15
1543344,15
1543960,15
1544592,17
1545220,13
1545840,15
1546468,24
1547092,24
1547720,16
1548352,13
1548968,11
1549600,11
1550220,11
1550852,15
1551480,14
1552104,16
1552732,15
1553356,12
1553980,11
1554612,11
1555232,11
1555860,12
1556492,13
1557112,13
1557740,11
1558364,12
1558996,14
1559624,16
1560240,15
1560872,17
1561496,13
1562120,17
1562748,18
1563368,16
1563996,14
1564620,15
1565244,13
1565876,10
1566496,11
1567124,16
1567756,16
1568376,16
1569004,15
1569628,14
1570256,12
1570884,12
1571504,15
1572132,12
1572756,11
1573384,12
1574012,10
1574632,12
1575260,13
1575884,15
1576508,16
1577140,16
1577760,17
1578388,17
1579020,16
1579640,17
1580268,14
1580892,11
1581524,13
1582152,11
1582772,11
1583400,12
1584024,15
1584648,15
1585276,15
1585896,15
1586528,12
1587152,11
1587776,11
1588404,11
1589024,13
1589652,14
1590284,14
1590904,13
1591532,11
1592160,16
1592788,16
1593420,16
1594040,17
1594668,14
1595296,14
1595920,18
1596548,19
1597168,18
1597800,17
1598424,13
1599048,11
1599676,10
1600296,15
1600924,17
1601552,18
1602168,15
1602796,16
1603420,12
1604048,11
1604676,10
1605296,13
1605924,16
1606548,15
1607172,13
1607804,15
1608424,15
1609052,14
1609672,15
1610296,16
1610924,17
1611544,14
1612172,16
1612796,17
1613424,18
1614052,16
1614676,17
1615308,12
1615936,11
1616556,10
1617184,15
1617808,15
1618436,16
1619064,14
1619688,14
1620316,11
1620940,11
1621564,11
1622192,13
1622816,13
1623444,11
1624076,12
1624696,17
1625324,17
1625948,17
1626576,15
1627208,15
1627824,17
1628452,17
1629076,20
1629700,21
1630332,18
1630952,18
1631580,17
1632208,14
1632828,11
1633460,12
1634080,15
1634708,15
1635340,16
1635960,15
1636588,11
1637212,11
1637844,11
1638476,10
1639092,11
1639720,14
1640340,16
1640964,13
1641592,12
1642208,17
1642836,17
1643456,16
1644080,17
1644708,16
1645328,17
1645956,18
1646576,15
1647200,14
1647828,12
1648452,11
1649080,11
1649708,11
1650324,15
1650956,14
1651576,15
1652204,15
1652832,15
1653448,11
1654076,11
1654700,11
1655320,12
1655952,11
1656568,12
1657196,11
1657820,12
1658440,12
1659072,14
1659688,16
1660316,15
1660944,16
1661560,17
1662188,20
1662812,19
1663444,17
1664072,16
1664688,13
1665312,11
1665936,10
1666564,11
1667192,13
1667808,15
1668436,15
1669060,15
1669680,11
1670308,10
1670928,11
1671556,11
1672180,13
1672800,14
1673428,18
1674052,17
1674680,15
1675308,14
1675928,15
1676556,15
1677180,15
1677808,15
1678436,14
1679056,13
1679684,15
1680304,14
1680928,17
1681556,14
1682176,17
1682804,15
1683424,12
1684044,17
1684672,16
1685292,18
1685924,17
1686552,10
1687168,12
1687796,11
1688420,11
1689048,11
1689676,10
1690292,11
1690920,13
1691544,16
1692164,16
1692792,14
1693416,17
1694044,17
1694668,15
1695292,14
1695920,16
1696536,16
1697164,13
1697788,14
1698408,14
1699036,12
1699660,11
1700292,15
1700920,15
1701536,15
1702164,15
1702788,15
1703416,12
1704044,10
1704660,11
1705292,10
1705912,11
1706536,14
1707164,14
1707784,16
1708412,13
1709036,15
1709660,15
1710288,17
1710904,16
1711536,11
1712164,11
1712784,15
1713412,21
1714036,19
1714664,23
1715296,23
1715912,17
1716540,14
1717164,16
1717788,14
1718416,16
1719032,16
1719664,13
1720288,10
1720912,10
1721540,10
1722160,11
1722788,11
1723416,13
1724040,13
1724668,13
1725292,14
1725920,15
1726548,14
1727168,16
1727796,16
1728420,15
1729044,21
1729672,20
1730288,14
1730920,13
1731540,13
1732164,11
1732792,10
1733412,12
1734040,15
1734668,15
1735288,17
1735916,15
1736540,11
1737168,11
1737800,10
1738416,11
1739044,11
1739668,14
1740296,16
1740924,13
1741540,14
1742172,15
1742792,15
1743416,16
1744044,16
1744660,14
1745292,11
1745912,13
1746536,17
1747164,15
1747788,15
1748416,13
1749048,13
1749664,12
1750292,16
1750916,15
1751548,15
1752176,14
1752800,15
1753428,11
1754052,11
1754676,11
1755304,10
1755928,11
1756556,11
1757180,12
1757808,13
1758436,16
1759060,16
1759692,15
1760320,14
1760944,15
1761572,15
1762196,19
1762820,21
1763452,16
1764072,16
1764700,15
1765324,10
1765944,11
1766576,13
1767192,17
1767820,14
1768444,15
1769072,15
1769700,12
1770320,11
1770952,10
1771580,10
1772200,12
1772828,12
1773452,12
1774080,13
1774708,11
1775328,18
1775956,16
1776584,16
1777204,15
1777836,12
1778456,11
1779084,11
1779708,20
1780336,27
1780964,21
1781588,16
1782220,11
1782848,12
1783468,16
1784096,17
1784720,16
1785348,14
1785980,16
1786600,17
1787228,17
1787852,12
1788476,11
1789108,10
1789728,12
1790356,11
1790988,10
1791608,12
1792240,15
1792860,15
1793488,15
1794120,15
1794736,13
1795364,12
1795988,14
1796612,15
1797244,14
1797864,15
1798492,11
1799116,11
1799740,12
1800368,16
1800984,16
1801616,15
1802236,14
1802864,13
1803492,11
1804116,11
1804744,11
1805372,10
1805992,12
1806620,13
1807244,14
1807872,11
1808500,17
1809120,19
1809748,19
1810372,16
1810992,16
1811624,13
1812240,11
1812868,13
1813492,18
1814116,19
1814744,15
1815368,11
1815996,11
1816628,10
1817248,15
1817876,16
1818500,16
1819128,15
1819760,11
1820376,11
1821004,11
1821628,11
1822252,11
1822880,11
1823504,13
1824132,13
1824756,15
1825380,15
1826008,15
1826632,16
1827260,16
1827888,15
1828504,17
1829136,19
1829760,21
1830388,17
1831020,14
1831640,14
1832268,11
1832892,11
1833516,15
1834148,14
1834768,16
1835396,15
1836024,15
1836644,11
1837276,12
1837900,12
1838532,11
1839160,12
1839784,15
1840416,17
1841036,15
1841668,15
1842296,14
1842920,15
1843548,17
1844172,19
1844796,22
1845424,26
1846040,25
1846668,21
1847292,17
1847920,15
1848548,11
1849172,12
1849800,12
1850428,16
1851048,15
1851676,15
1852300,15
1852928,11
1853560,14
1854176,13
1854804,12
1855428,20
1856052,25
1856680,21
1857296,16
1857924,11
1858548,16
1859172,17
1859800,19
1860424,19
1861052,19
1861680,18
1862304,21
1862932,19
1863556,17
1864188,15
1864816,12
1865440,11
1866068,10
1866692,13
1867316,14
1867944,14
1868564,15
1869192,16
1869816,17
1870440,13
1871068,11
1871692,11
1872320,11
1872952,12
1873568,13
1874196,13
1874820,11
1875452,15
1876080,14
1876704,15
1877332,15
1877956,13
1878580,16
1879212,18
1879832,17
1880464,15
1881084,12
1881712,11
1882340,11
1882964,15
1883596,15
1884224,14
1884848,14
1885476,15
1886100,13
1886724,11
1887356,10
1887976,13
1888608,13
1889228,12
1889852,11
1890484,10
1891104,11
1891732,14
1892364,17
1892984,18
1893612,18
1894236,17
1894868,14
1895496,13
1896120,14
1896748,14
1897372,13
1897996,11
1898628,10
1899248,13
1899876,15
1900500,16
1901124,15
1901756,15
1902376,15
1903008,12
1903636,10
1904256,11
1904884,14
1905508,16
1906140,13
1906768,11
1907392,11
1908020,12
1908644,16
1909268,15
1909900,14
1910520,16
1911148,13
1911776,13
1912400,13
1913028,15
1913648,19
1914276,22
1914908,20
1915528,15
1916156,11
1916784,15
1917416,15
1918044,15
1918664,15
1919296,14
1919920,11
1920544,10
1921176,10
1921792,12
1922420,10
1923044,15
1923668,15
1924296,16
1924916,14
1925544,16
1926172,16
1926792,18
1927420,17
1928044,14
1928672,18
1929300,18
1929920,17
1930548,18
1931172,16
1931796,14
1932428,12
1933048,13
1933676,14
1934300,15
1934924,15
1935556,14
1936176,11
1936804,11
1937432,10
1938056,11
1938684,12
1939308,14
1939940,14
1940568,11
1941188,11
1941816,15
1942440,15
1943064,15
1943692,14
1944312,15
1944944,13
1945568,15
1946192,17
1946820,14
1947440,15
1948068,12
1948700,10
1949320,11
1949948,16
1950572,18
1951204,15
1951832,15
1952452,15
1953080,11
1953704,11
1954328,12
1954956,10
1955576,11
1956204,11
1956828,12
1957452,13
1958084,12
1958704,15
1959332,15
1959964,14
1960584,16
1961212,14
1961836,16
1962468,20
1963096,22
1963720,18
1964348,13
1964976,13
1965596,11
1966228,11
1966848,14
1967476,15
1968100,15
1968720,16
1969352,15
1969968,13
1970596,11
1971224,10
1971844,11
1972476,10
1973100,11
1973728,12
1974356,11
1974976,15
1975604,15
1976228,16
1976852,18
1977484,16
1978104,13
1978732,12
1979356,14
1979980,14
1980612,14
1981232,15
1981860,13
1982492,12
1983112,15
1983744,17
1984368,16
1984996,15
1985624,14
1986248,11
1986876,11
1987500,11
1988124,10
1988752,11
1989368,12
1990000,15
1990624,14
1991248,13
1991876,14
1992496,16
1993124,16
1993756,15
1994376,13
1995004,12
1995628,15
1996260,15
1996892,16
1997512,20
1998140,21
1998764,17
1999388,12
2000016,15
2000632,15
2001260,15
2001884,15
2002508,15
2003140,11
2003760,12
2004388,10
2005020,10
2005640,13
2006268,17
2006892,15
2007524,15
2008152,14
2008768,15
2009400,15
2010024,16
2010648,18
2011276,18
2011896,20
2012524,19
2013148,17
2013772,15
2014400,18
2015024,17
2015652,12
2016284,11
2016904,15
2017532,14
2018156,15
2018788,14
2019416,12
2020032,11
2020664,13
2021288,13
2021912,14
2022540,13
2023160,15
2023788,15
2024412,13
2025036,15
2025664,16
2026288,15
2026916,15
2027548,14
2028168,14
2028796,14
2029420,15
2030052,15
2030680,16
2031304,18
2031936,16
2032560,13
2033184,14
2033812,16
2034432,16
2035060,16
2035688,15
2036312,11
2036940,11
2037560,11
2038192,11
2038820,11
2039440,15
2040068,13
2040692,12
2041324,11
2041956,14
2042576,16
2043204,15
2043828,16
2044456,13
2045084,11
2045704,14
2046336,14
2046960,14
2047584,17
2048216,17
2048836,17
2049464,17
2050092,16
2050708,15
2051336,15
2051960,15
2052588,13
2053216,10
2053832,13
2054460,13
2055080,15
2055704,15
2056332,14
2056948,13
2057580,12
2058204,14
2058824,15
2059452,15
2060072,15
2060700,15
2061328,14
2061944,15
2062572,15
2063196,19
2063824,18
2064452,16
2065072,12
2065700,13
2066320,16
2066948,17
2067580,14
2068200,19
2068828,17
2069448,11
2070072,12
2070700,11
2071320,12
2071948,12
2072572,10
2073200,16
2073828,15
2074452,13
2075080,16
2075708,14
2076328,16
2076956,15
2077580,14
2078208,16
2078836,15
2079456,15
2080084,15
2080704,19
2081328,19
2081956,12
2082572,13
2083204,17
2083824,15
2084448,15
2085076,16
2085700,16
2086328,12
2086956,13
2087576,13
2088204,12
2088828,12
2089456,13
2090084,10
2090700,16
2091332,13
2091956,15
2092576,14
2093208,15
2093824,18
2094452,15
2095076,18
2095700,19
2096328,18
2096944,18
2097572,17
2098204,16
2098824,13
2099452,12
2100076,14
2100704,15
2101332,14
2101952,16
2102580,13
2103204,11
2103824,10
2104456,11
2105072,15
2105700,15
2106324,15
2106948,16
2107576,15
2108192,16
2108824,17
2109452,17
2110072,21
2110700,21
2111324,19
2111956,17
2112584,18
2113208,16
2113836,11
2114460,10
2115084,10
2115712,12
2116328,14
2116960,17
2117580,14
2118204,15
2118836,16
2119456,11
2120084,11
2120712,10
2121336,12
2121964,11
2122588,12
2123216,12
2123848,12
2124464,11
2125092,15
2125716,15
2126340,15
2126972,16
2127592,13
2128220,11
2128844,11
2129468,13
2130096,15
2130716,17
2131348,19
2131976,14
2132592,12
2133224,17
2133844,17
2134476,15
2135104,15
2135720,14
2136352,11
2136976,11
2137604,13
2138232,16
2138848,18
2139480,21
2140104,19
2140728,14
2141356,11
2141976,15
2142604,15
2143228,16
2143856,16
2144484,13
2145108,18
2145740,19
2146368,24
2146984,26
2147616,26
2148240,15
2148868,11
2149500,10
2150120,15
2150748,14
2151372,15
2151996,15
2152624,11
2153248,11
2153876,11
2154504,10
2155128,14
2155756,15
2156380,17
2157012,16
2157640,13
2158256,15
2158888,15
2159512,16
2160136,16
2160764,14
2161384,11
2162012,11
2162636,17
2163260,19
2163888,18
2164504,22
2165132,18
2165756,12
2166384,12
2167012,14
2167636,15
2168268,15
2168896,16
2169520,12
2170148,11
2170776,11
2171400,11
2172028,12
2172648,17
2173276,15
2173900,15
2174524,13
2175156,14
2175776,16
2176408,18
2177036,20
2177656,20
2178284,18
2178908,18
2179536,17
2180164,14
2180784,16
2181412,12
2182036,10
2182660,12
2183292,14
2183912,15
2184540,15
2185164,14
2185788,13
2186416,10
2187040,11
2187668,11
2188296,10
2188920,11
2189548,11
2190172,11
2190804,11
2191432,14
2192048,15
2192680,16
2193300,17
2193924,18
2194556,20
2195176,19
2195808,15
2196432,13
2197056,13
2197684,12
2198304,11
2198936,11
2199564,11
2200184,15
2200812,15
2201436,15
2202068,15
2202696,12
2203320,14
2203948,11
2204572,11
2205196,11
2205828,11
2206448,13
2207076,13
2207700,13
2208328,15
2208956,14
2209576,16
2210204,16
2210836,16
2211456,18
2212084,21
2212708,22
2213340,19
2213968,14
2214588,14
2215216,14
2215840,11
2216464,15
2217092,14
2217712,15
2218340,15
2218964,15
2219588,11
2220220,12
2220840,13
2221468,11
2222100,10
2222720,13
2223348,15
2223972,20
2224604,21
2225236,16
2225856,16
2226484,20
2227108,19
2227736,20
2228364,18
2228984,15
2229612,13
2230236,14
2230864,13
2231492,12
2232112,11
2232744,13
2233372,14
2233992,15
2234620,16
2235248,17
2235876,11
2236508,10
2237128,12
2237756,13
2238384,14
2239008,13
2239640,15
2240256,12
2240888,13
2241508,16
2242132,15
2242764,15
2243384,19
2244012,18
2244640,17
2245264,19
2245892,18
2246516,14
2247144,10
2247776,12
2248392,11
2249024,12
2249648,14
2250272,15
2250900,15
2251520,17
2252148,15
2252776,11
2253400,11
2254028,10
2254648,12
2255276,11
2255904,12
2256528,13
2257156,11
2257780,12
2258408,14
2259036,14
2259656,15
2260284,15
2260908,11
2261532,16
2262160,22
2262784,23
2263412,22
2264036,21
2264660,16
2265292,12
2265912,11
2266540,15
2267172,14
2267792,15
2268420,17
2269044,16
2269676,10
2270304,10
2270928,11
2271556,11
2272184,11
2272804,11
2273436,12
2274056,15
2274684,15
2275308,15
2275932,15
2276564,15
2277188,15
2277816,15
2278444,16
2279064,16
2279692,13
2280316,12
2280944,18
2281576,18
2282192,16
2282824,16
2283448,18
2284072,18
2284700,14
2285320,15
2285948,13
2286572,13
2287196,12
2287828,12
2288452,14
2289084,13
2289712,18
2290336,13
2290968,12
2291592,16
2292220,15
2292852,18
2293472,24
2294104,25
2294724,25
2295348,23
2295980,18
2296600,16
2297228,16
2297852,12
2298480,12
2299108,11
2299732,15
2300364,15
2300992,14
2301616,16
2302244,16
2302868,11
2303496,11
2304124,12
2304740,16
2305372,14
2305992,14
2306616,11
2307244,10
2307864,12
2308492,15
2309116,16
2309740,18
2310368,18
2310992,13
2311620,11
2312252,10
2312872,17
2313500,18
2314124,19
2314756,22
2315384,20
2316008,15
2316636,15
2317260,15
2317884,16
2318516,16
2319136,17
2319768,16
2320396,14
2321016,13
2321644,12
2322268,12
2322896,12
2323528,11
2324144,12
2324772,16
2325396,16
2326020,16
2326652,16
2327272,19
2327900,17
2328524,17
2329148,16
2329780,14
2330400,12
2331028,11
2331660,11
2332280,13
2332908,12
2333532,17
2334164,16
2334796,15
2335416,15
2336044,14
2336668,12
2337292,12
2337920,11
2338536,13
2339164,13
2339788,12
2340416,14
2341044,14
2341664,14
2342292,15
2342924,17
2343544,20
2344172,22
2344796,19
2345428,18
2346060,18
2346680,20
2347308,16
2347936,14
2348560,12
2349188,11
2349808,15
2350436,15
2351064,16
2351688,15
2352316,13
2352936,11
2353568,12
2354196,11
2354816,11
2355448,13
2356068,16
2356700,12
2357328,10
2357952,15
2358580,16
2359204,17
2359828,19
2360460,16
2361080,15
2361708,19
2362332,21
2362956,16
2363588,11
2364208,11
2364836,11
2365468,12
2366088,12
2366716,15
2367344,14
2367972,15
2368604,15
2369224,11
2369852,12
2370476,12
2371100,12
2371732,14
2372352,17
2372984,20
2373608,13
2374232,11
2374860,17
2375480,17
2376112,17
2376740,18
2377360,16
2377988,17
2378612,19
2379244,18
2379872,16
2380496,15
2381124,14
2381748,13
2382372,12
2383004,14
2383624,14
2384252,15
2384876,15
2385500,15
2386132,11
2386756,11
2387388,11
2388016,14
2388632,17
2389264,18
2389888,15
2390520,14
2391148,11
2391768,15
2392400,16
2393024,18
2393648,19
2394276,20
2394896,20
2395524,20
2396152,19
2396776,17
2397408,14
2398032,11
2398664,12
2399292,10
2399912,14
2400544,15
2401168,17
2401796,17
2402428,12
2403048,11
2403676,11
2404300,11
2404924,15
2405556,18
2406176,18
2406808,15
2407436,10
2408056,16
2408684,15
2409308,15
2409936,16
2410568,16
2411184,14
2411816,16
2412440,17
2413064,15
2413692,14
2414312,15
2414944,11
2415568,11
2416192,13
2416820,15
2417440,15
2418068,15
2418696,15
2419320,12
2419948,11
2420572,11
2421204,11
2421832,11
2422452,11
2423080,12
2423704,17
2424328,18
2424956,14
2425576,22
2426208,20
2426832,17
2427456,12
2428084,10
2428704,11
2429336,11
2429964,14
2430584,16
2431216,18
2431840,15
2432472,15
2433100,16
2433720,16
2434348,16
2434972,15
2435596,13
2436228,10
2436848,11
2437476,14
2438100,19
2438724,20
2439356,18
2439976,14
2440608,11
2441236,14
2441856,15
2442484,17
2443108,18
2443740,18
2444372,16
2444992,14
2445620,15
2446244,15
2446868,16
2447500,16
2448120,17
2448748,13
2449372,15
2449996,17
2450628,18
2451248,15
2451876,15
2452508,11
2453128,12
2453756,11
2454384,12
2455016,15
2455648,13
2456264,15
2456896,18
2457520,15
2458144,15
2458772,16
2459392,16
2460020,16
2460644,14
2461268,16
2461896,18
2462512,20
2463144,23
2463772,22
2464392,21
2465020,17
2465644,12
2466272,15
2466900,15
2467520,17
2468148,16
2468772,15
2469396,11
2470024,10
2470648,11
2471276,11
2471900,11
2472524,14
2473156,13
2473776,15
2474404,13
2475036,14
2475656,14
2476284,15
2476908,16
2477540,14
2478168,12
2478792,15
2479420,17
2480044,16
2480668,15
2481296,13
2481912,13
2482544,12
2483168,15
2483792,15
2484420,14
2485040,15
2485668,11
2486296,11
2486920,12
2487548,13
2488172,13
2488804,15
2489432,13
2490052,12
2490680,14
2491304,17
2491928,15
2492556,15
2493176,15
2493804,17
2494428,23
2495052,23
2495684,21
2496304,18
2496932,16
2497564,11
2498184,12
2498812,11
2499436,13
2500068,16
2500696,14
2501312,15
2501944,16
2502568,11
2503192,11
2503820,11
2504440,12
2505068,13
2505692,13
2506316,13
2506948,10
2507568,11
2508196,15
2508828,14
2509448,15
2510076,15
2510700,11
2511332,15
2511960,15
2512584,16
2513212,12
2513840,12
2514464,12
2515092,12
2515712,13
2516344,15
2516968,15
2517592,15
2518224,15
2518840,13
2519472,12
2520100,14
2520720,15
2521348,11
2521976,13
2522604,16
2523236,12
2523856,13
2524488,14
2525112,15
2525736,16
2526364,15
2526984,15
2527616,19
2528240,19
2528864,15
2529492,15
2530116,13
2530748,15
2531380,10
2532000,12
2532628,16
2533256,17
2533884,15
2534516,16
2535136,16
2535768,13
2536392,12
2537016,11
2537644,10
2538264,11
2538896,16
2539524,19
2540144,18
2540772,13
2541400,17
2542028,19
2542660,18
2543280,17
2543912,18
2544536,20
2545160,20
2545792,18
2546408,17
2547036,14
2547664,13
2548288,13
2548916,11
2549536,16
2550168,15
2550796,14
2551416,15
2552048,15
2552672,11
2553300,12
2553932,12
2554552,12
2555184,13
2555808,14
2556432,13
2557064,14
2557684,13
2558312,15
2558940,15
2559564,18
2560196,18
2560812,17
2561440,18
2562068,14
2562684,17
2563312,17
2563936,14
2564564,12
2565192,12
2565808,15
2566436,15
2567056,15
2567684,16
2568312,16
2568928,11
2569560,11
2570184,11
2570804,11
2571436,10
2572056,11
2572684,15
2573308,15
2573936,15
2574564,15
2575188,15
2575816,15
2576448,17
2577064,17
2577692,14
2578316,17
2578948,18
2579576,18
2580192,19
2580824,17
2581444,14
2582068,11
2582696,12
2583320,15
2583948,15
2584572,14
2585200,15
2585828,11
2586452,11
2587080,13
2587708,11
2588328,12
2588956,12
2589580,11
2590208,11
2590840,11
2591456,15
2592084,15
2592708,16
2593332,18
2593960,16
2594576,16
2595204,17
2595828,16
2596452,16
2597080,17
2597704,17
2598336,15
2598968,11
2599584,15
2600212,14
2600836,15
2601468,16
2602096,13
2602720,11
2603348,11
2603972,11
2604596,12
2605228,10
2605848,13
2606476,13
2607100,12
2607728,15
2608356,15
2608980,15
2609612,15
2610240,15
2610860,11
2611488,14
2612112,16
2612740,16
2613368,16
2613992,16
2614620,13
2615244,16
2615868,16
2616500,16
2617120,16
2617748,15
2618380,14
2619000,11
2619628,11
2620252,11
2620884,10
2621512,11
2622136,13
2622764,15
2623384,15
2624008,14
2624636,14
2625256,15
2625884,15
2626504,15
2627128,15
2627756,14
2628376,21
2629004,22
2629628,17
2630248,12
2630880,11
2631500,10
2632132,11
2632760,15
2633376,14
2634004,15
2634628,16
2635256,17
2635884,10
2636504,11
2637132,12
2637756,13
2638380,14
2639008,13
2639624,11
2640256,11
2640876,12
2641500,19
2642128,26
2642744,20
2643372,16
2644004,11
2644620,20
2645252,31
2645872,31
2646504,29
2647132,26
2647752,23
2648380,16
2649004,13
2649624,14
2650252,13
2650872,15
2651500,15
2652124,12
2652748,11
2653376,11
2654000,11
2654628,11
2655260,10
2655880,13
2656508,14
2657132,14
2657764,15
2658392,15
2659008,15
2659636,16
2660260,16
2660884,12
2661512,13
2662136,17
2662764,16
2663388,15
2664012,14
2664636,15
2665256,17
2665884,13
2666512,15
2667128,15
2667760,15
2668380,15
2669008,11
2669640,10
2670256,11
2670884,11
2671508,12
2672132,12
2672764,14
2673384,14
2674012,11
2674632,15
2675256,15
2675884,14
2676504,15
2677132,15
2677756,16
2678380,15
2679008,16
2679632,14
2680260,12
2680892,14
2681512,12
2682140,11
2682764,15
2683396,15
2684024,17
2684640,15
2685272,15
2685896,11
2686516,11
2687148,10
2687768,11
2688396,11
2689020,12
2689644,13
2690272,15
2690896,15
2691528,14
2692156,16
2692776,16
2693404,15
2694028,13
2694656,12
2695284,13
2695904,17
2696532,15
2697156,17
2697780,20
2698408,20
2699024,16
2699652,18
2700276,15
2700900,15
2701528,16
2702152,14
2702780,11
2703412,12
2704032,11
2704660,11
2705280,11
2705912,13
2706540,12
2707160,13
2707788,15
2708412,16
2709036,15
2709664,16
2710288,18
2710916,14
2711540,15
2712164,15
2712796,13
2713420,14
2714052,13
2714680,12
2715296,12
2715924,12
2716548,14
2717180,14
2717808,15
2718424,15
2719056,11
2719680,11
2720304,11
2720932,10
2721552,11
2722180,11
2722804,11
2723428,14
2724056,14
2724676,15
2725308,15
2725936,17
2726552,18
2727184,17
2727804,17
2728436,17
2729064,16
2729680,15
2730308,13
2730932,11
2731556,11
2732184,11
2732804,14
2733432,14
2734056,16
2734680,16
2735308,13
2735928,12
2736556,13
2737188,10
2737808,12
2738436,13
2739060,15
2739692,13
2740320,11
2740940,14
2741568,15
2742192,18
2742816,17
2743444,16
2744064,12
2744692,12
2745316,12
2745940,17
2746568,18
2747192,17
2747820,19
2748452,17
2749072,13
2749700,15
2750324,17
2750956,16
2751588,15
2752208,16
2752836,18
2753460,15
2754084,11
2754712,12
2755328,11
2755960,12
2756584,12
2757208,15
2757836,22
2758456,17
2759084,15
2759716,14
2760336,13
2760964,12
2761588,17
2762220,19
2762848,16
2763472,15
2764104,17
2764728,17
2765352,17
2765980,16
2766600,16
2767228,15
2767852,14
2768476,15
2769104,10
2769728,11
2770356,13
2770988,14
2771608,16
2772236,14
2772860,12
2773492,12
2774120,11
2774740,15
2775368,15
2775992,16
2776616,17
2777244,15
2777864,18
2778492,19
2779116,14
2779740,16
2780372,16
2780996,15
2781628,11
2782256,11
2782876,14
2783504,15
2784128,15
2784756,17
2785388,14
2786008,12
2786636,11
2787260,11
2787880,11
2788512,11
2789128,11
2789756,11
2790380,11
2791008,16
2791636,17
2792260,17
2792892,15
2793520,15
2794136,13
2794768,17
2795392,15
2796020,13
2796652,11
2797272,12
2797900,11
2798528,11
2799152,15
2799780,17
2800400,15
2801028,16
2801652,18
2802276,19
2802904,15
2803528,14
2804156,11
2804788,10
2805408,13
2806036,14
2806660,15
2807292,12
2807920,15
2808540,15
2809168,17
2809792,16
2810416,12
2811044,10
2811664,13
2812292,13
2812916,16
2813540,16
2814172,18
2814796,17
2815428,14
2816060,14
2816676,14
2817304,15
2817928,15
2818556,15
2819184,10
2819808,11
2820436,11
2821060,19
2821684,19
2822312,16
2822936,12
2823564,12
2824188,13
2824816,16
2825444,16
2826068,15
2826696,16
2827328,15
2827944,17
2828572,19
2829196,15
2829828,14
2830456,14
2831072,12
2831700,12
2832324,15
2832948,16
2833580,16
2834200,16
2834828,16
2835452,11
2836080,11
2836708,11
2837332,11
2837964,11
2838592,11
2839208,12
2839840,12
2840464,13
2841092,15
2841724,14
2842344,15
2842972,15
2843596,14
2844220,16
2844848,17
2845464,19
2846096,19
2846724,16
2847344,15
2847972,11
2848600,11
2849228,14
2849856,14
2850480,15
2851108,16
2851732,15
2852360,11
2852988,10
2853608,11
2854236,10
2854864,12
2855484,14
2856116,14
2856736,13
2857364,12
2857996,14
2858616,14
2859244,15
2859872,17
2860500,17
2861132,16
2861752,16
2862384,15
2863008,17
2863632,22
2864264,17
2864880,15
2865508,16
2866136,17
2866760,15
2867392,15
2868008,16
2868636,13
2869264,13
2869880,14
2870512,13
2871136,12
2871764,11
2872396,12
2873016,13
2873644,13
2874268,15
2874892,15
2875520,16
2876136,16
2876768,17
2877392,17
2878016,15
2878644,11
2879264,11
2879892,13
2880524,12
2881140,13
2881772,15
2882392,15
2883024,16
2883652,14
2884272,17
2884900,16
2885524,11
2886148,11
2886780,14
2887400,17
2888028,17
2888652,16
2889272,12
2889904,11
2890520,13
2891148,15
2891772,16
2892400,15
2893028,19
2893652,23
2894280,22
2894908,19
2895528,22
2896156,18
2896780,13
2897408,10
2898040,10
2898656,11
2899284,14
2899908,15
2900532,16
2901160,15
2901776,16
2902408,16
2903032,12
2903656,11
2904284,11
2904912,13
2905540,12
2906172,10
2906792,15
2907420,17
2908048,15
2908676,15
2909308,15
2909928,16
2910556,15
2911180,13
2911808,12
2912436,11
2913056,15
2913684,17
2914316,18
2914936,14
2915564,13
2916188,14
2916820,15
2917448,15
2918072,16
2918704,12
2919328,11
2919952,11
2920580,10
2921200,11
2921828,11
2922452,13
2923076,15
2923708,18
2924328,18
2924956,15
2925588,14
2926208,19
2926836,17
2927460,15
2928092,14
2928720,14
2929344,13
2929972,19
2930596,19
2931220,16
2931848,14
2932472,17
2933100,17
2933728,15
2934352,16
2934980,19
2935600,18
2936228,13
2936860,10
2937480,12
2938112,11
2938736,12
2939368,11
2939996,10
2940616,12
2941248,15
2941872,16
2942496,15
2943128,15
2943744,13
2944376,14
2945000,17
2945624,20
2946252,19
2946872,17
2947500,12
2948132,10
2948752,10
2949384,15
2950004,15
2950636,14
2951264,17
2951880,13
2952512,11
2953136,11
2953760,11
2954388,10
2955008,11
2955636,12
2956260,11
2956884,12
2957512,15
2958136,15
2958764,15
2959396,16
2960016,21
2960644,17
2961268,16
2961896,13
2962524,12
2963144,13
2963772,11
2964396,11
2965024,12
2965652,12
2966272,18
2966900,17
2967528,17
2968152,15
2968780,11
2969400,13
2970032,13
2970660,10
2971280,12
2971908,11
2972532,13
2973160,11
2973792,11
2974408,16
2975040,16
2975664,15
2976288,17
2976916,14
2977536,15
2978164,16
2978788,19
2979412,19
2980044,18
2980664,17
2981292,11
2981924,10
2982544,15
2983172,15
2983796,15
2984428,14
2985056,15
2985676,11
2986304,10
2986928,11
2987552,11
2988180,10
2988800,13
2989428,13
2990052,11
2990680,13
2991308,15
2991928,16
2992560,15
2993188,16
2993808,15
2994436,19
2995060,21
2995692,21
2996324,18
2996944,17
2997572,11
2998196,11
2998824,13
2999452,14
3000072,15
3000700,16
3001328,15
3001952,11
3002580,10
3003204,11
3003836,11
3004464,10
3005088,13
3005720,15
3006344,13
3006972,12
3007604,15
3008224,17
3008852,20
3009476,19
3010100,14
3010732,14
3011352,17
3011980,14
3012608,14
3013232,17
3013860,14
3014488,11
3015116,11
3015748,14
3016368,15
3016996,15
3017624,15
3018248,15
3018876,10
3019496,11
3020128,11
3020752,11
3021376,12
3022008,13
3022628,13
3023256,14
3023888,12
3024504,14
3025136,18
3025760,18
3026388,21
3027020,16
3027640,15
3028268,15
3028896,15
3029520,14
3030152,11
3030772,10
3031400,11
3032024,11
3032648,13
3033280,14
3033900,15
3034528,15
3035156,12
3035776,11
3036408,11
3037032,11
3037664,11
3038292,14
3038912,20
3039544,16
3040168,11
3040792,16
3041420,16
3042040,17
3042668,18
3043292,17
3043916,15
3044548,13
3045168,13
3045796,13
3046428,14
3047048,12
3047676,11
3048300,13
3048932,15
3049564,15
3050184,15
3050816,16
3051440,15
3052064,11
3052692,11
3053312,11
3053944,11
3054568,11
3055192,16
3055824,19
3056444,18
3057072,11
3057704,16
3058320,15
3058952,17
3059576,15
3060208,12
3060836,15
3061456,18
3062088,17
3062712,18
3063336,22
3063968,21
3064588,15
3065216,11
3065844,14
3066468,14
3067100,16
3067724,17
3068356,14
3068988,10
3069608,11
3070240,12
3070864,13
3071496,11
3072128,14
3072744,15
3073372,17
3073996,17
3074620,16
3075248,15
3075864,16
3076492,15
3077116,11
3077744,13
3078372,11
3079000,11
3079628,13
3080260,14
3080880,19
3081508,19
3082132,21
3082760,21
3083388,14
3084008,16
3084636,16
3085260,12
3085884,10
3086516,10
3087136,13
3087764,11
3088396,10
3089016,13
3089644,13
3090268,12
3090900,15
3091528,14
3092152,16
3092784,16
3093408,14
3094032,14
3094660,16
3095280,19
3095908,17
3096536,16
3097160,14
3097788,10
3098408,11
3099036,15
3099668,14
3100288,15
3100916,15
3101540,15
3102172,12
3102804,10
3103424,14
3104056,15
3104676,14
3105300,11
3105932,14
3106552,17
3107184,15
3107808,15
3108432,16
3109064,17
3109680,17
3110312,13
3110944,17
3111560,18
3112192,18
3112816,16
3113448,15
3114076,10
3114696,11
3115328,10
3115952,15
3116576,14
3117208,15
3117824,15
3118456,13
3119080,11
3119704,11
3120332,10
3120952,11
3121580,12
3122212,15
3122832,18
3123464,17
3124084,15
3124716,14
3125344,14
3125968,16
3126596,17
3127220,18
3127844,21
3128476,18
3129096,16
3129724,17
3130348,13
3130972,11
3131604,12
3132228,14
3132860,16
3133488,16
3134112,15
3134740,15
3135368,11
3135996,11
3136628,10
3137248,11
3137876,13
3138504,13
3139128,12
3139756,13
3140376,14
3141004,14
3141632,14
3142256,15
3142888,16
3143512,15
3144144,15
3144772,12
3145392,15
3146024,15
3146648,16
3147272,17
3147900,11
3148520,11
3149152,15
3149776,15
3150400,15
3151028,16
3151648,15
3152280,12
3152908,11
3153528,11
3154160,11
3154784,12
3155412,14
3156044,11
3156664,11
3157292,15
3157920,15
3158544,15
3159172,14
3159792,15
3160424,13
3161048,21
3161672,20
3162300,17
3162920,13
3163548,15
3164180,15
3164800,17
3165428,19
3166056,18
3166684,15
3167316,14
3167936,19
3168568,23
3169196,15
3169820,11
3170452,10
3171072,11
3171704,13
3172328,14
3172952,11
3173584,10
3174204,17
3174836,17
3175464,17
3176084,16
3176712,15
3177336,12
3177968,13
3178596,18
3179216,18
3179848,16
3180472,14
3181096,12
3181728,10
3182344,14
3182976,15
3183600,15
3184224,15
3184856,15
3185480,11
3186108,13
3186740,14
3187360,15
3187988,15
3188616,15
3189244,13
3189876,12
3190496,12
3191128,15
3191752,17
3192376,17
3193008,17
3193628,17
3194260,13
3194892,14
3195512,17
3196144,16
3196768,16
3197400,13
3198032,12
3198652,12
3199284,15
3199908,16
3200536,16
3201164,16
3201784,11
3202412,11
3203032,12
3203656,12
3204288,12
3204904,13
3205532,14
3206160,13
3206784,13
3207412,16
3208036,15
3208664,17
3209292,18
3209912,19
3210540,15
3211164,12
3211788,11
3212420,14
3213040,17
3213668,17
3214292,16
3214916,13
3215544,14
3216168,15
3216796,15
3217424,14
3218048,16
3218676,11
3219300,11
3219932,11
3220560,10
3221176,11
3221808,13
3222432,11
3223056,13
3223684,11
3224304,15
3224932,16
3225560,15
3226184,17
3226812,12
3227432,16
3228060,19
3228692,16
3229312,16
3229940,13
3230564,11
3231196,12
3231828,12
3232448,15
3233076,15
3233700,15
3234324,15
3234956,12
3235576,11
3236204,10
3236828,11
3237452,10
3238084,10
3238704,15
3239332,13
3239964,12
3240584,16
3241212,14
3241836,16
3242468,17
3243096,16
3243716,13
3244344,13
3244968,12
3245592,15
3246224,14
3246840,16
3247468,14
3248092,14
3248716,12
3249348,14
3249968,15
3250596,16
3251228,16
3251848,12
3252476,11
3253100,12
3253732,10
3254364,10
3254984,14
3255616,15
3256240,13
3256864,13
3257492,15
3258112,17
3258740,18
3259368,19
3259992,17
3260620,18
3261240,18
3261872,20
3262500,17
3263120,13
3263752,12
3264376,11
3265004,12
3265636,14
3266256,15
3266884,15
3267508,15
3268136,16
3268764,11
3269384,12
3270016,12
3270640,11
3271264,12
3271896,13
3272520,11
3273148,11
3273780,12
3274400,15
3275028,15
3275656,17
3276288,15
3276920,10
3277532,11
3278160,17
3278784,20
3279404,13
3280032,11
3280652,13
3281280,14
3281900,14
3282524,17
3283152,18
3283768,16
3284396,15
3285024,11
3285640,11
3286268,10
3286892,10
3287520,11
3288148,11
3288768,14
3289396,14
3290016,14
3290640,16
3291268,14
3291888,17
3292516,18
3293140,17
3293760,15
3294388,18
3295008,18
3295636,16
3296268,10
3296888,12
3297516,11
3298136,11
3298764,13
3299396,14
3300016,15
3300644,16
3301268,16
3301892,12
3302524,10
3303140,11
3303772,11
3304392,10
3305016,11
3305644,14
3306264,16
3306892,15
3307516,14
3308140,15
3308768,16
3309392,18
3310020,13
3310652,12
3311272,17
3311900,15
3312524,13
3313156,13
3313784,14
3314408,11
3315036,11
3315660,15
3316284,14
3316916,16
3317536,17
3318164,13
3318796,10
3319416,11
3320044,11
3320668,15
3321296,16
3321924,18
3322544,16
3323172,13
3323796,15
3324420,16
3325052,15
3325672,20
3326300,19
3326924,16
3327548,14
3328180,14
3328796,15
3329424,12
3330052,13
3330672,12
3331300,11
3331924,11
3332552,15
3333180,14
3333800,15
3334428,15
3335048,11
3335680,11
3336308,10
3336928,11
3337556,11
3338180,11
3338804,13
3339432,14
3340052,12
3340680,16
3341304,16
3341928,15
3342556,17
3343180,16
3343808,18
3344440,22
3345056,24
3345684,17
3346308,12
3346936,13
3347568,12
3348184,13
3348812,17
3349436,15
3350060,14
3350688,14
3351312,16
3351940,12
3352564,11
3353188,11
3353820,10
3354444,12
3355072,14
3355700,14
3356320,15
3356948,15
3357572,14
3358204,15
3358832,17
3359456,19
3360084,19
3360704,19
3361328,17
3361956,14
3362576,15
3363204,13
3363824,11
3364448,11
3365076,11
3365700,13
3366328,15
3366956,14
3367576,15
3368204,12
3368828,12
3369456,11
3370084,11
3370704,11
3371332,11
3371956,12
3372580,12
3373208,14
3373832,16
3374460,15
3375084,15
3375708,16
3376336,17
3376960,20
3377588,21
3378220,18
3378840,15
3379468,13
3380092,14
3380720,12
3381348,10
3381968,13
3382596,15
3383220,15
3383840,16
3384472,16
3385088,13
3385716,11
3386340,11
3386964,11
3387592,16
3388208,18
3388840,17
3389468,12
3390088,12
3390716,15
3391340,15
3391972,15
3392600,14
3393224,16
3393852,13
3394476,16
3395100,23
3395728,24
3396348,16
3396976,12
3397600,12
3398224,13
3398852,14
3399472,15
3400100,15
3400732,17
3401352,17
3401980,11
3402604,10
3403232,10
3403860,11
3404480,13
3405108,17
3405732,18
3406356,16
3406984,13
3407604,15
3408232,18
3408856,19
3409476,20
3410108,16
3410728,19
3411356,22
3411984,18
3412608,15
3413236,16
3413860,13
3414492,11
3415120,11
3415740,15
3416368,15
3416992,15
3417616,15
3418244,12
3418864,12
3419492,11
3420116,11
3420740,12
3421372,12
3421992,13
3422620,13
3423252,14
3423872,15
3424504,16
3425124,19
3425756,19
3426384,16
3427008,13
3427636,16
3428264,17
3428888,12
3429516,10
3430136,10
3430768,11
3431388,11
3432012,13
3432644,14
3433264,16
3433892,16
3434524,16
3435144,11
3435776,11
3436400,11
3437028,12
3437660,12
3438280,12
3438908,11
3439536,11
3440160,11
3440788,14
3441408,15
3442036,15
3442660,15
3443284,11
3443912,11
3444528,13
3445156,11
3445784,11
3446408,17
3447036,21
3447660,23
3448292,19
3448920,16
3449536,15
3450168,15
3450792,15
3451416,13
3452044,10
3452664,11
3453292,11
3453916,11
3454544,12
3455172,15
3455792,13
3456424,11
3457052,14
3457672,16
3458300,15
3458924,16
3459552,15
3460184,12
3460800,16
3461428,19
3462052,17
3462676,14
3463304,15
3463928,11
3464556,11
3465180,11
3465804,15
3466436,14
3467056,15
3467684,16
3468316,12
3468936,11
3469564,11
3470188,12
3470820,11
3471448,11
3472068,11
3472696,12
3473320,12
3473944,15
3474572,14
3475192,16
3475824,16
3476448,13
3477072,11
3477700,11
3478320,11
3478952,11
3479580,11
3480200,12
3480828,11
3481452,13
3482084,16
3482712,16
3483336,17
3483964,16
3484588,14
3485212,11
3485840,11
3486460,12
3487088,10
3487712,12
3488336,15
3488964,14
3489584,13
3490212,11
3490844,14
3491464,17
3492092,18
3492716,19
3493348,15
3493976,15
3494596,16
3495224,17
3495848,15
3496472,15
3497100,10
3497720,11
3498348,11
3498972,15
3499596,15
3500228,14
3500848,15
3501476,11
3502108,10
3502728,13
3503356,11
3503984,12
3504612,11
3505244,12
3505864,15
3506492,12
3507120,15
3507744,15
3508372,15
3508992,18
3509620,17
3510248,19
3510872,16
3511500,16
3512120,15
3512752,15
3513380,14
3514000,12
3514628,11
3515256,15
3515884,17
3516516,14
3517136,15
3517768,15
3518392,12
3519016,11
3519648,11
3520268,10
3520896,12
3521520,12
3522144,13
3522772,13
3523396,12
3524024,13
3524656,14
3525272,17
3525900,16
3526524,12
3527152,10
3527784,11
3528400,15
3529032,16
3529656,15
3530276,14
3530908,14
3531528,17
3532156,17
3532784,16
3533408,15
3534036,15
3534660,13
3535292,10
3535920,10
3536544,11
3537172,11
3537796,13
3538428,15
3539056,15
3539676,13
3540304,13
3540928,16
3541552,19
3542184,19
3542804,17
3543432,15
3544056,13
3544680,11
3545308,10
3545932,11
3546564,11
3547192,11
3547816,11
3548448,12
3549072,15
3549700,14
3550332,14
3550952,15
3551584,12
3552208,12
3552832,12
3553460,10
3554080,11
3554708,11
3555340,14
3555960,17
3556588,13
3557216,15
3557844,17
3558476,16
3559096,17
3559724,17
3560352,17
3560976,16
3561604,18
3562224,18
3562856,17
3563480,17
3564104,14
3564732,10
3565352,15
3565984,15
3566612,14
3567232,15
3567864,16
3568488,12
3569116,13
3569748,10
3570368,11
3571000,11
3571624,12
3572248,11
3572876,10
3573496,12
3574128,15
3574752,15
3575376,16
3576008,14
3576624,15
3577256,19
3577884,25
3578504,29
3579136,22
3579760,14
3580392,11
3581024,10
3581640,11
3582272,15
3582896,14
3583520,15
3584152,15
3584768,12
3585396,11
3586020,10
3586644,10
3587272,11
3587888,13
3588520,17
3589148,14
3589768,14
3590396,16
3591020,17
3591652,17
3592284,16
3592904,18
3593532,14
3594160,13
3594784,17
3595412,17
3596032,15
3596660,13
3597288,12
3597912,11
3598540,13
3599160,15
3599792,15
3600420,16
3601040,15
3601668,13
3602292,14
3602924,14
3603552,10
3604172,11
3604800,11
3605424,11
3606048,11
3606676,12
3607296,15
3607924,15
3608548,15
3609172,15
3609800,14
3610424,15
3611052,16
3611680,18
3612296,15
3612928,13
3613552,11
3614180,11
3614812,12
3615432,16
3616060,17
3616684,17
3617308,14
3617936,13
3618552,11
3619180,10
3619804,10
3620428,11
3621060,10
3621680,17
3622308,15
3622940,15
3623560,17
3624188,15
3624812,15
3625444,15
3626072,15
3626688,14
3627320,18
3627944,22
3628568,25
3629196,24
3629816,20
3630444,11
3631068,10
3631692,13
3632324,14
3632944,16
3633572,15
3634204,14
3634824,11
3635456,11
3636076,11
3636708,11
3637336,11
3637956,12
3638584,13
3639208,14
3639832,16
3640464,15
3641080,15
3641708,15
3642332,15
3642956,14
3643588,18
3644208,25
3644836,27
3645468,20
3646088,17
3646716,14
3647340,11
3647972,10
3648604,15
3649224,23
3649852,18
3650476,15
3651100,15
3651732,12
3652352,15
3652980,13
3653604,11
3654228,11
3654860,10
3655480,11
3656108,12
3656740,12
3657360,15
3657988,16
3658612,16
3659244,15
3659872,10
3660496,13
3661124,17
3661748,14
3662376,15
3663004,15
3663624,18
3664252,18
3664880,17
3665500,17
3666132,15
3666756,15
3667388,15
3668016,13
3668636,13
3669264,13
3669888,13
3670520,13
3671152,13
3671768,12
3672400,13
3673024,11
3673648,15
3674276,14
3674896,17
3675524,19
3676152,22
3676776,19
3677408,17
3678032,18
3678664,15
3679292,13
3679912,15
3680544,13
3681168,11
3681800,13
3682428,14
3683048,14
3683680,15
3684304,15
3684928,13
3685556,11
3686176,11
3686808,11
3687436,10
3688056,17
3688684,18
3689308,13
3689936,12
3690564,16
3691184,16
3691812,15
3692436,17
3693060,13
3693692,16
3694312,15
3694940,13
3695564,13
3696188,12
3696820,10
3697440,12
3698068,11
3698696,14
3699320,15
3699948,15
3700572,16
3701204,15
3701832,12
3702452,11
3703080,11
3703704,11
3704328,12
3704956,16
3705576,17
3706208,15
3706832,15
3707456,16
3708084,16
3708704,18
3709336,18
3709964,16
3710584,18
3711216,21
3711840,21
3712472,15
3713100,10
3713720,11
3714348,11
3714972,11
3715596,15
3716228,14
3716848,17
3717476,16
3718100,13
3718724,10
3719356,10
3719976,12
3720608,15
3721236,12
3721856,13
3722484,12
3723108,11
3723740,17
3724372,14
3724992,14
3725620,15
3726244,13
3726868,17
3727500,16
3728120,19
3728748,15
3729372,13
3729996,12
3730624,10
3731248,11
3731876,15
3732508,14
3733128,15
3733756,16
3734384,15
3735012,11
3735644,10
3736264,11
3736896,11
3737520,13
3738144,13
3738772,11
3739392,13
3740020,12
3740644,14
3741268,15
3741900,18
3742520,21
3743152,17
3743780,18
3744400,19
3745028,15
3745652,13
3746284,16
3746912,12
3747536,11
3748168,12
3748788,15
3749412,15
3750044,15
3750664,15
3751292,13
3751920,12
3752544,12
3753172,11
3753800,13
3754428,11
3755060,11
3755680,12
3756312,11
3756936,17
3757568,20
3758196,20
3758816,19
3759448,17
3760072,18
3760696,15
3761324,13
3761944,15
3762576,17
3763204,14
3763824,12
3764452,11
3765080,13
3765708,15
3766340,14
3766960,15
3767592,15
3768216,13
3768840,14
3769468,14
3770088,16
3770716,15
3771344,13
3771968,13
3772596,14
3773216,11
3773848,14
3774476,16
3775096,19
3775728,23
3776352,20
3776980,18
3777612,22
3778232,24
3778864,18
3779488,13
3780112,11
3780740,10
3781360,12
3781988,17
3782616,15
3783240,15
3783868,16
3784488,15
3785116,11
3785748,10
3786368,13
3787000,11
3787624,12
3788256,13
3788884,13
3789504,11
3790132,17
3790756,17
3791380,15
3792012,14
3792632,16
3793264,16
3793888,19
3794512,21
3795140,19
3795760,18
3796392,14
3797024,10
3797640,11
3798272,13
3798896,15
3799528,15
3800156,14
3800776,16
3801408,12
3802032,12
3802656,13
3803284,10
3803904,11
3804536,11
3805160,14
3805784,13
3806416,14
3807032,14
3807664,16
3808296,16
3808916,16
3809544,14
3810172,14
3810800,12
3811432,12
3812052,12
3812680,10
3813304,11
3813928,10
3814560,10
3815176,15
3815808,15
3816432,16
3817056,17
3817688,15
3818312,11
3818940,11
3819572,10
3820192,13
3820824,13
3821448,12
3822076,11
3822708,13
3823328,12
3823960,15
3824584,18
3825212,18
3825840,15
3826464,11
3827096,14
3827728,18
3828348,16
3828976,16
3829604,18
3830232,15
3830864,12
3831484,12
3832116,15
3832740,15
3833368,16
3834000,15
3834616,11
3835248,11
3835872,11
3836496,11
3837128,11
3837748,11
3838380,14
3839012,11
3839636,12
3840268,15
3840892,15
3841520,17
3842148,16
3842768,17
3843396,11
3844020,11
3844644,13
3845272,12
3845896,11
3846524,11
3847148,11
3847772,12
3848404,15
3849024,15
3849656,14
3850284,15
3850904,15
3851532,11
3852156,10
3852784,12
3853416,11
3854036,12
3854664,19
3855288,17
3855912,15
3856544,14
3857164,14
3857792,20
3858416,25
3859040,32
3859672,28
3860296,21
3860924,16
3861556,12
3862176,12
3862804,12
3863428,12
3864060,10
3864692,10
3865312,15
3865944,15
3866564,15
3867188,15
3867820,13
3868440,15
3869068,13
3869692,10
3870320,11
3870952,11
3871576,13
3872204,15
3872836,15
3873456,15
3874084,16
3874708,17
3875336,17
3875964,16
3876584,15
3877212,16
3877836,15
3878464,12
3879092,12
3879712,12
3880344,11
3880972,12
3881592,14
3882224,17
3882848,16
3883476,15
3884108,14
3884728,11
3885360,13
3885984,15
3886608,15
3887236,12
3887856,14
3888488,15
3889112,15
3889736,12
3890368,14
3890984,15
3891616,17
3892248,16
3892864,17
3893492,21
3894116,21
3894748,21
3895376,15
3896000,11
3896628,13
3897252,12
3897876,12
3898508,15
3899128,15
3899756,15
3900384,16
3901008,16
3901640,12
3902256,11
3902888,11
3903516,10
3904136,10
3904768,15
3905392,15
3906020,13
3906652,14
3907272,15
3907900,15
3908524,16
3909152,16
3909780,13
3910400,15
3911028,16
3911656,17
3912280,19
3912908,20
3913528,15
3914160,13
3914788,14
3915408,15
3916040,15
3916664,16
3917296,15
3917924,11
3918544,11
3919176,11
3919800,12
3920424,12
3921052,12
3921672,11
3922304,13
3922928,13
3923552,15
3924180,15
3924804,16
3925436,15
3926068,18
3926688,23
3927320,23
3927944,17
3928576,11
3929204,12
3929824,12
3930456,11
3931080,13
3931704,15
3932336,14
3932952,15
3933580,15
3934204,14
3934832,11
3935460,11
3936084,11
3936716,13
3937344,12
3937960,14
3938592,17
3939216,17
3939844,13
3940476,14
3941096,17
3941728,18
3942352,19
3942976,13
3943604,12
3944224,14
3944852,17
3945484,18
3946104,21
3946732,20
3947356,17
3947988,16
3948620,16
3949240,15
3949868,17
3950492,15
3951116,11
3951748,11
3952368,11
3952996,11
3953620,11
3954244,11
3954876,16
3955496,19
3956124,17
3956756,15
3957376,17
3958008,17
3958632,20
3959260,18
3959892,16
3960512,15
3961140,15
3961768,14
3962392,15
3963020,16
3963640,14
3964268,11
3964896,14
3965520,15
3966148,14
3966768,16
3967400,17
3968028,13
3968648,11
3969276,15
3969900,15
3970528,11
3971160,13
3971780,19
3972412,17
3973036,11
3973660,15
3974288,20
3974912,24
3975540,20
3976164,19
3976788,17
3977420,13
3978040,13
3978668,13
3979300,12
3979920,12
3980552,11
3981176,12
3981804,17
3982436,16
3983056,18
3983688,15
3984312,19
3984936,20
3985564,17
3986184,19
3986812,17
3987440,13
3988064,11
3988692,13
3989320,17
3989948,21
3990580,16
3991200,15
3991832,15
3992456,15
3993088,11
3993720,16
3994336,20
3994964,17
3995588,18
3996216,17
3996844,14
3997464,12
3998092,13
3998720,15
3999344,15
3999976,15
4000600,15
4001228,11
4001860,10
4002480,12
4003108,11
4003732,11
4004360,12
4004988,12
4005608,14
4006236,15
4006860,15
4007484,17
4008112,16
4008736,15
4009364,12
4009996,12
4010616,12
4011244,13
4011868,15
4012500,13
4013128,10
4013752,12
4014384,11
4015008,18
4015632,17
4016260,14
4016880,15
4017508,15
4018132,10
4018756,11
4019388,11
4020008,19
4020636,18
4021264,16
4021888,13
4022516,12
4023140,14
4023772,16
4024400,15
4025024,16
4025652,15
4026276,17
4026900,23
4027528,25
4028148,21
4028776,19
4029400,20
4030028,17
4030656,12
4031280,11
4031912,15
4032544,15
4033160,16
4033788,15
4034412,12
4035044,11
4035672,13
4036296,13
4036924,11
4037548,14
4038172,15
4038804,12
4039424,11
4040052,16
4040676,17
4041300,15
4041932,16
4042552,15
4043180,16
4043812,13
4044432,12
4045064,9
4045636,13
4046268,19
4046900,18
4047520,17
4048148,17
4048772,16
4049404,16
4050032,16
4050656,17
4051284,12
4051908,10
4052532,11
4053164,10
4053784,12
4054416,18
4055040,18
4055664,16
4056292,13
4056916,14
4057548,15
4058180,16
4058800,17
4059428,17
4060052,15
4060680,15
4061308,15
4061928,18
4062556,16
4063184,13
4063808,10
4064440,12
4065056,17
4065684,15
4066316,14
4066936,16
4067568,13
4068192,12
4068820,13
4069452,10
4070072,11
4070704,10
4071328,15
4071952,19
4072584,17
4073200,16
4073832,18
4074456,17
4075080,15
4075712,17
4076328,22
4076960,28
4077588,27
4078208,22
4078840,13
4079464,11
4080096,11
4080724,12
4081344,19
4081972,22
4082600,20
4083224,17
4083852,14
4084472,13
4085104,16
4085728,15
4086352,13
4086984,11
4087600,10
4088232,15
4088864,24
4089480,24
4090112,18
4090736,15
4091368,15
4091996,17
4092620,22
4093248,26
4093876,30
4094500,31
4095132,21
4095752,18
4096388,18
4097008,15
4097628,11
4098256,14
4098872,15
4099500,15
4100128,15
4100744,16
4101372,14
4101996,13
4102624,12
4103252,10
4103872,12
4104500,11
4105120,11
4105744,11
4106372,10
4106992,16
4107620,14
4108244,15
4108864,15
4109492,12
4110112,15
4110740,20
4111368,24
4111984,22
4112612,15
4113236,10
4113864,10
4114496,11
4115112,16
4115740,13
4116364,15
4116996,15
4117624,14
4118240,13
4118868,13
4119492,11
4120116,11
4120744,11
4121360,13
4121992,15
4122616,14
4123236,15
4123864,15
4124488,19
4125116,18
4125744,16
4126368,12
4126996,13
4127620,14
4128252,15
4128880,18
4129496,15
4130124,10
4130748,12
4131372,14
4132000,21
4132616,17
4133244,15
4133868,16
4134492,12
4135120,12
4135744,13
4136372,11
4137004,12
4137624,18
4138252,17
4138872,12
4139504,11
4140132,16
4140752,17
4141380,17
4142004,17
4142628,14
4143260,14
4143880,19
4144508,15
4145132,11
4145756,12
4146388,12
4147012,11
4147640,11
4148272,14
4148888,15
4149516,16
4150140,15
4150768,14
4151400,11
4152016,15
4152644,15
4153268,11
4153892,11
4154520,12
4155144,14
4155772,12
4156400,13
4157024,15
4157652,15
4158276,15
4158908,16
4159536,17
4160156,19
4160784,18
4161404,18
4162036,14
4162664,12
4163280,11
4163908,14
4164532,11
4165152,15
4165784,14
4166400,15
4167028,15
4167652,12
4168276,12
4168904,14
4169520,12
4170152,13
4170780,11
4171400,15
4172028,13
4172652,11
4173284,15
4173912,16
4174528,19
4175160,20
4175784,17
4176408,18
4177036,17
4177656,15
4178284,14
4178908,14
4179532,11
4180160,11
4180776,11
4181404,13
4182036,14
4182656,15
4183284,13
4183908,15
4184536,11
4185168,11
4185784,11
4186412,11
4187036,10
4187660,11
4188288,11
4188908,11
4189536,12
4190160,15
4190784,15
4191412,14
4192032,15
4192660,12
4193288,16
4193912,19
4194540,17
4195164,13
4195796,12
4196428,10
4197048,11
4197676,11
4198300,15
4198928,16
4199556,16
4200176,15
4200804,13
4201428,11
4202048,12
4202680,11
4203296,12
4203924,12
4204556,14
4205176,13
4205804,11
4206428,15
4207056,15
4207688,15
4208304,16
4208932,18
4209556,23
4210184,25
4210812,20
4211432,21
4212060,17
4212684,13
4213308,11
4213936,10
4214560,12
4215188,15
4215820,14
4216440,15
4217068,17
4217692,16
4218324,15
4218952,11
4219572,10
4220200,11
4220824,14
4221444,17
4222076,14
4222696,12
4223324,15
4223952,15
4224576,17
4225204,18
4225824,14
4226452,15
4227080,18
4227700,19
4228328,20
4228952,21
4229580,17
4230212,10
4230832,12
4231460,16
4232084,17
4232708,18
4233340,16
4233960,16
4234588,11
4235212,15
4235836,16
4236468,14
4237088,16
4237716,15
4238348,12
4238968,15
4239596,14
4240224,15
4240852,14
4241480,15
4242096,15
4242728,13
4243352,14
4243976,20
4244604,15
4245224,14
4245852,15
4246476,19
4247100,19
4247732,16
4248352,15
4248980,17
4249612,19
4250228,17
4250860,11
4251484,10
4252112,11
4252744,10
4253364,11
4253992,11
4254616,12
4255240,13
4255868,11
4256488,15
4257116,15
4257740,16
4258364,18
4258996,16
4259616,13
4260244,15
4260876,12
4261496,13
4262124,10
4262748,10
4263376,10
4264004,11
4264620,13
4265252,15
4265876,14
4266500,15
4267132,15
4267752,11
4268380,11
4269004,11
4269628,11
4270256,10
4270880,15
4271508,15
4272140,16
4272760,13
4273388,15
4274012,17
4274644,19
4275272,17
4275888,13
4276520,16
4277144,17
4277764,20
4278396,16
4279016,14
4279648,14
4280272,15
4280896,13
4281524,14
4282144,14
4282772,15
4283404,17
4284024,18
4284652,13
4285276,11
4285908,11
4286540,11
4287160,13
4287792,22
4288416,29
4289040,19
4289668,16
4290288,18
4290916,20
4291540,19
4292164,21
4292792,23
4293416,24
4294044,20
4294676,16
4295296,18
4295924,15
4296552,11
4297180,11
4297812,11
4298432,15
4299060,15
4299688,15
4300312,16
4300944,11
4301560,13
4302188,15
4302812,14
4303436,12
4304064,14
4304680,16
4305312,11
4305940,13
4306560,17
4307188,17
4307812,14
4308444,18
4309072,16
4309696,13
4310328,15
4310952,17
4311576,14
4312204,10
4312824,12
4313452,10
4314076,11
4314700,15
4315332,16
4315952,16
4316584,15
4317212,14
4317832,11
4318464,11
4319088,11
4319716,12
4320348,11
4320968,13
4321596,11
4322220,11
4322844,12
4323472,14
4324096,15
4324724,16
4325348,17
4325972,17
4326604,13
4327224,13
4327852,13
4328484,11
4329104,11
4329732,12
4330356,12
4330988,13
4331616,20
4332240,19
4332868,15
4333492,14
4334116,12
4334748,10
4335368,12
4335996,11
4336624,12
4337248,13
4337876,13
4338504,11
4339132,12
4339764,16
4340384,17
4341016,15
4341640,17
4342268,17
4342900,14
4343520,20
4344148,20
4344772,16
4345400,15
4346028,14
4346648,13
4347276,11
4347900,12
4348528,15
4349156,15
4349784,16
4350412,15
4351044,10
4351664,10
4352296,11
4352920,11
4353540,13
4354172,12
4354792,11
4355420,11
4356044,11
4356668,14
4357296,15
4357920,15
4358548,15
4359180,10
4359800,13
4360428,21
4361052,23
4361684,16
4362312,14
4362928,11
4363560,11
4364184,11
4364804,15
4365436,14
4366056,15
4366684,15
4367308,13
4367932,12
4368564,11
4369184,11
4369812,11
4370444,10
4371064,14
4371696,13
4372320,13
4372948,14
4373580,15
4374200,16
4374828,16
4375456,15
4376080,15
4376708,14
4377328,13
4377960,14
4378580,18
4379204,13
4379836,10
4380456,14
4381084,15
4381716,16
4382336,15
4382968,15
4383592,15
4384220,12
4384852,10
4385472,12
4386100,12
4386724,11
4387348,11
4387980,14
4388600,17
4389228,14
4389852,15
4390480,15
4391108,14
4391728,15
4392356,13
4392988,14
4393608,21
4394236,22
4394864,21
4395492,20
4396124,19
4396744,11
4397376,11
4398000,16
4398624,13
4399256,15
4399872,15
4400504,15
4401128,11
4401752,13
4402384,12
4403000,11
4403632,10
4404260,13
4404880,14
4405508,17
4406132,12
4406764,15
4407392,17
4408012,18
4408640,16
4409264,15
4409888,16
4410516,22
4411136,23
4411768,16
4412392,12
4413016,12
4413644,11
4414264,24
4414892,19
4415524,14
4416144,15
4416772,20
4417396,21
4418028,17
4418656,12
4419276,10
4419904,11
4420528,15
4421152,18
4421780,17
4422400,15
4423028,15
4423652,15
4424280,16
4424908,15
4425528,20
4426156,19
4426788,19
4427408,23
4428036,17
4428664,12
4429292,14
4429924,12
4430544,13
4431172,15
4431800,16
4432424,15
4433052,14
4433672,15
4434300,11
4434928,11
4435552,11
4436180,10
4436804,14
4437436,17
4438064,18
4438688,17
4439316,14
4439944,15
4440572,17
4441204,16
4441824,19
4442452,17
4443076,16
4443704,17
4444332,15
4444952,16
4445580,15
4446208,11
4446832,11
4447460,11
4448088,14
4448716,14
4449348,14
4449968,17
4450596,13
4451220,11
4451848,17
4452476,14
4453096,13
4453728,11
4454352,12
4454976,11
4455608,16
4456224,18
4456856,20
4457484,17
4458104,15
4458732,19
4459360,21
4459988,15
4460620,12
4461240,11
4461868,10
4462496,11
4463120,13
4463752,18
4464368,21
4465000,27
4465624,22
4466248,17
4466876,15
4467496,11
4468124,11
4468756,10
4469376,13
4470008,15
4470632,15
4471260,15
4471892,17
4472512,12
4473144,17
4473768,17
4474392,17
4475024,18
4475644,16
4476272,15
4476900,14
4477524,16
4478156,16
4478776,14
4479408,14
4480040,11
4480656,11
4481284,15
4481908,15
4482536,16
4483164,14
4483784,16
4484412,11
4485036,12
4485660,11
4486292,10
4486912,12
4487540,15
4488164,15
4488788,13
4489420,14
4490040,15
4490668,15
4491300,16
4491920,16
4492552,16
4493176,20
4493804,23
4494436,20
4495056,15
4495688,13
4496308,14
4496932,11
4497564,11
4498184,19
4498812,17
4499440,15
4500064,17
4500692,17
4501316,13
4501948,11
4502580,12
4503200,17
4503832,13
4504456,13
4505088,15
4505716,15
4506336,18
4506964,18
4507588,15
4508212,16
4508840,15
4509456,16
4510088,21
4510712,17
4511336,12
4511964,11
4512592,13
4513220,17
4513852,18
4514472,17
4515100,17
4515728,17
4516356,17
4516988,16
4517608,10
4518236,11
4518864,12
4519488,11
4520116,10
4520736,12
4521364,11
4521996,10
4522616,12
4523244,13
4523868,15
4524500,15
4525128,15
4525752,15
4526384,15
4527008,14
4527632,15
4528260,16
4528880,16
4529508,13
4530132,12
4530756,12
4531388,14
4532008,15
4532636,15
4533268,15
4533888,13
4534516,11
4535140,12
4535772,11
4536404,11
4537024,11
4537652,15
4538276,15
4538904,15
4539532,16
4540152,16
4540784,16
4541408,17
4542032,17
4542664,15
4543280,17
4543912,20
4544544,17
4545160,16
4545792,16
4546416,13
4547044,11
4547676,16
4548296,16
4548924,16
4549548,15
4550176,17
4550804,14
4551424,11
4552056,13
4552680,15
4553304,13
4553932,10
4554552,12
4555184,12
4555816,11
4556432,15
4557064,20
4557688,28
4558320,27
4558948,19
4559568,15
4560200,15
4560820,18
4561444,18
4562076,14
4562696,11
4563324,12
4563948,14
4564576,15
4565204,15
4565828,15
4566460,15
4567088,14
4567712,12
4568340,12
4568964,13
4569596,10
4570228,10
4570848,13
4571480,13
4572104,13
4572728,14
4573360,14
4573976,14
4574608,16
4575236,15
4575856,18
4576488,22
4577112,22
4577744,19
4578372,12
4578992,12
4579624,12
4580248,11
4580872,11
4581504,15
4582120,14
4582752,15
4583380,15
4584004,11
4584632,10
4585252,11
4585884,17
4586512,22
4587136,22
4587768,20
4588392,15
4589020,12
4589652,14
4590272,17
4590900,19
4591528,20
4592152,19
4592780,23
4593400,25
4594028,20
4594656,16
4595280,15
4595908,15
4596528,12
4597156,12
4597788,14
4598408,15
4599036,15
4599664,15
4600292,15
4600924,10
4601544,10
4602176,11
4602800,12
4603424,15
4604056,16
4604672,15
4605304,13
4605928,14
4606552,14
4607184,18
4607804,20
4608436,17
4609064,12
4609680,12
4610308,15
4610932,16
4611560,14
4612188,15
4612808,15
4613436,11
4614060,11
4614684,14
4615312,14
4615932,15
4616560,15
4617184,13
4617808,11
4618436,12
4619056,12
4619684,12
4620316,14
4620936,15
4621564,11
4622188,12
4622820,15
4623448,15
4624068,15
4624696,15
4625320,17
4625944,16
4626572,19
4627192,20
4627824,14
4628448,14
4629072,16
4629700,13
4630320,18
4630948,18
4631580,18
4632200,16
4632828,15
4633452,16
4634084,11
4634716,10
4635336,11
4635964,11
4636592,12
4637216,20
4637844,27
4638464,21
4639092,11
4639720,18
4640344,18
4640972,16
4641592,16
4642220,15
4642852,18
4643472,19
4644100,23
4644724,17
4645356,12
4645984,10
4646608,14
4647236,14
4647860,15
4648484,15
4649116,14
4649736,15
4650364,16
4650988,11
4651612,10
4652244,11
4652868,10
4653496,11
4654124,14
4654744,15
4655372,14
4655996,13
4656628,16
4657260,16
4657880,16
4658512,20
4659136,21
4659760,21
4660388,19
4661008,13
4661636,11
4662260,10
4662888,11
4663516,10
4664140,11
4664772,15
4665404,14
4666024,15
4666652,17
4667280,15
4667908,11
4668540,11
4669160,19
4669792,17
4670416,13
4671040,12
4671668,11
4672288,12
4672916,16
4673548,14
4674168,15
4674796,16
4675420,15
4676052,13
4676680,18
4677304,24
4677932,18
4678556,13
4679184,12
4679812,10
4680432,11
4681060,15
4681684,16
4682308,16
4682940,14
4683560,15
4684188,11
4684820,11
4685440,12
4686068,16
4686692,21
4687324,18
4687952,10
4688576,11
4689204,12
4689832,15
4690456,15
4691084,19
4691704,18
4692332,18
4692960,17
4693584,19
4694212,13
4694832,13
4695464,15
4696092,15
4696712,17
4697344,15
4697968,14
4698596,17
4699228,18
4699848,19
4700480,13
4701104,12
4701728,11
4702360,10
4702976,11
4703608,14
4704236,11
4704860,13
4705488,14
4706112,15
4706744,17
4707372,16
4707992,15
4708624,15
4709248,14
4709880,14
4710512,15
4711128,14
4711756,15
4712384,18
4713008,13
4713636,10
4714256,12
4714884,15
4715508,14
4716136,15
4716768,14
4717392,11
4718024,12
4718652,10
4719272,11
4719904,11
4720528,11
4721156,11
4721788,11
4722408,13
4723036,16
4723664,15
4724288,15
4724916,16
4725536,12
4726168,17
4726796,20
4727416,18
4728048,16
4728672,15
4729300,17
4729932,16
4730552,13
4731184,15
4731808,17
4732432,17
4733064,15
4733680,13
4734312,12
4734936,10
4735564,11
4736196,10
4736816,11
4737444,13
4738076,13
4738696,17
4739324,15
4739948,15
4740580,19
4741212,18
4741832,17
4742464,10
4743088,10
4743712,14
4744340,14
4744960,15
4745588,13
4746216,12
4746840,12
4747472,13
4748088,17
4748720,19
4749352,15
4749972,15
4750600,13
4751228,12
4751860,13
4752488,12
4753112,19
4753744,21
4754368,18
4754992,15
4755624,13
4756240,22
4756872,21
4757496,15
4758120,15
4758752,18
4759376,21
4760008,19
4760636,20
4761256,18
4761888,17
4762512,18
4763140,17
4763772,14
4764392,15
4765024,16
4765648,14
4766272,19
4766900,17
4767520,13
4768152,11
4768780,11
4769400,13
4770028,13
4770656,15
4771284,13
4771916,12
4772536,14
4773168,15
4773792,15
4774416,14
4775044,16
4775664,14
4776296,14
4776920,18
4777544,30
4778176,23
4778792,21
4779424,17
4780056,12
4780680,11
4781312,15
4781936,15
4782568,16
4783196,15
4783816,11
4784448,12
4785076,13
4785700,10
4786332,10
4786952,10
4787584,16
4788212,17
4788836,13
4789468,14
4790092,16
4790724,18
4791356,16
4791976,17
4792612,18
4793236,17
4793864,14
4794496,12
4795112,15
4795744,18
4796372,13
4796996,11
4797628,14
4798248,14
4798880,15
4799512,15
4800132,15
4800760,11
4801384,12
4802012,12
4802644,12
4803264,13
4803892,14
4804516,14
4805140,15
4805768,17
4806392,17
4807024,16
4807648,16
4808272,17
4808900,11
4809520,21
4810152,25
4810780,26
4811400,21
4812032,17
4812656,13
4813288,14
4813916,14
4814536,15
4815164,15
4815792,15
4816416,15
4817044,11
4817664,11
4818292,11
4818916,11
4819540,11
4820172,12
4820792,20
4821424,17
4822052,14
4822672,16
4823304,15
4823928,15
4824556,17
4825188,18
4825808,15
4826436,12
4827060,12
4827684,12
4828316,15
4828936,16
4829564,13
4830192,11
4830816,13
4831448,14
4832072,15
4832700,15
4833332,15
4833952,13
4834580,11
4835204,11
4835836,11
4836468,10
4837088,11
4837720,11
4838344,17
4838968,16
4839596,14
4840216,17
4840844,18
4841468,14
4842096,20
4842724,19
4843352,21
4843980,19
4844612,14
4845232,13
4845860,12
4846488,11
4847108,11
4847740,16
4848360,20
4848988,23
4849612,22
4850236,15
4850868,13
4851488,11
4852120,11
4852748,10
4853368,17
4854000,20
4854624,20
4855252,17
4855884,14
4856504,15
4857132,15
4857760,17
4858384,16
4859016,16
4859632,21
4860264,25
4860888,20
4861512,16
4862144,14
4862760,10
4863392,11
4864024,10
4864648,15
4865276,15
4865900,15
4866528,15
4867160,11
4867780,13
4868408,10
4869032,11
4869656,10
4870288,10
4870908,11
4871536,12
4872164,15
4872788,15
4873420,14
4874040,15
4874672,17
4875300,14
4875920,15
4876552,13
4877176,13
4877804,17
4878436,16
4879056,15
4879688,13
4880312,13
4880936,16
4881564,14
4882184,15
4882812,18
4883440,17
4884060,13
4884692,12
4885316,11
4885948,12
4886576,12
4887200,14
4887828,11
4888456,13
4889084,12
4889716,18
4890336,21
4890964,16
4891592,15
4892216,13
4892844,15
4893464,19
4894096,19
4894724,12
4895344,12
4895976,11
4896600,13
4897228,18
4897860,18
4898480,17
4899112,15
4899736,15
4900360,12
4900992,13
4901608,12
4902240,14
4902864,11
4903488,11
4904120,14
4904736,13
4905368,11
4906000,16
4906616,16
4907248,16
4907872,18
4908504,19
4909136,16
4909752,14
4910384,14
4911012,14
4911640,14
4912272,11
4912888,10
4913520,11
4914144,13
4914772,15
4915404,16
4916024,16
4916652,15
4917280,12
4917896,11
4918528,15
4919152,15
4919780,11
4920412,12
4921032,13
4921660,13
4922284,14
4922908,14
4923536,18
4924152,17
4924784,17
4925408,17
4926032,13
4926660,10
4927280,12
4927908,13
4928540,12
4929160,11
4929788,11
4930412,11
4931040,14
4931672,14
4932288,15
4932920,16
4933544,13
4934168,11
4934796,14
4935416,15
4936048,12
4936668,11
4937292,13
4937924,13
4938544,14
4939172,14
4939804,14
4940424,15
4941052,16
4941676,17
4942308,17
4942936,20
4943560,24
4944188,21
4944812,23
4945436,23
4946068,13
4946688,11
4947316,11
4947940,14
4948564,15
4949196,16
4949816,15
4950448,12
4951076,12
4951696,11
4952328,11
4952952,14
4953580,15
4954212,14
4954832,13
4955464,14
4956088,15
4956712,18
4957344,21
4957960,21
4958592,20
4959216,15
4959840,17
4960472,17
4961096,13
4961724,11
4962356,10
4962976,12
4963604,12
4964228,15
4964860,14
4965488,14
4966112,15
4966744,15
4967364,14
4967988,19
4968620,10
4969240,11
4969868,11
4970492,12
4971120,13
4971752,16
4972376,13
4973004,15
4973636,14
4974256,15
4974884,15
4975508,24
4976136,26
4976764,20
4977384,17
4978012,19
4978636,15
4979260,11
4979892,10
4980512,13
4981140,15
4981772,16
4982392,21
4983024,27
4983648,22
4984280,12
4984908,19
4985528,19
4986160,15
4986784,13
4987408,11
4988036,12
4988656,11
4989288,15
4989912,15
4990536,17
4991168,17
4991788,16
4992420,16
4993048,17
4993668,18
4994296,17
4994920,13
4995548,12
4996180,12
4996800,12
4997428,14
4998052,13
4998676,15
4999308,14
4999928,15
5000556,11
5001184,11
5001808,12
5002436,11
5003056,13
5003684,13
5004316,12
5004936,11
5005564,11
5006192,15
5006820,14
5007452,14
5008072,17
5008700,12
5009324,12
5009948,14
5010580,16
5011200,19
5011828,16
5012456,12
5013080,11
5013712,11
5014328,13
5014960,13
5015592,15
5016212,14
5016840,14
5017468,10
5018096,11
5018728,15
5019344,11
5019976,11
5020600,14
5021224,14
5021856,12
5022472,16
5023104,14
5023728,16
5024352,17
5024980,17
5025604,12
5026236,11
5026868,12
5027488,15
5028120,16
5028744,17
5029372,16
5030004,14
5030624,14
5031256,15
5031880,15
5032504,16
5033136,17
5033752,11
5034384,13
5035016,13
5035632,11
5036264,11
5036888,12
5037516,13
5038148,12
5038768,15
5039400,18
5040024,15
5040648,17
5041276,19
5041896,22
5042528,25
5043152,19
5043776,15
5044408,13
5045028,14
5045656,13
5046288,12
5046904,10
5047536,15
5048160,15
5048792,17
5049420,15
5050040,15
5050672,11
5051296,12
5051920,11
5052552,11
5053172,11
5053800,15
5054428,15
5055052,14
5055684,14
5056304,15
5056936,17
5057568,17
5058184,17
5058816,16
5059440,17
5060068,20
5060700,18
5061320,15
5061952,12
5062576,11
5063200,11
5063832,11
5064448,15
5065080,15
5065704,15
5066328,14
5066960,12
5067576,11
5068208,12
5068840,12
5069464,12
5070096,11
5070720,12
5071348,13
5071980,13
5072600,15
5073232,15
5073856,15
5074480,15
5075112,16
5075732,17
5076360,17
5076988,20
5077616,17
5078248,16
5078872,18
5079504,14
5080136,12
5080756,14
5081384,15
5082012,15
5082636,15
5083268,14
5083888,11
5084520,11
5085144,12
5085768,15
5086400,11
5087016,15
5087648,18
5088280,18
5088896,15
5089528,15
5090152,15
5090784,17
5091416,15
5092032,10
5092664,15
5093288,18
5093912,19
5094544,20
5095164,14
5095792,10
5096420,11
5097044,11
5097676,17
5098296,14
5098928,15
5099560,15
5100176,12
5100808,11
5101432,11
5102064,11
5102696,11
5103316,11
5103948,12
5104572,14
5105200,13
5105832,15
5106452,15
5107084,15
5107708,14
5108336,14
5108968,11
5109596,15
5110228,15
5110860,12
5111480,12
5112112,12
5112740,12
5113368,12
5114000,16
5114620,16
5115252,15
5115876,15
5116504,16
5117136,11
5117756,11
5118388,11
5119024,11
5119644,12
5120276,11
5120900,11
5121528,13
5122156,10
5122776,15
5123404,14
5124024,14
5124648,15
5125276,10
5125896,13
5126524,18
5127148,15
5127772,14
5128400,15
5129016,16
5129644,15
5130272,14
5130896,15
5131524,15
5132148,15
5132776,15
5133408,13
5134024,11
5134652,11
5135276,11
5135900,11
5136532,12
5137152,13
5137780,13
5138404,12
5139028,15
5139660,16
5140280,15
5140908,15
5141540,16
5142160,19
5142788,15
5143412,13
5144044,12
5144672,13
5145292,11
5145920,11
5146544,12
5147168,17
5147796,14
5148416,17
5149044,14
5149668,15
5150292,11
5150924,10
5151544,12
5152172,11
5152804,10
5153424,12
5154052,15
5154676,12
5155308,12
5155936,15
5156556,15
5157184,15
5157808,16
5158432,13
5159064,13
5159680,15
5160312,15
5160936,15
5161560,12
5162188,10
5162808,11
5163436,11
5164068,14
5164688,15
5165316,15
5165940,15
5166572,16
5167204,13
5167824,17
5168456,11
5169076,13
5169700,12
5170332,10
5170952,12
5171584,13
5172208,13
5172828,15
5173460,15
5174084,17
5174712,19
5175344,18
5175960,14
5176592,16
5177216,13
5177844,11
5178476,12
5179096,11
5179728,12
5180352,17
5180976,18
5181604,14
5182224,15
5182852,15
5183480,12
5184104,11
5184732,11
5185356,11
5185984,11
5186616,12
5187232,14
5187860,13
5188484,14
5189116,15
5189748,14
5190368,15
5191000,16
5191624,15
5192248,14
5192876,14
5193496,16
5194128,19
5194756,17
5195376,20
5196008,15
5196632,11
5197264,13
5197892,14
5198512,15
5199144,16
5199768,15
5200392,11
5201020,11
5201640,12
5202268,11
5202892,11
5203516,12
5204148,13
5204768,14
5205396,11
5206028,14
5206648,16
5207276,15
5207900,17
5208532,16
5209164,14
5209784,15
5210412,14
5211036,15
5211660,15
5212292,10
5212912,11
5213540,11
5214168,13
5214792,15
5215420,15
5216040,15
5216668,13
5217300,14
5217920,15
5218548,12
5219176,11
5219804,11
5220436,11
5221056,14
5221688,18
5222312,21
5222936,18
5223568,16
5224184,16
5224816,18
5225440,13
5226064,12
5226692,12
5227312,13
5227944,16
5228572,16
5229192,15
5229824,11
5230448,11
5231076,15
5231708,14
5232328,16
5232956,16
5233584,13
5234208,10
5234840,10
5235456,11
5236088,12
5236712,11
5237336,11
5237968,12
5238584,13
5239216,15
5239844,15
5240464,15
5241092,15
5241720,14
5242348,13
5242980,16
5243600,16
5244228,15
5244852,14
5245472,13
5246104,11
5246720,11
5247348,15
5247972,14
5248596,15
5249228,14
5249848,16
5250476,11
5251104,11
5251720,10
5252352,11
5252976,12
5253604,12
5254232,11
5254852,12
5255480,13
5256104,15
5256724,15
5257356,16
5257976,17
5258604,15
5259228,16
5259852,14
5260480,12
5261096,11
5261728,13
5262356,11
5262976,14
5263604,14
5264228,15
5264856,14
5265488,15
5266104,16
5266732,13
5267356,12
5267980,12
5268612,14
5269232,24
5269860,25
5270484,17
5271108,12
5271736,12
5272360,17
5272988,16
5273620,22
5274236,25
5274868,25
5275492,27
5276124,18
5276752,10
5277372,15
5278000,20
5278624,22
5279248,25
5279876,18
5280496,16
5281124,14
5281748,16
5282372,15
5283000,15
5283620,13
5284248,13
5284876,10
5285496,11
5286124,11
5286748,11
5287376,14
5288004,14
5288620,11
5289252,15
5289876,15
5290500,15
5291132,20
5291752,15
5292380,14
5293004,13
5293628,14
5294260,12
5294880,16
5295508,15
5296140,12
5296760,12
5297388,15
5298012,14
5298640,14
5299272,15
5299888,13
5300516,11
5301140,11
5301764,11
5302396,10
5303016,13
5303648,16
5304272,13
5304896,13
5305524,14
5306144,16
5306772,16
5307404,15
5308024,17
5308652,17
5309276,17
5309908,17
5310540,13
5311160,13
5311792,14
5312416,12
5313040,11
5313668,11
5314288,15
5314916,15
5315540,15
5316164,15
5316796,10
5317416,11
5318048,11
5318676,10
5319296,11
5319924,12
5320552,13
5321180,12
5321812,10
5322432,15
5323060,15
5323688,16
5324312,17
5324944,15
5325560,13
5326188,14
5326812,15
5327432,13
5328060,14
5328676,13
5329308,13
5329936,12
5330552,15
5331180,15
5331804,15
5332436,15
5333064,15
5333688,11
5334316,11
5334940,11
5335564,11
5336196,11
5336816,12
5337444,11
5338068,12
5338692,11
5339320,14
5339944,15
5340572,17
5341204,16
5341824,15
5342452,14
5343076,17
5343708,15
5344340,15
5344960,16
5345588,13
5346212,12
5346836,12
5347464,14
5348088,16
5348716,15
5349340,16
5349964,13
5350596,10
5351216,11
5351844,11
5352476,10
5353096,15
5353724,17
5354348,22
5354980,26
5355612,20
5356232,17
5356860,21
5357484,22
5358108,24
5358740,23
5359360,20
5359988,23
5360616,21
5361240,25
5361868,26
5362488,18
5363116,12
5363748,19
5364368,27
5364996,18
5365620,19
5366252,27
5366884,14
5367504,11
5368132,11
5368756,12
5369380,11
5370012,14
5370632,17
5371264,19
5371888,17
5372512,17
5373140,16
5373764,15
5374396,20
5375028,18
5375648,18
5376280,16
5376900,11
5377532,11
5378160,19
5378776,24
5379408,21
5380028,15
5380652,16
5381284,14
5381904,15
5382532,17
5383156,14
5383780,11
5384408,11
5385032,10
5385664,11
5386292,10
5386912,13
5387540,13
5388164,13
5388792,14
5389424,15
5390044,15
5390672,15
5391296,17
5391920,19
5392548,16
5393168,17
5393796,14
5394420,13
5395044,13
5395676,13
5396300,12
5396932,11
5397560,14
5398184,15
5398812,15
5399440,15
5400068,12
5400700,10
5401320,12
5401952,12
5402572,13
5403196,13
5403828,14
5404448,13
5405076,11
5405708,16
5406328,16
5406960,17
5407580,16
5408212,19
5408840,21
5409456,19
5410088,16
5410708,13
5411336,13
5411964,14
5412584,13
5413212,11
5413836,15
5414460,14
5415092,14
5415712,15
5416340,15
5416972,10
5417592,11
5418220,12
5418848,11
5419476,11
5420108,14
5420728,17
5421360,19
5421984,20
5422608,15
5423236,15
5423856,16
5424488,15
5425112,12
5425736,17
5426368,18
5426984,15
5427616,18
5428244,22
5428864,24
5429492,23
5430116,19
5430748,17
5431376,14
5431992,15
5432624,14
5433248,12
5433872,12
5434504,14
5435124,13
5435752,10
5436380,14
5437004,12
5437632,11
5438256,14
5438884,16
5439516,14
5440136,14
5440764,15
5441388,17
5442016,15
5442644,19
5443264,19
5443892,16
5444516,13
5445140,16
5445768,15
5446384,12
5447016,14
5447640,16
5448264,16
5448892,14
5449512,15
5450140,12
5450772,12
5451392,12
5452020,11
5452644,14
5453276,16
5453904,14
5454524,17
5455152,15
5455776,15
5456400,15
5457028,23
5457648,28
5458276,23
5458900,18
5459524,17
5460152,16
5460776,15
5461404,13
5462036,12
5462656,11
5463284,11
5463908,17
5464540,15
5465168,14
5465792,18
5466420,14
5467044,23
5467668,17
5468300,10
5468920,13
5469548,11
5470172,19
5470796,26
5471428,27
5472048,18
5472676,29
5473308,24
5473928,21
5474556,18
5475184,18
5475812,21
5476444,18
5477064,19
5477696,15
5478320,11
5478944,11
5479572,10
5480192,15
5480820,17
5481444,15
5482068,14
5482700,18
5483320,25
5483948,19
5484580,14
5485200,29
5485828,11
5486452,17
5487084,13
5487716,13
5488336,14
5488964,19
5489588,19
5490212,15
5490844,16
5491464,11
5492092,10
5492716,20
5493340,24
5493972,15
5494596,14
5495228,17
5495856,11
5496476,19
5497108,23
5497732,19
5498360,20
5498992,24
5499612,20
5500240,12
5500864,10
5501492,13
5502120,10
5502744,13
5503376,13
5504004,11
5504624,11
5505252,13
5505876,15
5506508,15
5507140,14
5507760,17
5508392,13
5509016,13
5509640,15
5510268,13
5510888,15
5511516,13
5512144,11
5512768,11
5513400,11
5514016,14
5514648,16
5515276,16
5515896,15
5516528,13
5517152,11
5517784,13
5518412,14
5519032,13
5519664,13
5520288,16
5520912,17
5521540,14
5522160,15
5522788,15
5523416,17
5524040,20
5524668,18
5525288,19
5525916,19
5526548,14
5527168,11
5527800,13
5528424,13
5529056,11
5529684,10
5530304,15
5530932,14
5531556,16
5532180,17
5532808,16
5533432,12
5534060,10
5534688,12
5535312,12
5535944,11
5536560,14
5537192,12
5537820,11
5538440,13
5539068,17
5539696,17
5540324,20
5540956,16
5541576,11
5542208,11
5542832,15
5543456,23
5544088,30
5544704,20
5545336,17
5545960,15
5546584,12
5547212,13
5547832,15
5548464,15
5549092,14
5549712,13
5550344,11
5550968,11
5551600,11
5552228,10
5552848,11
5553476,14
5554104,11
5554728,13
5555360,18
5555976,17
5556608,15
5557232,16
5557856,15
5558488,11
5559112,12
5559744,12
5560372,10
5560992,14
5561620,13
5562244,11
5562876,13
5563508,22
5564128,20
5564760,17
5565384,15
5566008,15
5566640,11
5567260,11
5567892,10
5568524,10
5569144,11
5569776,11
5570400,14
5571032,15
5571660,14
5572280,16
5572908,15
5573532,15
5574160,19
5574788,16
5575408,16
5576040,15
5576660,14
5577284,17
5577916,16
5578536,12
5579168,11
5579796,10
5580416,15
5581048,17
5581672,17
5582300,15
5582932,14
5583552,12
5584184,11
5584808,15
5585428,22
5586060,22
5586680,16
5587308,11
5587936,13
5588560,13
5589188,14
5589808,15
5590440,15
5591068,16
5591688,18
5592316,19
5592944,24
5593572,21
5594204,14
5594824,14
5595456,11
5596080,10
5596704,11
5597336,14
5597952,15
5598584,15
5599212,16
5599836,12
5600468,11
5601092,13
5601724,11
5602352,11
5602972,12
5603600,15
5604224,12
5604852,13
5605484,16
5606104,15
5606736,15
5607356,15
5607984,16
5608612,16
5609232,19
5609860,18
5610484,21
5611108,18
5611740,16
5612364,14
5612996,12
5613624,14
5614244,15
5614872,16
5615496,17
5616128,15
5616756,26
5617376,22
5618004,14
5618628,10
5619252,12
5619884,12
5620504,13
5621132,12
5621760,14
5622384,16
5623016,15
5623640,17
5624272,16
5624900,11
5625520,17
5626152,25
5626776,24
5627400,20
5628032,20
5628648,13
5629280,11
5629904,13
5630528,15
5631160,16
5631780,19
5632412,19
5633040,13
5633656,12
5634284,13
5634908,12
5635536,12
5636168,10
5636784,13
5637412,11
5638036,13
5638664,17
5639292,14
5639912,16
5640540,17
5641164,16
5641788,11
5642420,10
5643040,14
5643668,16
5644300,16
5644920,19
5645548,13
5646172,11
5646804,10
5647432,14
5648048,14
5648680,15
5649304,15
5649928,12
5650556,14
5651176,16
5651808,12
5652432,11
5653056,12
5653684,18
5654304,22
5654932,25
5655564,28
5656184,20
5656812,17
5657436,21
5658068,25
5658700,23
5659320,27
5659948,28
5660572,23
5661200,21
5661828,14
5662448,13
5663076,14
5663700,15
5664328,14
5664956,15
5665576,16
5666204,13
5666836,12
5667456,12
5668084,13
5668708,11
5669340,11
5669972,19
5670592,15
5671220,16
5671844,14
5672472,15
5673100,15
5673720,17
5674348,17
5674972,25
5675600,27
5676228,18
5676848,21
5677476,20
5678108,10
5678728,11
5679356,11
5679984,11
5680616,18
5681244,14
5681864,17
5682496,18
5683120,11
5683744,12
5684372,12
5684992,11
5685620,15
5686244,17
5686868,18
5687500,14
5688120,15
5688748,16
5689380,16
5690000,16
5690628,17
5691256,19
5691884,19
5692516,14
5693136,17
5693768,13
5694392,11
5695016,9
5695596,13
5696220,20
5696852,21
5697476,27
5698096,22
5698728,15
5699344,14
5699976,11
5700600,12
5701224,15
5701852,14
5702480,12
5703108,14
5703740,12
5704360,14
5704988,15
5705612,14
5706244,14
5706872,14
5707496,16
5708128,14
5708752,14
5709376,11
5710008,16
5710628,15
5711256,16
5711888,17
5712512,15
5713144,20
5713768,16
5714400,15
5715028,18
5715648,20
5716280,15
5716904,11
5717528,16
5718160,12
5718780,10
5719412,13
5720036,16
5720660,16
5721292,14
5721912,15
5722544,15
5723176,16
5723796,21
5724428,19
5725052,13
5725680,11
5726312,14
5726936,23
5727568,20
5728196,16
5728820,11
5729452,10
5730072,12
5730704,15
5731336,14
5731956,15
5732584,15
5733212,11
5733844,12
5734476,14
5735096,11
5735724,12
5736348,11
5736972,13
5737600,16
5738216,12
5738848,15
5739472,15
5740096,16
5740724,16
5741344,16
5741972,13
5742604,15
5743224,14
5743852,11
5744480,12
5745108,11
5745740,13
5746360,16
5746988,17
5747616,14
5748240,15
5748868,16
5749488,14
5750116,12
5750744,13
5751368,11
5751996,11
5752616,12
5753248,13
5753880,15
5754496,15
5755128,15
5755752,15
5756384,16
5757012,16
5757632,29
5758264,29
5758888,26
5759512,27
5760144,23
5760760,19
5761388,15
5762012,11
5762636,11
5763264,12
5763880,15
5764512,16
5765140,14
5765760,15
5766388,15
5767012,19
5767640,13
5768272,11
5768888,12
5769520,15
5770144,17
5770768,18
5771396,14
5772016,15
5772644,25
5773268,31
5773892,24
5774524,14
5775144,11
5775776,13
5776404,11
5777024,13
5777652,17
5778276,14
5778904,11
5779536,11
5780152,15
5780784,15
5781408,16
5782032,15
5782660,14
5783280,12
5783908,13
5784536,13
5785160,11
5785788,10
5786408,12
5787036,11
5787664,11
5788288,12
5788916,15
5789540,15
5790172,16
5790800,14
5791424,11
5792052,13
5792676,19
5793300,19
5793932,17
5794552,17
5795184,13
5795808,12
5796432,12
5797060,14
5797680,15
5798308,15
5798940,16
5799560,13
5800188,11
5800812,13
5801444,12
5802072,15
5802696,13
5803328,12
5803952,10
5804576,13
5805208,15
5805824,15
5806456,15
5807080,15
5807704,17
5808332,24
5808952,25
5809580,22
5810212,24
5810832,26
5811464,17
5812088,11
5812716,12
5813348,11
5813968,15
5814600,14
5815224,15
5815848,17
5816480,19
5817096,17
5817724,11
5818348,11
5818972,12
5819604,16
5820228,19
5820860,19
5821488,20
5822108,15
5822740,15
5823364,16
5823992,20
5824624,26
5825248,27
5825876,24
5826504,21
5827128,21
5827756,14
5828376,15
5829004,13
5829632,12
5830256,17
5830888,17
5831512,17
5832144,15
5832772,15
5833392,16
5834024,13
5834648,11
5835272,11
5835904,14
5836524,15
5837152,13
5837776,15
5838400,14
5839032,15
5839652,15
5840280,17
5840908,19
5841528,24
5842156,25
5842780,25
5843412,22
5844044,20
5844664,17
5845292,15
5845916,12
5846544,11
5847172,16
5847792,19
5848424,15
5849044,15
5849668,11
5850300,12
5850920,13
5851548,13
5852180,10
5852800,12
5853428,13
5854056,11
5854684,12
5855316,15
5855936,14
5856568,15
5857196,15
5857820,13
5858448,12
5859072,13
5859704,16
5860328,19
5860952,15
5861584,11
5862200,10
5862832,11
5863464,16
5864080,16
5864712,19
5865336,15
5865968,16
5866596,12
5867216,12
5867848,11
5868472,11
5869096,12
5869728,12
5870344,11
5870976,12
5871600,12
5872224,15
5872856,16
5873480,15
5874108,16
5874740,16
5875360,19
5875992,21
5876616,23
5877248,19
5877876,14
5878496,11
5879128,11
5879752,11
5880376,14
5881008,16
5881628,15
5882256,15
5882888,12
5883508,11
5884140,10
5884764,11
5885396,11
5886028,10
5886648,15
5887280,23
5887904,15
5888532,17
5889160,19
5889784,17
5890412,15
5891036,14
5891664,13
5892292,12
5892912,10
5893544,13
5894172,25
5894792,25
5895424,15
5896048,11
5896676,14
5897308,14
5897928,15
5898560,15
5899180,15
5899808,12
5900436,11
5901056,11
5901684,11
5902308,12
5902932,13
5903564,10
5904184,11
5904812,11
5905444,14
5906064,18
5906692,21
5907320,20
5907948,11
5908580,14
5909200,14
5909828,12
5910452,10
5911080,9
5911656,11
5912280,17
5912912,13
5913536,15
5914160,15
5914788,15
5915408,15
5916040,15
5916664,13
5917288,14
5917920,15
5918544,13
5919176,11
5919804,11
5920424,14
5921052,15
5921676,15
5922308,15
5922936,15
5923560,15
5924188,16
5924812,14
5925436,18
5926068,23
5926688,20
5927316,27
5927948,31
5928568,26
5929196,14
5929824,12
5930452,17
5931084,17
5931704,15
5932336,15
5932960,13
5933584,12
5934216,11
5934832,16
5935464,19
5936088,15
5936712,13
5937344,11
5937960,11
5938592,17
5939224,17
5939840,18
5940468,21
5941092,21
5941724,19
5942352,15
5942976,13
5943604,11
5944232,11
5944856,9
5945432,12
5946056,11
5946684,15
5947308,15
5947936,15
5948564,15
5949184,15
5949816,12
5950440,11
5951064,12
5951692,16
5952312,15
5952944,13
5953572,22
5954192,29
5954824,15
5955448,19
5956076,19
5956708,26
5957328,20
5957956,15
5958584,14
5959208,17
5959836,16
5960456,20
5961084,20
5961708,16
5962336,12
5962964,11
5963588,14
5964220,14
5964852,14
5965472,15
5966100,12
5966724,12
5967356,12
5967988,15
5968608,17
5969240,12
5969864,11
5970488,12
5971116,11
5971736,18
5972368,16
5973000,16
5973616,16
5974248,16
5974872,17
5975504,19
5976136,17
5976752,14
5977384,11
5978008,10
5978632,12
5979264,25
5979884,19
5980516,16
5981140,18
5981764,14
5982396,20
5983016,17
5983648,11
5984280,11
5984896,12
5985528,17
5986152,16
5986784,15
5987412,12
5988032,12
5988664,15
5989288,16
5989912,16
5990544,15
5991160,11
5991792,12
5992416,13
5993040,13
5993668,16
5994288,13
5994920,11
5995548,10
5996168,11
5996796,15
5997424,15
5998056,15
5998688,14
5999304,17
5999936,13
6000564,12
6001188,12
6001820,10
6002440,13
6003068,19
6003696,17
6004320,15
6004948,15
6005576,17
6006204,23
6006836,22
6007456,18
6008088,15
6008712,13
6009340,11
6009972,11
6010592,13
6011224,13
6011848,11
6012472,15
6013104,18
6013724,16
6014352,14
6014984,15
6015608,15
6016240,11
6016864,14
6017496,17
6018124,13
6018744,13
6019372,11
6020000,16
6020624,14
6021252,12
6021872,17
6022500,16
6023128,15
6023752,16
6024380,14
6025000,15
6025628,18
6026260,17
6026880,17
6027508,13
6028136,13
6028768,14
6029396,12
6030016,15
6030648,15
6031272,16
6031896,17
6032528,15
6033148,11
6033780,11
6034404,13
6035028,11
6035660,12
6036280,14
6036912,11
6037544,11
6038160,12
6038792,16
6039420,16
6040052,18
6040680,16
6041304,14
6041936,19
6042560,21
6043184,13
6043816,10
6044432,11
6045064,11
6045688,15
6046312,13
6046944,16
6047568,15
6048200,15
6048828,18
6049448,16
6050076,16
6050704,13
6051336,11
6051964,10
6052584,11
6053216,11
6053840,11
6054464,12
6055092,15
6055712,16
6056344,21
6056972,21
6057592,20
6058224,13
6058848,11
6059480,13
6060112,15
6060732,15
6061364,13
6061988,11
6062616,11
6063244,14
6063864,15
6064496,15
6065120,19
6065744,17
6066376,10
6066996,15
6067624,12
6068256,13
6068876,15
6069504,14
6070132,11
6070760,13
6071392,12
6072012,16
6072644,16
6073268,15
6073892,15
6074524,12
6075144,14
6075776,22
6076400,20
6077024,15
6077656,17
6078280,14
6078912,11
6079544,11
6080164,14
6080792,14
6081416,16
6082048,17
6082676,14
6083296,13
6083924,11
6084548,11
6085172,12
6085804,10
6086424,12
6087052,11
6087676,12
6088304,15
6088936,17
6089560,18
6090192,19
6090824,17
6091440,12
6092072,12
6092696,18
6093320,18
6093952,14
6094572,13
6095200,12
6095828,15
6096452,13
6097084,14
6097704,15
6098336,15
6098964,15
6099584,12
6100216,12
6100840,12
6101468,12
6102100,14
6102720,19
6103352,20
6103976,21
6104600,15
6105232,14
6105852,15
6106484,17
6107108,23
6107732,21
6108364,18
6108984,18
6109616,18
6110244,17
6110864,19
6111496,15
6112120,11
6112752,11
6113380,14
6114000,15
6114632,15
6115256,15
6115880,14
6116512,11
6117128,11
6117760,11
6118388,11
6119012,12
6119644,13
6120272,15
6120900,14
6121532,15
6122152,15
6122784,18
6123412,21
6124040,17
6124672,13
6125292,13
6125920,15
6126548,18
6127172,22
6127804,22
6128424,18
6129056,11
6129688,12
6130308,14
6130940,19
6131568,19
6132196,15
6132828,10
6133448,11
6134080,11
6134704,11
6135328,10
6135960,12
6136588,18
6137220,19
6137844,13
6138468,15
6139100,16
6139728,17
6140360,19
6140992,15
6141612,17
6142244,18
6142872,18
6143496,19
6144132,18
6144752,14
6145380,10
6146004,11
6146624,15
6147256,16
6147872,18
6148500,16
6149132,14
6149752,11
6150380,14
6151004,11
6151636,13
6152268,19
6152888,30
6153516,24
6154144,16
6154768,14
6155396,22
6156016,25
6156644,21
6157272,19
6157896,16
6158524,22
6159144,26
6159776,18
6160404,14
6161024,21
6161652,22
6162276,17
6162908,15
6163536,15
6164156,16
6164784,21
6165408,20
6166032,12
6166664,12
6167284,15
6167912,11
6168536,11
6169160,12
6169792,17
6170408,17
6171036,17
6171668,16
6172288,16
6172916,16
6173540,17
6174172,14
6174804,18
6175424,22
6176056,25
6176676,21
6177300,14
6177932,10
6178552,12
6179184,11
6179808,14
6180432,17
6181064,16
6181680,15
6182312,15
6182944,11
6183560,12
6184192,13
6184816,12
6185448,11
6186076,12
6186696,14
6187328,12
6187952,11
6188576,15
6189208,15
6189824,17
6190456,15
6191080,13
6191704,13
6192336,16
6192952,14
6193584,12
6194216,11
6194836,11
6195468,12
6196092,14
6196720,14
6197348,15
6197968,16
6198600,16
6199224,13
6199848,10
6200480,10
6201096,12
6201728,13
6202352,14
6202976,16
6203608,13
6204232,13
6204864,15
6205492,16
6206112,17
6206744,16
6207368,15
6208000,11
6208628,15
6209248,24
6209876,19
6210504,15
6211128,14
6211760,11
6212376,10
6213008,15
6213640,18
6214256,17
6214888,16
6215512,15
6216144,12
6216776,10
6217392,10
6218024,11
6218648,14
6219272,14
6219904,11
6220524,12
6221156,14
6221780,15
6222404,15
6223036,15
6223656,15
6224288,14
6224920,17
6225540,20
6226172,14
6226796,11
6227424,11
6228056,11
6228672,10
6229304,11
6229928,14
6230552,15
6231184,16
6231800,21
6232432,17
6233056,11
6233680,14
6234308,14
6234928,16
6235560,15
6236188,12
6236808,13
6237436,20
6238064,20
6238696,15
6239324,19
6239944,23
6240576,20
6241200,18
6241828,18
6242456,22
6243076,22
6243708,17
6244332,14
6244956,11
6245588,12
6246212,13
6246844,14
6247472,15
6248096,16
6248724,16
6249348,19
6249980,17
6250608,10
6251232,13
6251860,16
6252488,19
6253112,17
6253740,13
6254360,13
6254992,20
6255620,25
6256240,23
6256868,18
6257492,17
6258124,21
6258756,28
6259376,24
6260004,16
6260628,15
6261256,13
6261884,10
6262504,11
