tempo_arduino_micro_s,valor_ADC
500,15
1004,13
1504,10
2000,12
2508,17
3000,17
3508,15
4000,14
4508,13
5000,14
5500,10
6000,10
6500,10
7004,10
7500,12
8000,14
8500,12
9000,11
9500,13
10000,18
10516,13
11036,14
11564,17
12084,17
12612,16
13132,19
13660,18
14180,14
14708,10
15228,13
15756,14
16276,11
16796,13
17316,14
17836,15
18356,16
18876,17
19396,14
19916,13
20436,13
20956,15
21476,17
21996,14
22516,10
23036,10
23564,13
24084,20
24612,22
25132,19
25660,15
26180,11
26708,14
27228,16
27756,16
28276,17
28804,16
29324,18
29852,13
30372,11
30900,15
31420,14
31948,10
32472,11
32996,16
33516,16
34044,16
34564,16
35092,16
35612,17
36140,16
36660,16
37188,15
37708,14
38236,12
38760,10
39284,10
39804,10
40332,10
40852,10
41372,10
41892,10
42412,11
42932,11
43452,11
43972,13
44492,14
45012,16
45532,16
46052,14
46572,11
47092,15
47612,14
48140,15
48660,15
49188,13
49708,10
50236,14
50756,12
51284,12
51804,16
52332,19
52852,16
53380,15
53900,17
54428,17
54948,12
55476,11
55996,10
56524,10
57044,11
57572,10
58096,10
58620,12
59140,12
59668,10
60188,10
60716,12
61240,13
61764,12
62284,14
62812,16
63332,11
63860,11
64384,11
64908,10
65428,11
65948,14
66468,11
66988,11
67508,11
68028,14
68548,13
69068,15
69588,17
70108,18
70628,19
71148,17
71668,11
72192,10
72716,11
73236,11
73764,13
74284,12
74812,12
75332,10
75860,10
76384,11
76908,12
77428,13
77956,13
78476,14
79004,13
79528,14
80052,14
80572,12
81100,10
81620,10
82148,10
82668,11
83196,10
83720,11
84244,12
84764,12
85292,13
85812,13
86340,13
86860,15
87388,19
87908,22
88436,23
88956,17
89484,12
90004,10
90524,10
91044,10
91564,10
92084,11
92604,12
93124,11
93644,12
94164,12
94684,13
95204,14
95724,15
96248,14
96764,10
97292,11
97812,12
98340,11
98860,10
99388,10
99908,11
100436,11
101000,13
101584,16
102156,20
102736,17
103304,14
103880,13
104456,14
105024,12
105600,13
106168,11
106744,9
107260,10
107840,18
108408,17
108984,11
109552,11
110120,17
110704,18
111276,18
111856,16
112428,14
113008,12
113576,10
114144,11
114728,11
115296,14
115880,12
116448,11
117024,16
117592,21
118176,25
118744,27
119320,21
119904,15
120476,13
121056,14
121624,14
122208,11
122776,11
123356,10
123936,11
124504,11
125088,11
125656,11
126240,12
126808,13
127392,13
127964,14
128540,13
129120,14
129688,12
130264,10
130832,12
131408,13
131976,14
132560,11
133136,11
133704,12
134280,11
134848,14
135432,17
136000,19
136584,18
137152,16
137728,14
138312,10
138880,11
139464,15
140032,11
140616,16
141188,23
141768,17
142344,11
142916,11
143496,13
144064,16
144648,14
145216,13
145792,13
146360,11
146936,10
147520,11
148088,12
148672,11
149240,11
149824,11
150392,11
150976,12
151560,17
152132,22
152712,18
153284,15
153864,15
154432,18
155016,16
155584,16
156160,15
156744,11
157316,10
157896,11
158468,12
159048,15
159616,15
160200,15
160776,17
161344,17
161928,14
162496,14
163080,11
163652,13
164232,13
164800,12
165368,13
165944,16
166512,16
167096,14
167664,15
168240,15
168808,15
169384,17
169952,19
170528,20
171104,17
171676,11
172256,12
172824,13
173408,10
173976,11
174556,12
175136,13
175704,12
176288,10
176856,11
177440,13
178008,13
178592,13
179160,14
179740,11
180320,11
180888,11
181472,11
182040,11
182624,11
183192,12
183772,11
184352,13
184920,12
185496,15
186064,14
186648,13
187216,14
187800,14
188368,15
188944,13
189528,11
190096,16
190680,12
191252,12
191832,12
192404,12
192976,13
193552,14
194124,12
194704,14
195272,13
195856,13
196424,17
197008,19
197576,15
198156,15
198736,14
199304,14
199888,15
200456,13
201040,12
201608,14
202192,16
202768,15
203340,15
203920,14
204492,13
205072,9
205588,10
206168,10
206736,11
207312,9
207828,10
208400,11
208984,11
209552,13
210128,11
210696,13
211272,17
211840,15
212424,13
213000,11
213568,11
214152,11
214724,11
215304,10
215872,11
216456,11
217024,13
217600,16
218184,18
218752,20
219336,18
219904,14
220488,13
221056,14
221640,11
222216,11
222788,11
223368,11
223936,11
224520,10
225096,12
225680,13
226248,9
226764,12
227344,15
227912,13
228496,14
229064,16
229648,13
230216,10
230800,10
231368,11
231944,11
232528,11
233096,11
233680,11
234248,11
234832,17
235404,25
235984,24
236560,19
237132,15
237712,14
238284,10
238864,11
239436,11
240016,9
240532,11
241104,11
241688,10
242256,11
242840,11
243412,12
243992,13
244564,13
245144,13
245716,14
246292,12
246872,11
247440,11
248024,11
248592,11
249176,10
249748,11
250320,15
250904,16
251472,18
252056,19
252628,18
253208,17
253780,19
254360,17
254932,12
255508,10
256088,10
256656,11
257240,11
257808,9
258332,14
258904,12
259488,11
260056,11
260632,13
261208,13
261776,13
262352,13
262924,11
263504,10
264076,10
264656,10
265232,10
265804,11
266384,11
266952,11
267536,16
268104,16
268688,15
269256,14
269832,15
270416,15
270984,16
271568,17
272136,15
272720,12
273288,11
273872,10
274448,11
275016,11
275600,10
276168,11
276752,10
277324,15
277904,17
278476,14
279048,15
279632,20
280204,19
280784,15
281356,12
281936,10
282504,12
283088,13
283664,14
284236,11
284816,14
285384,19
285968,19
286540,16
287120,13
287688,14
288264,11
288848,11
289416,9
289940,10
290512,10
291096,11
291668,11
292248,9
292764,10
293340,11
293920,16
294492,21
295072,18
295644,17
296224,17
296796,11
297376,13
297948,16
298520,17
299104,18
299676,18
300256,16
300828,15
301408,15
301980,17
302556,16
303136,15
303708,14
304288,16
304860,14
305440,10
306012,11
306592,10
307164,11
307740,9
308268,11
308840,14
309424,11
309996,13
310576,13
311148,14
311728,13
312300,13
312876,12
313456,10
314028,11
314608,11
315180,10
315760,11
316340,11
316916,12
317496,11
318068,12
318648,15
319220,16
319800,15
320380,14
320960,15
321528,19
322096,17
322680,10
323248,11
323832,13
324404,16
324984,15
325552,11
326132,12
326712,12
327284,13
327864,15
328432,22
329016,20
329584,12
330160,11
330728,11
331304,11
331888,14
332456,16
333040,11
333608,13
334184,13
334752,14
335328,19
335912,19
336484,19
337064,15
337632,14
338216,10
338784,10
339368,10
339936,9
340452,10
341032,11
341600,13
342184,10
342756,14
343336,15
343908,13
344488,15
345056,18
345636,16
346216,12
346788,11
347368,11
347936,11
348520,11
349088,14
349664,15
350248,14
350820,13
351400,14
351972,19
352552,16
353132,15
353712,15
354280,15
354856,11
355440,11
356012,11
356592,11
357164,11
357744,10
358316,13
358892,12
359472,14
360044,18
360624,17
361192,13
361776,13
362344,15
362928,12
363496,11
364076,11
364656,11
365228,11
365808,11
366376,12
366960,13
367532,12
368108,12
368688,18
369256,22
369840,25
370408,27
370992,21
371564,16
372144,13
372716,11
373292,10
373872,15
374444,14
375024,10
375596,10
376176,10
376756,10
377332,14
377912,13
378484,13
379064,14
379636,11
380216,11
380788,11
381368,11
381948,11
382524,11
383104,11
383676,13
384260,19
384832,22
385416,22
385988,18
386560,16
387144,15
387716,16
388296,13
388868,11
389448,9
389964,10
390544,13
391112,14
391692,13
392272,15
392844,16
393424,13
393996,12
394576,13
395148,14
395728,16
396312,12
396884,11
397464,14
398036,11
398616,11
399196,11
399776,14
400356,19
400928,19
401512,19
402084,21
402664,21
403236,18
403816,16
404388,19
404964,15
405544,12
406116,12
406696,12
407268,12
407848,10
408420,10
409000,11
409572,10
410148,11
410728,14
411296,13
411872,16
412440,16
413024,11
413592,11
414168,11
414752,12
415320,11
415904,10
416476,11
417056,12
417624,11
418208,13
418776,19
419352,15
419936,14
420504,17
421088,16
421656,11
422240,13
422808,16
423384,16
423968,10
424536,11
425120,12
425688,11
426272,10
426840,14
427424,13
427996,14
428572,14
429152,13
429724,11
430304,12
430872,11
431456,9
431976,10
432552,11
433132,11
433708,18
434288,22
434860,22
435440,23
436008,22
436592,15
437160,16
437736,14
438320,10
438892,14
439472,12
440044,11
440624,11
441192,14
441776,13
442344,11
442924,10
443504,15
444076,15
444656,13
445228,14
445808,14
446380,14
446956,15
447536,14
448108,11
448688,11
449256,11
449840,13
450408,14
450992,15
451560,17
452136,17
452720,15
453292,14
453872,14
454444,15
455024,11
455596,11
456172,13
456752,14
457324,11
457904,10
458476,11
459056,11
459628,13
460208,14
460780,14
461356,14
461936,14
462508,14
463088,11
463660,10
464240,12
464808,14
465384,14
465968,13
466536,13
467120,13
467692,12
468272,12
468844,16
469424,17
469996,18
470572,15
471152,14
471724,12
472304,10
472876,10
473456,12
474028,13
474600,16
475184,17
475756,11
476336,12
476908,15
477488,15
478060,18
478640,18
479220,15
479796,11
480376,13
480948,17
481528,13
482100,11
482680,12
483248,11
483824,14
484408,14
484980,19
485560,24
486132,26
486712,21
487292,18
487872,13
488444,11
489016,11
489600,12
490168,15
490752,13
491324,11
491904,11
492480,11
493056,12
493640,15
494208,14
494792,14
495364,13
495944,13
496516,12
497096,15
497672,12
498244,13
498824,10
499396,11
499976,10
500548,12
501128,12
501700,14
502276,19
502856,20
503428,23
504008,19
504576,16
505160,11
505732,12
506312,13
506888,11
507460,12
508040,12
508612,11
509192,11
509772,13
510352,13
510924,14
511500,14
512084,13
512652,13
513232,11
513800,11
514384,12
514952,11
515536,10
516112,10
516680,11
517264,14
517832,16
518416,18
518984,21
519568,15
520140,14
520712,14
521296,11
521864,10
522448,10
523016,11
523600,13
524168,18
524752,17
525328,17
525900,12
526480,11
527048,16
527632,13
528204,14
528784,14
529356,14
529932,13
530512,18
531084,16
531664,12
532236,11
532816,10
533384,11
533968,11
534544,11
535116,17
535696,18
536264,18
536848,15
537420,14
538000,12
538576,11
539152,11
539736,9
540256,11
540832,11
541400,11
541984,13
542556,14
543136,12
543708,18
544284,16
544864,14
545432,14
546016,14
546584,12
547168,13
547740,17
548316,17
548896,14
549468,17
550048,19
550620,19
551200,17
551772,17
552352,17
552932,14
553508,13
554088,12
554656,12
555240,9
555760,10
556336,12
556908,12
557488,14
558060,15
558636,14
559216,12
559788,15
560368,16
560948,19
561528,15
562100,14
562676,14
563256,12
563828,11
564408,15
564976,15
565560,10
566132,11
566712,11
567284,15
567860,21
568440,22
569008,19
569592,17
570164,15
570744,17
571316,15
571892,11
572472,13
573044,11
573624,10
574196,11
574776,12
575348,13
575928,11
576508,11
577084,12
577664,14
578232,14
578816,13
579384,14
579968,13
580540,11
581116,11
581696,10
582268,10
582848,11
583420,13
584000,11
584568,11
585152,15
585724,18
586300,23
586880,22
587452,19
588032,13
588604,10
589184,11
589764,10
590340,11
590920,13
591492,12
592072,12
592644,10
593224,11
593796,14
594376,15
594960,14
595532,14
596112,12
596684,11
597264,9
597784,10
598360,11
598940,11
599516,13
600096,15
600668,15
601248,12
601820,13
602400,13
602972,15
603552,14
604124,14
604700,10
605280,10
605852,11
606432,11
607012,10
607592,11
608172,11
608748,11
609328,11
609900,11
610480,13
611052,14
611632,18
612212,14
612792,12
613372,11
613952,11
614532,12
615100,12
615680,11
616248,11
616832,11
617404,15
617980,22
618560,21
619132,18
619712,14
620284,13
620864,17
621432,15
622016,13
622600,14
623172,15
623752,12
624328,11
624904,12
625476,13
626056,16
626628,15
627204,17
627784,16
628356,16
628936,15
629508,11
630088,10
630668,10
631248,14
631832,13
632404,11
632984,11
633556,11
634140,13
634716,16
635300,22
635876,22
636452,22
637032,24
637604,19
638184,15
638756,11
639336,11
639916,10
640492,11
641072,11
641640,15
642224,15
642796,14
643376,13
643944,13
644528,13
645096,14
645676,15
646256,14
646828,10
647408,12
647980,15
648560,20
649132,22
649708,17
650288,12
650856,11
651440,12
652012,16
652592,15
653164,15
653744,13
654316,13
654892,10
655472,11
656040,14
656624,16
657192,11
657776,11
658344,11
658920,11
659504,11
660072,12
660656,14
661224,14
661808,13
662376,14
662960,11
663532,11
664108,10
664688,11
665256,11
665840,13
666408,12
666984,15
667552,16
668128,19
668712,21
669284,17
669864,14
670436,14
671016,15
671588,13
672168,10
672736,9
673252,10
673832,11
674400,10
674984,12
675556,13
676136,9
676656,13
677232,17
677800,17
678376,14
678960,13
679528,11
680112,11
680680,11
681264,12
681832,15
682416,14
682984,13
683564,11
684144,16
684716,19
685296,21
685864,24
686448,23
687016,21
687596,15
688176,12
688744,10
689328,11
689900,13
690480,10
691052,10
691632,13
692212,16
692788,11
693368,15
693940,17
694520,13
695092,12
695672,13
696244,13
696820,14
697400,15
697972,18
698552,16
699124,12
699704,12
700276,13
700856,13
701428,17
702004,16
702584,14
703156,14
703736,17
704316,15
704896,11
705464,11
706044,11
706624,14
707196,15
707776,14
708348,12
708928,10
709500,15
710080,17
710664,14
711236,15
711816,14
712388,14
712968,11
713540,11
714120,11
714700,12
715276,11
715856,11
716428,13
717008,18
717584,18
718168,20
718740,20
719316,16
719896,14
720468,13
721048,11
721616,11
722200,10
722768,14
723352,17
723924,15
724500,11
725080,15
725652,11
726232,12
726804,15
727384,14
727956,15
728532,14
729112,13
729684,11
730264,11
730836,11
731416,12
731988,13
732568,14
733148,11
733724,12
734304,13
734876,12
735456,14
736036,13
736616,13
737188,13
737764,11
738344,11
738916,12
739496,14
740068,14
740648,11
741220,11
741800,9
742320,12
742892,11
743472,13
744044,13
744624,14
745196,14
745776,13
746348,14
746928,13
747500,11
748076,11
748656,21
749228,26
749808,23
750380,22
750960,20
751540,19
752116,21
752696,17
753268,17
753848,16
754420,13
755000,11
755580,18
756160,16
756744,16
757316,11
757896,11
758468,12
759048,11
759620,15
760200,15
760780,14
761356,14
761936,16
762508,17
763088,12
763668,11
764248,11
764828,11
765404,11
765984,17
766560,16
767136,16
767712,18
768292,16
768864,14
769448,15
770016,19
770596,19
771176,17
771748,13
772328,11
772900,11
773480,15
774052,14
774628,11
775208,10
775780,11
776360,12
776932,14
777512,14
778092,13
778672,14
779252,12
779828,11
780408,10
780980,13
781560,19
782132,16
782712,12
783284,15
783860,11
784440,16
785012,24
785592,15
786164,14
786744,15
787316,15
787896,15
788468,13
789044,11
789624,14
790196,12
790776,13
791356,13
791936,12
792516,10
793092,12
793672,20
794244,15
794824,13
795396,17
795976,25
796556,32
797136,27
797720,19
798296,17
798872,16
799448,19
800024,17
800600,13
801176,13
801748,13
802324,13
802904,13
803476,14
804056,17
804628,19
805208,16
805776,11
806356,10
806936,10
807508,18
808088,14
808660,12
809240,13
809812,11
810392,12
810964,15
811540,18
812120,14
812692,11
813272,11
813852,11
814432,14
815012,11
815588,13
816168,15
816740,19
817320,15
817892,12
818472,14
819052,13
819636,14
820208,14
820784,14
821360,13
821928,14
822512,14
823080,13
823664,11
824236,11
824808,10
825392,11
825960,11
826544,16
827112,14
827696,13
828264,14
828848,13
829416,11
829996,10
830576,10
831148,11
831728,11
832300,12
832880,11
833448,11
834024,11
834608,13
835176,22
835760,24
836328,25
836912,20
837484,19
838064,13
838636,11
839212,11
839792,10
840360,13
840944,13
841512,19
842096,23
842664,19
843240,13
843824,14
844396,15
844976,15
845544,15
846128,13
846696,16
847280,11
847852,11
848428,11
849008,15
849576,19
850160,17
850728,15
851312,11
851884,13
852456,14
853040,14
853612,14
854192,17
854764,20
855344,21
855916,20
856496,17
857076,11
857652,10
858232,11
858804,11
859384,11
859956,14
860536,15
861116,14
861692,14
862272,15
862844,14
863424,11
863996,11
864576,14
865156,13
865736,11
866312,11
866884,14
867464,17
868036,15
868616,16
869188,13
869768,13
870340,14
870916,13
871496,14
872068,19
872648,14
873216,11
873800,10
874372,10
874952,11
875528,10
876100,10
876680,13
877252,14
877832,13
878404,14
878984,13
879556,11
880132,11
880712,11
881284,11
881864,14
882436,14
883016,14
883588,14
884168,11
884744,14
885316,18
885896,17
886468,14
887048,17
887620,19
888200,13
888772,10
889348,10
889928,9
890448,10
891024,14
891596,12
892176,11
892756,11
893336,14
893916,14
894492,13
895072,16
895644,17
896228,11
896800,11
897384,10
897956,11
898532,15
899112,21
899684,26
900264,30
900836,26
901416,24
901988,24
902568,21
903136,18
903716,18
904296,16
904868,11
905448,12
906020,12
906600,11
907172,15
907748,20
908328,18
908900,16
909480,14
910052,14
910632,13
911212,13
911792,14
912372,15
912948,11
913528,13
914100,17
914680,15
915252,11
915832,11
916404,11
916980,14
917560,15
918132,18
918712,21
919288,15
919864,15
920444,15
921024,11
921596,10
922176,12
922752,12
923324,10
923904,10
924476,10
925056,12
925628,14
926204,14
926784,18
927356,22
927936,19
928512,13
929088,15
929660,17
930240,15
930812,11
931388,16
931968,21
932540,24
933120,16
933692,14
934272,14
934852,15
935428,14
936008,14
936580,13
937160,15
937732,11
938312,9
938832,11
939408,13
939988,11
940564,12
941144,10
941716,10
942296,11
942876,11
943456,14
944036,13
944612,14
945192,15
945764,16
946344,16
946916,14
947496,11
948076,11
948656,11
949228,10
949804,11
950384,14
950956,13
951536,15
952116,14
952696,14
953276,15
953852,18
954432,17
955004,14
955584,12
956160,10
956736,13
957316,17
957900,17
958484,15
959056,11
959632,11
960208,13
960784,13
961356,13
961936,13
962508,15
963084,12
963664,11
964236,11
964816,11
965384,11
965968,12
966540,11
967120,12
967696,19
968268,24
968848,15
969420,14
970000,16
970580,17
971160,14
971732,11
972308,11
972888,15
973460,15
974040,13
974612,10
975192,13
975764,13
976340,12
976920,13
977492,13
978072,13
978644,13
979224,15
979796,22
980376,19
980956,11
981532,18
982116,18
982688,14
983264,15
983844,13
984424,16
984996,20
985572,19
986152,15
986724,14
987304,18
987876,14
988456,14
989036,15
989616,13
990188,10
990764,10
991344,10
991916,14
992500,15
993076,13
993656,13
994236,12
994812,14
995392,14
995964,15
996544,11
997116,11
997696,11
998276,15
998856,12
999440,14
1000012,23
1000636,25
1001256,25
1001884,18
1002512,16
1003136,17
1003764,15
1004388,11
1005016,10
1005648,11
1006264,12
1006892,12
1007516,10
1008140,11
1008768,13
1009384,14
1010012,12
1010636,14
1011260,13
1011888,13
1012504,11
1013136,11
1013764,11
1014384,12
1015012,11
1015636,11
1016268,11
1016896,15
1017516,19
1018144,19
1018768,25
1019396,18
1020028,14
1020648,14
1021276,11
1021900,10
1022528,17
1023156,12
1023776,14
1024408,20
1025032,17
1025652,13
1026280,12
1026900,21
1027528,15
1028156,14
1028772,15
1029404,16
1030024,14
1030652,13
1031280,13
1031896,13
1032524,11
1033148,11
1033768,11
1034396,16
1035016,23
1035644,16
1036264,12
1036888,13
1037516,13
1038136,20
1038764,12
1039392,14
1040008,20
1040636,18
1041256,14
1041888,9
1042464,11
1043084,13
1043716,15
1044336,15
1044968,14
1045592,13
1046216,13
1046844,14
1047468,12
1048088,10
1048716,10
1049336,11
1049964,13
1050584,11
1051208,16
1051836,18
1052456,19
1053084,17
1053712,14
1054336,13
1054964,10
1055588,10
1056216,11
1056844,18
1057460,16
1058092,11
1058712,11
1059336,11
1059964,13
1060584,13
1061212,13
1061836,14
1062456,12
1063084,10
1063704,14
1064332,12
1064956,11
1065580,12
1066208,12
1066828,13
1067460,13
1068088,13
1068704,19
1069332,20
1069956,17
1070584,13
1071216,11
1071832,12
1072460,16
1073084,12
1073708,10
1074336,10
1074960,11
1075588,10
1076212,11
1076832,14
1077460,13
1078084,13
1078712,14
1079340,11
1079960,12
1080588,11
1081212,11
1081840,12
1082468,12
1083088,11
1083716,16
1084340,17
1084960,26
1085592,27
1086208,21
1086836,15
1087460,12
1088084,11
1088712,10
1089328,11
1089956,13
1090584,11
1091200,13
1091828,11
1092452,11
1093080,17
1093708,14
1094328,14
1094956,14
1095580,15
1096204,20
1096832,12
1097456,11
1098084,14
1098708,12
1099332,13
1099960,12
1100576,15
1101208,15
1101836,16
1102456,16
1103084,15
1103708,14
1104340,12
1104968,16
1105584,19
1106212,12
1106836,10
1107460,10
1108092,12
1108712,14
1109340,12
1109964,16
1110588,15
1111216,13
1111832,13
1112464,12
1113092,11
1113712,12
1114340,10
1114964,11
1115596,11
1116224,12
1116840,14
1117472,15
1118096,16
1118724,17
1119352,20
1119976,18
1120608,17
1121228,14
1121852,11
1122484,10
1123104,15
1123732,12
1124364,12
1124984,11
1125612,10
1126236,12
1126868,14
1127496,14
1128112,15
1128740,15
1129364,11
1129988,11
1130620,11
1131240,13
1131868,11
1132492,11
1133116,12
1133744,12
1134364,11
1134992,18
1135620,19
1136240,21
1136868,15
1137492,12
1138120,12
1138748,11
1139368,14
1139996,19
1140620,13
1141248,10
1141880,10
1142496,12
1143124,13
1143748,13
1144372,14
1145004,13
1145624,14
1146252,10
1146876,12
1147504,17
1148132,16
1148756,12
1149388,11
1150016,13
1150636,13
1151264,12
1151888,14
1152520,19
1153148,22
1153768,23
1154396,17
1155020,10
1155644,11
1156272,12
1156888,19
1157516,18
1158140,15
1158768,12
1159396,10
1160020,13
1160648,15
1161276,16
1161896,16
1162524,11
1163148,11
1163776,11
1164408,10
1165024,11
1165652,11
1166276,11
1166900,13
1167528,17
1168148,20
1168776,18
1169400,15
1170020,13
1170652,13
1171272,11
1171904,11
1172532,10
1173152,10
1173780,11
1174404,10
1175032,13
1175664,11
1176280,11
1176908,13
1177532,14
1178160,13
1178788,12
1179408,12
1180036,10
1180660,10
1181284,11
1181912,11
1182536,14
1183164,14
1183796,12
1184416,12
1185044,15
1185668,17
1186296,16
1186924,15
1187544,15
1188172,12
1188796,13
1189420,13
1190048,14
1190672,13
1191300,11
1191924,10
1192548,11
1193180,15
1193804,17
1194432,19
1195060,19
1195680,15
1196308,11
1196932,15
1197564,17
1198192,12
1198816,9
1199392,12
1200024,17
1200644,17
1201276,18
1201896,19
1202524,15
1203148,20
1203776,21
1204404,10
1205024,13
1205652,12
1206284,12
1206904,11
1207532,11
1208156,11
1208788,11
1209416,12
1210040,13
1210668,13
1211292,14
1211916,14
1212548,10
1213168,11
1213796,11
1214420,11
1215044,11
1215676,13
1216296,15
1216924,15
1217556,11
1218176,14
1218804,17
1219428,19
1220060,15
1220688,20
1221304,20
1221936,18
1222560,15
1223184,11
1223812,12
1224432,15
1225060,12
1225684,11
1226308,13
1226940,12
1227560,14
1228188,15
1228820,12
1229436,11
1230068,11
1230688,10
1231320,12
1231948,11
1232568,11
1233196,11
1233820,12
1234444,14
1235072,16
1235688,15
1236316,18
1236940,17
1237564,18
1238192,15
1238816,12
1239444,17
1240076,19
1240696,19
1241324,15
1241948,10
1242576,15
1243204,17
1243824,16
1244452,13
1245076,14
1245700,13
1246332,10
1246952,11
1247580,12
1248204,11
1248828,12
1249456,12
1250080,13
1250708,15
1251336,19
1251956,14
1252584,14
1253208,15
1253836,14
1254468,10
1255088,11
1255716,11
1256340,12
1256964,13
1257596,10
1258216,12
1258844,13
1259468,15
1260092,15
1260724,12
1261344,18
1261972,18
1262604,10
1263224,14
1263852,12
1264476,11
1265108,11
1265736,10
1266360,13
1266988,13
1267616,11
1268240,15
1268868,20
1269488,17
1270116,14
1270740,14
1271364,15
1271996,16
1272616,11
1273244,13
1273876,19
1274496,24
1275124,12
1275752,17
1276380,23
1277012,17
1277632,15
1278260,17
1278888,14
1279512,13
1280144,14
1280756,15
1281384,17
1282008,16
1282628,15
1283256,17
1283872,17
1284500,16
1285128,19
1285744,16
1286372,14
1286996,14
1287624,11
1288252,10
1288872,11
1289500,10
1290124,10
1290752,10
1291380,10
1292000,11
1292628,11
1293252,14
1293872,16
1294504,14
1295120,13
1295748,11
1296372,11
1296996,10
1297624,13
1298244,10
1298876,11
1299504,11
1300120,13
1300752,17
1301376,20
1302004,15
1302632,16
1303248,14
1303880,15
1304504,12
1305128,11
1305756,12
1306376,11
1307004,11
1307628,12
1308252,11
1308880,13
1309496,15
1310124,13
1310756,13
1311372,14
1312004,13
1312624,11
1313252,11
1313880,12
1314496,11
1315124,11
1315748,10
1316372,14
1317000,18
1317616,21
1318244,18
1318868,17
1319488,18
1320120,16
1320736,19
1321364,18
1321992,15
1322608,13
1323236,11
1323860,11
1324488,11
1325116,10
1325736,9
1326312,12
1326936,13
1327564,14
1328192,13
1328816,13
1329444,11
1330064,11
1330692,11
1331324,11
1331940,11
1332568,11
1333192,11
1333812,14
1334444,14
1335060,15
1335688,14
1336312,16
1336936,15
1337564,13
1338188,11
1338816,11
1339444,11
1340064,11
1340692,11
1341316,10
1341944,11
1342572,12
1343192,13
1343820,13
1344444,13
1345068,13
1345696,11
1346312,11
1346940,12
1347564,15
1348184,14
1348812,10
1349432,11
1350060,13
1350688,16
1351308,19
1351936,21
1352560,22
1353188,22
1353816,13
1354432,16
1355060,16
1355684,12
1356308,13
1356936,13
1357552,13
1358180,12
1358804,10
1359428,11
1360056,12
1360672,14
1361300,15
1361928,15
1362544,11
1363172,14
1363796,15
1364424,11
1365052,10
1365672,11
1366300,11
1366924,12
1367552,19
1368180,27
1368800,21
1369428,19
1370052,17
1370676,12
1371304,11
1371920,10
1372552,11
1373176,12
1373796,11
1374428,10
1375048,12
1375680,13
1376308,16
1376928,17
1377556,13
1378180,16
1378808,18
1379436,12
1380056,11
1380684,10
1381308,10
1381932,10
1382560,11
1383176,12
1383804,11
1384428,16
1385048,19
1385680,19
1386296,16
1386924,14
1387552,15
1388176,13
1388804,11
1389428,18
1390056,21
1390684,14
1391304,13
1391932,11
1392560,12
1393184,16
1393812,18
1394432,16
1395060,14
1395684,11
1396308,12
1396936,11
1397552,10
1398184,11
1398812,12
1399432,13
1400060,15
1400684,13
1401312,14
1401944,16
1402560,19
1403188,19
1403812,19
1404436,13
1405064,10
1405688,10
1406316,11
1406940,12
1407564,9
1408144,12
1408764,11
1409392,11
1410016,13
1410640,13
1411268,14
1411888,14
1412516,11
1413144,11
1413760,10
1414388,10
1415012,11
1415644,11
1416272,11
1416888,11
1417520,14
1418144,19
1418768,21
1419396,18
1420016,15
1420644,12
1421268,10
1421892,11
1422520,11
1423144,13
1423772,11
1424404,12
1425024,18
1425652,12
1426276,14
1426904,15
1427532,14
1428152,15
1428780,13
1429404,11
1430028,11
1430660,14
1431280,17
1431908,17
1432536,17
1433160,24
1433788,22
1434404,21
1435032,15
1435664,14
1436280,14
1436908,13
1437532,11
1438160,13
1438788,13
1439408,14
1440036,12
1440656,11
1441284,14
1441912,11
1442528,12
1443160,14
1443784,13
1444404,13
1445036,14
1445656,11
1446284,11
1446908,12
1447536,13
1448164,12
1448784,10
1449416,13
1450044,16
1450664,16
1451292,26
1451916,20
1452544,14
1453176,13
1453792,13
1454424,11
1455044,11
1455668,10
1456300,10
1456920,10
1457548,15
1458172,12
1458800,11
1459428,11
1460052,13
1460680,13
1461308,12
1461928,14
1462556,11
1463180,11
1463812,10
1464440,10
1465056,12
1465684,11
1466308,11
1466932,16
1467560,19
1468176,18
1468808,17
1469428,17
1470056,16
1470684,11
1471308,11
1471940,11
1472572,13
1473192,15
1473820,11
1474444,15
1475076,14
1475704,12
1476320,12
1476952,13
1477572,14
1478196,13
1478828,11
1479448,11
1480076,10
1480700,11
1481324,10
1481952,11
1482576,12
1483204,14
1483832,17
1484452,15
1485080,14
1485704,13
1486332,13
1486960,14
1487584,13
1488212,15
1488836,11
1489456,10
1490088,10
1490704,11
1491332,11
1491956,13
1492580,11
1493208,14
1493832,14
1494460,15
1495092,14
1495712,12
1496340,11
1496964,10
1497592,13
1498224,21
1498840,16
1499468,15
1500092,13
1500716,13
1501348,18
1501968,18
1502596,19
1503220,18
1503844,18
1504476,12
1505100,12
1505732,10
1506360,11
1506980,10
1507608,13
1508232,17
1508860,12
1509492,12
1510112,14
1510744,13
1511368,14
1511992,14
1512620,10
1513240,13
1513868,11
1514492,11
1515120,13
1515752,16
1516376,17
1517004,16
1517636,14
1518256,13
1518884,14
1519508,15
1520136,15
1520764,10
1521384,11
1522012,13
1522636,10
1523260,11
1523888,14
1524512,17
1525140,11
1525772,11
1526392,16
1527020,15
1527648,13
1528276,13
1528908,12
1529528,12
1530160,11
1530784,11
1531408,11
1532036,14
1532656,19
1533288,15
1533912,12
1534536,19
1535168,17
1535784,16
1536416,15
1537044,16
1537664,16
1538292,16
1538912,11
1539544,19
1540172,20
1540792,17
1541420,11
1542044,12
1542668,16
1543296,18
1543912,17
1544544,13
1545168,14
1545788,12
1546420,11
1547040,12
1547668,11
1548296,10
1548920,16
1549548,12
1550172,15
1550800,18
1551432,21
1552048,22
1552676,22
1553300,16
1553924,13
1554556,14
1555176,14
1555808,12
1556432,10
1557056,11
1557684,10
1558304,15
1558932,20
1559564,26
1560184,26
1560812,21
1561436,14
1562068,15
1562696,23
1563312,19
1563944,15
1564568,15
1565188,19
1565820,18
1566440,19
1567068,14
1567692,12
1568316,13
1568948,13
1569568,14
1570196,14
1570828,14
1571448,13
1572076,11
1572700,11
1573332,11
1573960,12
1574584,15
1575212,16
1575836,15
1576460,14
1577092,14
1577712,16
1578340,14
1578964,12
1579588,12
1580216,10
1580840,11
1581468,10
1582100,10
1582720,15
1583348,16
1583976,14
1584604,23
1585236,24
1585856,20
1586484,14
1587112,12
1587736,11
1588364,10
1588984,10
1589612,10
1590236,12
1590860,14
1591492,14
1592112,15
1592740,13
1593372,12
1593992,13
1594620,13
1595248,13
1595876,10
1596508,10
1597128,13
1597760,14
1598384,13
1599008,14
1599640,14
1600256,18
1600884,16
1601504,14
1602128,14
1602756,14
1603376,15
1604004,11
1604632,10
1605248,12
1605876,13
1606500,11
1607128,13
1607756,14
1608376,17
1609004,15
1609628,13
1610248,14
1610876,14
1611496,14
1612124,12
1612748,11
1613372,11
1614004,10
1614624,11
1615252,11
1615880,12
1616504,12
1617132,11
1617756,12
1618388,17
1619016,16
1619632,14
1620264,13
1620888,10
1621508,10
1622140,10
1622760,11
1623388,11
1624012,12
1624636,10
1625264,10
1625888,12
1626516,12
1627148,12
1627768,14
1628396,16
1629020,14
1629652,13
1630280,13
1630900,11
1631528,12
1632152,13
1632776,12
1633404,11
1634024,22
1634652,26
1635276,23
1635900,18
1636532,14
1637152,12
1637780,11
1638412,10
1639028,21
1639656,16
1640276,13
1640904,11
1641532,11
1642148,13
1642776,16
1643400,19
1644028,14
1644656,13
1645272,15
1645900,13
1646524,10
1647144,11
1647772,10
1648392,11
1649020,11
1649640,11
1650260,11
1650888,12
1651508,18
1652140,16
1652768,16
1653384,15
1654012,11
1654636,11
1655264,12
1655892,12
1656512,16
1657140,17
1657764,17
1658384,12
1659016,12
1659632,16
1660260,17
1660884,15
1661504,17
1662132,12
1662752,11
1663380,17
1664008,13
1664628,12
1665256,11
1665876,14
1666508,14
1667136,13
1667752,17
1668380,23
1669004,27
1669632,27
1670260,22
1670880,16
1671508,13
1672128,10
1672752,11
1673380,11
1674000,10
1674628,14
1675252,14
1675872,13
1676500,13
1677124,15
1677752,16
1678380,14
1679000,11
1679628,16
1680252,16
1680880,11
1681508,14
1682128,12
1682756,19
1683376,22
1684000,19
1684628,16
1685244,15
1685872,14
1686496,14
1687116,12
1687748,10
1688368,11
1688996,11
1689624,12
1690240,11
1690868,10
1691488,10
1692120,11
1692748,12
1693368,13
1693996,13
1694620,14
1695240,17
1695872,13
1696488,11
1697116,11
1697740,10
1698360,11
1698992,11
1699608,12
1700236,12
1700860,18
1701488,17
1702116,14
1702740,18
1703368,22
1703996,22
1704616,19
1705244,14
1705868,14
1706496,19
1707124,16
1707744,15
1708372,15
1708996,16
1709620,15
1710248,13
1710864,15
1711496,15
1712120,14
1712740,18
1713372,17
1713996,13
1714624,11
1715252,14
1715872,17
1716500,14
1717124,14
1717752,17
1718380,17
1719000,19
1719628,18
1720252,14
1720876,11
1721508,10
1722128,11
1722756,17
1723380,15
1724004,11
1724632,11
1725256,11
1725884,11
1726512,12
1727136,15
1727764,17
1728388,14
1729016,13
1729648,11
1730264,17
1730892,19
1731516,25
1732140,22
1732768,19
1733384,21
1734016,25
1734640,24
1735260,19
1735892,18
1736516,14
1737144,12
1737772,10
1738392,13
1739020,16
1739644,15
1740276,13
1740904,12
1741520,11
1742148,11
1742772,14
1743396,15
1744024,15
1744640,14
1745268,13
1745892,10
1746516,14
1747144,12
1747768,11
1748396,12
1749028,11
1749648,13
1750276,12
1750900,13
1751532,16
1752160,15
1752776,15
1753408,16
1754032,15
1754656,12
1755284,10
1755904,11
1756532,10
1757156,11
1757780,11
1758412,10
1759032,11
1759660,13
1760292,13
1760912,20
1761540,18
1762164,11
1762792,11
1763420,12
1764040,12
1764668,11
1765288,13
1765912,16
1766540,14
1767156,16
1767788,15
1768412,14
1769032,14
1769664,13
1770280,15
1770908,14
1771536,13
1772160,14
1772788,11
1773412,11
1774040,15
1774672,15
1775288,11
1775920,14
1776544,19
1777168,23
1777796,16
1778416,15
1779044,14
1779668,15
1780292,13
1780920,14
1781544,11
1782172,11
1782804,10
1783424,12
1784052,12
1784676,14
1785304,16
1785936,18
1786552,20
1787180,20
1787808,19
1788432,13
1789060,10
1789680,13
1790308,9
1790884,10
1791512,11
1792144,11
1792760,16
1793388,19
1794012,17
1794632,14
1795260,13
1795880,11
1796508,12
1797136,14
1797760,16
1798388,13
1799012,11
1799644,11
1800272,12
1800888,13
1801520,16
1802144,19
1802768,19
1803396,16
1804016,11
1804644,10
1805268,10
1805888,10
1806520,11
1807136,11
1807764,15
1808392,16
1809016,14
1809644,15
1810264,14
1810896,14
1811524,14
1812144,19
1812772,20
1813396,18
1814020,11
1814652,10
1815272,11
1815900,13
1816524,15
1817148,15
1817776,20
1818400,21
1819028,18
1819656,18
1820276,16
1820904,15
1821528,10
1822156,14
1822788,18
1823408,17
1824036,15
1824660,11
1825284,13
1825912,13
1826536,12
1827164,13
1827788,14
1828412,14
1829044,10
1829664,11
1830292,11
1830924,12
1831544,11
1832172,11
1832796,11
1833428,12
1834056,10
1834680,17
1835308,14
1835932,16
1836560,16
1837188,10
1837808,11
1838436,14
1839060,13
1839684,10
1840316,11
1840936,19
1841564,14
1842196,12
1842816,13
1843444,14
1844068,13
1844696,14
1845324,11
1845944,13
1846572,15
1847192,13
1847816,14
1848448,16
1849064,14
1849692,13
1850316,11
1850940,14
1851568,18
1852184,15
1852812,15
1853436,14
1854064,12
1854692,10
1855316,10
1855948,11
1856580,12
1857200,11
1857828,10
1858452,11
1859076,12
1859708,12
1860328,14
1860956,14
1861580,15
1862204,11
1862832,10
1863456,12
1864084,14
1864712,13
1865336,11
1865964,13
1866588,11
1867216,16
1867848,23
1868464,21
1869092,16
1869716,17
1870340,15
1870972,11
1871592,13
1872220,12
1872844,10
1873468,13
1874100,11
1874720,13
1875348,13
1875980,12
1876600,13
1877228,13
1877852,15
1878484,14
1879112,13
1879736,12
1880364,13
1880988,15
1881612,18
1882244,14
1882864,11
1883492,16
1884120,21
1884744,21
1885372,16
1885992,13
1886620,17
1887252,18
1887872,17
1888500,12
1889124,17
1889756,14
1890384,12
1891004,11
1891632,11
1892256,12
1892880,13
1893508,16
1894128,15
1894756,14
1895380,11
1896004,11
1896632,10
1897256,13
1897884,17
1898516,24
1899136,21
1899768,20
1900388,21
1901020,19
1901652,14
1902272,15
1902900,14
1903528,13
1904152,11
1904780,14
1905400,18
1906028,13
1906652,10
1907276,15
1907908,20
1908528,20
1909156,15
1909788,16
1910408,17
1911036,13
1911660,15
1912292,16
1912924,14
1913544,12
1914176,11
1914800,11
1915424,10
1916056,12
1916672,19
1917304,19
1917928,19
1918552,18
1919184,15
1919804,14
1920436,11
1921064,11
1921680,12
1922308,12
1922932,11
1923560,11
1924192,11
1924808,11
1925436,11
1926060,13
1926684,14
1927312,14
1927928,13
1928560,12
1929180,11
1929804,11
1930436,11
1931056,11
1931684,11
1932316,11
1932936,14
1933564,13
1934188,17
1934820,18
1935448,17
1936064,22
1936696,22
1937316,11
1937940,15
1938572,15
1939192,11
1939824,11
1940448,11
1941072,11
1941700,11
1942320,12
1942948,13
1943580,14
1944200,14
1944828,13
1945456,11
1946084,10
1946716,10
1947336,12
1947964,11
1948588,11
1949212,14
1949840,17
1950464,17
1951092,17
1951716,15
1952344,14
1952972,14
1953592,15
1954220,14
1954852,10
1955472,9
1956052,10
1956680,11
1957308,11
1957940,12
1958560,11
1959188,15
1959812,15
1960444,14
1961072,15
1961692,15
1962320,15
1962944,13
1963568,11
1964196,13
1964816,12
1965444,13
1966068,17
1966692,15
1967324,12
1967948,16
1968576,16
1969208,15
1969824,15
1970452,11
1971076,12
1971708,11
1972336,11
1972952,18
1973580,19
1974204,12
1974828,11
1975456,13
1976080,15
1976708,14
1977332,13
1977956,14
1978584,11
1979208,11
1979836,11
1980468,10
1981088,11
1981716,11
1982340,12
1982972,13
1983604,20
1984224,30
1984852,24
1985476,17
1986100,14
1986728,13
1987352,15
1987980,16
1988604,18
1989232,17
1989860,14
1990484,13
1991112,11
1991740,11
1992360,13
1992988,15
1993612,17
1994240,17
1994872,14
1995488,15
1996120,17
1996744,14
1997368,13
1997996,11
1998616,13
1999244,13
1999868,12
2000496,14
2001124,17
2001748,15
2002376,14
2003008,14
2003624,11
2004252,11
2004876,10
2005504,10
2006136,11
2006752,13
2007384,11
2008008,12
2008628,13
2009256,18
2009880,20
2010508,16
2011132,14
2011760,13
2012388,11
2013012,11
2013644,11
2014272,11
2014888,11
2015520,13
2016144,19
2016772,24
2017404,22
2018024,19
2018652,16
2019276,14
2019900,15
2020528,12
2021152,12
2021780,11
2022412,10
2023032,11
2023660,12
2024284,11
2024916,11
2025544,14
2026164,13
2026792,14
2027416,13
2028040,15
2028668,11
2029288,12
2029916,12
2030540,11
2031164,16
2031796,12
2032416,11
2033044,13
2033676,14
2034296,17
2034924,15
2035552,17
2036180,18
2036812,18
2037432,12
2038064,9
2038636,10
2039268,11
2039900,12
2040520,14
2041148,15
2041772,14
2042396,12
2043028,14
2043648,15
2044276,14
2044904,14
2045528,11
2046156,10
2046776,11
2047408,12
2048036,12
2048652,13
2049280,13
2049900,11
2050528,15
2051156,19
2051776,18
2052404,15
2053024,15
2053648,18
2054276,17
2054896,12
2055524,11
2056144,10
2056768,11
2057396,10
2058016,13
2058644,10
2059272,14
2059888,15
2060516,14
2061140,14
2061768,13
2062396,10
2063016,10
2063644,11
2064268,11
2064896,11
2065524,13
2066144,16
2066772,19
2067396,17
2068016,15
2068648,14
2069264,17
2069892,15
2070512,12
2071136,11
2071764,17
2072388,16
2073016,12
2073648,10
2074260,11
2074892,11
2075512,10
2076140,13
2076772,14
2077392,13
2078020,15
2078644,12
2079268,11
2079900,10
2080520,11
2081148,12
2081772,10
2082392,11
2083020,10
2083640,11
2084268,15
2084896,17
2085512,16
2086140,17
2086764,19
2087392,24
2088020,22
2088636,15
2089268,11
2089888,12
2090512,13
2091140,11
2091760,11
2092388,11
2093012,13
2093632,14
2094264,13
2094880,14
2095508,10
2096136,12
2096760,12
2097388,11
2098012,11
2098640,17
2099268,19
2099884,18
2100512,17
2101136,20
2101764,17
2102392,16
2103012,14
2103640,12
2104264,11
2104888,11
2105516,10
2106136,12
2106764,19
2107388,20
2108016,14
2108644,11
2109268,14
2109896,15
2110528,16
2111144,15
2111772,14
2112396,12
2113028,14
2113656,10
2114272,13
2114900,13
2115524,13
2116148,16
2116776,16
2117396,17
2118024,19
2118648,19
2119272,18
2119900,17
2120524,12
2121152,10
2121784,10
2122400,10
2123028,10
2123652,11
2124280,15
2124912,16
2125528,15
2126156,17
2126780,18
2127404,14
2128032,13
2128648,11
2129280,13
2129900,11
2130524,11
2131156,12
2131780,17
2132408,21
2133036,20
2133656,19
2134284,17
2134908,15
2135540,15
2136168,13
2136784,11
2137416,11
2138040,11
2138664,11
2139292,11
2139912,11
2140540,10
2141164,11
2141788,11
2142416,13
2143040,15
2143668,15
2144300,13
2144920,14
2145548,11
2146172,10
2146800,11
2147432,12
2148048,10
2148680,14
2149304,12
2149928,14
2150556,18
2151176,21
2151804,13
2152428,15
2153052,14
2153680,14
2154296,12
2154924,10
2155556,10
2156176,11
2156804,11
2157428,11
2158056,12
2158684,11
2159304,15
2159932,14
2160560,14
2161180,14
2161812,12
2162432,12
2163060,12
2163684,18
2164308,13
2164936,10
2165556,11
2166184,13
2166812,13
2167432,17
2168060,19
2168684,18
2169312,17
2169944,15
2170560,10
2171192,11
2171816,13
2172440,14
2173068,10
2173688,11
2174316,11
2174940,11
2175564,11
2176196,12
2176812,13
2177444,14
2178072,14
2178688,13
2179316,15
2179940,12
2180568,11
2181200,10
2181816,12
2182444,12
2183068,13
2183692,16
2184320,16
2184936,16
2185564,15
2186188,14
2186812,11
2187444,11
2188064,12
2188692,11
2189324,10
2189944,10
2190572,10
2191196,11
2191828,11
2192460,13
2193080,13
2193708,13
2194332,13
2194956,13
2195588,10
2196208,12
2196836,11
2197460,11
2198084,13
2198716,15
2199336,17
2199964,15
2200596,10
2201216,14
2201848,15
2202468,17
2203100,16
2203728,12
2204348,16
2204976,20
2205600,19
2206224,14
2206852,10
2207472,13
2208100,11
2208724,11
2209348,14
2209980,16
2210600,21
2211228,25
2211860,12
2212480,15
2213108,12
2213732,11
2214364,12
2214992,11
2215612,12
2216240,15
2216864,16
2217488,17
2218116,16
2218736,17
2219364,18
2219988,14
2220616,10
2221244,10
2221864,12
2222492,11
2223124,16
2223744,14
2224372,11
2224996,11
2225628,12
2226256,12
2226880,13
2227508,14
2228132,15
2228756,11
2229388,10
2230008,13
2230636,11
2231260,11
2231888,11
2232516,17
2233136,27
2233764,25
2234396,22
2235016,16
2235648,15
2236272,15
2236900,16
2237532,12
2238152,11
2238784,10
2239408,12
2240032,13
2240660,10
2241280,11
2241908,11
2242532,13
2243156,14
2243784,14
2244408,14
2245036,11
2245668,10
2246288,11
2246916,14
2247540,12
2248172,11
2248800,10
2249424,11
2250052,11
2250676,16
2251304,15
2251932,13
2252552,14
2253184,14
2253804,11
2254428,10
2255056,10
2255672,11
2256304,12
2256932,12
2257552,15
2258180,15
2258804,11
2259432,13
2260064,13
2260680,16
2261308,19
2261932,18
2262556,19
2263184,18
2263808,16
2264436,11
2265060,11
2265684,11
2266312,11
2266936,13
2267564,21
2268196,22
2268816,21
2269444,17
2270068,12
2270700,10
2271328,10
2271948,10
2272580,11
2273204,12
2273828,11
2274456,12
2275072,13
2275704,14
2276328,14
2276952,15
2277580,14
2278200,14
2278832,11
2279460,10
2280080,11
2280708,11
2281332,15
2281964,15
2282592,12
2283212,11
2283840,12
2284464,17
2285088,17
2285716,18
2286336,15
2286964,16
2287588,12
2288216,10
2288844,10
2289464,10
2290092,10
2290724,10
2291344,11
2291972,11
2292600,13
2293228,15
2293860,14
2294480,14
2295108,11
2295732,11
2296356,11
2296984,11
2297600,11
2298232,11
2298856,12
2299480,17
2300108,25
2300728,25
2301356,18
2301988,16
2302608,16
2303240,13
2303864,12
2304496,12
2305124,10
2305744,12
2306372,11
2306996,11
2307620,11
2308248,11
2308864,14
2309492,16
2310116,17
2310740,13
2311368,14
2311992,11
2312620,13
2313252,14
2313872,13
2314500,11
2315124,11
2315756,12
2316384,11
2317008,11
2317636,19
2318260,21
2318884,17
2319512,15
2320136,12
2320764,11
2321388,10
2322012,10
2322640,10
2323256,10
2323888,11
2324516,10
2325136,10
2325764,13
2326388,15
2327020,13
2327648,16
2328268,12
2328896,12
2329520,16
2330144,13
2330772,12
2331392,13
2332020,12
2332644,11
2333268,14
2333900,16
2334520,20
2335152,17
2335780,14
2336400,14
2337028,11
2337652,11
2338280,10
2338912,11
2339528,11
2340156,10
2340780,11
2341404,11
2342036,10
2342656,15
2343284,14
2343908,13
2344532,15
2345164,19
2345784,22
2346412,18
2347044,12
2347664,12
2348292,16
2348920,15
2349548,12
2350180,13
2350800,18
2351428,15
2352056,17
2352676,16
2353308,16
2353928,16
2354556,11
2355184,12
2355808,14
2356440,13
2357064,12
2357692,14
2358324,10
2358944,15
2359572,14
2360200,14
2360828,13
2361456,13
2362080,13
2362708,14
2363332,13
2363956,11
2364588,10
2365208,12
2365836,13
2366460,14
2367088,19
2367716,18
2368344,19
2368972,21
2369600,18
2370224,18
2370852,17
2371476,15
2372104,13
2372732,12
2373352,12
2373984,11
2374608,13
2375232,13
2375860,16
2376480,17
2377108,15
2377740,14
2378360,13
2378988,11
2379612,11
2380244,12
2380872,10
2381496,11
2382124,10
2382748,13
2383372,11
2384000,14
2384624,16
2385252,15
2385876,16
2386504,13
2387132,11
2387752,11
2388384,10
2389012,10
2389632,12
2390264,10
2390888,11
2391516,12
2392148,13
2392768,13
2393400,14
2394024,15
2394648,14
2395276,10
2395896,11
2396528,12
2397152,13
2397776,12
2398404,12
2399024,19
2399656,15
2400288,11
2400904,14
2401532,13
2402156,13
2402788,13
2403416,11
2404036,11
2404664,11
2405288,11
2405912,11
2406544,11
2407160,14
2407788,12
2408412,12
2409036,15
2409664,13
2410288,14
2410916,13
2411548,12
2412168,12
2412796,11
2413424,11
2414052,12
2414684,10
2415304,11
2415936,15
2416560,19
2417184,20
2417812,20
2418432,21
2419060,19
2419684,13
2420308,10
2420940,13
2421560,11
2422188,10
2422820,10
2423440,9
2424016,14
2424648,14
2425276,13
2425908,12
2426528,14
2427156,14
2427784,13
2428412,11
2429044,11
2429664,11
2430292,11
2430920,11
2431544,12
2432176,13
2432792,18
2433420,20
2434044,20
2434672,21
2435300,20
2435924,17
2436556,13
2437184,10
2437808,11
2438436,12
2439060,10
2439688,12
2440316,10
2440936,12
2441564,11
2442192,11
2442816,13
2443444,14
2444064,14
2444692,16
2445324,15
2445944,11
2446572,14
2447200,15
2447828,14
2448460,14
2449080,13
2449708,12
2450332,14
2450960,17
2451588,21
2452208,20
2452836,19
2453460,16
2454088,11
2454716,11
2455336,15
2455968,19
2456600,16
2457220,10
2457848,11
2458472,13
2459100,13
2459732,15
2460352,15
2460980,14
2461604,11
2462228,12
2462856,12
2463472,15
2464100,15
2464724,13
2465348,11
2465976,14
2466592,17
2467220,23
2467848,19
2468472,15
2469100,21
2469724,14
2470352,17
2470984,19
2471600,12
2472232,11
2472856,10
2473480,11
2474108,11
2474728,13
2475356,16
2475984,15
2476608,14
2477236,13
2477856,14
2478484,11
2479116,12
2479736,17
2480364,15
2480988,11
2481620,22
2482248,24
2482864,16
2483496,15
2484120,17
2484740,21
2485372,20
2485992,17
2486620,12
2487244,12
2487868,15
2488500,10
2489120,12
2489748,10
2490380,10
2491000,11
2491628,11
2492252,15
2492884,15
2493512,14
2494132,14
2494760,16
2495388,10
2496012,12
2496640,11
2497256,12
2497884,11
2498508,13
2499132,16
2499764,14
2500384,13
2501012,14
2501644,12
2502264,18
2502892,22
2503516,19
2504148,17
2504780,11
2505400,13
2506028,16
2506656,14
2507280,11
2507908,13
2508528,16
2509160,21
2509780,20
2510404,20
2511036,14
2511656,24
2512288,23
2512916,10
2513536,12
2514168,13
2514792,15
2515420,14
2516052,17
2516672,16
2517300,25
2517928,21
2518552,17
2519180,15
2519800,13
2520428,13
2521052,16
2521680,13
2522308,14
2522928,19
2523556,13
2524188,10
2524808,14
2525436,11
2526060,14
2526692,13
2527324,15
2527944,19
2528576,24
2529200,11
2529824,23
2530452,29
2531072,36
2531704,25
2532328,11
2532952,13
2533584,10
2534204,14
2534832,14
2535464,14
2536084,14
2536712,16
2537336,21
2537968,14
2538596,10
2539216,12
2539848,14
2540472,25
2541096,20
2541724,12
2542344,21
2542976,18
2543600,20
2544224,29
2544852,18
2545476,15
2546108,22
2546740,17
2547360,13
2547988,11
2548616,11
2549244,11
2549876,16
2550496,17
2551124,15
2551752,19
2552376,15
2553008,13
2553624,19
2554252,24
2554880,24
2555504,17
2556136,10
2556760,13
2557392,16
2558024,21
2558644,20
2559276,15
2559900,14
2560528,21
2561156,18
2561776,11
2562404,14
2563024,15
2563648,11
2564276,10
2564896,13
2565524,11
2566152,11
2566768,19
2567396,34
2568020,37
2568648,31
2569276,18
2569896,12
2570524,17
2571148,15
2571776,14
2572404,18
2573024,18
2573652,10
2574276,15
2574900,16
2575528,13
2576144,13
2576772,14
2577396,14
2578020,14
2578648,19
2579272,11
2579900,10
2580532,10
2581152,21
2581780,23
2582400,13
2583032,11
2583660,14
2584280,21
2584908,18
2585532,15
2586156,17
2586784,18
2587408,15
2588036,13
2588660,10
2589284,16
2589912,14
2590536,15
2591164,13
2591796,12
2592416,21
2593044,22
2593668,15
2594296,15
2594924,10
2595544,11
2596172,11
2596796,13
2597420,15
2598052,11
2598672,12
2599300,13
2599924,16
2600548,18
2601180,18
2601800,20
2602432,17
2603060,13
2603680,11
2604308,11
2604932,10
2605564,13
2606192,11
2606808,12
2607440,15
2608064,11
2608688,11
2609316,14
2609936,15
2610564,13
2611188,17
2611816,15
2612444,10
2613068,11
2613700,15
2614328,17
2614948,13
2615576,12
2616200,17
2616828,33
2617460,32
2618080,25
2618708,21
2619332,18
2619956,11
2620588,13
2621208,14
2621836,10
2622460,10
2623088,11
2623716,9
2624288,11
2624916,15
2625544,15
2626160,14
2626788,13
2627412,17
2628040,19
2628668,14
2629288,11
2629916,10
2630536,11
2631168,11
2631796,12
2632416,18
2633044,15
2633668,17
2634288,22
2634916,22
2635536,19
2636164,19
2636788,20
2637412,11
2638040,12
2638664,13
2639292,15
2639924,12
2640544,14
2641172,14
2641796,14
2642424,15
2643052,14
2643672,19
2644300,16
2644924,15
2645544,13
2646176,12
2646792,15
2647420,11
2648044,12
2648668,14
2649296,11
2649912,13
2650544,13
2651172,20
2651792,24
2652420,20
2653044,13
2653672,10
2654304,10
2654920,11
2655548,11
2656172,11
2656796,12
2657424,13
2658040,15
2658672,19
2659296,16
2659916,13
2660548,16
2661168,16
2661796,11
2662428,15
2663044,12
2663672,11
2664296,15
2664924,16
2665552,21
2666168,19
2666800,14
2667420,15
2668044,17
2668672,18
2669288,21
2669920,21
2670540,11
2671164,11
2671796,12
2672416,12
2673044,10
2673672,10
2674296,16
2674924,12
2675548,13
2676176,15
2676804,14
2677424,14
2678052,18
2678676,17
2679300,12
2679932,12
2680552,13
2681180,11
2681804,11
2682428,11
2683056,16
2683680,15
2684308,14
2684936,14
2685560,15
2686188,13
2686812,10
2687440,11
2688072,10
2688688,11
2689316,14
2689936,11
2690564,11
2691192,12
2691808,11
2692440,14
2693064,21
2693684,22
2694316,14
2694936,12
2695564,15
2696188,25
2696816,22
2697444,13
2698068,14
2698696,14
2699324,10
2699944,11
2700572,15
2701196,15
2701828,16
2702456,14
2703080,13
2703708,11
2704332,11
2704956,10
2705584,12
2706204,16
2706832,20
2707460,17
2708080,10
2708708,13
2709332,17
2709960,15
2710592,13
2711208,18
2711836,22
2712460,24
2713092,19
2713720,11
2714344,11
2714972,11
2715596,11
2716220,12
2716848,16
2717464,26
2718092,23
2718716,14
2719344,14
2719972,11
2720600,15
2721228,11
2721856,10
2722480,12
2723108,9
2723680,10
2724308,13
2724936,16
2725560,16
2726188,15
2726812,19
2727436,17
2728064,15
2728680,22
2729308,11
2729932,10
2730556,10
2731184,17
2731804,24
2732432,22
2733060,12
2733680,19
2734308,21
2734932,18
2735564,16
2736192,14
2736816,12
2737444,10
2738068,14
2738692,14
2739324,10
2739944,13
2740572,15
2741196,17
2741820,11
2742448,13
2743072,15
2743700,13
2744332,13
2744952,12
2745580,10
2746204,12
2746836,14
2747464,11
2748088,10
2748716,11
2749340,11
2749964,13
2750596,14
2751216,15
2751844,15
2752472,15
2753092,13
2753724,14
2754344,12
2754972,11
2755604,12
2756224,15
2756852,14
2757476,12
2758104,13
2758736,15
2759352,18
2759984,17
2760608,19
2761232,20
2761860,12
2762480,12
2763108,13
2763732,11
2764360,12
2764988,11
2765608,11
2766236,11
2766864,11
2767484,13
2768112,15
2768736,14
2769364,17
2769992,19
2770616,19
2771244,13
2771868,12
2772492,16
2773120,13
2773736,11
2774368,12
2774992,13
2775616,13
2776244,14
2776864,15
2777492,15
2778124,13
2778744,13
2779372,12
2779996,12
2780628,13
2781260,11
2781880,12
2782508,11
2783136,13
2783760,16
2784392,15
2785008,14
2785636,15
2786260,13
2786884,11
2787512,10
2788132,12
2788760,15
2789388,10
2790008,11
2790636,11
2791260,11
2791892,11
2792520,13
2793136,14
2793768,15
2794392,15
2795016,12
2795644,15
2796264,11
2796892,16
2797516,18
2798140,16
2798772,10
2799392,12
2800020,12
2800652,12
2801272,14
2801900,16
2802524,15
2803156,14
2803784,11
2804408,15
2805036,22
2805660,20
2806284,12
2806916,10
2807536,12
2808164,12
2808788,14
2809412,14
2810044,12
2810664,18
2811292,24
2811924,19
2812544,19
2813172,14
2813800,11
2814428,15
2815060,14
2815680,12
2816312,15
2816932,24
2817556,25
2818184,24
2818808,20
2819436,15
2820060,16
2820684,16
2821312,10
2821928,10
2822560,11
2823188,10
2823808,11
2824436,11
2825060,14
2825688,14
2826320,13
2826936,15
2827564,16
2828188,15
2828812,11
2829440,10
2830056,11
2830684,12
2831308,13
2831932,14
2832564,12
2833184,11
2833812,13
2834444,14
2835064,15
2835692,15
2836316,16
2836948,14
2837576,10
2838200,15
2838828,11
2839452,11
2840076,12
2840708,15
2841328,16
2841956,15
2842580,13
2843204,14
2843832,14
2844456,14
2845084,11
2845716,12
2846336,11
2846968,15
2847588,11
2848220,13
2848848,14
2849472,12
2850100,13
2850724,17
2851348,18
2851976,18
2852600,16
2853228,14
2853852,12
2854476,11
2855108,10
2855728,12
2856356,14
2856988,16
2857608,17
2858236,13
2858860,14
2859492,13
2860124,14
2860744,15
2861376,13
2862000,11
2862624,11
2863256,10
2863872,20
2864504,27
2865128,19
2865752,21
2866384,23
2867000,16
2867632,15
2868260,17
2868880,15
2869508,24
2870132,31
2870760,27
2871388,16
2872008,10
2872636,12
2873260,15
2873884,17
2874512,14
2875132,15
2875760,13
2876384,14
2877008,13
2877636,14
2878256,12
2878884,11
2879516,10
2880136,11
2880764,11
2881384,12
2882016,13
2882644,12
2883260,15
2883892,17
2884512,16
2885136,17
2885764,14
2886384,12
2887012,12
2887636,11
2888260,13
2888888,10
2889504,10
2890136,12
2890764,11
2891384,13
2892012,14
2892636,13
2893268,14
2893896,14
2894512,19
2895140,18
2895764,13
2896388,11
2897020,12
2897640,15
2898268,19
2898892,14
2899516,11
2900144,11
2900764,18
2901392,21
2902020,25
2902640,25
2903268,13
2903892,12
2904524,13
2905152,10
2905776,12
2906404,12
2907028,18
2907656,17
2908284,13
2908904,15
2909532,14
2910156,14
2910780,17
2911412,12
2912032,11
2912660,11
2913292,10
2913912,12
2914540,12
2915164,13
2915796,17
2916428,12
2917048,21
2917676,30
2918304,20
2918928,15
2919556,15
2920176,15
2920804,12
2921428,10
2922052,10
2922680,10
2923304,13
2923932,13
2924564,10
2925184,14
2925812,19
2926436,21
2927068,18
2927700,13
2928320,12
2928948,11
2929572,11
2930196,11
2930828,10
2931448,11
2932076,11
2932700,12
2933324,16
2933956,13
2934576,18
2935204,30
2935836,32
2936456,25
2937084,13
2937712,11
2938340,10
2938972,10
2939592,14
2940224,14
2940848,13
2941472,11
2942100,13
2942720,14
2943348,13
2943976,13
2944600,12
2945232,11
2945848,11
2946480,11
2947108,10
2947728,12
2948356,11
2948984,11
2949612,12
2950244,16
2950864,18
2951492,14
2952116,13
2952740,15
2953368,10
2953992,10
2954620,10
2955244,12
2955868,19
2956500,18
2957124,12
2957752,11
2958380,11
2959000,13
2959628,14
2960252,14
2960884,18
2961512,14
2962128,11
2962760,11
2963384,12
2964008,11
2964636,10
2965256,12
2965884,16
2966508,15
2967132,18
2967764,15
2968388,16
2969016,14
2969648,13
2970264,14
2970892,12
2971516,10
2972144,10
2972776,11
2973392,10
2974024,11
2974648,13
2975272,17
2975900,22
2976520,24
2977148,15
2977772,14
2978396,13
2979024,10
2979652,11
2980280,10
2980908,11
2981528,13
2982156,14
2982780,12
2983412,11
2984040,12
2984664,14
2985292,14
2985916,15
2986540,15
2987172,14
2987792,13
2988424,10
2989048,11
2989672,11
2990300,11
2990924,10
2991556,11
2992184,15
2992808,17
2993436,14
2994060,13
2994692,15
2995320,16
2995944,12
2996572,14
2997196,14
2997820,17
2998452,14
2999072,15
2999700,13
3000332,16
3000952,13
3001580,14
3002208,13
3002836,13
3003468,11
3004088,11
3004716,15
3005344,18
3005968,11
3006600,10
3007216,13
3007848,12
3008472,13
3009096,14
3009724,15
3010344,17
3010976,14
3011604,12
3012224,15
3012852,12
3013476,13
3014108,14
3014740,11
3015360,13
3015988,13
3016616,11
3017240,19
3017868,24
3018488,21
3019116,15
3019744,12
3020368,11
3021000,11
3021616,12
3022244,11
3022876,13
3023496,12
3024128,11
3024752,11
3025380,14
3026012,12
3026632,15
3027264,13
3027888,13
3028512,13
3029140,13
3029760,13
3030392,15
3031016,12
3031640,11
3032272,15
3032892,23
3033520,27
3034152,18
3034772,19
3035400,20
3036028,19
3036656,14
3037288,10
3037908,10
3038536,10
3039164,10
3039788,10
3040420,10
3041040,13
3041668,18
3042292,15
3042916,15
3043548,17
3044172,19
3044804,14
3045432,12
3046052,11
3046684,11
3047308,14
3047936,13
3048568,11
3049184,11
3049812,12
3050440,19
3051064,19
3051692,14
3052312,16
3052944,14
3053568,14
3054192,11
3054824,15
3055448,15
3056076,11
3056708,10
3057328,11
3057956,13
3058584,13
3059208,14
3059836,14
3060456,15
3061088,14
3061712,14
3062336,13
3062968,13
3063588,12
3064220,11
3064852,12
3065472,13
3066104,13
3066728,13
3067360,15
3067988,15
3068608,14
3069240,14
3069868,11
3070492,11
3071124,10
3071744,10
3072380,10
3073000,10
3073624,11
3074252,10
3074872,13
3075500,16
3076128,14
3076752,14
3077380,14
3078004,11
3078632,10
3079264,10
3079880,11
3080512,12
3081136,12
3081760,13
3082388,17
3083008,18
3083636,16
3084260,16
3084884,14
3085512,14
3086136,13
3086764,11
3087396,10
3088016,11
3088644,10
3089268,10
3089896,10
3090528,13
3091144,13
3091776,13
3092400,14
3093024,14
3093652,13
3094272,15
3094904,12
3095528,16
3096152,16
3096780,10
3097400,16
3098032,15
3098660,10
3099280,12
3099908,15
3100532,18
3101164,13
3101796,15
3102416,17
3103044,16
3103672,17
3104296,12
3104924,9
3105492,11
3106124,11
3106752,11
3107376,12
3108004,10
3108624,14
3109256,19
3109880,21
3110504,19
3111132,16
3111760,15
3112388,25
3113020,31
3113640,21
3114268,10
3114892,15
3115524,15
3116152,11
3116772,14
3117404,14
3118028,15
3118652,17
3119284,14
3119904,14
3120536,13
3121164,11
3121784,11
3122412,13
3123040,13
3123668,12
3124300,12
3124920,12
3125548,13
3126172,15
3126796,21
3127428,16
3128048,13
3128676,16
3129300,13
3129924,11
3130556,10
3131176,13
3131808,13
3132436,14
3133056,14
3133688,17
3134312,19
3134940,21
3135572,16
3136192,12
3136820,11
3137444,11
3138068,10
3138700,15
3139320,15
3139948,16
3140572,15
3141200,15
3141828,16
3142448,14
3143076,13
3143708,14
3144328,14
3144956,17
3145584,21
3146212,18
3146844,14
3147464,11
3148096,11
3148720,13
3149344,19
3149972,21
3150592,20
3151224,15
3151848,15
3152472,15
3153104,10
3153720,10
3154352,11
3154984,11
3155600,11
3156228,11
3156856,15
3157484,14
3158116,10
3158736,14
3159368,15
3159992,14
3160616,16
3161248,22
3161864,18
3162496,11
3163120,12
3163744,13
3164376,12
3165000,13
3165628,12
3166260,11
3166880,14
3167512,15
3168136,15
3168764,14
3169396,13
3170016,11
3170648,13
3171272,11
3171896,11
3172528,10
3173144,10
3173776,12
3174408,21
3175024,32
3175656,26
3176280,17
3176908,15
3177540,14
3178160,12
3178792,13
3179416,15
3180040,12
3180668,11
3181288,15
3181920,14
3182544,13
3183168,14
3183800,22
3184420,21
3185048,17
3185680,14
3186300,11
3186928,10
3187556,10
3188184,10
3188816,10
3189436,11
3190068,10
3190692,11
3191320,12
3191952,14
3192572,13
3193204,14
3193828,14
3194452,15
3195084,11
3195704,12
3196336,15
3196964,11
3197584,15
3198216,23
3198840,11
3199472,17
3200104,28
3200720,23
3201348,19
3201968,18
3202592,27
3203220,14
3203840,11
3204468,12
3205092,11
3205716,10
3206344,11
3206960,10
3207592,11
3208220,11
3208840,13
3209468,18
3210092,19
3210720,15
3211348,15
3211968,22
3212596,19
3213220,21
3213844,22
3214476,18
3215096,13
3215724,12
3216348,13
3216972,15
3217600,13
3218224,15
3218852,16
3219484,13
3220104,11
3220732,11
3221356,11
3221988,10
3222616,10
3223240,13
3223868,15
3224492,16
3225116,15
3225748,13
3226368,15
3226996,18
3227620,21
3228244,19
3228872,12
3229488,13
3230116,19
3230748,15
3231368,13
3231996,20
3232624,19
3233252,14
3233884,18
3234504,24
3235132,27
3235760,23
3236384,21
3237012,18
3237632,17
3238260,19
3238884,13
3239508,13
3240140,16
3240760,17
3241388,17
3242020,14
3242640,15
3243268,16
3243892,14
3244524,12
3245152,10
3245776,12
3246404,13
3247028,11
3247652,11
3248284,10
3248904,11
3249532,11
3250156,17
3250780,23
3251412,20
3252036,19
3252668,16
3253296,11
3253916,11
3254544,13
3255168,12
3255800,11
3256432,18
3257048,15
3257676,13
3258300,13
3258924,13
3259556,12
3260176,15
3260804,13
3261428,11
3262056,11
3262684,11
3263312,13
3263944,15
3264576,12
3265192,11
3265824,11
3266448,13
3267076,17
3267708,16
3268328,16
3268956,14
3269584,11
3270208,15
3270840,19
3271456,13
3272088,17
3272716,19
3273336,14
3273968,12
3274592,22
3275224,20
3275852,13
3276472,17
3277104,17
3277724,13
3278348,10
3278976,11
3279592,13
3280220,11
3280844,18
3281464,18
3282092,16
3282708,17
3283336,15
3283960,15
3284580,16
3285208,16
3285832,16
3286460,12
3287088,10
3287704,11
3288332,12
3288952,13
3289584,25
3290212,18
3290832,15
3291460,17
3292084,17
3292704,17
3293336,18
3293952,34
3294580,42
3295204,29
3295828,13
3296456,14
3297072,20
3297700,20
3298328,15
3298944,19
3299572,18
3300196,14
3300824,17
3301452,22
3302072,19
3302700,17
3303324,10
3303948,11
3304576,16
3305192,31
3305820,22
3306444,11
3307068,10
3307696,18
3308312,18
3308944,13
3309564,20
3310192,22
3310820,23
3311444,14
3312072,11
3312704,11
3313320,13
3313948,11
3314572,14
3315200,28
3315832,26
3316448,23
3317076,17
3317700,14
3318324,15
3318956,14
3319576,12
3320204,10
3320828,10
3321456,11
3322084,11
3322708,21
3323336,14
3323968,10
3324584,17
3325212,21
3325836,15
3326468,20
3327096,22
3327720,16
3328352,10
3328972,10
3329592,10
3330224,11
3330840,11
3331468,11
3332092,13
3332720,14
3333348,15
3333972,13
3334600,15
3335228,14
3335848,14
3336476,11
3337100,11
3337728,11
3338356,10
3338976,12
3339604,11
3340228,11
3340848,10
3341476,12
3342096,14
3342724,13
3343348,13
3343972,13
3344600,11
3345224,12
3345852,11
3346484,12
3347104,11
3347732,13
3348356,14
3348988,18
3349616,19
3350232,18
3350864,17
3351488,15
3352112,14
3352740,11
3353360,12
3353988,10
3354612,11
3355236,12
3355864,14
3356488,15
3357120,11
3357748,14
3358368,17
3359000,15
3359620,15
3360252,13
3360880,13
3361496,12
3362124,18
3362748,14
3363368,11
3364000,10
3364616,11
3365244,14
3365868,16
3366488,21
3367116,18
3367736,15
3368364,13
3368992,15
3369616,13
3370244,11
3370864,13
3371496,16
3372124,13
3372744,10
3373372,21
3373996,29
3374620,15
3375252,16
3375872,21
3376500,17
3377124,13
3377748,12
3378380,10
3379000,13
3379632,15
3380260,16
3380880,19
3381508,21
3382132,11
3382760,19
3383388,22
3384008,16
3384636,19
3385260,21
3385884,22
3386512,13
3387128,12
3387760,19
3388384,13
3389008,17
3389636,21
3390256,19
3390884,21
3391516,21
3392136,17
3392764,14
3393388,19
3394016,20
3394644,11
3395264,11
3395892,12
3396516,14
3397140,13
3397768,14
3398384,15
3399016,16
3399640,13
3400264,13
3400892,14
3401512,15
3402140,14
3402772,10
3403392,12
3404020,11
3404644,10
3405272,16
3405904,14
3406520,14
3407148,11
3407772,12
3408396,13
3409024,14
3409648,15
3410276,15
3410900,16
3411524,16
3412152,14
3412772,13
3413400,11
3414028,10
3414648,13
3415276,20
3415900,16
3416532,12
3417160,12
3417784,13
3418412,14
3419036,15
3419660,14
3420292,14
3420912,13
3421540,10
3422164,10
3422788,11
3423420,12
3424040,13
3424668,16
3425296,19
3425920,23
3426548,17
3427172,16
3427804,15
3428436,10
3429056,17
3429688,20
3430312,24
3430936,20
3431564,14
3432184,19
3432812,24
3433436,18
3434060,13
3434692,14
3435312,20
3435944,15
3436572,10
3437192,11
3437824,11
3438448,11
3439076,22
3439708,24
3440328,21
3440956,13
3441580,13
3442204,17
3442832,18
3443456,18
3444084,20
3444708,21
3445332,17
3445960,14
3446576,12
3447208,17
3447836,14
3448456,12
3449084,20
3449708,26
3450340,23
3450968,22
3451584,17
3452216,14
3452840,11
3453464,11
3454092,11
3454712,19
3455344,25
3455968,19
3456592,13
3457220,11
3457840,17
3458468,15
3459096,14
3459720,13
3460348,15
3460972,15
3461604,12
3462232,13
3462852,12
3463480,9
3464052,10
3464684,11
3465316,15
3465936,26
3466564,32
3467188,30
3467812,23
3468444,22
3469064,19
3469692,15
3470316,12
3470940,11
3471572,19
3472196,21
3472828,12
3473456,11
3474072,10
3474704,12
3475328,15
3475956,15
3476588,14
3477208,15
3477836,11
3478464,12
3479088,14
3479716,13
3480336,11
3480964,11
3481588,11
3482216,11
3482844,11
3483468,14
3484096,14
3484728,15
3485344,21
3485972,15
3486596,14
3487228,21
3487856,11
3488476,10
3489104,11
3489728,12
3490352,14
3490980,24
3491600,32
3492228,15
3492852,14
3493476,15
3494104,22
3494728,20
3495360,23
3495988,21
3496608,18
3497236,13
3497860,11
3498492,12
3499120,11
3499744,11
3500372,18
3501000,15
3501624,14
3502252,13
3502872,11
3503500,11
3504128,10
3504752,15
3505380,11
3506004,11
3506636,12
3507268,14
3507888,11
3508516,13
3509140,15
3509768,13
3510396,14
3511016,13
3511648,11
3512272,12
3512896,11
3513524,10
3514144,11
3514776,11
3515404,11
3516024,15
3516656,22
3517280,15
3517908,19
3518540,13
3519160,14
3519792,14
3520416,17
3521040,15
3521668,11
3522288,13
3522916,10
3523540,10
3524164,10
3524792,12
3525412,14
3526040,13
3526668,15
3527288,17
3527916,11
3528540,12
3529168,14
3529800,11
3530416,10
3531048,13
3531672,19
3532296,12
3532924,17
3533544,15
3534172,15
3534796,17
3535420,16
3536048,13
3536672,11
3537300,11
3537928,12
3538552,11
3539180,10
3539808,11
3540436,17
3541068,18
3541688,18
3542320,14
3542944,15
3543568,19
3544196,12
3544816,11
3545444,11
3546068,10
3546692,11
3547324,10
3547944,13
3548576,11
3549204,14
3549824,22
3550452,27
3551080,30
3551708,27
3552340,16
3552960,15
3553588,15
3554216,19
3554840,16
3555468,10
3556088,15
3556716,16
3557344,16
3557968,17
3558600,17
3559216,17
3559844,15
3560476,14
3561096,13
3561724,17
3562348,13
3562980,11
3563612,12
3564232,12
3564860,11
3565484,11
3566108,15
3566740,19
3567360,18
3567988,16
3568616,15
3569240,12
3569868,11
3570488,11
3571120,11
3571748,14
3572368,13
3573000,16
3573624,13
3574252,11
3574884,16
3575504,18
3576136,22
3576760,20
3577384,14
3578016,17
3578632,16
3579264,13
3579888,11
3580512,11
3581144,13
3581768,11
3582400,11
3583028,11
3583648,22
3584280,32
3584904,37
3585532,30
3586160,19
3586784,11
3587412,14
3588036,13
3588660,16
3589288,15
3589912,12
3590540,12
3591164,18
3591792,17
3592420,15
3593044,18
3593676,16
3594304,16
3594928,13
3595556,15
3596180,21
3596808,14
3597436,12
3598056,12
3598688,12
3599312,15
3599936,17
3600568,17
3601184,17
3601812,18
3602444,11
3603064,11
3603696,12
3604320,11
3604948,11
3605576,10
3606200,11
3606828,10
3607452,14
3608076,15
3608704,14
3609320,14
3609952,13
3610576,14
3611196,11
3611828,10
3612448,11
3613076,11
3613708,12
3614328,15
3614956,13
3615580,17
3616212,15
3616840,14
3617456,15
3618084,15
3618708,13
3619332,11
3619964,10
3620584,11
3621212,10
3621836,14
3622460,15
3623088,12
3623712,11
3624340,13
3624972,12
3625592,13
3626220,14
3626844,15
3627476,14
3628104,11
3628724,11
3629352,18
3629976,28
3630604,29
3631232,29
3631852,28
3632480,21
3633104,15
3633728,16
3634356,15
3634976,18
3635608,16
3636236,12
3636856,17
3637484,15
3638108,11
3638740,10
3639368,11
3639988,11
3640616,11
3641240,12
3641864,14
3642496,14
3643112,14
3643744,15
3644368,16
3644992,13
3645620,10
3646240,11
3646868,11
3647500,12
3648120,11
3648748,11
3649372,13
3650000,23
3650628,20
3651248,17
3651876,14
3652500,11
3653124,11
3653756,10
3654376,11
3655008,11
3655632,10
3656256,11
3656884,10
3657504,11
3658136,13
3658764,14
3659384,17
3660012,14
3660640,14
3661268,11
3661900,10
3662520,13
3663148,17
3663776,15
3664400,11
3665028,18
3665648,21
3666276,17
3666900,16
3667524,15
3668156,14
3668776,17
3669408,13
3670036,12
3670656,20
3671288,28
3671912,25
3672544,14
3673172,12
3673792,14
3674420,13
3675048,14
3675672,13
3676300,14
3676920,15
3677548,12
3678176,12
3678800,12
3679432,17
3680048,16
3680680,11
3681308,16
3681928,21
3682556,23
3683180,15
3683812,21
3684444,22
3685064,15
3685696,12
3686320,12
3686944,17
3687572,18
3688192,17
3688820,12
3689444,10
3690064,10
3690696,10
3691312,13
3691940,13
3692572,13
3693192,13
3693820,15
3694444,13
3695072,12
3695704,13
3696320,14
3696952,11
3697576,11
3698200,11
3698828,10
3699448,12
3700076,13
3700700,13
3701324,13
3701956,14
3702576,14
3703204,12
3703836,10
3704456,11
3705084,10
3705708,10
3706340,11
3706972,10
3707592,10
3708220,13
3708844,15
3709468,14
3710100,14
3710720,17
3711348,13
3711976,11
3712600,11
3713232,11
3713848,11
3714476,11
3715108,10
3715728,12
3716356,16
3716984,16
3717612,14
3718240,13
3718864,15
3719492,12
3720116,12
3720740,11
3721372,10
3721992,12
3722624,11
3723244,10
3723868,11
3724500,11
3725124,13
3725756,17
3726384,24
3727008,23
3727640,22
3728264,17
3728892,14
3729520,21
3730140,20
3730768,11
3731392,11
3732016,14
3732648,17
3733264,19
3733896,18
3734520,14
3735144,17
3735776,17
3736400,21
3737028,17
3737660,11
3738280,11
3738908,10
3739532,11
3740164,10
3740792,10
3741412,13
3742040,13
3742668,15
3743292,14
3743924,14
3744544,12
3745172,14
3745804,14
3746424,16
3747052,14
3747680,11
3748308,11
3748940,10
3749560,12
3750192,14
3750816,15
3751440,15
3752072,14
3752688,13
3753316,12
3753944,13
3754568,12
3755200,9
3755764,12
3756400,11
3757024,11
3757648,11
3758280,13
3758896,14
3759528,15
3760156,15
3760776,13
3761408,12
3762032,14
3762660,10
3763292,10
3763912,12
3764544,12
3765168,11
3765792,11
3766420,13
3767040,13
3767668,14
3768296,14
3768920,14
3769548,10
3770168,12
3770796,10
3771428,10
3772048,11
3772676,11
3773304,12
3773936,11
3774564,14
3775184,15
3775816,14
3776440,15
3777064,13
3777692,11
3778312,13
3778944,15
3779568,10
3780192,12
3780820,20
3781444,26
3782076,25
3782708,22
3783328,20
3783960,17
3784584,26
3785216,23
3785844,14
3786464,11
3787092,12
3787720,11
3788344,11
3788976,10
3789592,10
3790220,11
3790848,11
3791472,21
3792104,22
3792724,19
3793356,16
3793988,12
3794608,11
3795236,11
3795860,13
3796488,13
3797116,10
3797736,11
3798368,11
3798992,11
3799616,13
3800248,13
3800864,13
3801492,14
3802124,15
3802744,15
3803376,19
3804000,13
3804628,10
3805260,11
3805880,11
3806512,12
3807136,16
3807760,17
3808392,13
3809008,14
3809640,17
3810264,15
3810888,15
3811516,13
3812136,11
3812768,13
3813396,11
3814016,13
3814648,12
3815272,11
3815900,11
3816532,13
3817152,15
3817784,15
3818408,17
3819032,14
3819664,10
3820280,12
3820912,12
3821536,12
3822160,11
3822792,11
3823408,13
3824040,15
3824668,16
3825288,15
3825916,14
3826544,14
3827176,14
3827808,10
3828428,13
3829056,16
3829684,15
3830308,12
3830940,12
3831560,11
3832192,17
3832816,23
3833440,23
3834072,16
3834696,15
3835328,15
3835960,12
3836580,10
3837212,12
3837836,12
3838468,13
3839100,14
3839724,11
3840356,12
3840980,21
3841600,16
3842228,12
3842848,15
3843476,17
3844108,16
3844728,14
3845356,13
3845980,17
3846612,15
3847240,19
3847860,18
3848488,16
3849112,14
3849736,21
3850364,14
3850984,16
3851612,14
3852236,13
3852860,10
3853488,17
3854112,19
3854740,21
3855372,14
3855992,11
3856624,13
3857248,11
3857876,11
3858508,13
3859128,15
3859760,13
3860384,14
3861008,18
3861636,19
3862256,17
3862884,12
3863508,11
3864136,11
3864764,10
3865384,13
3866016,14
3866644,12
3867264,15
3867892,17
3868516,14
3869148,11
3869780,10
3870400,13
3871028,11
3871656,12
3872280,16
3872908,17
3873528,16
3874156,12
3874784,13
3875408,14
3876036,12
3876656,14
3877284,12
3877916,10
3878536,11
3879164,14
3879792,14
3880420,12
3881052,11
3881672,13
3882300,12
3882924,16
3883552,16
3884180,14
3884800,15
3885428,17
3886056,19
3886680,15
3887308,10
3887928,10
3888560,13
3889192,17
3889808,15
3890440,11
3891064,13
3891696,13
3892324,14
3892944,17
3893572,15
3894196,11
3894820,11
3895452,10
3896072,12
3896700,11
3897324,11
3897948,11
3898580,15
3899204,19
3899832,19
3900464,24
3901084,29
3901716,26
3902340,20
3902972,14
3903600,10
3904224,15
3904852,13
3905476,12
3906100,12
3906732,12
3907352,11
3907980,13
3908608,12
3909232,14
3909864,13
3910488,13
3911116,11
3911748,10
3912368,11
3912996,11
3913620,13
3914248,19
3914876,10
3915496,17
3916128,21
3916752,19
3917376,17
3918008,18
3918628,19
3919260,15
3919888,14
3920512,11
3921140,10
3921768,10
3922396,11
3923028,10
3923648,11
3924276,11
3924904,15
3925528,18
3926160,15
3926776,15
3927408,11
3928032,13
3928656,13
3929288,11
3929904,11
3930536,13
3931164,14
3931784,11
3932416,12
3933040,15
3933668,14
3934300,12
3934920,14
3935548,14
3936172,15
3936796,13
3937428,10
3938048,11
3938676,11
3939300,15
3939924,13
3940556,10
3941176,13
3941804,16
3942436,15
3943056,16
3943684,14
3944308,11
3944936,13
3945564,13
3946184,15
3946812,13
3947436,12
3948064,15
3948692,11
3949312,15
3949940,15
3950568,14
3951192,16
3951820,15
3952440,15
3953072,12
3953700,11
3954320,11
3954948,15
3955576,18
3956204,20
3956836,16
3957456,14
3958084,13
3958712,14
3959336,17
3959964,19
3960584,16
3961212,16
3961840,17
3962464,12
3963092,11
3963720,11
3964348,11
3964980,10
3965600,15
3966228,19
3966856,17
3967484,13
3968116,14
3968736,13
3969364,10
3969988,10
3970612,11
3971240,12
3971864,14
3972492,14
3973116,13
3973744,14
3974372,12
3975000,13
3975628,15
3976260,16
3976880,17
3977508,15
3978136,17
3978760,16
3979388,12
3980008,12
3980636,11
3981264,11
3981888,11
3982516,13
3983136,18
3983768,24
3984396,29
3985016,33
3985644,25
3986268,17
3986900,10
3987532,11
3988152,11
3988784,10
3989408,11
3990032,11
3990664,11
3991280,13
3991912,15
3992536,15
3993164,14
3993796,12
3994416,12
3995044,12
3995676,10
3996296,14
3996924,12
3997552,11
3998180,11
3998812,11
3999432,20
4000064,21
4000684,18
4001308,18
4001936,18
4002552,17
4003184,12
4003808,11
4004432,11
4005060,10
4005680,11
4006308,11
4006940,10
4007560,11
4008188,13
4008812,15
4009440,14
4010072,21
4010688,18
4011320,15
4011944,14
4012568,11
4013196,13
4013816,18
4014448,19
4015068,13
4015692,11
4016324,16
4016944,15
4017572,14
4018204,12
4018824,12
4019452,11
4020076,15
4020708,12
4021336,10
4021956,10
4022584,12
4023208,13
4023832,11
4024460,15
4025080,14
4025708,14
4026332,14
4026956,13
4027588,12
4028208,14
4028836,13
4029468,12
4030088,11
4030716,12
4031344,12
4031972,11
4032604,11
4033224,14
4033852,14
4034476,16
4035104,13
4035732,12
4036352,13
4036980,11
4037604,10
4038228,13
4038860,13
4039480,13
4040108,13
4040740,11
4041360,19
4041988,17
4042612,17
4043244,18
4043876,14
4044496,14
4045124,13
4045748,16
4046372,13
4047004,12
4047624,14
4048252,12
4048876,11
4049500,13
4050132,14
4050756,15
4051384,17
4052016,19
4052632,20
4053264,13
4053888,10
4054520,12
4055148,18
4055768,15
4056396,15
4057020,12
4057648,15
4058276,18
4058896,17
4059524,14
4060148,13
4060776,11
4061404,14
4062028,16
4062660,11
4063292,10
4063912,11
4064544,11
4065168,11
4065800,13
4066428,14
4067048,14
4067680,15
4068304,17
4068928,19
4069556,16
4070176,11
4070808,16
4071436,18
4072056,20
4072684,26
4073312,26
4073940,17
4074572,14
4075192,15
4075824,17
4076448,22
4077072,24
4077704,20
4078320,17
4078952,13
4079576,13
4080200,15
4080828,13
4081448,16
4082076,15
4082708,11
4083328,14
4083956,15
4084584,15
4085212,14
4085844,10
4086464,10
4087092,12
4087720,13
4088344,12
4088972,16
4089592,11
4090224,12
4090848,11
4091472,13
4092104,15
4092724,13
4093356,14
4093988,11
4094608,10
4095240,11
4095864,10
4096500,11
4097124,10
4097740,11
4098368,11
4098992,12
4099612,15
4100244,14
4100860,15
4101492,21
4102112,24
4102736,17
4103364,12
4103984,11
4104612,16
4105240,14
4105856,12
4106484,11
4107108,13
4107736,16
4108368,15
4108984,15
4109612,16
4110232,16
4110856,12
4111488,11
4112104,13
4112732,11
4113356,11
4113976,13
4114608,15
4115224,14
4115852,12
4116476,18
4117104,20
4117732,19
4118356,15
4118988,12
4119616,11
4120232,11
4120864,11
4121484,12
4122116,11
4122744,10
4123360,10
4123988,11
4124612,14
4125236,15
4125868,16
4126488,15
4127116,12
4127740,10
4128368,13
4128996,13
4129620,16
4130248,16
4130876,11
4131496,11
4132124,11
4132748,16
4133380,21
4134008,18
4134624,14
4135256,14
4135880,11
4136500,10
4137132,10
4137752,13
4138380,18
4139004,18
4139632,15
4140260,10
4140884,11
4141512,16
4142140,19
4142760,17
4143388,21
4144012,23
4144640,21
4145268,18
4145888,13
4146516,11
4147140,12
4147768,11
4148396,10
4149016,13
4149644,17
4150268,14
4150896,14
4151524,13
4152148,12
4152780,13
4153408,10
4154028,10
4154656,11
4155280,11
4155908,12
4156540,16
4157160,12
4157788,13
4158412,13
4159036,13
4159668,16
4160288,16
4160916,13
4161544,10
4162160,10
4162788,15
4163412,15
4164040,15
4164672,15
4165288,12
4165916,11
4166540,13
4167168,14
4167800,17
4168416,18
4169044,15
4169668,12
4170288,10
4170920,13
4171536,13
4172164,11
4172788,11
4173412,11
4174044,14
4174664,14
4175296,15
4175924,13
4176544,15
4177172,12
4177796,11
4178428,11
4179056,10
4179672,11
4180300,11
4180924,11
4181548,16
4182176,14
4182792,15
4183424,16
4184048,15
4184668,15
4185300,15
4185924,11
4186552,11
4187180,10
4187800,13
4188428,12
4189052,10
4189684,13
4190312,13
4190928,12
4191560,15
4192184,16
4192808,15
4193436,14
4194056,11
4194684,15
4195308,15
4195932,13
4196564,16
4197188,16
4197816,21
4198444,20
4199060,19
4199692,16
4200312,13
4200944,15
4201572,14
4202192,13
4202820,11
4203444,11
4204068,10
4204696,11
4205320,12
4205948,15
4206572,17
4207196,18
4207828,15
4208452,16
4209080,15
4209708,13
4210328,21
4210956,12
4211580,10
4212212,11
4212840,10
4213456,10
4214088,12
4214712,13
4215336,12
4215964,24
4216584,31
4217212,30
4217840,22
4218460,15
4219092,11
4219716,11
4220344,13
4220976,13
4221592,12
4222220,12
4222848,14
4223476,18
4224108,14
4224724,15
4225356,13
4225976,16
4226600,18
4227228,13
4227848,12
4228476,13
4229100,13
4229724,10
4230352,10
4230976,11
4231604,12
4232236,17
4232856,23
4233484,18
4234108,15
4234740,15
4235368,12
4235992,11
4236624,11
4237248,11
4237872,13
4238500,10
4239120,11
4239752,11
4240376,11
4240996,13
4241628,13
4242252,14
4242880,13
4243508,14
4244128,11
4244756,12
4245380,11
4246012,10
4246640,10
4247264,12
4247892,17
4248516,21
4249140,21
4249772,22
4250392,19
4251020,15
4251644,14
4252272,11
4252900,11
4253524,10
4254156,10
4254784,11
4255408,14
4256036,15
4256660,13
4257284,11
4257916,14
4258536,15
4259164,13
4259792,14
4260416,15
4261044,18
4261664,20
4262292,19
4262924,14
4263544,11
4264172,11
4264796,22
4265424,33
4266052,41
4266672,40
4267300,29
4267924,17
4268552,14
4269180,10
4269800,11
4270428,11
4271052,13
4271676,14
4272308,10
4272928,12
4273556,10
4274188,10
4274808,15
4275436,17
4276060,15
4276692,15
4277320,11
4277940,11
4278568,11
4279192,12
4279816,12
4280448,13
4281064,22
4281692,13
4282316,19
4282940,25
4283568,21
4284192,20
4284820,16
4285452,12
4286072,11
4286700,15
4287328,27
4287956,21
4288588,10
4289208,13
4289836,13
4290460,11
4291084,13
4291716,14
4292336,16
4292964,15
4293588,13
4294212,16
4294844,21
4295464,16
4296092,12
4296724,10
4297344,14
4297972,13
4298600,12
4299228,16
4299860,19
4300480,21
4301112,15
4301736,16
4302356,11
4302988,10
4303608,11
4304236,10
4304860,10
4305484,10
4306112,14
4306732,11
4307360,11
4307988,17
4308608,19
4309236,16
4309860,13
4310492,11
4311120,10
4311744,11
4312372,11
4312996,11
4313620,12
4314252,13
4314872,14
4315504,11
4316128,18
4316752,20
4317384,17
4318000,17
4318632,18
4319260,16
4319880,12
4320512,10
4321136,9
4321712,13
4322348,10
4322968,12
4323596,11
4324220,12
4324852,13
4325480,13
4326100,13
4326728,14
4327352,14
4327976,13
4328604,12
4329224,13
4329852,11
4330476,11
4331100,11
4331732,15
4332356,18
4332988,22
4333616,19
4334236,19
4334864,15
4335488,12
4336120,11
4336748,14
4337368,15
4337996,11
4338624,13
4339248,13
4339876,11
4340496,14
4341124,15
4341748,15
4342376,14
4343004,13
4343632,12
4344260,10
4344892,12
4345512,11
4346144,11
4346768,11
4347396,11
4348028,10
4348648,13
4349276,13
4349904,15
4350528,15
4351160,13
4351780,13
4352412,10
4353040,13
4353656,13
4354284,10
4354908,12
4355536,11
4356168,12
4356784,15
4357412,11
4358036,13
4358664,13
4359292,14
4359912,16
4360540,13
4361164,10
4361788,11
4362420,11
4363040,11
4363668,10
4364300,11
4364920,11
4365548,13
4366172,17
4366804,16
4367432,16
4368052,16
4368680,19
4369304,19
4369924,15
4370556,14
4371176,11
4371808,11
4372432,10
4373056,13
4373684,14
4374304,14
4374936,14
4375564,14
4376184,16
4376812,19
4377440,21
4378068,21
4378700,13
4379320,12
4379948,17
4380576,23
4381200,25
4381828,19
4382448,15
4383080,14
4383704,18
4384328,19
4384956,14
4385576,11
4386204,14
4386836,12
4387456,13
4388084,13
4388708,13
4389340,13
4389972,12
4390592,12
4391220,13
4391848,14
4392472,14
4393100,13
4393720,12
4394348,11
4394972,13
4395600,13
4396228,10
4396848,11
4397476,12
4398108,14
4398728,15
4399356,19
4399984,16
4400616,15
4401248,14
4401864,13
4402496,11
4403120,13
4403744,17
4404372,11
4404992,19
4405620,15
4406244,10
4406868,13
4407500,16
4408120,15
4408748,16
4409380,14
4410000,13
4410628,11
4411252,13
4411884,14
4412516,12
4413136,11
4413768,11
4414392,13
4415016,11
4415648,11
4416264,17
4416892,16
4417516,17
4418140,19
4418772,15
4419396,13
4420028,10
4420656,11
4421276,17
4421904,19
4422528,18
4423160,18
4423792,13
4424408,14
4425036,14
4425660,13
4426284,20
4426912,22
4427536,20
4428164,11
4428788,11
4429416,11
4430044,11
4430668,11
4431300,17
4431928,26
4432552,30
4433180,25
4433804,19
4434436,14
4435068,13
4435688,14
4436316,21
4436944,21
4437568,21
4438196,17
4438816,12
4439444,11
4440076,10
4440696,15
4441324,24
4441952,20
4442580,17
4443212,16
4443832,13
4444464,16
4445088,22
4445712,23
4446340,16
4446960,11
4447592,12
4448216,12
4448840,13
4449468,15
4450088,14
4450716,14
4451348,14
4451968,14
4452600,13
4453224,11
4453856,12
4454484,14
4455104,14
4455732,14
4456356,12
4456980,11
4457612,14
4458232,16
4458864,13
4459488,14
4460112,15
4460744,15
4461360,20
4461992,15
4462624,12
4463240,12
4463872,11
4464496,13
4465128,27
4465756,35
4466376,35
4467008,25
4467632,19
4468256,17
4468884,13
4469504,11
4470136,11
4470760,12
4471384,12
4472016,12
4472632,14
4473264,11
4473896,11
4474512,12
4475144,14
4475768,14
4476400,13
4477028,11
4477648,11
4478280,11
4478904,11
4479528,12
4480160,11
4480776,13
4481404,14
4482028,18
4482652,20
4483280,16
4483896,13
4484528,14
4485156,12
4485776,11
4486404,10
4487028,13
4487656,10
4488288,16
4488904,19
4489536,14
4490160,13
4490784,13
4491412,14
4492032,13
4492660,14
4493288,15
4493908,14
4494540,13
4495160,22
4495792,21
4496420,14
4497040,11
4497668,11
4498292,11
4498924,11
4499556,12
4500176,14
4500808,16
4501432,17
4502056,20
4502688,13
4503304,11
4503936,13
4504560,11
4505184,12
4505816,11
4506440,15
4507068,16
4507696,13
4508312,13
4508944,15
4509568,15
4510196,14
4510828,18
4511448,19
4512076,11
4512700,12
4513324,12
4513952,10
4514576,15
4515204,23
4515828,29
4516452,25
4517084,21
4517708,19
4518336,17
4518968,12
4519588,11
4520216,10
4520840,19
4521468,18
4522100,10
4522720,12
4523348,12
4523976,11
4524600,14
4525228,13
4525848,15
4526476,14
4527100,10
4527728,13
4528356,11
4528980,13
4529612,17
4530240,13
4530860,17
4531488,13
4532112,11
4532744,13
4533372,16
4533992,17
4534624,17
4535248,20
4535872,21
4536504,17
4537120,16
4537748,11
4538380,10
4539000,11
4539628,11
4540256,12
4540884,21
4541516,20
4542136,14
4542768,17
4543392,15
4544016,13
4544644,10
4545264,11
4545892,11
4546520,11
4547144,12
4547772,12
4548392,15
4549020,25
4549652,30
4550272,24
4550904,16
4551528,14
4552156,13
4552788,10
4553408,11
4554040,15
4554664,17
4555288,13
4555920,10
4556536,14
4557168,14
4557792,13
4558416,13
4559048,13
4559664,13
4560296,11
4560924,11
4561544,11
4562176,11
4562800,11
4563428,11
4564060,10
4564680,15
4565308,16
4565932,19
4566560,18
4567188,16
4567808,14
4568436,13
4569060,13
4569688,13
4570316,10
4570936,11
4571568,13
4572196,18
4572816,17
4573444,11
4574068,16
4574700,19
4575332,21
4575952,19
4576584,14
4577212,13
4577836,13
4578468,10
4579088,12
4579720,11
4580344,15
4580968,14
4581600,12
4582224,11
4582856,16
4583484,21
4584104,22
4584736,17
4585360,11
4585992,13
4586620,14
4587240,15
4587872,11
4588496,11
4589120,10
4589748,10
4590368,13
4590996,14
4591628,15
4592248,15
4592876,14
4593500,11
4594132,11
4594764,10
4595384,17
4596012,16
4596636,11
4597260,11
4597892,10
4598512,12
4599140,14
4599768,15
4600392,15
4601020,14
4601640,15
4602268,13
4602900,14
4603520,19
4604148,14
4604776,13
4605408,13
4606036,11
4606656,17
4607288,17
4607912,17
4608536,18
4609168,16
4609784,15
4610412,13
4611036,12
4611660,11
4612288,13
4612904,10
4613536,12
4614164,11
4614784,17
4615412,19
4616036,21
4616668,17
4617296,15
4617912,16
4618544,13
4619168,14
4619792,18
4620420,15
4621040,12
4621668,24
4622292,14
4622916,12
4623548,13
4624168,16
4624796,14
4625428,14
4626048,14
4626676,13
4627300,11
4627932,10
4628560,10
4629184,11
4629812,13
4630436,18
4631060,19
4631692,16
4632312,17
4632944,17
4633568,14
4634192,15
4634820,14
4635440,11
4636068,11
4636700,16
4637320,15
4637948,11
4638576,11
4639204,15
4639836,10
4640456,11
4641084,13
4641708,13
4642332,13
4642960,14
4643584,12
4644212,14
4644836,12
4645460,11
4646092,11
4646712,14
4647340,14
4647972,16
4648592,15
4649220,13
4649844,15
4650476,23
4651104,28
4651728,22
4652356,16
4652980,11
4653604,11
4654236,12
4654856,13
4655484,11
4656112,11
4656736,12
4657364,13
4657988,14
4658620,16
4659252,14
4659872,13
4660500,10
4661124,11
4661756,11
4662384,10
4663008,11
4663640,11
4664264,13
4664888,18
4665516,21
4666136,23
4666768,23
4667396,16
4668016,14
4668648,11
4669272,11
4669904,13
4670532,10
4671152,12
4671784,12
4672408,11
4673032,11
4673660,12
4674280,14
4674908,13
4675532,17
4676156,17
4676788,10
4677408,11
4678036,11
4678668,10
4679288,11
4679916,11
4680544,16
4681172,21
4681804,20
4682424,16
4683052,15
4683680,17
4684300,17
4684932,14
4685552,11
4686180,11
4686804,10
4687428,14
4688060,19
4688680,19
4689308,17
4689940,12
4690560,12
4691188,13
4691816,14
4692444,21
4693076,15
4693696,11
4694328,13
4694952,15
4695576,11
4696208,12
4696824,12
4697456,11
4698080,13
4698704,17
4699332,19
4699952,23
4700584,23
4701216,16
4701832,11
4702464,14
4703088,21
4703720,19
4704352,14
4704968,11
4705600,14
4706224,12
4706848,11
4707480,13
4708100,14
4708728,14
4709356,14
4709980,13
4710612,11
4711236,11
4711868,13
4712496,17
4713116,12
4713744,11
4714368,12
4715000,14
4715632,17
4716248,18
4716880,17
4717504,18
4718128,15
4718756,13
4719376,11
4720008,13
4720628,17
4721256,15
4721884,11
4722508,12
4723140,15
4723772,16
4724392,19
4725024,15
4725648,14
4726276,17
4726908,18
4727528,17
4728160,12
4728784,11
4729408,14
4730040,15
4730656,11
4731288,12
4731916,20
4732536,26
4733168,17
4733792,14
4734424,15
4735052,14
4735672,12
4736304,11
4736928,16
4737552,16
4738184,13
4738800,11
4739428,11
4740056,11
4740680,13
4741308,13
4741928,14
4742560,15
4743188,14
4743808,11
4744440,11
4745064,15
4745692,15
4746324,11
4746944,11
4747576,11
4748200,16
4748824,21
4749452,21
4750072,20
4750704,15
4751328,13
4751956,11
4752588,12
4753208,13
4753836,13
4754468,10
4755088,12
4755720,14
4756344,13
4756972,11
4757604,12
4758224,14
4758856,14
4759480,13
4760104,11
4760736,10
4761352,11
4761984,12
4762608,14
4763232,11
4763860,11
4764484,11
4765116,11
4765748,18
4766368,21
4767000,18
4767624,13
4768256,13
4768884,16
4769504,19
4770136,13
4770760,11
4771384,11
4772016,17
4772632,14
4773264,11
4773892,15
4774512,18
4775140,21
4775768,19
4776396,14
4777028,12
4777648,15
4778276,14
4778904,13
4779528,13
4780156,19
4780776,14
4781408,14
4782036,23
4782660,15
4783292,14
4783912,16
4784544,17
4785176,16
4785796,13
4786428,13
4787052,12
4787684,12
4788316,12
4788936,11
4789568,27
4790192,32
4790816,19
4791448,13
4792068,14
4792700,14
4793324,12
4793952,12
4794580,12
4795204,11
4795836,10
4796468,12
4797088,17
4797720,18
4798344,15
4798976,16
4799608,13
4800228,13
4800856,14
4801480,13
4802104,9
4802680,13
4803304,11
4803932,12
4804556,11
4805180,10
4805808,12
4806432,15
4807060,12
4807692,14
4808312,15
4808944,13
4809568,14
4810196,11
4810828,10
4811448,11
4812080,13
4812704,12
4813328,11
4813956,16
4814576,24
4815204,25
4815828,26
4816452,21
4817084,15
4817704,17
4818332,15
4818964,10
4819584,11
4820212,11
4820836,11
4821468,11
4822100,18
4822720,18
4823348,12
4823976,15
4824600,17
4825228,16
4825848,16
4826476,18
4827100,13
4827728,11
4828356,10
4828976,13
4829604,11
4830236,12
4830856,17
4831488,21
4832112,21
4832740,31
4833372,30
4833992,28
4834620,21
4835244,11
4835868,11
4836500,11
4837120,19
4837748,24
4838376,19
4839000,14
4839628,12
4840248,12
4840876,14
4841508,22
4842128,22
4842756,15
4843384,11
4844012,11
4844644,11
4845264,12
4845892,15
4846520,27
4847144,32
4847776,27
4848392,23
4849024,24
4849648,18
4850272,16
4850904,13
4851528,12
4852156,11
4852788,12
4853408,11
4854040,13
4854664,13
4855292,13
4855924,12
4856544,11
4857176,13
4857800,15
4858424,15
4859056,13
4859672,13
4860304,11
4860936,11
4861552,11
4862184,10
4862812,10
4863440,11
4864072,12
4864696,17
4865324,21
4865948,22
4866572,24
4867200,20
4867824,18
4868452,15
4869076,12
4869704,12
4870332,13
4870952,11
4871584,11
4872212,11
4872832,20
4873464,21
4874088,14
4874716,14
4875348,14
4875968,14
4876600,14
4877224,17
4877848,14
4878476,22
4879096,32
4879728,14
4880352,15
4880976,24
4881604,30
4882224,30
4882856,18
4883484,14
4884104,16
4884732,14
4885360,12
4885988,14
4886620,10
4887240,11
4887868,14
4888496,12
4889120,11
4889748,11
4890368,11
4890996,13
4891624,13
4892248,14
4892876,14
4893496,14
4894128,13
4894756,10
4895376,13
4896008,14
4896628,14
4897260,11
4897892,10
4898512,12
4899144,20
4899768,18
4900392,14
4901024,14
4901640,12
4902272,11
4902896,10
4903520,10
4904152,11
4904776,11
4905408,11
4906036,10
4906656,11
4907288,15
4907912,17
4908544,15
4909176,13
4909796,13
4910428,11
4911052,11
4911676,13
4912308,11
4912928,11
4913560,10
4914192,12
4914816,14
4915448,17
4916072,19
4916700,15
4917332,13
4917952,14
4918580,11
4919204,11
4919828,10
4920460,12
4921080,21
4921708,15
4922332,11
4922956,15
4923584,16
4924208,19
4924836,17
4925468,14
4926088,15
4926716,11
4927340,11
4927972,11
4928604,14
4929224,14
4929852,12
4930476,11
4931100,12
4931732,14
4932352,23
4932980,22
4933604,17
4934228,15
4934860,16
4935480,14
4936112,13
4936740,10
4937360,12
4937988,12
4938612,12
4939244,10
4939876,10
4940496,14
4941124,13
4941748,13
4942372,14
4943004,16
4943624,13
4944252,12
4944876,11
4945500,12
4946132,13
4946756,13
4947388,15
4948016,14
4948632,14
4949264,20
4949888,16
4950520,14
4951148,13
4951768,11
4952400,11
4953024,11
4953648,12
4954276,10
4954896,11
4955524,10
4956152,11
4956776,13
4957408,14
4958032,13
4958664,13
4959292,15
4959912,16
4960544,12
4961168,11
4961796,10
4962428,12
4963048,14
4963676,11
4964304,12
4964928,16
4965556,20
4966176,18
4966808,14
4967436,16
4968056,19
4968684,17
4969308,12
4969936,14
4970568,15
4971184,13
4971816,11
4972440,11
4973064,10
4973692,13
4974312,18
4974944,21
4975568,16
4976192,15
4976820,11
4977440,11
4978068,11
4978700,10
4979320,11
4979948,13
4980572,15
4981204,16
4981832,15
4982456,17
4983084,15
4983708,14
4984336,14
4984964,12
4985584,11
4986216,11
4986840,11
4987464,11
4988096,10
4988712,12
4989344,20
4989976,15
4990592,14
4991224,13
4991852,15
4992484,14
4993112,12
4993732,11
4994360,14
4994988,16
4995612,19
4996240,19
4996864,15
4997492,22
4998116,27
4998740,24
4999372,18
4999992,14
5000624,13
5001252,14
5001872,11
5002500,11
5003124,10
5003756,14
5004388,12
5005008,14
5005636,18
5006264,13
5006888,11
5007516,12
5008136,14
5008764,15
5009388,16
5010012,11
5010644,11
5011268,12
5011900,13
5012532,18
5013152,27
5013784,16
5014408,12
5015036,11
5015668,24
5016288,34
5016920,40
5017544,37
5018168,23
5018800,13
5019416,11
5020048,13
5020676,14
5021296,12
5021924,11
5022552,11
5023184,11
5023812,12
5024432,13
5025064,15
5025688,17
5026312,16
5026944,12
5027560,12
5028192,11
5028816,14
5029440,13
5030068,11
5030688,12
5031316,12
5031948,14
5032568,16
5033200,16
5033824,16
5034456,16
5035084,14
5035704,11
5036336,11
5036960,12
5037584,13
5038216,10
5038836,11
5039464,11
5040092,10
5040716,13
5041344,14
5041964,13
5042592,14
5043224,11
5043844,11
5044472,11
5045096,11
5045728,11
5046356,11
5046976,11
5047608,12
5048232,12
5048856,15
5049484,15
5050104,14
5050736,14
5051360,13
5051984,12
5052616,12
5053236,10
5053868,11
5054496,12
5055120,12
5055752,13
5056376,18
5057008,19
5057640,17
5058256,15
5058888,15
5059512,15
5060136,20
5060768,21
5061384,11
5062016,23
5062644,22
5063268,13
5063896,12
5064524,14
5065152,12
5065784,14
5066408,15
5067040,19
5067664,29
5068296,25
5068928,12
5069544,10
5070176,11
5070800,15
5071424,22
5072056,19
5072672,12
5073304,11
5073936,18
5074552,25
5075184,26
5075812,18
5076444,12
5077076,10
5077696,12
5078328,12
5078956,12
5079584,13
5080212,18
5080832,25
5081464,20
5082088,17
5082712,16
5083344,13
5083960,13
5084592,17
5085224,10
5085840,13
5086472,11
5087096,12
5087728,15
5088360,12
5088976,11
5089608,11
5090232,17
5090856,13
5091488,16
5092104,14
5092736,14
5093360,11
5093984,11
5094616,11
5095240,13
5095872,11
5096500,11
5097120,12
5097752,11
5098376,16
5099008,20
5099640,18
5100260,17
5100888,16
5101512,11
5102140,10
5102772,10
5103392,13
5104024,10
5104656,14
5105276,15
5105908,12
5106532,10
5107164,16
5107800,25
5108420,18
5109052,14
5109676,13
5110304,11
5110936,10
5111556,10
5112188,11
5112816,11
5113440,12
5114072,14
5114696,16
5115332,16
5115964,14
5116588,13
5117220,14
5117844,14
5118472,11
5119104,11
5119724,12
5120360,10
5120980,10
5121604,11
5122232,12
5122848,13
5123476,11
5124104,13
5124720,15
5125352,15
5125972,18
5126604,19
5127232,12
5127848,10
5128480,14
5129100,21
5129732,22
5130360,14
5130976,15
5131604,19
5132228,23
5132852,20
5133480,16
5134096,13
5134728,12
5135352,11
5135976,11
5136604,10
5137228,10
5137860,11
5138488,10
5139112,11
5139744,12
5140368,14
5140996,14
5141628,15
5142248,17
5142876,13
5143500,11
5144124,11
5144756,10
5145376,11
5146004,12
5146636,12
5147256,13
5147884,16
5148508,15
5149140,16
5149768,20
5150388,24
5151016,23
5151640,23
5152268,18
5152896,13
5153512,10
5154144,13
5154768,12
5155392,13
5156020,10
5156640,12
5157268,15
5157900,14
5158520,14
5159148,14
5159772,11
5160404,16
5161032,15
5161656,13
5162284,11
5162908,10
5163532,12
5164160,13
5164776,14
5165408,18
5166032,17
5166656,14
5167284,14
5167904,13
5168536,11
5169164,12
5169784,17
5170412,22
5171036,17
5171668,12
5172300,10
5172920,10
5173548,12
5174172,22
5174796,19
5175428,14
5176048,14
5176676,11
5177300,11
5177924,12
5178556,12
5179176,12
5179808,13
5180436,10
5181056,11
5181688,17
5182308,25
5182940,18
5183572,12
5184192,14
5184820,11
5185444,10
5186068,11
5186696,10
5187320,11
5187948,11
5188572,10
5189200,13
5189828,12
5190448,14
5191076,13
5191708,12
5192328,14
5192956,13
5193584,11
5194212,11
5194844,13
5195464,13
5196096,11
5196720,13
5197344,13
5197976,15
5198592,22
5199224,17
5199848,14
5200472,15
5201100,15
5201720,19
5202348,11
5202980,10
5203600,11
5204228,10
5204852,12
5205484,15
5206112,15
5206732,11
5207360,15
5207984,13
5208608,16
5209236,13
5209856,12
5210484,12
5211108,12
5211732,11
5212364,10
5212984,11
5213612,11
5214244,16
5214864,17
5215496,22
5216120,18
5216748,18
5217380,14
5218000,15
5218628,12
5219252,11
5219880,19
5220508,23
5221128,21
5221756,17
5222384,12
5223008,11
5223640,13
5224264,15
5224892,14
5225524,18
5226144,21
5226772,19
5227400,15
5228028,14
5228660,15
5229280,11
5229908,19
5230536,21
5231160,14
5231792,12
5232408,16
5233040,17
5233668,14
5234288,15
5234920,13
5235544,12
5236172,11
5236804,10
5237424,11
5238056,15
5238680,22
5239304,12
5239936,10
5240552,13
5241184,13
5241808,14
5242432,14
5243064,11
5243680,11
5244308,10
5244940,14
5245560,12
5246188,11
5246812,11
5247440,19
5248072,25
5248688,28
5249316,22
5249936,21
5250564,19
5251192,18
5251808,12
5252440,11
5253064,11
5253684,12
5254316,16
5254936,16
5255564,13
5256188,12
5256816,11
5257444,13
5258068,14
5258696,15
5259324,14
5259944,11
5260572,11
5261196,11
5261828,11
5262456,12
5263072,14
5263704,15
5264328,14
5264948,11
5265580,13
5266200,14
5266828,15
5267452,16
5268080,13
5268708,11
5269332,11
5269960,11
5270592,13
5271208,10
5271840,14
5272464,11
5273092,11
5273724,14
5274344,14
5274972,14
5275596,13
5276220,13
5276848,11
5277464,10
5278096,15
5278720,18
5279344,14
5279972,14
5280600,16
5281228,17
5281856,19
5282472,21
5283104,21
5283728,19
5284356,15
5284988,12
5285608,11
5286236,11
5286860,12
5287480,17
5288112,17
5288728,15
5289356,14
5289980,11
5290608,20
5291236,18
5291860,15
5292488,17
5293120,11
5293736,10
5294364,12
5294988,11
5295620,11
5296248,11
5296864,11
5297496,12
5298120,12
5298744,14
5299372,13
5299992,15
5300620,15
5301244,14
5301872,13
5302500,12
5303124,10
5303756,11
5304388,10
5305008,12
5305636,11
5306260,14
5306884,17
5307516,12
5308136,17
5308764,15
5309392,16
5310016,15
5310648,10
5311264,11
5311896,11
5312524,15
5313144,16
5313772,11
5314396,13
5315028,20
5315660,26
5316280,25
5316908,20
5317532,17
5318160,13
5318788,12
5319408,11
5320036,10
5320660,11
5321284,11
5321916,10
5322536,11
5323164,11
5323796,14
5324416,14
5325048,13
5325668,13
5326296,12
5326928,11
5327544,17
5328172,12
5328796,11
5329420,11
5330048,11
5330664,12
5331292,13
5331916,17
5332540,23
5333168,19
5333784,14
5334416,15
5335044,12
5335664,15
5336292,14
5336916,10
5337548,10
5338176,10
5338800,12
5339428,10
5340052,11
5340680,15
5341308,14
5341928,15
5342556,14
5343180,11
5343808,10
5344436,11
5345056,13
5345684,12
5346316,10
5346936,12
5347564,12
5348188,12
5348820,16
5349448,16
5350064,17
5350696,22
5351320,16
5351944,11
5352572,10
5353192,11
5353820,11
5354444,13
5355068,14
5355700,12
5356320,13
5356948,14
5357580,14
5358200,15
5358828,15
5359452,13
5360084,11
5360712,10
5361336,11
5361964,12
5362588,11
5363212,11
5363840,10
5364464,12
5365092,13
5365716,19
5366344,18
5366972,14
5367592,13
5368220,12
5368852,10
5369472,11
5370100,13
5370724,23
5371356,22
5371988,18
5372608,13
5373236,11
5373864,13
5374488,15
5375116,16
5375736,15
5376368,11
5376992,11
5377616,15
5378244,12
5378864,11
5379492,20
5380120,33
5380744,31
5381372,17
5381996,14
5382628,14
5383256,16
5383872,16
5384504,23
5385128,19
5385752,15
5386380,11
5387000,11
5387628,12
5388252,18
5388876,15
5389504,10
5390128,18
5390756,17
5391388,14
5392008,14
5392636,14
5393260,12
5393892,11
5394520,11
5395144,11
5395776,13
5396400,14
5397024,16
5397652,16
5398272,16
5398904,15
5399528,15
5400152,15
5400780,13
5401400,12
5402032,11
5402660,10
5403280,11
5403908,11
5404532,10
5405164,11
5405796,12
5406416,12
5407044,13
5407668,14
5408292,14
5408920,16
5409544,16
5410172,12
5410796,11
5411420,13
5412052,13
5412672,11
5413304,17
5413932,18
5414552,23
5415180,21
5415804,16
5416436,16
5417068,19
5417688,21
5418316,14
5418940,9
5419512,11
5420152,10
5420768,11
5421400,12
5422024,11
5422648,14
5423276,14
5423896,15
5424528,16
5425156,14
5425776,14
5426404,12
5427032,11
5427660,12
5428292,11
5428912,10
5429540,12
5430164,11
5430792,11
5431420,11
5432040,21
5432668,25
5433292,29
5433916,25
5434548,18
5435168,13
5435800,11
5436428,19
5437048,24
5437676,17
5438304,13
5438932,12
5439564,10
5440184,14
5440812,13
5441436,14
5442056,14
5442688,15
5443304,16
5443932,12
5444556,12
5445180,13
5445808,11
5446432,11
5447060,12
5447692,17
5448312,17
5448940,16
5449564,15
5450192,15
5450824,15
5451440,12
5452072,14
5452696,12
5453320,13
5453948,18
5454568,21
5455196,21
5455820,15
5456444,12
5457076,22
5457696,25
5458324,17
5458956,14
5459576,13
5460204,11
5460828,11
5461460,11
5462088,10
5462704,11
5463336,11
5463960,11
5464584,16
5465212,18
5465832,15
5466460,13
5467084,15
5467708,15
5468340,10
5468960,11
5469588,10
5470220,10
5470840,11
5471468,10
5472096,10
5472724,11
5473356,11
5473976,15
5474604,17
5475228,14
5475852,14
5476484,10
5477104,11
5477736,11
5478360,12
5478984,11
5479616,16
5480232,17
5480860,25
5481492,30
5482112,30
5482744,21
5483364,15
5483996,15
5484628,10
5485248,12
5485876,11
5486504,13
5487128,14
5487756,15
5488376,13
5489008,11
5489632,11
5490256,14
5490884,14
5491504,14
5492132,14
5492764,14
5493384,12
5494016,11
5494640,11
5495268,11
5495900,14
5496520,15
5497148,11
5497776,17
5498400,20
5499028,22
5499648,23
5500276,17
5500904,15
5501528,14
5502156,10
5502776,11
5503408,15
5504040,15
5504656,13
5505284,10
5505908,10
5506540,11
5507168,12
5507792,15
5508424,14
5509048,14
5509672,12
5510300,11
5510920,11
5511548,11
5512176,11
5512800,12
5513428,11
5514056,11
5514684,12
5515316,16
5515936,19
5516568,15
5517192,17
5517824,19
5518452,12
5519072,9
5519652,11
5520280,10
5520904,11
5521532,10
5522152,11
5522784,9
5523356,11
5523984,14
5524616,16
5525232,19
5525864,17
5526488,11
5527112,11
5527744,11
5528360,12
5528992,11
5529624,11
5530240,11
5530868,11
5531492,12
5532124,17
5532752,14
5533376,16
5534004,16
5534632,13
5535256,11
5535884,12
5536504,13
5537132,14
5537756,16
5538380,17
5539012,13
5539632,11
5540264,15
5540892,14
5541512,14
5542144,13
5542768,13
5543396,10
5544028,10
5544648,11
5545276,14
5545900,15
5546528,14
5547156,20
5547776,23
5548408,23
5549032,20
5549656,17
5550288,14
5550904,14
5551536,11
5552164,10
5552784,11
5553416,13
5554040,15
5554668,12
5555300,11
5555920,11
5556552,15
5557176,19
5557800,20
5558428,19
5559048,15
5559680,11
5560304,13
5560928,11
5561560,18
5562184,17
5562816,16
5563444,14
5564064,17
5564696,25
5565320,30
5565952,27
5566584,23
5567204,18
5567832,12
5568460,11
5569084,10
5569716,10
5570336,11
5570968,11
5571596,10
5572216,13
5572844,13
5573468,14
5574100,15
5574728,14
5575352,15
5575984,16
5576608,14
5577232,13
5577864,11
5578480,11
5579108,11
5579736,15
5580360,20
5580992,17
5581608,15
5582236,14
5582868,14
5583488,15
5584116,15
5584740,14
5585372,11
5586004,10
5586624,11
5587252,15
5587876,17
5588500,16
5589132,11
5589752,11
5590384,13
5591008,14
5591632,13
5592264,14
5592884,14
5593512,13
5594144,10
5594764,10
5595396,11
5596020,11
5596652,13
5597280,12
5597904,15
5598536,22
5599160,18
5599784,16
5600416,21
5601032,19
5601664,18
5602288,15
5602912,11
5603540,11
5604164,17
5604796,18
5605424,17
5606048,19
5606680,16
5607304,13
5607932,13
5608564,14
5609184,15
5609812,21
5610440,29
5611064,22
5611692,18
5612312,17
5612940,13
5613564,11
5614192,13
5614820,12
5615444,13
5616076,14
5616708,14
5617328,15
5617956,11
5618584,10
5619208,11
5619836,10
5620456,12
5621088,11
5621712,10
5622336,11
5622968,10
5623584,13
5624216,15
5624848,14
5625464,15
5626096,12
5626720,11
5627348,13
5627980,10
5628600,13
5629232,16
5629856,11
5630480,11
5631112,11
5631732,15
5632364,15
5632984,13
5633608,14
5634236,14
5634856,11
5635484,10
5636116,10
5636736,10
5637364,10
5637988,10
5638620,11
5639248,14
5639868,17
5640496,18
5641120,14
5641744,14
5642372,14
5642992,11
5643620,12
5644244,14
5644868,13
5645496,10
5646120,15
5646748,18
5647380,16
5648000,13
5648628,15
5649252,13
5649884,17
5650512,16
5651136,12
5651768,11
5652392,11
5653016,15
5653644,10
5654264,16
5654892,15
5655516,12
5656140,15
5656772,20
5657392,21
5658024,15
5658652,14
5659272,13
5659900,11
5660524,11
5661156,11
5661784,10
5662408,11
5663036,12
5663664,12
5664288,14
5664916,12
5665536,16
5666164,15
5666788,16
5667412,18
5668044,17
5668664,13
5669292,13
5669924,14
5670544,14
5671172,12
5671800,11
5672428,14
5673060,12
5673680,14
5674308,14
5674932,14
5675556,13
5676188,10
5676808,11
5677436,11
5678064,12
5678688,11
5679316,11
5679944,13
5680576,14
5681204,15
5681824,16
5682456,15
5683080,15
5683712,13
5684340,12
5684960,11
5685588,12
5686212,13
5686840,12
5687468,10
5688088,11
5688716,12
5689340,10
5689968,13
5690596,14
5691224,13
5691852,14
5692484,14
5693104,12
5693736,11
5694360,12
5694984,13
5695616,12
5696232,12
5696864,21
5697488,22
5698112,22
5698740,21
5699360,17
5699988,16
5700620,14
5701240,11
5701868,11
5702496,12
5703124,10
5703756,10
5704376,12
5705004,11
5705628,11
5706256,11
5706884,13
5707504,14
5708136,15
5708760,14
5709384,11
5710016,12
5710636,21
5711268,12
5711896,18
5712520,21
5713152,13
5713776,16
5714408,23
5715036,22
5715656,18
5716288,18
5716912,19
5717536,17
5718168,12
5718788,10
5719416,10
5720044,10
5720668,13
5721300,12
5721924,10
5722552,10
5723184,11
5723808,13
5724440,14
5725068,14
5725696,13
5726328,11
5726948,11
5727580,11
5728204,11
5728832,12
5729460,11
5730080,12
5730712,15
5731344,22
5731964,21
5732592,17
5733220,14
5733852,13
5734484,10
5735104,11
5735732,10
5736356,11
5736980,10
5737608,10
5738232,11
5738860,11
5739484,11
5740108,13
5740740,14
5741360,17
5741988,16
5742620,12
5743240,11
5743868,11
5744496,13
5745124,17
5745756,16
5746376,19
5747008,22
5747632,22
5748256,21
5748884,20
5749504,22
5750136,22
5750760,17
5751384,13
5752016,18
5752632,19
5753264,21
5753892,19
5754512,16
5755144,16
5755768,12
5756400,13
5757028,14
5757648,13
5758280,14
5758904,14
5759528,16
5760160,18
5760776,15
5761404,15
5762028,13
5762648,10
5763280,11
5763896,11
5764524,13
5765156,17
5765776,19
5766404,16
5767028,17
5767656,14
5768284,13
5768904,11
5769532,11
5770156,12
5770780,11
5771412,12
5772032,13
5772660,10
5773288,15
5773908,16
5774540,14
5775160,15
5775792,14
5776420,10
5777040,11
5777668,11
5778292,11
5778920,11
5779552,11
5780168,11
5780800,12
5781420,13
5782048,15
5782676,14
5783296,17
5783924,17
5784552,11
5785176,11
5785804,10
5786424,10
5787052,12
5787680,12
5788304,11
5788932,12
5789556,12
5790188,14
5790816,14
5791440,15
5792068,17
5792692,11
5793316,12
5793948,25
5794568,21
5795196,11
5795824,11
5796448,14
5797076,18
5797700,19
5798332,21
5798964,17
5799584,16
5800216,19
5800840,17
5801468,12
5802100,12
5802720,13
5803348,11
5803976,11
5804600,11
5805228,14
5805848,15
5806476,11
5807100,12
5807728,14
5808360,14
5808984,15
5809612,11
5810244,12
5810864,11
5811496,11
5812120,21
5812744,18
5813376,11
5813992,12
5814624,13
5815248,19
5815872,18
5816504,17
5817120,19
5817748,19
5818380,16
5819000,21
5819628,20
5820256,13
5820884,12
5821516,17
5822136,22
5822768,13
5823392,14
5824016,13
5824644,13
5825264,15
5825892,14
5826516,11
5827144,11
5827772,12
5828392,14
5829024,13
5829652,12
5830272,13
5830904,13
5831528,16
5832160,16
5832788,15
5833408,17
5834040,14
5834664,11
5835288,11
5835920,10
5836536,11
5837168,12
5837792,10
5838416,13
5839048,10
5839664,10
5840296,19
5840924,23
5841544,23
5842172,15
5842800,16
5843428,23
5844060,20
5844680,11
5845308,13
5845932,13
5846560,12
5847188,16
5847808,19
5848436,19
5849060,21
5849688,21
5850316,18
5850936,16
5851564,17
5852196,14
5852816,11
5853444,12
5854068,12
5854700,11
5855332,10
5855952,10
5856584,14
5857212,16
5857836,15
5858464,16
5859088,19
5859720,14
5860344,12
5860968,11
5861596,11
5862224,16
5862856,23
5863484,23
5864104,24
5864732,20
5865360,20
5865988,21
5866620,16
5867240,14
5867872,11
5868496,11
5869120,11
5869748,12
5870368,11
5871000,11
5871632,11
5872252,11
5872880,11
5873504,15
5874136,15
5874768,14
5875384,15
5876016,11
5876640,12
5877264,13
5877896,11
5878512,10
5879144,11
5879768,11
5880392,15
5881024,17
5881640,17
5882272,15
5882904,15
5883520,14
5884152,13
5884776,12
5885408,12
5886040,10
5886660,10
5887292,11
5887916,11
5888544,11
5889172,10
5889792,19
5890420,21
5891044,16
5891672,13
5892300,13
5892920,11
5893552,10
5894180,10
5894800,11
5895428,13
5896056,12
5896684,12
5897316,12
5897936,21
5898568,31
5899188,29
5899816,20
5900444,17
5901064,18
5901692,11
5902316,18
5902940,18
5903572,14
5904196,11
5904828,13
5905456,14
5906076,13
5906704,13
5907328,13
5907960,14
5908592,14
5909208,12
5909836,11
5910460,11
5911088,11
5911716,10
5912336,11
5912964,12
5913592,13
5914216,15
5914848,17
5915472,14
5916104,14
5916732,14
5917352,15
5917984,15
5918608,16
5919240,13
5919868,10
5920488,11
5921116,10
5921740,16
5922364,16
5922996,10
5923616,13
5924244,15
5924876,16
5925496,16
5926128,12
5926752,11
5927380,11
5928012,10
5928632,12
5929264,11
5929888,13
5930512,15
5931140,15
5931760,15
5932392,15
5933016,15
5933640,18
5934272,18
5934888,15
5935516,11
5936148,16
5936768,22
5937400,23
5938024,17
5938656,12
5939284,10
5939904,14
5940532,14
5941156,15
5941780,16
5942408,13
5943024,11
5943656,11
5944280,11
5944904,12
5945532,13
5946152,11
5946784,12
5947412,12
5948032,13
5948660,14
5949288,16
5949916,19
5950548,19
5951168,19
5951800,15
5952424,12
5953048,10
5953676,12
5954296,13
5954924,10
5955548,12
5956176,11
5956804,13
5957424,16
5958056,18
5958684,18
5959304,13
5959936,14
5960560,16
5961188,17
5961820,12
5962440,12
5963068,12
5963696,11
5964320,11
5964948,14
5965568,15
5966196,16
5966824,14
5967448,12
5968076,10
5968696,11
5969324,12
5969956,14
5970576,11
5971204,11
5971828,15
5972460,17
5973092,14
5973712,14
5974344,17
5974968,16
5975592,14
5976224,14
5976844,13
5977472,11
5978100,10
5978724,11
5979356,11
5979980,11
5980612,12
5981244,10
5981864,15
5982496,22
5983120,25
5983752,18
5984380,11
5985000,11
5985632,10
5986256,10
5986880,11
5987508,11
5988128,12
5988760,11
5989388,10
5990008,14
5990640,14
5991264,14
5991892,13
5992524,11
5993144,11
5993776,11
5994400,12
5995024,16
5995656,13
5996272,12
5996904,12
5997528,11
5998152,15
5998784,16
5999404,15
6000032,16
6000664,14
6001280,12
6001912,12
6002536,10
6003168,10
6003800,10
6004416,11
6005048,11
6005672,12
6006296,12
6006928,13
6007544,13
6008176,13
6008800,15
6009424,11
6010056,10
6010672,10
6011304,11
6011936,10
6012556,11
6013188,11
6013812,15
6014444,16
6015076,15
6015696,13
6016328,14
6016952,17
6017580,19
6018208,14
6018832,11
6019464,12
6020088,18
6020712,19
6021344,21
6021968,16
6022596,12
6023228,13
6023848,17
6024476,22
6025104,24
6025732,18
6026364,14
6026984,11
6027616,11
6028240,12
6028864,11
6029492,11
6030112,13
6030744,16
6031372,17
6031992,17
6032624,17
6033248,15
6033880,15
6034508,11
6035128,11
6035760,10
6036388,11
6037012,11
6037644,11
6038264,12
6038896,11
6039520,11
6040144,13
6040776,14
6041396,13
6042028,13
6042660,10
6043280,11
6043908,13
6044536,14
6045164,15
6045796,18
6046416,16
6047048,12
6047672,12
6048296,17
6048924,15
6049544,15
6050176,16
6050800,13
6051424,11
6052056,12
6052680,12
6053308,11
6053940,12
6054560,14
6055188,16
6055816,14
6056448,14
6057076,13
6057696,15
6058328,16
6058952,14
6059576,11
6060208,12
6060828,10
6061456,12
6062088,14
6062704,15
6063336,16
6063960,18
6064592,27
6065224,25
6065840,16
6066472,13
6067096,14
6067720,10
6068352,11
6068972,12
6069600,14
6070228,17
6070852,17
6071484,14
6072104,13
6072736,12
6073364,14
6073984,18
6074616,20
6075240,15
6075872,13
6076504,14
6077120,15
6077752,12
6078376,11
6079004,16
6079636,18
6080256,21
6080888,17
6081512,14
6082136,15
6082768,14
6083384,14
6084012,14
6084644,18
6085264,19
6085892,21
6086520,15
6087148,10
6087780,10
6088400,17
6089028,14
6089652,14
6090280,15
6090908,14
6091528,15
6092160,16
6092784,19
6093408,18
6094040,15
6094664,15
6095296,14
6095924,13
6096544,13
6097176,12
6097800,13
6098428,13
6099060,14
6099680,15
6100308,14
6100936,12
6101560,11
6102192,10
6102812,9
6103392,10
6104016,11
6104640,11
6105268,10
6105888,10
6106520,15
6107152,14
6107772,14
6108400,14
6109028,13
6109656,10
6110288,10
6110908,10
6111540,11
6112164,11
6112792,11
6113420,13
6114040,13
6114672,17
6115296,17
6115920,15
6116552,13
6117172,13
6117800,10
6118432,10
6119056,11
6119688,11
6120312,11
6120944,11
6121576,10
6122196,13
6122828,14
6123452,13
6124080,13
6124708,14
6125328,15
6125960,12
6126584,11
6127208,15
6127840,15
6128464,13
6129096,13
6129728,12
6130344,18
6130976,23
6131604,25
6132232,22
6132864,17
6133484,15
6134116,15
6134740,11
6135368,16
6135996,10
6136620,15
6137252,15
6137884,10
6138504,12
6139136,11
6139764,16
6140396,20
6141028,19
6141648,15
6142280,13
6142908,18
6143536,22
6144168,15
6144784,11
6145412,12
6146036,13
6146660,16
6147288,18
6147912,22
6148540,20
6149172,17
6149792,16
6150420,14
6151044,11
6151676,10
6152304,10
6152928,11
6153556,10
6154184,11
6154808,13
6155436,12
6156056,11
6156684,13
6157312,13
6157936,13
6158564,13
6159188,11
6159820,11
6160452,10
6161072,11
6161700,11
6162324,11
6162952,11
6163580,13
6164200,15
6164828,19
6165452,18
6166076,17
6166708,17
6167328,14
6167956,11
6168588,10
6169208,11
6169840,11
6170460,10
6171092,10
6171720,10
6172344,11
6172972,13
6173596,15
6174224,15
6174856,16
6175472,17
6176104,15
6176724,17
6177348,12
6177980,10
6178600,11
6179228,12
6179860,24
6180480,31
6181108,28
6181736,21
6182364,14
6182996,15
6183616,15
6184248,13
6184872,13
6185496,11
6186124,11
6186744,11
6187376,12
6188000,13
6188624,15
6189256,15
6189872,14
6190504,13
6191136,14
6191752,14
6192384,11
6193012,10
6193640,11
6194272,11
6194892,12
6195524,11
6196148,11
6196772,14
6197404,15
6198024,22
6198656,26
6199280,21
6199904,19
6200536,15
6201160,12
6201788,10
6202420,10
6203040,14
6203672,12
6204296,11
6204928,12
6205556,11
6206176,14
6206808,18
6207432,18
6208056,17
6208684,14
6209304,12
6209932,11
6210556,10
6211184,11
6211816,11
6212440,13
6213072,17
6213700,15
6214320,18
6214952,19
6215576,19
6216200,14
6216832,14
6217452,11
6218080,11
6218708,14
6219332,13
6219964,10
6220584,11
6221216,11
6221848,11
6222468,11
6223096,14
6223724,14
6224356,16
6224988,13
6225608,14
6226240,11
6226864,11
6227488,11
6228116,10
6228736,11
6229364,11
6229992,12
6230616,12
6231248,14
6231864,19
6232496,18
6233124,16
6233744,17
6234372,14
6235000,11
6235628,10
6236260,10
6236880,11
6237508,10
6238136,11
6238760,12
6239392,10
6240008,13
6240640,14
6241264,16
6241888,16
6242516,12
6243144,13
6243776,11
6244404,10
6245024,11
6245656,11
6246280,12
6246912,13
6247540,12
6248160,25
6248788,21
6249412,16
6250036,17
6250668,14
6251288,14
6251916,12
6252544,10
6253168,11
6253796,17
6254424,17
6255052,15
6255684,12
6256304,16
6256936,15
6257560,15
6258184,14
6258816,13
6259432,10
6260064,11
6260688,11
6261312,12
6261944,10
6262560,11
