tempo_arduino_micro_s,valor_ADC
500,12
1004,12
1504,12
2000,10
2508,17
3000,14
3508,17
4000,22
4508,17
5000,15
5500,16
6000,21
6500,18
7004,17
7500,13
8000,11
8500,10
9000,10
9500,10
10000,11
10516,10
11036,10
11564,13
12084,18
12612,16
13132,15
13660,14
14180,17
14708,16
15228,12
15756,12
16276,14
16796,12
17316,10
17836,12
18356,12
18876,14
19396,15
19916,14
20436,19
20956,24
21476,22
21996,17
22516,16
23036,16
23564,13
24084,12
24612,11
25132,11
25660,10
26180,10
26708,12
27228,12
27756,11
28276,10
28804,18
29324,18
29852,20
30372,18
30900,13
31420,15
31948,14
32472,16
32996,16
33516,14
34044,10
34564,10
35092,11
35612,13
36140,12
36660,17
37188,22
37708,19
38236,19
38760,23
39284,22
39804,18
40332,18
40852,17
41372,14
41892,14
42412,14
42932,12
43452,11
43972,10
44492,10
45012,11
45532,14
46052,17
46572,23
47092,23
47612,25
48140,24
48660,15
49188,11
49708,11
50236,12
50756,16
51284,17
51804,17
52332,18
52852,19
53380,15
53900,14
54428,13
54948,17
55476,22
55996,21
56524,12
57044,14
57572,17
58096,16
58620,14
59140,13
59668,10
60188,10
60716,12
61240,12
61764,11
62284,17
62812,18
63332,17
63860,16
64384,16
64908,14
65428,15
65948,16
66468,15
66988,10
67508,11
68028,10
68548,11
69068,13
69588,19
70108,25
70628,33
71148,35
71672,26
72192,24
72716,19
73236,18
73764,13
74284,10
74812,11
75332,13
75860,14
76380,10
76908,10
77428,10
77956,11
78476,11
79004,15
79528,14
80052,15
80572,16
81100,15
81620,14
82148,17
82668,11
83196,10
83716,10
84244,16
84764,21
85292,18
85812,18
86340,15
86860,16
87388,19
87908,15
88436,14
88956,14
89484,16
90004,11
90524,20
91044,23
91564,20
92084,15
92604,12
93124,12
93644,12
94164,11
94684,12
95208,15
95724,14
96248,17
96764,22
97292,27
97812,27
98340,19
98860,13
99388,12
99908,12
100436,12
101000,11
101584,11
102156,14
102736,13
103304,13
103880,21
104456,25
105024,23
105600,27
106168,25
106744,26
107312,26
107896,19
108464,11
109040,12
109624,17
110192,13
110768,11
111336,10
111920,11
112492,14
113072,14
113640,16
114216,16
114800,18
115368,13
115952,12
116520,16
117104,14
117676,12
118252,14
118832,14
119400,11
119984,14
120556,14
121136,18
121704,23
122288,28
122856,33
123436,29
124016,20
124584,14
125168,10
125736,14
126320,12
126888,11
127464,11
128048,10
128616,12
129192,13
129760,15
130344,17
130912,16
131496,13
132064,12
132640,12
133216,11
133784,12
134360,12
134928,11
135512,14
136084,17
136656,17
137232,19
137800,15
138384,15
138952,16
139536,16
140104,18
140688,16
141260,19
141832,15
142416,11
142984,11
143568,10
144136,14
144720,11
145288,11
145864,13
146440,17
147008,18
147592,16
148160,11
148744,11
149312,14
149896,12
150464,10
151040,11
151624,12
152196,10
152776,14
153348,16
153928,23
154504,27
155088,23
155664,22
156232,18
156816,15
157384,18
157968,21
158540,13
159120,12
159692,16
160268,14
160848,11
161416,9
161940,12
162512,17
163096,14
163668,15
164248,15
164816,13
165384,13
165960,11
166528,13
167112,12
167680,10
168256,13
168824,15
169400,14
169968,16
170544,15
171120,16
171688,22
172272,19
172840,18
173424,18
173992,18
174572,18
175152,16
175720,15
176304,15
176872,11
177456,11
178024,11
178608,13
179176,14
179756,15
180336,15
180904,15
181488,13
182056,14
182640,13
183208,14
183784,11
184368,11
184936,11
185512,12
186084,18
186664,20
187232,18
187816,16
188388,21
188964,22
189544,21
190112,18
190696,19
191268,18
191848,14
192420,10
192992,13
193576,16
194148,15
194728,14
195296,16
195880,13
196448,14
197032,14
197604,17
198176,14
198760,11
199328,11
199912,11
200484,11
201064,10
201632,16
202208,11
202792,11
203364,11
203944,15
204516,22
205096,31
205664,28
206240,21
206808,16
207376,16
207952,11
208520,11
209104,10
209672,16
210256,13
210824,11
211400,17
211976,19
212544,14
213128,20
213696,23
214280,27
214848,15
215432,11
216000,15
216576,12
217152,11
217724,14
218304,16
218872,11
219456,12
220024,11
220608,14
221176,17
221752,18
222336,15
222908,19
223488,17
224060,21
224640,17
225208,11
225784,10
226368,10
226936,11
227520,11
228088,11
228672,14
229240,16
229824,20
230396,20
230972,19
231552,15
232124,12
232704,12
233276,10
233856,10
234424,11
235000,14
235584,13
236152,14
236736,22
237308,27
237888,25
238460,23
239040,33
239612,26
240188,14
240768,11
241336,11
241920,11
242488,11
243072,14
243644,27
244216,42
244800,38
245368,23
245952,14
246520,15
247104,16
247672,17
248256,29
248824,31
249400,25
249984,21
250552,18
251136,13
251708,11
252288,11
252856,12
253432,19
254016,26
254588,23
255168,19
255740,21
256320,19
256896,15
257472,11
258040,12
258616,12
259192,16
259760,15
260344,15
260912,15
261496,11
262064,15
262640,14
263224,14
263792,16
264376,15
264944,11
265528,10
266100,15
266680,17
267248,12
267824,11
268408,11
268976,16
269560,20
270128,14
270712,17
271284,18
271860,23
272440,30
273008,35
273592,33
274164,21
274744,12
275316,11
275896,11
276468,17
277044,20
277624,11
278192,11
278776,14
279348,14
279928,13
280500,14
281072,15
281656,10
282224,11
282808,11
283376,12
283960,13
284532,14
285112,16
285684,13
286256,11
286840,18
287408,24
287992,22
288564,19
289144,15
289712,13
290288,15
290872,19
291444,26
292024,16
292592,11
293176,17
293748,24
294328,13
294900,11
295472,15
296056,16
296624,23
297208,16
297776,15
298360,11
298932,11
299508,11
300088,15
300660,13
301240,12
301812,12
302392,11
302972,11
303552,14
304136,21
304708,17
305288,15
305860,16
306440,12
307020,17
307600,16
308176,14
308752,14
309336,11
309908,12
310488,15
311056,14
311640,12
312212,16
312788,14
313368,17
313940,15
314520,27
315092,31
315672,15
316252,11
316832,13
317404,12
317980,11
318560,11
319132,13
319712,14
320292,15
320872,13
321440,15
322016,19
322600,21
323168,22
323752,16
324324,11
324904,11
325476,13
326056,13
326628,11
327200,13
327784,11
328352,11
328928,13
329496,16
330080,15
330648,15
331224,14
331808,11
332380,11
332960,14
333528,22
334104,26
334672,20
335256,12
335824,11
336404,13
336984,17
337552,16
338136,18
338704,20
339288,20
339856,18
340432,19
341008,20
341576,11
342160,18
342728,15
343312,11
343884,11
344464,30
345032,42
345612,32
346192,21
346760,15
347344,14
347916,13
348496,11
349072,11
349648,11
350232,11
350804,11
351384,11
351956,15
352536,20
353112,22
353696,15
354264,17
354840,25
355424,28
355996,26
356576,18
357148,11
357728,9
358248,12
358824,14
359400,18
359976,19
360560,13
361128,11
361712,20
362280,15
362864,16
363436,16
364012,15
364592,13
365164,10
365744,18
366316,19
366896,17
367464,11
368048,11
368616,14
369196,10
369776,11
370344,14
370928,16
371500,14
372080,23
372648,26
373224,27
373808,25
374376,23
374960,15
375532,11
376112,10
376684,11
377264,20
377836,25
378412,22
378992,19
379564,17
380144,13
380716,14
381296,13
381876,18
382452,17
383032,16
383604,12
384184,11
384756,11
385336,11
385904,13
386488,13
387060,20
387636,22
388216,18
388784,15
389368,13
389936,12
390520,12
391088,14
391668,11
392248,10
392820,11
393400,13
393972,11
394552,13
395124,13
395704,15
396284,14
396860,15
397440,15
398012,14
398592,15
399164,13
399744,11
400324,11
400896,11
401480,16
402048,18
402632,12
403204,11
403784,15
404356,21
404936,21
405512,22
406084,23
406664,24
407236,18
407816,15
408388,15
408968,15
409540,22
410116,22
410696,11
411264,11
411848,13
412416,15
413000,23
413568,19
414152,14
414728,11
415296,13
415880,11
416452,11
417032,12
417600,14
418184,14
418752,13
419328,11
419912,12
420480,16
421064,14
421632,22
422216,26
422788,26
423368,26
423944,29
424516,37
425096,22
425664,11
426248,13
426816,12
427400,13
427972,26
428548,31
429128,26
429696,18
430280,15
430848,15
431432,10
432004,11
432584,11
433160,11
433732,13
434312,11
434884,14
435464,11
436032,13
436616,18
437184,25
437764,22
438344,18
438916,15
439496,13
440068,10
440648,11
441216,11
441800,13
442376,13
442948,11
443528,13
444100,10
444680,10
445252,15
445832,17
446404,19
446980,15
447560,15
448132,14
448712,12
449284,22
449864,33
450436,21
451016,10
451592,11
452164,11
452744,11
453316,17
453896,15
454468,15
455048,15
455616,16
456196,13
456776,21
457348,23
457928,18
458500,10
459080,11
459652,10
460232,11
460808,15
461376,14
461952,16
462524,16
463104,14
463676,14
464256,15
464824,13
465400,11
465984,11
466552,11
467136,11
467708,11
468288,11
468860,11
469440,13
470012,11
470588,19
471168,19
471740,21
472320,17
472888,22
473472,17
474044,14
474620,11
475200,11
475768,16
476352,15
476924,13
477504,10
478076,18
478656,21
479240,17
479812,14
480392,14
480964,16
481544,14
482116,14
482696,13
483268,11
483840,15
484424,32
484996,24
485576,14
486148,11
486728,13
487304,17
487888,17
488464,18
489032,18
489616,14
490184,17
490768,19
491340,11
491920,11
492496,15
493072,13
493656,11
494224,12
494808,12
495376,16
495960,20
496532,22
497108,20
497688,18
498256,16
498840,11
499412,14
499992,19
500564,16
501144,11
501716,11
502292,10
502872,13
503444,17
504024,21
504596,20
505176,17
505748,16
506324,16
506904,13
507476,12
508056,11
508628,10
509208,15
509788,11
510368,9
510888,11
511460,11
512044,14
512612,15
513192,19
513760,23
514344,19
514912,13
515496,11
516064,13
516640,11
517224,18
517792,27
518376,17
518948,20
519528,25
520100,31
520672,29
521256,31
521828,35
522408,34
522976,21
523560,11
524128,15
524712,22
525284,19
525856,13
526440,14
527008,15
527592,12
528164,13
528744,20
529312,22
529892,21
530472,26
531044,18
531624,15
532196,13
532776,12
533348,18
533928,18
534500,11
535072,11
535656,11
536228,12
536808,13
537376,16
537960,18
538528,19
539108,19
539688,20
540256,19
540840,15
541408,12
541992,9
542512,14
543088,16
543660,14
544236,15
544816,11
545384,18
545968,17
546536,19
547120,20
547692,14
548272,13
548844,16
549420,19
550000,21
550572,21
551152,23
551724,15
552304,11
552876,11
553452,15
554032,18
554604,23
555184,27
555756,24
556336,29
556916,33
557496,33
558068,30
558644,25
559224,17
559796,11
560376,17
560956,24
561536,29
562108,29
562684,24
563264,21
563836,15
564416,13
564988,11
565568,10
566140,12
566720,12
567292,10
567868,11
568448,11
569016,10
569600,13
570168,27
570752,32
571324,31
571900,25
572480,18
573052,13
573632,14
574204,12
574784,9
575304,14
575880,15
576460,12
577032,10
577616,11
578184,13
578768,13
579336,15
579920,14
580492,15
581072,13
581648,12
582220,11
582800,11
583372,10
583952,11
584524,11
585104,11
585676,10
586252,11
586832,27
587404,26
587984,21
588556,22
589136,22
589716,15
590292,14
590872,11
591444,11
592024,14
592592,13
593176,15
593756,12
594336,11
594916,16
595492,17
596072,14
596644,17
597224,16
597796,12
598376,11
598956,11
599532,11
600112,12
600684,13
601264,14
601836,11
602416,11
602988,18
603568,27
604140,18
604716,18
605296,20
605868,14
606448,24
607028,24
607608,21
608188,19
608764,13
609344,10
609916,13
610496,18
611068,17
611648,14
612228,15
612808,18
613392,17
613964,35
614548,40
615116,34
615696,21
616264,16
616848,16
617420,11
617996,16
618576,22
619148,18
619728,24
620308,30
620888,25
621464,20
622044,22
622624,24
623196,25
623776,20
624352,13
624928,11
625500,10
626080,11
626660,12
627236,11
627816,14
628388,15
628968,14
629548,22
630128,32
630708,32
631284,22
631864,11
632436,11
633016,10
633588,14
634172,13
634748,12
635328,11
635912,11
636488,13
637064,18
637636,19
638216,19
638796,17
639376,24
639956,31
640532,28
641112,11
641684,29
642264,39
642832,25
643416,11
643988,16
644564,22
645144,27
645712,24
646296,14
646868,16
647448,17
648020,14
648600,11
649172,12
649748,17
650328,15
650896,11
651480,11
652052,11
652632,11
653204,13
653780,18
654360,15
654932,14
655512,16
656080,15
656664,16
657232,32
657808,37
658376,27
658956,16
659536,14
660104,11
660688,13
661256,12
661840,13
662408,15
662992,15
663568,15
664140,19
664720,24
665292,26
665872,17
666440,11
667024,10
667592,11
668168,14
668752,11
669324,11
669904,11
670476,14
671056,14
671628,15
672208,16
672784,15
673352,16
673936,17
674504,20
675088,17
675660,11
676240,15
676808,39
677384,43
677968,24
678540,15
679120,20
679692,31
680272,28
680840,19
681424,11
682000,11
682568,11
683152,12
683724,11
684304,11
684876,15
685456,12
686028,15
686604,16
687184,14
687756,14
688336,13
688908,15
689488,15
690060,17
690640,15
691216,11
691784,11
692368,11
692940,11
693520,18
694092,21
694672,13
695244,15
695820,18
696400,19
696972,17
697552,14
698124,11
698704,12
699276,11
699856,12
700432,11
701004,11
701584,13
702156,11
702736,12
703316,11
703896,14
704476,14
705052,19
705632,19
706204,13
706784,11
707356,11
707936,11
708508,12
709084,10
709664,11
710236,15
710816,13
711388,11
711968,13
712540,14
713120,19
713692,24
714268,19
714848,13
715420,12
716000,11
716580,12
717160,12
717736,18
718316,13
718896,16
719468,24
720048,25
720616,21
721200,15
721772,15
722352,17
722924,14
723500,12
724080,11
724648,11
725232,10
725804,10
726384,9
726904,10
727480,10
728052,11
728628,14
729208,14
729780,14
730360,14
730932,14
731512,11
732084,15
732660,19
733240,14
733812,11
734392,12
734968,13
735544,12
736116,15
736696,15
737268,16
737844,22
738424,30
738996,37
739576,44
740156,43
740736,25
741308,11
741884,10
742464,15
743032,15
743616,13
744188,10
744768,11
745340,14
745920,20
746492,24
747068,21
747648,16
748220,11
748800,10
749368,11
749952,9
750472,10
751048,11
751624,11
752196,11
752776,12
753348,13
753928,14
754508,19
755088,17
755668,15
756244,24
756824,34
757396,32
757980,20
758556,15
759136,22
759716,17
760292,12
760872,16
761444,11
762024,15
762596,16
763176,17
763756,15
764336,16
764916,11
765492,12
766072,15
766648,17
767224,14
767804,10
768388,11
768960,11
769536,11
770120,19
770692,21
771272,17
771844,15
772424,17
772996,17
773576,19
774160,21
774732,17
775312,14
775884,10
776464,10
777036,11
777616,11
778196,11
778772,15
779352,22
779924,19
780504,15
781076,12
781656,13
782228,17
782804,12
783384,11
783956,11
784536,10
785108,12
785688,12
786268,19
786848,24
787420,19
787996,15
788576,14
789148,13
789728,13
790300,15
790880,18
791460,20
792036,21
792616,16
793192,10
793772,13
794340,20
794920,24
795500,28
796080,23
796660,18
797236,14
797816,15
798392,17
798972,18
799548,17
800128,16
800704,11
801280,14
801864,11
802436,13
803016,13
803588,15
804168,17
804736,18
805320,16
805896,14
806468,24
807048,24
807616,18
808200,15
808772,14
809352,14
809932,17
810508,20
811088,22
811660,21
812240,17
812812,15
813392,15
813964,17
814544,11
815128,13
815700,15
816280,15
816852,14
817432,12
818004,12
818584,12
819156,13
819732,12
820312,17
820880,18
821464,17
822032,18
822616,15
823184,19
823764,18
824344,18
824912,15
825496,17
826068,12
826648,11
827216,19
827800,22
828372,18
828948,15
829528,14
830096,15
830680,14
831252,14
831832,12
832404,10
832976,12
833552,13
834124,11
834704,11
835272,11
835856,13
836424,14
837008,17
837580,17
838156,18
838736,18
839304,15
839888,11
840456,10
841040,17
841608,22
842192,24
842768,26
843336,24
843920,18
844492,14
845072,13
845640,15
846224,16
846792,18
847368,18
847952,11
848524,11
849104,13
849676,13
850256,13
850824,11
851408,11
851984,14
852556,14
853136,14
853708,17
854288,16
854868,14
855448,14
856020,12
856592,11
857176,10
857748,10
858328,13
858900,11
859480,11
860052,19
860628,21
861208,13
861776,15
862360,14
862932,15
863512,15
864084,14
864664,12
865232,16
865812,20
866392,26
866964,19
867544,12
868116,11
868696,11
869268,11
869844,11
870424,15
870992,18
871576,19
872148,18
872728,19
873300,26
873880,32
874452,25
875028,13
875608,11
876180,12
876760,16
877332,15
877912,17
878484,19
879060,18
879640,14
880212,15
880792,18
881364,13
881944,12
882512,11
883096,13
883668,12
884244,11
884824,10
885392,15
885976,15
886556,12
887136,16
887708,15
888284,15
888864,16
889436,17
890016,21
890588,22
891168,19
891740,11
892320,12
892892,14
893468,17
894048,18
894620,13
895200,14
895780,14
896364,14
896936,15
897512,16
898096,11
898668,11
899248,11
899816,11
900400,13
900972,12
901552,11
902124,10
902700,12
903280,15
903852,18
904432,21
905000,27
905584,31
906156,31
906732,26
907312,22
907884,11
908464,11
909036,12
909616,12
910188,15
910768,18
911340,24
911916,28
912496,22
913068,18
913648,13
914220,14
914800,10
915380,11
915956,22
916536,24
917108,17
917688,23
918260,14
918840,11
919420,12
920000,14
920584,14
921156,15
921736,17
922308,19
922888,19
923456,20
924040,17
924612,21
925188,20
925768,14
926340,12
926920,11
927492,11
928072,13
928640,16
929224,25
929800,26
930372,22
930952,19
931524,15
932104,10
932676,11
933256,9
933776,11
934352,10
934932,12
935500,13
936080,16
936652,20
937232,20
937804,18
938384,16
938956,17
939532,12
940112,10
940688,10
941264,11
941844,12
942424,11
943004,15
943580,16
944160,12
944732,12
945312,15
945884,16
946464,18
947044,16
947624,14
948204,11
948780,13
949360,11
949932,10
950512,11
951092,11
951672,18
952252,19
952828,12
953408,16
953980,16
954560,15
955132,15
955712,17
956292,11
956872,18
957456,17
958028,17
958608,18
959184,17
959764,10
960340,12
960920,10
961492,11
962068,18
962648,15
963216,14
963800,14
964372,13
964952,12
965524,14
966100,12
966680,11
967252,11
967832,14
968404,14
968984,13
969556,11
970136,16
970716,17
971292,15
971872,14
972444,15
973024,19
973604,18
974184,12
974756,10
975332,10
975912,13
976488,17
977064,16
977636,12
978216,13
978788,15
979368,17
979948,22
980524,23
981104,18
981676,14
982256,11
982836,12
983416,14
983996,15
984572,14
985152,11
985724,13
986304,13
986876,16
987456,14
988028,18
988608,16
989180,19
989756,21
990336,19
990908,16
991488,14
992068,13
992648,10
993220,14
993796,21
994376,17
994948,15
995528,14
996100,15
996680,15
997252,15
997832,18
998416,21
998988,23
999568,27
1000140,20
1000764,14
1001388,11
1002012,11
1002640,11
1003256,14
1003888,16
1004508,14
1005132,14
1005760,14
1006384,11
1007012,10
1007640,10
1008264,15
1008892,18
1009516,12
1010144,11
1010772,10
1011392,13
1012020,15
1012644,14
1013268,14
1013896,15
1014516,13
1015144,13
1015768,14
1016392,12
1017020,19
1017640,21
1018268,18
1018896,20
1019520,15
1020148,15
1020772,18
1021404,21
1022032,20
1022656,25
1023288,29
1023912,17
1024536,13
1025164,10
1025780,13
1026408,23
1027028,27
1027652,14
1028280,13
1028896,15
1029524,14
1030152,14
1030768,17
1031396,17
1032020,14
1032648,13
1033276,18
1033896,13
1034524,11
1035144,12
1035776,14
1036404,14
1037024,21
1037652,27
1038272,23
1038896,19
1039524,10
1040144,11
1040772,10
1041392,15
1042012,21
1042644,18
1043264,19
1043892,16
1044520,11
1045136,20
1045764,19
1046384,18
1047016,17
1047644,17
1048264,13
1048892,12
1049512,12
1050136,13
1050764,10
1051384,11
1052012,11
1052636,13
1053256,13
1053888,14
1054504,15
1055132,15
1055760,18
1056384,17
1057012,13
1057636,13
1058264,13
1058892,10
1059512,11
1060140,12
1060764,10
1061384,11
1062016,14
1062632,15
1063260,15
1063884,16
1064504,13
1065136,12
1065752,14
1066380,11
1067004,11
1067624,12
1068252,12
1068876,11
1069504,15
1070132,20
1070752,17
1071380,19
1072004,19
1072632,19
1073260,16
1073880,17
1074508,15
1075132,10
1075756,11
1076384,23
1077008,34
1077636,21
1078260,14
1078880,19
1079512,21
1080136,14
1080764,17
1081392,13
1082012,11
1082640,11
1083260,11
1083892,16
1084520,13
1085136,11
1085764,11
1086388,11
1087012,15
1087640,18
1088256,24
1088884,25
1089508,25
1090132,18
1090760,10
1091376,19
1092004,18
1092632,12
1093248,10
1093880,13
1094500,24
1095132,25
1095760,23
1096376,15
1097004,15
1097628,13
1098248,10
1098880,14
1099496,17
1100124,13
1100748,11
1101372,11
1102004,10
1102624,13
1103252,17
1103884,16
1104504,15
1105132,15
1105756,14
1106388,20
1107016,29
1107632,22
1108264,13
1108888,13
1109508,13
1110140,10
1110760,13
1111388,17
1112012,19
1112636,15
1113268,14
1113888,14
1114516,11
1115148,11
1115768,12
1116396,11
1117020,14
1117652,13
1118280,15
1118904,13
1119532,11
1120156,15
1120780,15
1121412,18
1122032,25
1122660,29
1123284,24
1123908,12
1124536,10
1125152,10
1125784,17
1126412,21
1127028,20
1127660,13
1128280,14
1128912,15
1129540,16
1130160,18
1130788,18
1131412,15
1132040,11
1132668,11
1133288,14
1133916,11
1134540,12
1135164,14
1135796,12
1136416,12
1137044,13
1137676,16
1138296,17
1138924,15
1139548,15
1140180,13
1140808,12
1141424,15
1142052,18
1142676,15
1143300,11
1143932,10
1144552,15
1145180,15
1145804,15
1146428,22
1147060,40
1147680,33
1148308,21
1148936,11
1149552,11
1150184,12
1150808,11
1151436,11
1152068,10
1152684,11
1153312,14
1153936,15
1154564,20
1155192,18
1155812,16
1156440,11
1157064,11
1157688,11
1158316,10
1158936,13
1159564,10
1160188,12
1160816,14
1161444,14
1162068,14
1162696,15
1163324,16
1163944,14
1164572,20
1165196,17
1165824,16
1166456,12
1167072,11
1167700,14
1168324,17
1168948,11
1169576,11
1170196,13
1170824,15
1171448,17
1172072,18
1172700,16
1173324,15
1173952,22
1174584,20
1175200,11
1175828,15
1176452,20
1177084,19
1177712,13
1178336,14
1178964,14
1179588,18
1180208,17
1180840,18
1181456,13
1182084,11
1182708,11
1183332,13
1183964,13
1184588,11
1185216,16
1185848,19
1186464,16
1187092,15
1187716,14
1188348,14
1188976,15
1189592,11
1190224,13
1190848,19
1191472,11
1192100,11
1192720,10
1193348,11
1193972,14
1194596,14
1195228,20
1195848,17
1196480,15
1197108,14
1197728,12
1198356,14
1198984,15
1199612,14
1200244,16
1200864,15
1201492,11
1202116,11
1202740,11
1203368,18
1203984,15
1204616,17
1205240,19
1205860,23
1206492,19
1207116,17
1207744,11
1208372,13
1208992,17
1209620,13
1210244,10
1210872,11
1211500,14
1212120,17
1212748,21
1213376,15
1214000,19
1214628,13
1215248,12
1215876,12
1216504,17
1217124,18
1217756,15
1218380,13
1219008,18
1219640,19
1220256,21
1220888,15
1221512,15
1222140,15
1222772,10
1223392,15
1224020,12
1224644,13
1225268,11
1225900,10
1226520,12
1227148,13
1227776,11
1228400,15
1229032,20
1229652,23
1230280,21
1230912,13
1231528,13
1232156,18
1232780,15
1233408,12
1234036,10
1234656,12
1235284,19
1235904,13
1236528,13
1237160,14
1237776,16
1238404,16
1239028,25
1239652,37
1240280,35
1240904,25
1241536,15
1242164,14
1242784,11
1243412,14
1244036,14
1244664,15
1245296,22
1245912,28
1246540,37
1247164,37
1247788,27
1248420,13
1249040,13
1249668,17
1250292,17
1250916,23
1251544,21
1252168,16
1252796,12
1253428,16
1254048,16
1254676,18
1255300,20
1255932,19
1256560,14
1257176,11
1257808,12
1258432,15
1259056,12
1259684,10
1260304,13
1260932,17
1261556,19
1262180,18
1262808,15
1263432,14
1264064,15
1264692,13
1265312,12
1265940,11
1266564,14
1267196,18
1267828,18
1268448,17
1269076,19
1269704,21
1270328,21
1270956,15
1271576,33
1272208,41
1272828,42
1273456,31
1274088,17
1274708,12
1275340,11
1275972,10
1276592,13
1277224,15
1277848,15
1278472,14
1279100,14
1279720,14
1280352,16
1280976,12
1281596,11
1282224,10
1282840,12
1283468,13
1284092,10
1284716,23
1285348,30
1285968,12
1286596,15
1287228,14
1287848,15
1288476,14
1289096,13
1289728,13
1290356,18
1290976,17
1291604,16
1292224,16
1292848,12
1293476,10
1294096,11
1294724,13
1295344,21
1295968,16
1296596,14
1297220,14
1297848,12
1298476,10
1299096,11
1299724,12
1300348,13
1300980,12
1301608,14
1302224,17
1302852,17
1303476,23
1304100,17
1304732,15
1305352,17
1305980,17
1306604,17
1307228,17
1307856,19
1308480,13
1309108,10
1309740,10
1310360,11
1310992,12
1311612,19
1312240,21
1312868,21
1313484,22
1314112,17
1314736,12
1315356,12
1315988,10
1316608,15
1317236,19
1317856,26
1318480,16
1319108,12
1319728,16
1320356,25
1320984,28
1321600,32
1322228,31
1322848,18
1323480,11
1324108,10
1324728,14
1325356,10
1325980,11
1326604,12
1327232,12
1327848,12
1328476,24
1329100,17
1329724,17
1330352,18
1330968,17
1331600,12
1332220,11
1332844,12
1333472,11
1334096,13
1334724,11
1335352,13
1335968,11
1336600,17
1337220,19
1337848,15
1338476,14
1339096,13
1339724,15
1340348,15
1340968,15
1341600,20
1342216,17
1342844,10
1343468,19
1344088,14
1344716,10
1345336,13
1345964,13
1346592,15
1347208,15
1347836,11
1348460,12
1349088,11
1349716,14
1350336,25
1350964,24
1351588,12
1352212,17
1352840,23
1353456,27
1354088,22
1354708,19
1355332,20
1355960,26
1356584,25
1357212,19
1357840,12
1358464,11
1359092,11
1359716,10
1360344,13
1360972,10
1361588,14
1362220,15
1362840,14
1363464,16
1364092,14
1364708,10
1365340,11
1365960,20
1366584,17
1367212,15
1367832,16
1368460,14
1369084,11
1369704,14
1370336,16
1370956,16
1371588,18
1372216,18
1372832,23
1373460,27
1374084,27
1374712,17
1375344,11
1375960,11
1376588,10
1377212,11
1377836,11
1378464,13
1379088,15
1379716,15
1380340,15
1380964,12
1381592,11
1382216,17
1382844,15
1383476,11
1384096,12
1384724,11
1385348,13
1385976,14
1386604,18
1387224,18
1387852,15
1388476,15
1389100,13
1389728,18
1390348,25
1390976,27
1391600,13
1392224,11
1392852,11
1393476,11
1394104,11
1394732,14
1395352,17
1395980,24
1396604,22
1397232,18
1397860,14
1398480,11
1399108,15
1399732,18
1400356,15
1400984,14
1401600,11
1402228,12
1402852,12
1403476,14
1404108,14
1404728,15
1405356,16
1405988,10
1406608,19
1407236,32
1407860,35
1408492,28
1409120,18
1409736,11
1410368,23
1410988,25
1411612,17
1412244,16
1412864,27
1413492,30
1414116,15
1414740,13
1415368,11
1415984,11
1416612,12
1417244,16
1417864,17
1418492,12
1419116,12
1419744,14
1420376,28
1420992,26
1421624,19
1422244,15
1422868,11
1423500,11
1424120,13
1424748,19
1425372,17
1425996,17
1426624,17
1427244,12
1427872,15
1428500,18
1429120,15
1429748,16
1430372,14
1431004,14
1431636,17
1432256,27
1432884,28
1433508,13
1434136,12
1434764,14
1435384,17
1436012,18
1436636,25
1437256,27
1437888,25
1438504,23
1439132,18
1439764,12
1440384,12
1441012,13
1441636,19
1442264,14
1442892,10
1443512,12
1444140,15
1444764,13
1445384,25
1446016,32
1446632,25
1447260,17
1447884,11
1448504,11
1449136,11
1449752,12
1450380,12
1451004,21
1451632,15
1452260,14
1452884,20
1453512,27
1454140,29
1454760,32
1455388,29
1456012,29
1456640,21
1457268,10
1457888,11
1458516,10
1459140,11
1459764,11
1460392,10
1461016,12
1461644,19
1462268,25
1462896,23
1463524,17
1464148,15
1464780,14
1465408,11
1466024,10
1466656,11
1467280,11
1467908,11
1468540,14
1469160,13
1469788,16
1470412,15
1471036,17
1471668,24
1472288,24
1472916,19
1473548,24
1474168,25
1474796,23
1475420,23
1476048,21
1476676,20
1477296,19
1477924,11
1478548,14
1479172,16
1479804,18
1480424,19
1481052,17
1481676,17
1482296,12
1482928,16
1483544,23
1484172,27
1484796,14
1485424,12
1486052,21
1486676,36
1487304,29
1487936,22
1488552,18
1489180,17
1489804,11
1490432,11
1491064,10
1491680,15
1492308,18
1492932,21
1493556,27
1494188,17
1494808,18
1495436,19
1496060,22
1496688,29
1497316,25
1497940,11
1498568,15
1499200,13
1499816,12
1500444,11
1501068,13
1501700,17
1502328,13
1502948,17
1503576,21
1504200,22
1504824,23
1505452,14
1506072,11
1506700,11
1507324,10
1507952,13
1508580,15
1509204,19
1509836,18
1510464,14
1511088,11
1511716,15
1512340,15
1512964,16
1513596,14
1514216,14
1514848,11
1515472,11
1516096,13
1516724,10
1517344,14
1517972,16
1518604,11
1519224,15
1519852,15
1520480,23
1521108,17
1521740,18
1522360,17
1522988,13
1523612,10
1524236,13
1524868,10
1525488,11
1526116,12
1526740,12
1527364,10
1527996,12
1528616,14
1529244,13
1529876,14
1530496,18
1531124,16
1531752,12
1532380,11
1533012,12
1533632,13
1534260,12
1534888,12
1535512,23
1536144,30
1536760,22
1537388,19
1538012,17
1538632,18
1539260,14
1539880,14
1540508,17
1541136,13
1541752,14
1542384,21
1543008,19
1543636,11
1544268,10
1544888,15
1545516,15
1546140,15
1546764,17
1547392,16
1548016,17
1548644,16
1549268,17
1549892,15
1550520,11
1551144,13
1551776,15
1552404,11
1553024,17
1553652,26
1554276,23
1554904,22
1555536,18
1556156,14
1556784,12
1557408,12
1558032,11
1558660,11
1559280,13
1559908,11
1560532,10
1561156,12
1561788,14
1562408,17
1563036,21
1563664,20
1564288,18
1564916,13
1565540,12
1566168,11
1566800,12
1567416,12
1568044,20
1568668,18
1569288,12
1569920,21
1570536,22
1571164,20
1571792,19
1572416,19
1573044,14
1573664,11
1574292,13
1574924,11
1575544,16
1576172,13
1576796,12
1577428,14
1578056,14
1578680,21
1579308,21
1579932,24
1580560,24
1581188,14
1581808,16
1582436,29
1583060,25
1583684,15
1584316,12
1584936,12
1585564,16
1586196,16
1586816,17
1587448,16
1588068,17
1588700,16
1589328,11
1589948,11
1590576,11
1591200,11
1591824,11
1592456,11
1593072,12
1593700,11
1594324,13
1594948,22
1595580,22
1596200,21
1596828,14
1597460,16
1598080,19
1598708,18
1599332,14
1599964,11
1600596,12
1601216,14
1601844,13
1602464,11
1603088,16
1603716,18
1604336,18
1604964,25
1605588,23
1606208,17
1606840,13
1607456,13
1608084,12
1608712,17
1609332,20
1609960,13
1610584,15
1611212,20
1611840,21
1612460,21
1613088,19
1613712,15
1614340,15
1614968,10
1615592,11
1616220,11
1616844,11
1617468,10
1618096,10
1618712,14
1619340,17
1619964,22
1620592,19
1621220,17
1621844,15
1622472,11
1623100,11
1623720,21
1624348,16
1624972,11
1625600,11
1626232,12
1626848,13
1627476,11
1628100,14
1628724,15
1629356,14
1629976,19
1630604,27
1631228,30
1631856,21
1632488,10
1633108,15
1633740,14
1634368,12
1634992,15
1635620,16
1636248,17
1636868,15
1637500,14
1638120,16
1638752,17
1639372,13
1639992,11
1640620,15
1641236,17
1641864,15
1642488,10
1643108,11
1643736,10
1644360,11
1644988,15
1645616,18
1646232,20
1646860,22
1647480,15
1648108,11
1648736,13
1649356,12
1649984,25
1650608,16
1651228,13
1651856,16
1652476,15
1653108,19
1653728,18
1654352,16
1654980,15
1655600,20
1656228,26
1656856,29
1657472,23
1658100,16
1658724,10
1659352,18
1659980,14
1660600,11
1661228,11
1661852,17
1662472,19
1663100,18
1663720,19
1664348,11
1664972,19
1665592,27
1666220,32
1666840,22
1667468,11
1668088,16
1668708,13
1669340,11
1669960,16
1670588,15
1671216,15
1671832,15
1672460,17
1673084,21
1673712,15
1674340,13
1674960,21
1675588,13
1676208,11
1676832,14
1677460,18
1678080,23
1678708,16
1679332,15
1679956,14
1680584,13
1681200,11
1681828,11
1682456,11
1683072,11
1683700,11
1684324,11
1684952,13
1685580,12
1686200,24
1686828,22
1687452,14
1688072,15
1688700,15
1689320,16
1689948,10
1690568,12
1691192,11
1691820,11
1692440,13
1693068,11
1693688,11
1694312,11
1694940,15
1695564,21
1696192,27
1696820,24
1697436,11
1698068,15
1698688,15
1699320,15
1699948,14
1700568,18
1701196,13
1701816,13
1702440,19
1703068,20
1703688,18
1704316,18
1704936,15
1705560,13
1706192,10
1706808,11
1707436,13
1708068,12
1708688,13
1709316,17
1709940,21
1710568,11
1711200,16
1711816,26
1712444,33
1713068,30
1713692,18
1714320,18
1714944,28
1715572,26
1716196,16
1716820,11
1717448,11
1718064,11
1718696,12
1719324,11
1719944,18
1720572,21
1721196,27
1721828,31
1722456,23
1723072,11
1723700,10
1724324,10
1724948,11
1725576,11
1726192,13
1726824,11
1727448,11
1728068,22
1728696,26
1729320,22
1729948,15
1730576,14
1731192,11
1731820,11
1732444,11
1733076,14
1733704,17
1734320,19
1734952,21
1735576,16
1736200,15
1736828,17
1737448,14
1738076,19
1738700,20
1739324,11
1739952,16
1740576,17
1741204,13
1741832,10
1742456,23
1743084,31
1743708,21
1744336,12
1744964,22
1745580,27
1746212,25
1746836,19
1747460,13
1748092,10
1748712,11
1749340,11
1749964,16
1750588,17
1751216,13
1751832,11
1752464,13
1753092,20
1753712,23
1754340,30
1754964,28
1755592,24
1756224,11
1756840,10
1757472,11
1758092,14
1758724,12
1759352,11
1759976,11
1760608,11
1761228,18
1761852,18
1762480,14
1763104,15
1763732,14
1764360,11
1764984,11
1765612,12
1766236,14
1766864,14
1767492,12
1768112,11
1768740,12
1769364,17
1769988,21
1770620,18
1771240,17
1771868,15
1772492,11
1773116,12
1773744,10
1774364,11
1774992,11
1775620,10
1776240,11
1776868,10
1777492,13
1778120,17
1778752,23
1779368,16
1780000,16
1780620,24
1781252,23
1781884,15
1782504,12
1783132,13
1783756,13
1784380,15
1785008,18
1785632,20
1786260,18
1786892,14
1787512,15
1788140,15
1788764,17
1789396,11
1790028,12
1790648,16
1791276,16
1791904,13
1792528,11
1793156,15
1793776,17
1794404,12
1795028,18
1795652,21
1796280,14
1796896,15
1797524,11
1798156,12
1798776,17
1799404,17
1800028,17
1800656,14
1801288,10
1801904,16
1802532,17
1803156,16
1803780,14
1804412,17
1805032,20
1805660,29
1806284,31
1806904,28
1807532,17
1808152,11
1808780,10
1809404,12
1810024,20
1810652,32
1811276,27
1811904,15
1812532,17
1813152,21
1813780,23
1814404,14
1815032,10
1815660,19
1816280,17
1816908,11
1817532,19
1818156,21
1818788,20
1819408,15
1820036,16
1820660,16
1821284,14
1821912,15
1822536,18
1823168,12
1823796,11
1824416,11
1825044,10
1825668,11
1826296,11
1826924,10
1827544,11
1828172,14
1828796,14
1829420,15
1830048,14
1830672,11
1831300,11
1831924,11
1832548,11
1833180,14
1833804,12
1834432,11
1835060,11
1835680,11
1836308,15
1836932,17
1837564,23
1838192,20
1838816,17
1839444,13
1840068,13
1840692,11
1841324,10
1841944,16
1842572,25
1843196,14
1843824,11
1844452,16
1845076,21
1845704,15
1846332,15
1846952,18
1847580,11
1848204,13
1848832,15
1849460,11
1850080,12
1850708,16
1851332,15
1851956,11
1852584,12
1853208,19
1853836,19
1854460,17
1855088,17
1855716,17
1856340,13
1856968,13
1857596,13
1858216,15
1858844,21
1859468,24
1860096,19
1860728,12
1861344,15
1861972,18
1862596,15
1863220,15
1863848,16
1864472,11
1865100,12
1865724,11
1866352,11
1866980,12
1867604,12
1868232,10
1868864,12
1869480,16
1870108,15
1870732,15
1871360,18
1871992,19
1872608,17
1873240,15
1873864,11
1874488,11
1875116,10
1875736,13
1876364,11
1876988,13
1877616,14
1878244,16
1878868,21
1879500,18
1880132,14
1880752,11
1881380,11
1882008,16
1882628,17
1883260,16
1883880,17
1884508,17
1885132,13
1885756,12
1886388,16
1887008,20
1887636,19
1888268,24
1888888,25
1889516,23
1890140,16
1890768,11
1891400,10
1892016,14
1892648,17
1893272,20
1893896,15
1894524,15
1895144,16
1895772,15
1896396,15
1897020,16
1897648,14
1898272,15
1898900,15
1899528,15
1900152,18
1900780,12
1901408,13
1902036,13
1902668,14
1903288,21
1903916,24
1904544,25
1905168,16
1905796,14
1906416,14
1907044,13
1907672,14
1908296,11
1908924,12
1909544,14
1910176,12
1910804,10
1911424,14
1912056,15
1912680,15
1913308,15
1913940,12
1914560,13
1915188,13
1915816,17
1916440,13
1917072,11
1917688,20
1918320,21
1918944,19
1919568,18
1920200,15
1920816,17
1921444,26
1922072,38
1922688,42
1923320,29
1923940,18
1924572,10
1925200,10
1925820,13
1926452,17
1927072,18
1927696,12
1928324,14
1928944,17
1929572,18
1930196,15
1930820,11
1931448,10
1932072,11
1932700,11
1933332,10
1933952,16
1934580,19
1935204,21
1935836,19
1936464,19
1937088,19
1937716,17
1938340,15
1938964,16
1939596,15
1940216,16
1940844,10
1941468,11
1942092,11
1942724,10
1943344,11
1943976,13
1944604,14
1945224,15
1945856,18
1946476,17
1947108,15
1947736,11
1948352,10
1948984,11
1949604,10
1950228,11
1950860,10
1951480,11
1952108,11
1952732,11
1953356,14
1953988,15
1954608,16
1955236,15
1955868,12
1956488,11
1957116,11
1957740,11
1958372,11
1959004,16
1959624,14
1960252,11
1960876,11
1961500,13
1962132,14
1962752,16
1963384,15
1964008,12
1964632,13
1965260,14
1965880,12
1966508,10
1967140,10
1967760,13
1968388,11
1969012,11
1969640,20
1970268,25
1970888,23
1971516,19
1972140,19
1972764,11
1973392,12
1974008,10
1974640,11
1975260,27
1975884,32
1976516,18
1977136,11
1977764,12
1978392,19
1979016,22
1979644,18
1980268,20
1980900,17
1981528,15
1982144,12
1982776,14
1983400,13
1984024,11
1984652,10
1985272,12
1985900,25
1986524,35
1987148,25
1987776,16
1988400,17
1989028,14
1989660,10
1990280,11
1990908,12
1991532,17
1992164,15
1992792,11
1993412,12
1994040,13
1994664,15
1995288,18
1995920,15
1996536,15
1997168,15
1997792,11
1998416,13
1999044,14
1999664,17
2000292,18
2000924,11
2001544,11
2002172,11
2002796,15
2003424,17
2004056,17
2004672,15
2005300,14
2005924,11
2006548,12
2007180,12
2007800,11
2008428,11
2009052,10
2009676,11
2010304,11
2010920,13
2011548,13
2012180,13
2012800,16
2013428,17
2014052,12
2014680,11
2015312,12
2015928,14
2016560,15
2017184,11
2017808,14
2018436,16
2019056,16
2019684,17
2020308,18
2020932,18
2021564,16
2022184,25
2022816,24
2023444,16
2024064,11
2024692,11
2025316,11
2025948,10
2026576,16
2027192,15
2027824,13
2028448,18
2029072,17
2029700,17
2030320,20
2030948,24
2031576,24
2032200,15
2032828,14
2033448,16
2034076,11
2034708,10
2035328,11
2035956,11
2036580,17
2037212,21
2037840,28
2038464,33
2039092,31
2039716,21
2040344,15
2040972,12
2041592,11
2042224,11
2042848,11
2043472,13
2044104,12
2044720,18
2045352,17
2045980,15
2046600,15
2047232,12
2047856,12
2048488,13
2049116,10
2049732,12
2050360,12
2050984,14
2051604,12
2052232,12
2052852,17
2053484,20
2054104,22
2054724,20
2055356,25
2055976,25
2056604,15
2057232,12
2057848,10
2058476,10
2059100,12
2059728,13
2060356,12
2060976,15
2061604,14
2062224,15
2062852,15
2063480,14
2064096,11
2064724,11
2065348,11
2065968,21
2066600,24
2067216,19
2067844,13
2068464,11
2069088,11
2069716,15
2070340,20
2070968,29
2071600,31
2072216,24
2072844,14
2073468,11
2074096,11
2074728,10
2075344,11
2075972,16
2076596,11
2077220,11
2077848,14
2078472,14
2079100,14
2079724,15
2080348,14
2080976,12
2081592,11
2082220,10
2082848,10
2083472,14
2084100,13
2084720,12
2085352,11
2085980,11
2086600,19
2087228,14
2087848,15
2088472,15
2089100,11
2089720,12
2090348,12
2090968,12
2091592,19
2092220,18
2092840,17
2093468,11
2094096,11
2094712,16
2095340,16
2095964,16
2096596,16
2097224,12
2097840,12
2098468,15
2099092,13
2099720,12
2100348,10
2100968,12
2101596,13
2102220,12
2102844,21
2103472,24
2104088,29
2104716,22
2105340,13
2105968,11
2106596,11
2107220,11
2107848,11
2108476,12
2109096,17
2109724,13
2110348,10
2110980,13
2111608,15
2112228,14
2112856,14
2113476,14
2114100,12
2114728,12
2115352,13
2115980,14
2116604,12
2117232,11
2117860,17
2118484,15
2119112,14
2119740,14
2120360,22
2120988,29
2121612,26
2122240,19
2122868,26
2123488,30
2124116,17
2124740,11
2125364,12
2125996,13
2126616,11
2127244,11
2127868,14
2128496,15
2129124,15
2129748,15
2130380,13
2131008,12
2131624,16
2132252,14
2132876,11
2133504,10
2134136,11
2134752,11
2135384,12
2136004,13
2136628,16
2137256,16
2137880,16
2138508,16
2139132,15
2139760,14
2140388,13
2141012,10
2141640,10
2142272,10
2142888,11
2143520,12
2144144,11
2144772,14
2145400,15
2146024,16
2146652,15
2147276,11
2147900,11
2148528,11
2149148,11
2149776,11
2150404,10
2151020,12
2151652,12
2152276,13
2152904,17
2153532,16
2154152,15
2154780,14
2155404,11
2156036,11
2156664,11
2157280,10
2157912,11
2158536,11
2159160,11
2159788,10
2160408,12
2161036,18
2161660,18
2162288,18
2162916,19
2163540,15
2164168,15
2164800,24
2165416,21
2166044,13
2166668,11
2167296,11
2167928,11
2168544,12
2169172,16
2169796,29
2170420,25
2171052,20
2171672,17
2172300,13
2172924,10
2173552,11
2174180,11
2174804,11
2175436,10
2176064,10
2176684,13
2177312,11
2177936,14
2178564,17
2179192,18
2179816,16
2180444,13
2181068,16
2181692,13
2182320,11
2182944,15
2183572,11
2184204,13
2184824,12
2185452,12
2186076,16
2186708,18
2187336,18
2187952,17
2188584,20
2189208,18
2189832,15
2190460,11
2191080,11
2191708,15
2192332,17
2192956,13
2193588,10
2194208,15
2194836,18
2195468,12
2196088,15
2196716,15
2197340,11
2197972,11
2198600,10
2199224,10
2199852,11
2200476,11
2201100,11
2201732,14
2202352,21
2202980,22
2203604,15
2204228,19
2204856,27
2205472,22
2206104,11
2206732,20
2207352,24
2207984,22
2208608,16
2209236,10
2209868,10
2210488,11
2211116,15
2211744,20
2212368,20
2212996,14
2213616,14
2214244,11
2214868,11
2215492,11
2216120,17
2216744,20
2217372,13
2218004,12
2218624,13
2219252,13
2219876,17
2220508,17
2221136,16
2221756,15
2222384,13
2223012,10
2223636,11
2224264,10
2224888,11
2225516,11
2226140,11
2226764,12
2227396,10
2228016,15
2228644,15
2229276,22
2229896,24
2230524,17
2231148,15
2231780,11
2232412,14
2233032,17
2233660,13
2234284,11
2234908,11
2235540,10
2236160,17
2236788,24
2237416,25
2238040,20
2238672,14
2239288,13
2239920,14
2240552,13
2241168,10
2241796,10
2242420,11
2243052,10
2243680,11
2244296,13
2244924,14
2245548,16
2246172,14
2246804,14
2247424,11
2248052,11
2248676,11
2249300,10
2249932,11
2250552,13
2251184,11
2251812,11
2252432,13
2253064,19
2253684,19
2254312,20
2254944,17
2255560,18
2256188,14
2256812,11
2257436,11
2258064,11
2258680,13
2259312,11
2259932,14
2260556,14
2261188,14
2261808,15
2262436,14
2263068,14
2263688,13
2264316,10
2264940,11
2265572,12
2266200,10
2266824,11
2267452,11
2268076,11
2268700,11
2269332,14
2269952,15
2270580,15
2271204,17
2271832,25
2272460,29
2273080,29
2273708,21
2274340,18
2274960,16
2275588,11
2276212,11
2276844,11
2277472,11
2278096,14
2278724,14
2279348,15
2279972,15
2280604,12
2281224,15
2281852,19
2282476,21
2283100,20
2283732,18
2284356,14
2284984,11
2285616,15
2286232,23
2286860,24
2287488,25
2288116,18
2288748,16
2289368,25
2289996,27
2290620,37
2291248,33
2291876,22
2292496,11
2293124,17
2293748,20
2294376,22
2295004,24
2295628,19
2296260,19
2296888,23
2297508,18
2298136,14
2298760,12
2299388,11
2300020,10
2300640,12
2301268,12
2301896,16
2302520,19
2303148,19
2303768,17
2304400,15
2305020,14
2305648,12
2306276,14
2306900,17
2307528,17
2308156,16
2308776,17
2309404,13
2310028,12
2310660,11
2311288,13
2311904,15
2312536,15
2313160,14
2313784,13
2314412,11
2315032,13
2315660,11
2316284,10
2316912,11
2317540,14
2318164,13
2318796,11
2319424,18
2320040,20
2320672,21
2321292,20
2321924,17
2322552,14
2323172,13
2323800,11
2324424,13
2325048,11
2325676,10
2326296,13
2326924,15
2327548,23
2328176,20
2328804,15
2329428,18
2330060,25
2330688,21
2331312,11
2331940,16
2332564,17
2333192,12
2333820,10
2334440,11
2335068,12
2335692,13
2336316,14
2336948,14
2337568,20
2338196,19
2338828,10
2339448,13
2340076,15
2340700,19
2341332,18
2341960,19
2342580,18
2343208,11
2343832,11
2344456,15
2345084,14
2345704,15
2346332,14
2346956,17
2347580,13
2348212,10
2348832,12
2349460,12
2350092,11
2350712,15
2351344,16
2351968,11
2352600,17
2353228,18
2353848,17
2354480,21
2355104,21
2355728,27
2356356,28
2356976,23
2357604,13
2358228,13
2358852,11
2359484,12
2360104,13
2360732,11
2361364,14
2361984,16
2362612,14
2363236,15
2363868,11
2364496,10
2365120,11
2365748,12
2366372,12
2367000,11
2367628,11
2368248,12
2368876,13
2369500,17
2370124,18
2370756,15
2371376,15
2372004,12
2372636,14
2373256,11
2373884,11
2374512,11
2375140,17
2375772,16
2376392,15
2377020,11
2377644,24
2378268,33
2378900,34
2379520,27
2380148,17
2380772,11
2381400,12
2382028,14
2382648,15
2383276,15
2383908,12
2384528,15
2385156,13
2385780,11
2386412,14
2387044,16
2387664,16
2388292,14
2388916,11
2389544,11
2390172,12
2390792,11
2391424,11
2392048,11
2392672,16
2393300,17
2393928,27
2394556,19
2395188,14
2395808,16
2396440,15
2397064,12
2397692,11
2398324,11
2398944,13
2399576,11
2400200,10
2400824,12
2401452,10
2402072,12
2402700,15
2403324,18
2403952,19
2404580,17
2405204,14
2405836,12
2406464,12
2407088,11
2407716,11
2408340,11
2408964,10
2409596,13
2410216,13
2410844,12
2411472,13
2412096,13
2412724,15
2413344,16
2413972,11
2414604,10
2415224,11
2415852,11
2416480,12
2417108,12
2417740,10
2418360,12
2418988,11
2419616,14
2420236,15
2420868,16
2421488,15
2422116,11
2422740,12
2423364,15
2423996,27
2424616,29
2425244,18
2425876,10
2426496,12
2427124,11
2427752,15
2428380,13
2429012,17
2429632,15
2430260,20
2430888,19
2431512,17
2432144,18
2432760,18
2433388,14
2434012,13
2434636,16
2435268,23
2435888,28
2436516,22
2437148,18
2437768,21
2438396,19
2439020,14
2439652,13
2440284,14
2440904,15
2441532,11
2442160,13
2442784,11
2443412,12
2444032,13
2444660,13
2445288,15
2445912,17
2446540,18
2447160,19
2447792,19
2448420,16
2449040,11
2449668,16
2450292,18
2450924,17
2451556,14
2452176,14
2452804,15
2453428,15
2454056,14
2454684,14
2455304,14
2455936,15
2456560,18
2457184,20
2457816,14
2458436,17
2459068,14
2459696,10
2460312,10
2460944,15
2461564,15
2462196,14
2462824,17
2463440,22
2464072,19
2464692,13
2465316,11
2465944,11
2466560,12
2467192,13
2467816,11
2468440,11
2469068,14
2469688,21
2470316,23
2470948,26
2471568,26
2472196,21
2472820,13
2473452,10
2474080,10
2474696,11
2475328,15
2475952,11
2476576,13
2477204,12
2477824,15
2478452,14
2479076,14
2479700,16
2480332,16
2480952,17
2481580,18
2482212,12
2482832,12
2483460,15
2484084,11
2484712,10
2485344,11
2485960,14
2486588,21
2487212,19
2487836,26
2488468,28
2489088,32
2489716,31
2490340,21
2490964,14
2491592,11
2492212,12
2492840,19
2493472,14
2494088,12
2494716,13
2495344,15
2495972,15
2496604,14
2497224,11
2497852,11
2498476,10
2499100,12
2499732,10
2500352,13
2500980,14
2501604,11
2502228,12
2502860,19
2503480,23
2504108,25
2504740,22
2505360,20
2505988,19
2506612,15
2507244,12
2507876,14
2508496,11
2509124,12
2509748,19
2510372,17
2511004,16
2511624,15
2512252,15
2512876,14
2513500,15
2514132,11
2514756,10
2515388,11
2516016,12
2516636,11
2517264,12
2517888,11
2518520,11
2519148,18
2519768,21
2520396,21
2521020,17
2521644,15
2522276,12
2522896,13
2523524,13
2524148,15
2524772,13
2525404,13
2526028,11
2526660,13
2527292,10
2527912,15
2528544,15
2529168,16
2529800,15
2530428,11
2531048,11
2531680,11
2532304,11
2532928,12
2533560,10
2534176,12
2534808,12
2535436,12
2536056,13
2536684,13
2537312,16
2537940,15
2538572,11
2539192,20
2539824,29
2540448,27
2541072,19
2541700,15
2542320,11
2542948,13
2543576,11
2544200,14
2544828,13
2545448,14
2546076,16
2546708,16
2547328,11
2547956,10
2548584,11
2549212,11
2549844,13
2550464,16
2551092,13
2551720,12
2552344,11
2552976,15
2553592,15
2554224,20
2554848,30
2555472,30
2556104,28
2556724,23
2557356,16
2557988,12
2558608,10
2559240,11
2559864,12
2560496,12
2561124,15
2561740,18
2562368,16
2562992,15
2563616,13
2564244,11
2564860,11
2565492,20
2566112,17
2566736,12
2567364,11
2567984,12
2568612,18
2569240,27
2569856,29
2570488,29
2571108,26
2571740,21
2572368,13
2572984,11
2573612,11
2574236,15
2574856,18
2575488,15
2576104,10
2576732,15
2577356,17
2577980,14
2578608,14
2579224,18
2579856,22
2580480,18
2581100,19
2581732,17
2582356,11
2582984,13
2583612,10
2584232,12
2584860,11
2585484,19
2586116,20
2586744,18
2587360,15
2587988,15
2588612,15
2589236,14
2589864,12
2590488,11
2591116,11
2591740,10
2592368,11
2592996,11
2593620,16
2594248,19
2594876,16
2595496,17
2596124,14
2596748,17
2597380,19
2598008,19
2598628,13
2599256,12
2599880,13
2600504,13
2601132,11
2601752,14
2602380,15
2603004,14
2603632,16
2604260,19
2604884,24
2605512,22
2606144,17
2606760,14
2607388,12
2608012,16
2608644,12
2609272,12
2609888,11
2610520,15
2611144,14
2611768,16
2612396,18
2613016,14
2613644,13
2614268,10
2614896,11
2615524,11
2616148,13
2616780,11
2617408,13
2618032,13
2618660,17
2619284,25
2619908,19
2620540,16
2621160,17
2621792,16
2622412,12
2623036,14
2623664,16
2624288,15
2624916,11
2625544,12
2626160,17
2626788,19
2627412,16
2628040,16
2628668,14
2629288,15
2629916,15
2630536,12
2631168,14
2631796,10
2632416,11
2633044,11
2633664,11
2634288,13
2634916,11
2635536,11
2636164,15
2636788,15
2637412,15
2638040,15
2638664,13
2639292,17
2639920,20
2640544,20
2641172,13
2641796,10
2642424,11
2643052,10
2643672,10
2644300,14
2644924,14
2645544,15
2646172,15
2646792,15
2647420,11
2648044,11
2648664,12
2649296,13
2649912,12
2650540,11
2651172,14
2651792,16
2652420,18
2653044,17
2653672,14
2654304,15
2654920,15
2655552,14
2656176,15
2656796,14
2657428,10
2658048,11
2658676,17
2659300,20
2659924,15
2660552,12
2661168,15
2661800,15
2662428,15
2663044,18
2663672,18
2664296,23
2664924,15
2665552,11
2666168,11
2666796,11
2667420,12
2668044,12
2668672,12
2669288,15
2669916,16
2670540,15
2671164,14
2671792,13
2672412,10
2673040,9
2673608,11
2674236,14
2674868,10
2675488,11
2676116,13
2676744,18
2677368,17
2677996,17
2678620,13
2679248,15
2679876,15
2680496,17
2681124,16
2681748,16
2682372,15
2683004,11
2683624,11
2684252,12
2684876,11
2685496,12
2686128,15
2686744,19
2687372,19
2687996,20
2688624,27
2689252,30
2689876,21
2690504,14
2691132,10
2691752,15
2692380,13
2693004,11
2693632,12
2694264,20
2694880,25
2695508,21
2696132,19
2696756,16
2697384,16
2698000,17
2698632,13
2699256,11
2699876,11
2700508,11
2701132,14
2701760,21
2702388,25
2703008,22
2703636,20
2704260,15
2704888,14
2705520,12
2706136,13
2706764,12
2707388,14
2708012,14
2708640,12
2709256,10
2709888,11
2710512,11
2711132,13
2711764,15
2712388,16
2713016,17
2713648,12
2714264,11
2714892,12
2715516,14
2716144,17
2716776,18
2717392,17
2718024,13
2718648,11
2719272,15
2719900,20
2720520,22
2721148,18
2721772,18
2722396,19
2723024,17
2723640,11
2724272,11
2724900,11
2725520,11
2726148,11
2726772,11
2727400,13
2728028,14
2728648,18
2729276,23
2729900,19
2730520,10
2731152,14
2731768,19
2732396,18
2733020,13
2733644,11
2734272,11
2734896,16
2735524,16
2736156,14
2736776,16
2737404,17
2738028,22
2738660,19
2739288,13
2739904,11
2740532,10
2741156,11
2741780,11
2742408,10
2743032,11
2743660,11
2744288,15
2744908,14
2745540,14
2746160,16
2746788,16
2747420,16
2748040,11
2748668,14
2749292,15
2749924,16
2750552,16
2751172,11
2751800,21
2752428,25
2753048,25
2753680,18
2754296,18
2754924,17
2755548,18
2756172,17
2756804,16
2757424,14
2758052,11
2758684,10
2759304,11
2759932,13
2760556,12
2761188,13
2761820,14
2762440,16
2763068,17
2763692,20
2764316,16
2764948,12
2765568,11
2766196,11
2766820,11
2767444,11
2768072,13
2768688,13
2769316,18
2769948,18
2770568,15
2771196,14
2771820,13
2772452,11
2773080,10
2773704,13
2774332,11
2774960,13
2775584,20
2776212,19
2776832,14
2777460,14
2778088,18
2778708,19
2779340,16
2779960,21
2780592,18
2781220,14
2781840,12
2782468,11
2783092,11
2783724,15
2784356,22
2784976,30
2785604,32
2786228,25
2786852,15
2787480,14
2788104,17
2788732,25
2789356,24
2789980,15
2790612,11
2791236,14
2791864,17
2792492,14
2793112,11
2793740,17
2794364,14
2794996,13
2795624,14
2796248,14
2796876,11
2797500,11
2798124,11
2798756,10
2799376,11
2800004,11
2800628,12
2801252,11
2801880,11
2802504,15
2803136,17
2803768,16
2804384,18
2805012,19
2805636,15
2806268,14
2806896,13
2807516,10
2808144,11
2808768,12
2809392,13
2810020,13
2810640,13
2811268,15
2811892,18
2812516,19
2813148,17
2813772,14
2814404,14
2815032,10
2815656,11
2816288,11
2816908,13
2817536,18
2818168,22
2818784,20
2819412,18
2820036,17
2820660,16
2821288,16
2821904,13
2822536,14
2823156,12
2823780,11
2824412,11
2825036,16
2825664,16
2826292,19
2826912,13
2827540,14
2828164,14
2828792,18
2829424,15
2830040,13
2830668,11
2831292,11
2831916,12
2832548,14
2833168,17
2833796,19
2834420,21
2835044,15
2835676,14
2836300,18
2836928,17
2837560,20
2838176,21
2838804,12
2839428,14
2840060,17
2840688,10
2841312,17
2841940,20
2842564,18
2843188,14
2843820,13
2844440,14
2845068,15
2845692,14
2846320,15
2846948,11
2847572,11
2848204,18
2848832,14
2849456,13
2850084,12
2850708,11
2851336,11
2851964,14
2852584,22
2853212,22
2853836,16
2854460,15
2855092,12
2855712,13
2856340,12
2856972,10
2857592,13
2858220,15
2858848,18
2859476,17
2860108,14
2860728,15
2861360,14
2861984,15
2862608,15
2863236,15
2863856,13
2864488,12
2865112,17
2865736,17
2866368,16
2866984,18
2867616,15
2868244,10
2868864,13
2869492,16
2870112,17
2870744,17
2871372,21
2871992,29
2872624,31
2873244,24
2873868,16
2874500,10
2875120,11
2875748,12
2876372,12
2876996,11
2877628,14
2878248,18
2878876,16
2879508,18
2880128,18
2880756,17
2881380,12
2882008,11
2882636,10
2883256,15
2883884,15
2884504,15
2885128,14
2885756,18
2886376,19
2887004,16
2887628,17
2888252,15
2888880,14
2889504,16
2890132,18
2890760,17
2891384,17
2892012,14
2892636,12
2893268,10
2893896,11
2894512,15
2895140,15
2895764,16
2896388,15
2897020,18
2897640,21
2898268,22
2898892,26
2899516,21
2900144,15
2900764,11
2901392,15
2902020,24
2902640,34
2903268,35
2903892,29
2904524,17
2905152,11
2905776,13
2906404,11
2907028,17
2907656,15
2908284,13
2908904,10
2909532,10
2910156,11
2910780,14
2911412,14
2912032,15
2912660,15
2913292,12
2913912,9
2914488,13
2915120,15
2915748,12
2916380,10
2917000,13
2917628,11
2918256,11
2918884,11
2919516,13
2920136,19
2920764,20
2921388,16
2922012,15
2922644,14
2923264,11
2923892,10
2924516,11
2925140,10
2925772,10
2926392,13
2927024,13
2927652,14
2928272,15
2928900,14
2929524,15
2930156,11
2930784,13
2931408,14
2932036,11
2932660,11
2933284,11
2933916,10
2934536,12
2935164,19
2935792,30
2936416,28
2937044,19
2937668,22
2938300,19
2938932,10
2939552,11
2940180,11
2940808,12
2941436,17
2942068,14
2942688,12
2943320,11
2943944,16
2944568,16
2945200,14
2945816,15
2946444,15
2947068,14
2947696,15
2948324,11
2948948,11
2949580,12
2950212,12
2950832,11
2951460,13
2952084,11
2952708,16
2953340,14
2953960,16
2954588,16
2955212,17
2955836,15
2956468,10
2957088,11
2957716,11
2958348,14
2958968,15
2959596,16
2960220,13
2960852,13
2961480,14
2962096,14
2962728,15
2963352,14
2963972,12
2964604,11
2965224,13
2965852,13
2966476,12
2967100,11
2967732,12
2968352,15
2968980,16
2969612,18
2970228,20
2970860,19
2971484,21
2972112,18
2972740,11
2973360,11
2973988,11
2974612,11
2975240,11
2975868,11
2976488,11
2977116,11
2977740,17
2978364,15
2978992,14
2979616,16
2980244,12
2980876,16
2981496,15
2982124,10
2982748,13
2983380,12
2984008,15
2984624,12
2985252,11
2985876,17
2986504,17
2987132,18
2987752,25
2988380,25
2989008,29
2989632,27
2990260,16
2990880,11
2991508,11
2992140,12
2992760,14
2993388,13
2994012,17
2994644,18
2995272,18
2995896,25
2996524,25
2997148,18
2997772,13
2998404,10
2999024,15
2999652,11
3000280,12
3000904,11
3001532,13
3002152,18
3002784,29
3003412,26
3004032,23
3004660,29
3005288,31
3005916,20
3006548,13
3007168,11
3007800,11
3008424,11
3009048,11
3009676,14
3010296,26
3010928,29
3011548,19
3012176,15
3012804,22
3013424,19
3014056,15
3014684,14
3015304,15
3015936,14
3016560,15
3017188,16
3017820,12
3018440,15
3019068,19
3019696,18
3020320,17
3020952,18
3021568,21
3022196,21
3022824,13
3023448,11
3024076,10
3024696,12
3025324,13
3025956,14
3026576,13
3027204,13
3027828,15
3028460,17
3029092,16
3029712,15
3030344,11
3030968,11
3031592,13
3032224,11
3032840,11
3033472,12
3034096,12
3034720,13
3035348,13
3035976,19
3036608,20
3037236,20
3037856,19
3038488,12
3039112,11
3039744,17
3040372,14
3040992,11
3041620,11
3042244,14
3042868,11
3043500,10
3044120,15
3044748,15
3045376,14
3046000,15
3046632,13
3047256,14
3047884,13
3048516,10
3049136,11
3049764,11
3050388,13
3051016,13
3051648,12
3052264,15
3052892,15
3053516,23
3054144,26
3054772,31
3055392,28
3056024,17
3056652,12
3057272,12
3057904,12
3058528,11
3059160,11
3059792,12
3060408,12
3061040,14
3061664,17
3062288,22
3062920,26
3063536,23
3064168,18
3064792,11
3065416,12
3066048,12
3066664,11
3067296,13
3067928,14
3068548,14
3069180,18
3069804,18
3070436,17
3071068,16
3071688,12
3072320,11
3072944,15
3073568,11
3074196,10
3074816,10
3075444,11
3076068,12
3076692,13
3077320,14
3077940,14
3078568,15
3079196,16
3079816,14
3080444,11
3081068,10
3081700,10
3082328,13
3082944,12
3083576,11
3084200,12
3084820,12
3085452,10
3086072,15
3086700,20
3087324,19
3087952,19
3088580,13
3089200,14
3089828,13
3090460,14
3091080,15
3091712,14
3092336,11
3092964,13
3093596,10
3094216,15
3094844,17
3095468,19
3096092,18
3096724,20
3097344,20
3097976,22
3098600,17
3099224,13
3099852,10
3100472,12
3101104,12
3101732,13
3102352,24
3102984,28
3103608,30
3104240,26
3104868,18
3105488,12
3106116,14
3106740,15
3107368,11
3107996,12
3108616,11
3109248,12
3109872,11
3110496,21
3111124,23
3111752,19
3112380,15
3113012,14
3113632,11
3114260,10
3114884,11
3115516,11
3116144,10
3116768,10
3117400,11
3118024,11
3118648,11
3119276,14
3119896,15
3120528,15
3121152,15
3121776,17
3122404,17
3123028,21
3123660,16
3124292,10
3124912,11
3125540,11
3126164,12
3126792,13
3127420,15
3128040,15
3128668,14
3129292,15
3129916,13
3130548,10
3131168,11
3131800,11
3132428,11
3133048,12
3133680,12
3134304,11
3134932,13
3135564,18
3136184,16
3136812,16
3137436,19
3138060,17
3138692,13
3139312,14
3139940,16
3140564,14
3141192,15
3141820,18
3142440,15
3143068,12
3143700,16
3144320,16
3144948,16
3145572,15
3146204,17
3146836,14
3147456,14
3148088,17
3148712,22
3149336,20
3149968,14
3150588,11
3151216,11
3151844,14
3152468,19
3153096,19
3153720,18
3154352,21
3154980,22
3155600,21
3156228,15
3156852,11
3157484,10
3158116,10
3158736,12
3159368,13
3159992,13
3160616,16
3161248,15
3161864,19
3162496,15
3163120,14
3163744,15
3164376,18
3165000,16
3165632,16
3166260,12
3166880,12
3167512,17
3168136,23
3168764,24
3169396,23
3170016,27
3170648,26
3171272,18
3171896,15
3172528,10
3173144,10
3173776,10
3174408,10
3175024,11
3175656,12
3176280,16
3176908,17
3177540,17
3178160,15
3178792,15
3179416,15
3180040,12
3180672,10
3181288,11
3181920,11
3182544,11
3183168,11
3183800,11
3184420,12
3185048,11
3185680,14
3186300,15
3186928,15
3187556,15
3188188,17
3188816,24
3189436,21
3190068,18
3190692,11
3191316,10
3191948,11
3192572,15
3193200,13
3193828,13
3194452,14
3195084,14
3195704,17
3196336,15
3196964,10
3197584,13
3198216,13
3198840,11
3199472,12
3200104,11
3200720,11
3201348,11
3201972,13
3202592,19
3203220,17
3203836,17
3204468,18
3205092,16
3205716,12
3206344,13
3206964,12
3207592,11
3208220,12
3208840,13
3209468,15
3210092,22
3210720,23
3211352,18
3211968,15
3212596,15
3213220,12
3213844,11
3214476,14
3215096,11
3215724,14
3216348,11
3216972,11
3217600,14
3218224,18
3218852,16
3219484,15
3220104,15
3220732,14
3221356,17
3221988,19
3222616,19
3223240,15
3223868,15
3224492,14
3225116,10
3225748,10
3226368,11
3226996,11
3227620,14
3228244,13
3228872,14
3229488,17
3230116,13
3230748,10
3231368,11
3231996,12
3232624,14
3233252,11
3233884,12
3234504,11
3235132,11
3235760,17
3236384,19
3237012,21
3237632,29
3238260,32
3238884,27
3239508,19
3240140,12
3240760,11
3241388,14
3242020,16
3242640,21
3243268,13
3243892,14
3244524,14
3245152,15
3245776,16
3246404,14
3247028,19
3247652,22
3248284,15
3248904,11
3249532,14
3250160,21
3250784,23
3251412,19
3252036,20
3252668,21
3253296,16
3253920,17
3254548,19
3255172,23
3255804,22
3256436,15
3257056,12
3257684,16
3258308,15
3258932,17
3259564,14
3260184,15
3260812,16
3261436,14
3262064,14
3262696,15
3263320,11
3263952,12
3264584,11
3265200,10
3265828,13
3266452,15
3267080,13
3267708,11
3268328,23
3268956,30
3269584,29
3270208,27
3270840,26
3271456,23
3272088,21
3272716,19
3273336,15
3273968,11
3274592,15
3275224,15
3275852,12
3276472,11
3277104,13
3277724,14
3278348,15
3278976,14
3279592,16
3280220,15
3280844,12
3281464,11
3282092,10
3282708,11
3283336,10
3283960,13
3284580,13
3285208,15
3285832,16
3286460,15
3287088,14
3287704,15
3288332,13
3288956,14
3289584,13
3290212,12
3290832,11
3291460,11
3292084,11
3292704,9
3293284,12
3293908,15
3294536,17
3295160,17
3295784,17
3296412,16
3297028,11
3297660,13
3298280,12
3298900,11
3299532,10
3300152,11
3300780,12
3301408,16
3302032,21
3302660,24
3303284,27
3303912,25
3304540,19
3305160,12
3305788,11
3306412,10
3307032,13
3307660,16
3308280,17
3308908,14
3309532,12
3310152,13
3310784,13
3311400,16
3312028,15
3312656,17
3313280,14
3313908,13
3314532,11
3315160,11
3315792,11
3316412,11
3317040,17
3317664,21
3318288,18
3318916,16
3319536,17
3320164,15
3320788,14
3321412,14
3322040,20
3322664,22
3323292,20
3323920,18
3324544,24
3325172,21
3325796,13
3326428,10
3327056,11
3327676,13
3328308,14
3328928,15
3329548,15
3330180,10
3330800,11
3331428,10
3332048,11
3332672,11
3333300,11
3333920,17
3334548,14
3335176,12
3335792,19
3336424,21
3337044,19
3337676,16
3338304,17
3338920,19
3339548,14
3340172,10
3340800,13
3341428,12
3342048,11
3342676,11
3343300,10
3343924,15
3344552,14
3345176,15
3345804,15
3346428,12
3347056,13
3347684,14
3348308,12
3348936,10
3349568,12
3350184,13
3350812,12
3351436,11
3352068,13
3352696,17
3353320,17
3353948,14
3354572,15
3355196,17
3355828,20
3356448,19
3357076,15
3357708,10
3358328,12
3358960,11
3359580,11
3360212,11
3360840,14
3361456,17
3362084,16
3362708,16
3363332,13
3363964,12
3364584,12
3365212,13
3365832,13
3366456,11
3367084,11
3367704,14
3368332,18
3368956,20
3369576,19
3370208,19
3370832,21
3371460,21
3372092,18
3372712,13
3373340,10
3373964,13
3374596,11
3375224,13
3375844,17
3376472,15
3377096,16
3377720,15
3378348,15
3378968,15
3379596,14
3380220,12
3380848,11
3381476,14
3382096,21
3382728,25
3383356,24
3383976,24
3384604,18
3385228,13
3385856,15
3386488,17
3387104,20
3387732,20
3388356,17
3388980,11
3389608,10
3390232,12
3390860,13
3391484,11
3392112,11
3392740,11
3393364,11
3393992,15
3394620,14
3395240,15
3395868,14
3396492,14
3397120,13
3397748,11
3398368,13
3398996,15
3399624,12
3400248,11
3400876,11
3401496,11
3402124,13
3402748,14
3403376,18
3404004,19
3404628,20
3405256,20
3405888,24
3406504,18
3407132,11
3407756,13
3408388,12
3409016,12
3409632,14
3410264,13
3410884,15
3411508,16
3412140,15
3412760,16
3413388,11
3414012,10
3414640,10
3415268,11
3415892,11
3416524,11
3417152,13
3417772,15
3418400,17
3419024,23
3419652,20
3420284,16
3420904,16
3421532,13
3422156,11
3422780,11
3423412,12
3424032,15
3424660,12
3425292,12
3425912,16
3426540,13
3427164,14
3427796,19
3428428,24
3429048,18
3429676,14
3430304,15
3430928,18
3431556,13
3432176,12
3432804,16
3433428,21
3434052,19
3434684,14
3435304,18
3435932,17
3436564,15
3437184,17
3437812,18
3438440,13
3439068,10
3439700,10
3440320,11
3440948,12
3441572,17
3442196,20
3442828,11
3443448,16
3444076,14
3444700,17
3445324,19
3445952,16
3446576,13
3447204,13
3447836,10
3448456,11
3449084,11
3449708,11
3450340,11
3450968,11
3451584,11
3452216,15
3452840,15
3453464,16
3454092,22
3454712,23
3455344,16
3455968,13
3456592,12
3457220,14
3457840,21
3458468,15
3459100,10
3459720,13
3460348,13
3460972,16
3461604,15
3462232,14
3462848,14
3463480,11
3464104,11
3464724,13
3465356,10
3465976,11
3466604,11
3467228,11
3467852,11
3468480,10
3469104,17
3469732,16
3470364,14
3470984,15
3471616,11
3472240,11
3472868,11
3473496,16
3474116,11
3474744,10
3475368,10
3475992,13
3476624,15
3477244,15
3477872,14
3478496,20
3479120,27
3479752,27
3480368,24
3481000,25
3481628,19
3482244,11
3482876,16
3483496,19
3484128,17
3484756,10
3485376,17
3486004,17
3486628,16
3487252,16
3487884,16
3488504,15
3489132,13
3489756,10
3490380,10
3491012,10
3491632,11
3492260,10
3492892,10
3493512,12
3494140,13
3494768,15
3495396,14
3496024,14
3496648,12
3497276,11
3497900,11
3498524,13
3499156,14
3499776,13
3500404,12
3501028,13
3501656,14
3502284,19
3502904,23
3503532,25
3504164,20
3504784,14
3505412,11
3506036,10
3506668,11
3507300,12
3507920,11
3508548,11
3509172,11
3509796,13
3510428,14
3511048,16
3511676,18
3512304,15
3512928,14
3513556,15
3514184,14
3514816,16
3515444,16
3516064,12
3516696,13
3517320,13
3517952,11
3518580,14
3519200,17
3519832,17
3520456,14
3521080,14
3521712,11
3522328,13
3522956,13
3523580,10
3524208,13
3524836,12
3525460,14
3526088,15
3526716,12
3527336,23
3527964,19
3528588,18
3529220,15
3529848,11
3530472,14
3531100,15
3531724,13
3532352,13
3532980,11
3533600,13
3534228,13
3534856,11
3535476,19
3536104,24
3536728,22
3537356,17
3537988,12
3538608,11
3539236,13
3539860,12
3540484,10
3541116,10
3541736,12
3542368,15
3542992,15
3543616,13
3544244,17
3544864,21
3545492,17
3546124,16
3546744,13
3547372,13
3547996,13
3548628,18
3549260,14
3549880,13
3550508,11
3551136,11
3551760,19
3552392,24
3553008,19
3553636,20
3554260,24
3554884,29
3555516,29
3556136,23
3556768,13
3557396,12
3558016,12
3558648,13
3559272,11
3559900,15
3560532,14
3561152,17
3561784,15
3562408,15
3563028,15
3563660,14
3564280,15
3564908,11
3565532,11
3566156,10
3566788,11
3567408,12
3568036,12
3568668,16
3569288,15
3569916,15
3570544,16
3571172,19
3571804,21
3572424,19
3573056,15
3573680,13
3574304,11
3574936,12
3575552,14
3576184,11
3576808,11
3577432,14
3578064,15
3578684,14
3579312,14
3579944,12
3580564,11
3581196,12
3581820,11
3582452,11
3583084,14
3583704,17
3584336,15
3584960,12
3585584,16
3586212,18
3586832,18
3587460,15
3588084,13
3588708,13
3589340,10
3589960,10
3590592,11
3591220,13
3591840,13
3592468,13
3593092,11
3593724,15
3594356,14
3594976,14
3595604,14
3596228,13
3596852,11
3597484,11
3598104,11
3598732,11
3599356,12
3599984,18
3600616,19
3601240,19
3601868,14
3602500,14
3603120,15
3603752,20
3604376,24
3605000,23
3605628,18
3606248,23
3606876,25
3607500,12
3608124,11
3608752,10
3609376,12
3610004,12
3610636,13
3611256,15
3611884,15
3612508,15
3613136,10
3613768,10
3614384,11
3615016,11
3615636,11
3616264,11
3616892,10
3617512,11
3618140,13
3618764,23
3619388,21
3620016,16
3620640,17
3621268,19
3621896,17
3622520,15
3623148,11
3623772,11
3624404,14
3625032,15
3625648,13
3626276,11
3626900,15
3627524,16
3628156,14
3628776,15
3629408,15
3630032,16
3630656,20
3631284,16
3631904,12
3632536,18
3633164,22
3633784,19
3634412,13
3635040,12
3635668,19
3636300,22
3636920,21
3637548,15
3638172,11
3638796,11
3639428,10
3640048,11
3640676,11
3641300,11
3641924,11
3642556,11
3643176,11
3643808,17
3644436,17
3645056,13
3645684,17
3646308,17
3646940,14
3647568,10
3648192,11
3648820,12
3649444,14
3650068,15
3650696,20
3651312,21
3651944,22
3652568,17
3653192,16
3653820,17
3654440,15
3655068,12
3655700,18
3656320,19
3656948,13
3657572,11
3658204,10
3658836,14
3659456,19
3660088,13
3660712,16
3661336,17
3661964,15
3662584,19
3663212,18
3663840,16
3664464,13
3665092,11
3665712,12
3666344,12
3666972,14
3667592,16
3668220,13
3668848,15
3669476,14
3670108,14
3670728,15
3671356,13
3671984,12
3672608,11
3673240,12
3673856,11
3674488,12
3675112,13
3675736,11
3676368,11
3676984,13
3677616,14
3678244,15
3678864,16
3679496,17
3680120,11
3680748,12
3681380,14
3682000,12
3682628,11
3683252,11
3683876,11
3684508,14
3685128,14
3685756,15
3686384,20
3687008,26
3687640,30
3688260,29
3688892,24
3689520,16
3690136,11
3690764,10
3691388,10
3692020,11
3692648,15
3693264,17
3693896,18
3694520,17
3695144,16
3695772,14
3696392,14
3697020,13
3697644,11
3698268,11
3698896,13
3699520,12
3700148,11
3700780,12
3701400,12
3702028,17
3702652,19
3703284,21
3703912,24
3704536,24
3705164,19
3705792,11
3706416,11
3707044,15
3707664,22
3708292,21
3708916,14
3709540,12
3710172,16
3710796,19
3711428,16
3712060,14
3712680,19
3713308,18
3713932,11
3714560,13
3715188,12
3715808,11
3716436,12
3717064,12
3717688,12
3718316,12
3718936,20
3719564,20
3720192,19
3720816,21
3721444,17
3722068,17
3722700,14
3723328,10
3723952,11
3724584,13
3725208,16
3725832,15
3726460,12
3727080,15
3727712,17
3728336,15
3728956,15
3729588,11
3730208,11
3730836,11
3731468,10
3732088,12
3732716,15
3733344,17
3733972,17
3734604,14
3735224,19
3735852,20
3736480,18
3737104,17
3737736,16
3738352,23
3738980,21
3739604,11
3740228,15
3740860,12
3741480,9
3742056,12
3742688,11
3743312,12
3743944,15
3744560,17
3745192,16
3745824,15
3746440,14
3747068,12
3747696,10
3748324,11
3748956,10
3749576,12
3750208,13
3750832,19
3751456,17
3752088,17
3752704,20
3753336,23
3753960,22
3754584,21
3755216,16
3755832,12
3756464,11
3757096,10
3757712,11
3758344,11
3758968,11
3759600,15
3760228,17
3760848,19
3761476,17
3762104,17
3762728,15
3763356,11
3763976,12
3764608,13
3765232,14
3765856,11
3766488,13
3767112,12
3767740,12
3768372,18
3768992,19
3769620,15
3770244,15
3770872,15
3771504,12
3772128,11
3772760,11
3773384,12
3774008,11
3774640,10
3775256,10
3775888,11
3776520,11
3777136,15
3777764,15
3778388,15
3779020,16
3779652,10
3780272,12
3780900,20
3781528,25
3782152,18
3782780,10
3783400,14
3784032,11
3784656,12
3785280,17
3785908,14
3786528,15
3787160,17
3787788,18
3788408,21
3789040,21
3789660,21
3790292,11
3790924,12
3791544,11
3792172,14
3792796,14
3793424,13
3794052,13
3794672,15
3795304,15
3795928,15
3796552,11
3797180,13
3797800,17
3798432,15
3799060,11
3799680,15
3800308,13
3800936,11
3801564,11
3802196,13
3802816,15
3803448,14
3804072,17
3804696,23
3805328,27
3805944,33
3806576,26
3807200,13
3807824,13
3808456,14
3809072,22
3809704,20
3810332,18
3810952,15
3811584,15
3812208,15
3812836,14
3813468,18
3814088,17
3814720,11
3815344,16
3815968,14
3816600,12
3817216,12
3817848,20
3818472,27
3819096,24
3819728,17
3820344,15
3820976,16
3821604,20
3822224,20
3822856,18
3823480,18
3824112,19
3824740,14
3825360,12
3825992,11
3826616,17
3827240,22
3827868,22
3828488,19
3829116,15
3829744,13
3830368,12
3831000,13
3831624,11
3832256,13
3832888,10
3833504,11
3834140,11
3834764,11
3835396,16
3836028,16
3836648,18
3837280,19
3837904,21
3838532,21
3839164,18
3839788,16
3840420,10
3841048,12
3841664,15
3842292,16
3842916,13
3843544,16
3844176,15
3844792,15
3845420,15
3846044,14
3846668,11
3847300,10
3847920,13
3848548,12
3849172,13
3849796,14
3850428,14
3851048,16
3851676,15
3852308,22
3852928,27
3853556,24
3854180,20
3854812,18
3855440,12
3856056,11
3856688,12
3857312,11
3857936,11
3858564,11
3859184,13
3859816,12
3860440,15
3861064,16
3861692,16
3862312,15
3862944,12
3863572,10
3864192,11
3864820,11
3865448,10
3866076,11
3866708,10
3867328,12
3867956,12
3868584,19
3869208,23
3869836,20
3870456,19
3871088,17
3871712,16
3872336,17
3872964,11
3873584,15
3874212,19
3874844,13
3875464,11
3876092,12
3876716,13
3877348,15
3877980,14
3878600,15
3879228,14
3879856,14
3880480,13
3881108,10
3881728,13
3882356,11
3882980,13
3883608,11
3884236,11
3884856,11
3885484,14
3886116,14
3886736,16
3887364,17
3887992,15
3888624,15
3889252,12
3889872,12
3890504,17
3891128,18
3891752,11
3892384,12
3893000,12
3893632,17
3894256,16
3894880,15
3895508,15
3896132,13
3896764,11
3897396,10
3898016,11
3898644,11
3899268,11
3899900,13
3900532,12
3901152,15
3901784,21
3902408,28
3903032,25
3903664,16
3904284,15
3904912,11
3905540,11
3906160,13
3906788,12
3907416,10
3908044,10
3908676,10
3909296,13
3909924,13
3910552,15
3911176,17
3911808,18
3912424,14
3913056,11
3913680,11
3914304,12
3914936,10
3915552,11
3916184,11
3916816,12
3917432,13
3918064,13
3918688,19
3919320,22
3919952,18
3920568,15
3921200,12
3921824,13
3922448,12
3923076,10
3923696,10
3924324,15
3924952,22
3925576,19
3926208,11
3926824,14
3927456,14
3928088,14
3928704,14
3929336,16
3929960,13
3930588,14
3931220,20
3931840,23
3932472,14
3933096,12
3933720,12
3934348,11
3934968,13
3935596,16
3936224,15
3936844,16
3937476,22
3938096,21
3938724,15
3939356,10
3939976,11
3940604,12
3941232,12
3941860,13
3942492,10
3943112,12
3943740,13
3944364,16
3944988,17
3945616,14
3946232,11
3946864,13
3947488,16
3948112,17
3948740,10
3949360,11
3949988,11
3950620,14
3951240,17
3951872,20
3952496,19
3953124,14
3953756,14
3954376,15
3955008,13
3955632,13
3956256,12
3956884,10
3957504,11
3958136,11
3958760,12
3959384,11
3960012,12
3960632,13
3961264,15
3961892,18
3962512,19
3963144,17
3963768,16
3964396,13
3965028,10
3965648,13
3966276,13
3966904,13
3967528,13
3968160,19
3968776,25
3969404,31
3970028,29
3970652,28
3971284,24
3971908,15
3972536,11
3973168,11
3973784,17
3974412,14
3975036,12
3975668,12
3976300,14
3976920,20
3977548,14
3978176,18
3978800,18
3979428,12
3980048,12
3980676,11
3981304,11
3981928,11
3982556,14
3983184,13
3983816,11
3984444,12
3985064,19
3985692,24
3986320,23
3986948,16
3987580,14
3988200,13
3988828,12
3989456,10
3990080,11
3990708,11
3991328,14
3991960,15
3992592,10
3993212,12
3993844,13
3994468,17
3995096,18
3995728,21
3996344,16
3996972,11
3997600,11
3998224,11
3998852,11
3999472,14
4000104,13
4000724,14
4001348,16
4001976,20
4002600,19
4003228,17
4003856,20
4004480,21
4005108,17
4005732,12
4006360,10
4006992,11
4007608,12
4008240,11
4008864,13
4009488,17
4010116,22
4010736,21
4011364,15
4011992,15
4012616,13
4013248,12
4013864,11
4014492,10
4015124,10
4015744,13
4016372,12
4016996,12
4017628,10
4018256,11
4018872,15
4019504,17
4020128,18
4020752,19
4021380,19
4022000,22
4022628,20
4023252,13
4023876,11
4024508,10
4025128,12
4025756,13
4026388,10
4027008,15
4027636,17
4028260,18
4028892,15
4029520,12
4030144,13
4030776,11
4031400,11
4032024,11
4032652,12
4033272,17
4033900,14
4034524,12
4035152,17
4035780,18
4036400,22
4037028,18
4037660,15
4038280,13
4038908,13
4039536,18
4040164,19
4040796,16
4041416,16
4042048,13
4042672,11
4043296,14
4043924,12
4044544,14
4045176,14
4045800,14
4046424,17
4047052,19
4047672,17
4048304,12
4048932,11
4049552,12
4050184,13
4050808,11
4051436,15
4052068,20
4052688,19
4053316,18
4053944,20
4054568,19
4055196,18
4055816,21
4056444,15
4057068,11
4057696,13
4058324,15
4058948,14
4059576,11
4060208,17
4060828,17
4061456,27
4062080,30
4062708,16
4063340,10
4063960,15
4064592,17
4065216,17
4065840,15
4066468,14
4067088,11
4067720,15
4068344,20
4068968,19
4069596,15
4070224,16
4070856,15
4071484,10
4072104,11
4072732,11
4073360,12
4073988,17
4074620,20
4075240,12
4075872,11
4076496,13
4077120,18
4077748,16
4078368,14
4079000,15
4079632,11
4080248,11
4080880,13
4081504,16
4082132,15
4082764,13
4083384,12
4084012,12
4084636,12
4085264,16
4085892,14
4086512,16
4087140,17
4087768,17
4088392,20
4089024,16
4089640,11
4090272,13
4090904,14
4091520,15
4092152,11
4092776,11
4093408,17
4094040,17
4094660,14
4095292,14
4095916,15
4096544,12
4097172,10
4097788,11
4098416,11
4099040,13
4099660,11
4100288,12
4100908,14
4101540,17
4102168,19
4102784,18
4103412,16
4104036,14
4104664,13
4105292,12
4105912,17
4106540,17
4107160,13
4107784,11
4108416,11
4109032,13
4109660,11
4110284,14
4110904,14
4111536,16
4112152,17
4112780,14
4113404,12
4114032,17
4114660,20
4115284,12
4115912,11
4116540,11
4117160,11
4117788,13
4118412,20
4119040,21
4119668,22
4120288,18
4120916,18
4121540,17
4122164,16
4122792,18
4123416,13
4124044,11
4124668,12
4125296,15
4125924,13
4126548,11
4127176,16
4127808,17
4128424,16
4129052,18
4129676,11
4130304,11
4130936,18
4131552,18
4132180,17
4132804,14
4133428,11
4134056,12
4134676,11
4135304,15
4135928,18
4136552,20
4137180,21
4137804,17
4138432,13
4139060,14
4139680,17
4140308,15
4140932,13
4141560,10
4142192,12
4142808,12
4143436,15
4144060,16
4144684,20
4145312,20
4145928,18
4146560,14
4147184,11
4147808,11
4148436,10
4149060,13
4149688,11
4150320,12
4150936,18
4151564,20
4152188,19
4152820,17
4153448,15
4154072,15
4154700,14
4155324,15
4155948,17
4156580,16
4157200,16
4157828,17
4158452,13
4159076,11
4159708,11
4160332,14
4160960,17
4161588,16
4162208,15
4162836,11
4163460,11
4164088,12
4164716,10
4165336,11
4165964,12
4166588,14
4167212,13
4167840,13
4168456,25
4169084,19
4169708,18
4170328,18
4170960,21
4171576,18
4172204,11
4172836,10
4173456,10
4174084,10
4174708,10
4175336,10
4175964,10
4176584,13
4177212,14
4177836,15
4178460,14
4179092,14
4179712,12
4180340,12
4180964,11
4181584,12
4182216,15
4182832,18
4183464,16
4184092,12
4184712,12
4185340,16
4185964,16
4186592,19
4187220,18
4187840,17
4188468,13
4189092,11
4189716,18
4190344,16
4190964,10
4191592,11
4192216,12
4192840,11
4193468,14
4194088,16
4194716,16
4195348,14
4195968,15
4196596,14
4197220,14
4197852,13
4198480,11
4199100,11
4199732,11
4200356,11
4200976,12
4201604,12
4202220,15
4202852,16
4203476,16
4204100,16
4204728,19
4205344,24
4205976,26
4206604,20
4207224,13
4207852,11
4208476,14
4209108,15
4209736,11
4210356,14
4210984,14
4211608,16
4212232,21
4212860,22
4213480,17
4214108,11
4214732,12
4215356,11
4215988,10
4216608,15
4217236,11
4217868,18
4218488,30
4219116,31
4219740,25
4220372,26
4221000,22
4221624,21
4222252,22
4222876,19
4223500,11
4224132,13
4224752,16
4225380,17
4226004,13
4226624,13
4227252,18
4227872,16
4228500,14
4229128,14
4229752,15
4230380,21
4231004,23
4231636,17
4232264,17
4232888,11
4233516,11
4234140,11
4234764,11
4235396,14
4236016,15
4236644,16
4237268,18
4237892,18
4238524,20
4239144,21
4239776,23
4240404,20
4241024,19
4241652,14
4242276,11
4242904,10
4243532,14
4244152,21
4244780,17
4245404,14
4246028,11
4246660,10
4247280,10
4247908,11
4248532,15
4249160,11
4249788,13
4250408,25
4251036,20
4251664,18
4252288,16
4252916,15
4253540,16
4254172,15
4254800,14
4255424,17
4256052,14
4256676,10
4257300,11
4257928,12
4258552,14
4259180,11
4259808,11
4260432,13
4261060,14
4261680,16
4262308,14
4262940,10
4263560,11
4264188,11
4264812,11
4265440,11
4266068,12
4266688,11
4267316,13
4267940,11
4268564,16
4269192,16
4269816,17
4270444,21
4271068,24
4271692,26
4272324,20
4272944,19
4273572,13
4274204,10
4274824,11
4275452,11
4276076,11
4276708,15
4277336,18
4277956,18
4278584,16
4279208,14
4279832,12
4280460,11
4281080,11
4281708,10
4282332,10
4282956,11
4283584,11
4284208,13
4284836,19
4285468,22
4286088,21
4286716,17
4287340,16
4287972,16
4288604,18
4289224,20
4289852,16
4290476,10
4291100,10
4291732,10
4292352,10
4292980,12
4293604,14
4294228,14
4294860,14
4295480,15
4296108,11
4296740,10
4297360,11
4297988,11
4298616,15
4299244,19
4299876,14
4300496,11
4301128,11
4301748,15
4302372,15
4303004,16
4303624,19
4304252,16
4304876,18
4305500,19
4306128,14
4306752,11
4307380,13
4308012,10
4308632,10
4309260,12
4309884,15
4310516,15
4311144,14
4311768,15
4312396,15
4313020,11
4313644,11
4314276,10
4314896,12
4315524,11
4316148,12
4316776,13
4317404,12
4318032,11
4318660,16
4319292,22
4319912,24
4320544,21
4321168,17
4321796,10
4322428,10
4323048,11
4323676,10
4324300,11
4324924,12
4325556,10
4326176,11
4326808,15
4327436,14
4328056,16
4328684,15
4329308,16
4329940,15
4330568,13
4331184,12
4331816,11
4332440,11
4333064,11
4333696,13
4334312,13
4334944,19
4335568,23
4336192,28
4336820,31
4337440,24
4338068,18
4338700,16
4339320,19
4339948,13
4340572,10
4341204,10
4341836,10
4342456,11
4343084,12
4343708,16
4344332,18
4344964,16
4345584,19
4346216,13
4346840,13
4347464,13
4348092,12
4348712,11
4349344,11
4349972,11
4350592,13
4351224,16
4351848,22
4352480,23
4353108,21
4353728,21
4354356,16
4354980,12
4355604,12
4356232,12
4356856,12
4357484,10
4358108,11
4358732,14
4359360,15
4359984,16
4360612,15
4361244,16
4361864,14
4362492,13
4363116,12
4363748,13
4364376,11
4365000,11
4365628,11
4366252,14
4366876,15
4367504,14
4368128,16
4368756,15
4369380,15
4370004,16
4370632,14
4371256,13
4371884,20
4372516,18
4373136,16
4373764,11
4374388,11
4375020,12
4375652,12
4376272,14
4376904,17
4377528,15
4378152,13
4378780,15
4379400,14
4380028,11
4380656,11
4381280,11
4381908,11
4382536,11
4383164,13
4383796,12
4384416,14
4385044,21
4385668,19
4386300,18
4386928,19
4387548,17
4388176,15
4388800,13
4389424,11
4390052,11
4390672,11
4391300,10
4391928,11
4392552,11
4393184,13
4393808,14
4394436,15
4395068,15
4395688,15
4396316,11
4396944,11
4397576,11
4398204,10
4398824,11
4399456,12
4400080,12
4400704,15
4401332,11
4401952,20
4402580,21
4403212,23
4403832,27
4404460,21
4405084,15
4405712,18
4406344,19
4406964,18
4407592,16
4408216,11
4408840,12
4409468,11
4410088,16
4410716,18
4411344,16
4411968,15
4412596,13
4413216,18
4413848,20
4414476,16
4415096,13
4415728,15
4416352,22
4416980,17
4417612,18
4418232,16
4418860,15
4419484,14
4420108,15
4420740,16
4421360,27
4421988,35
4422616,30
4423240,23
4423868,19
4424488,17
4425116,17
4425748,19
4426368,21
4426996,14
4427620,15
4428252,17
4428880,15
4429504,13
4430132,14
4430756,10
4431380,11
4432008,13
4432632,14
4433260,12
4433884,11
4434512,12
4435140,14
4435760,15
4436388,14
4437020,16
4437640,19
4438272,23
4438896,23
4439524,17
4440156,10
4440776,11
4441408,11
4442032,11
4442656,13
4443284,20
4443904,19
4444536,15
4445160,15
4445784,13
4446412,12
4447032,11
4447664,14
4448292,14
4448912,13
4449540,11
4450164,12
4450796,14
4451428,12
4452048,18
4452676,18
4453304,20
4453928,19
4454560,15
4455176,17
4455804,17
4456432,14
4457056,11
4457684,13
4458308,15
4458940,14
4459568,10
4460192,14
4460824,17
4461444,16
4462076,14
4462708,12
4463328,13
4463960,11
4464584,13
4465208,11
4465836,10
4466456,11
4467084,12
4467716,10
4468336,14
4468968,19
4469592,27
4470220,24
4470852,18
4471472,15
4472104,10
4472728,11
4473352,13
4473984,10
4474600,10
4475232,11
4475856,11
4476480,13
4477112,13
4477728,15
4478360,15
4478992,18
4479612,12
4480244,11
4480868,10
4481496,11
4482124,11
4482744,13
4483372,12
4483996,11
4484620,12
4485252,16
4485872,17
4486500,16
4487124,16
4487748,12
4488376,10
4489000,12
4489628,17
4490260,21
4490880,17
4491508,11
4492132,11
4492764,13
4493396,14
4494016,15
4494648,14
4495272,15
4495896,12
4496528,10
4497144,11
4497772,14
4498400,12
4499024,12
4499652,15
4500272,21
4500904,20
4501532,17
4502152,14
4502784,15
4503408,14
4504040,15
4504668,16
4505288,15
4505920,13
4506540,12
4507164,13
4507796,10
4508416,12
4509044,10
4509668,11
4510292,13
4510924,14
4511544,16
4512172,17
4512804,12
4513424,14
4514052,11
4514676,11
4515308,11
4515936,11
4516552,12
4517184,13
4517808,14
4518432,15
4519060,15
4519680,16
4520308,16
4520932,27
4521556,29
4522188,16
4522808,11
4523436,11
4524068,11
4524688,11
4525320,11
4525944,12
4526572,14
4527204,16
4527824,18
4528456,19
4529080,19
4529700,14
4530332,10
4530952,12
4531584,11
4532208,13
4532828,15
4533460,13
4534084,12
4534712,12
4535344,15
4535964,14
4536596,16
4537220,16
4537852,12
4538480,11
4539100,15
4539728,14
4540352,12
4540976,12
4541608,10
4542224,15
4542856,14
4543480,17
4544104,24
4544732,24
4545356,15
4545988,13
4546616,15
4547240,13
4547868,11
4548492,11
4549124,11
4549752,11
4550372,18
4551004,16
4551628,20
4552252,21
4552884,22
4553504,25
4554136,30
4554768,25
4555384,17
4556016,11
4556640,12
4557272,13
4557900,11
4558520,15
4559148,19
4559776,19
4560400,18
4561028,19
4561648,19
4562276,18
4562900,15
4563528,12
4564156,10
4564776,12
4565408,13
4566036,11
4566656,11
4567288,23
4567908,31
4568540,30
4569172,18
4569792,15
4570420,15
4571044,20
4571672,27
4572300,21
4572920,12
4573548,10
4574176,12
4574800,11
4575428,12
4576048,16
4576676,23
4577308,22
4577928,18
4578556,15
4579184,12
4579816,15
4580444,16
4581064,15
4581696,11
4582320,11
4582944,11
4583576,12
4584196,14
4584824,18
4585452,18
4586076,16
4586708,15
4587332,14
4587964,11
4588592,10
4589216,15
4589844,16
4590468,13
4591100,11
4591728,12
4592352,20
4592980,21
4593604,17
4594228,15
4594860,14
4595480,14
4596108,11
4596732,10
4597360,11
4597992,11
4598616,12
4599244,11
4599876,12
4600496,12
4601124,14
4601748,19
4602376,19
4603004,16
4603624,18
4604252,14
4604880,12
4605504,14
4606132,18
4606752,18
4607384,15
4608016,11
4608628,13
4609260,15
4609880,17
4610512,19
4611140,18
4611760,16
4612388,12
4613012,11
4613640,12
4614268,10
4614888,12
4615516,11
4616140,11
4616764,12
4617396,14
4618016,17
4618644,24
4619276,23
4619896,21
4620524,17
4621148,14
4621780,10
4622408,10
4623028,11
4623656,11
4624280,12
4624904,11
4625532,13
4626152,15
4626780,15
4627408,14
4628028,14
4628660,14
4629280,13
4629908,11
4630540,12
4631160,13
4631788,14
4632416,23
4633044,22
4633676,13
4634296,12
4634924,17
4635548,17
4636172,17
4636804,18
4637424,15
4638052,15
4638680,15
4639304,13
4639936,12
4640552,13
4641184,11
4641812,14
4642432,13
4643060,14
4643684,13
4644316,14
4644944,15
4645568,14
4646196,11
4646824,11
4647448,11
4648076,11
4648696,12
4649324,15
4649948,13
4650572,11
4651204,12
4651824,19
4652452,23
4653084,25
4653704,24
4654336,19
4654960,12
4655588,10
4656220,12
4656840,11
4657468,16
4658092,14
4658716,17
4659348,17
4659968,17
4660596,14
4661220,17
4661844,17
4662476,12
4663096,10
4663724,11
4664356,10
4664976,10
4665604,12
4666228,12
4666860,11
4667492,11
4668112,15
4668744,16
4669368,16
4669992,18
4670620,21
4671240,25
4671872,16
4672496,11
4673120,10
4673748,10
4674372,12
4675004,11
4675632,10
4676256,12
4676884,14
4677508,14
4678140,15
4678772,16
4679392,13
4680024,10
4680644,11
4681268,10
4681900,11
4682520,13
4683148,14
4683780,13
4684400,13
4685032,15
4685652,18
4686284,18
4686916,18
4687536,19
4688164,13
4688788,12
4689416,11
4690044,10
4690664,11
4691292,11
4691916,11
4692544,11
4693172,14
4693792,13
4694424,15
4695052,14
4695672,13
4696304,12
4696928,17
4697560,13
4698188,11
4698808,11
4699440,11
4700064,11
4700688,11
4701320,13
4701936,15
4702568,16
4703192,18
4703816,19
4704448,18
4705072,13
4705704,11
4706332,10
4706952,11
4707584,11
4708208,11
4708840,11
4709468,13
4710088,16
4710720,18
4711344,17
4711968,17
4712596,12
4713216,13
4713844,17
4714472,16
4715096,14
4715724,10
4716344,15
4716976,15
4717604,11
4718224,16
4718856,19
4719480,21
4720112,22
4720740,17
4721360,18
4721988,17
4722616,21
4723240,19
4723868,20
4724488,17
4725116,11
4725744,14
4726368,15
4727000,19
4727624,21
4728256,17
4728884,17
4729504,18
4730136,17
4730760,15
4731392,14
4732020,14
4732640,15
4733272,11
4733896,12
4734520,11
4735152,15
4735772,22
4736404,27
4737032,26
4737652,22
4738280,23
4738904,26
4739532,16
4740164,12
4740784,11
4741416,11
4742040,11
4742664,11
4743292,14
4743912,15
4744544,17
4745168,18
4745792,13
4746424,11
4747040,13
4747672,18
4748300,17
4748920,13
4749548,15
4750176,13
4750804,11
4751436,14
4752056,17
4752684,20
4753308,18
4753932,19
4754564,26
4755184,22
4755816,13
4756440,11
4757064,11
4757696,12
4758312,13
4758944,16
4759576,14
4760196,13
4760824,15
4761452,16
4762080,17
4762712,12
4763332,12
4763960,11
4764584,13
4765212,12
4765840,10
4766464,11
4767096,11
4767720,13
4768344,15
4768972,17
4769592,16
4770224,15
4770852,14
4771472,15
4772104,13
4772728,11
4773356,14
4773988,10
4774608,11
4775236,11
4775864,11
4776488,15
4777116,14
4777736,17
4778368,18
4778992,15
4779616,13
4780248,13
4780872,12
4781500,13
4782132,14
4782752,13
4783384,13
4784008,19
4784636,29
4785268,34
4785888,29
4786520,24
4787144,19
4787768,17
4788400,17
4789020,17
4789652,17
4790284,12
4790904,11
4791536,14
4792164,19
4792796,17
4793428,15
4794048,16
4794680,15
4795304,16
4795928,11
4796560,12
4797180,14
4797812,13
4798436,11
4799060,13
4799692,14
4800312,11
4800944,11
4801572,14
4802192,16
4802820,17
4803444,14
4804076,11
4804704,11
4805324,12
4805952,17
4806576,18
4807200,24
4807832,18
4808448,10
4809080,21
4809704,17
4810328,15
4810956,18
4811576,15
4812208,15
4812836,12
4813456,13
4814084,14
4814708,16
4815336,15
4815968,13
4816588,11
4817216,15
4817840,23
4818464,26
4819096,21
4819712,15
4820344,15
4820968,17
4821592,20
4822224,10
4822840,11
4823468,11
4824100,14
4824720,11
4825348,11
4825976,13
4826604,14
4827236,13
4827856,15
4828488,17
4829112,23
4829736,21
4830364,13
4830984,10
4831616,13
4832240,14
4832864,13
4833492,14
4834120,17
4834748,26
4835380,25
4836000,18
4836628,15
4837252,14
4837884,14
4838516,10
4839136,11
4839764,16
4840392,15
4841016,16
4841644,16
4842264,14
4842892,13
4843516,16
4844144,14
4844776,16
4845400,16
4846028,15
4846660,14
4847280,11
4847912,11
4848536,12
4849160,13
4849788,13
4850408,14
4851036,14
4851664,19
4852288,18
4852920,17
4853536,17
4854168,12
4854796,12
4855416,15
4856048,15
4856672,11
4857300,11
4857932,10
4858552,12
4859184,11
4859808,14
4860432,14
4861064,14
4861680,15
4862312,12
4862940,12
4863564,12
4864196,14
4864816,17
4865444,15
4866072,14
4866696,13
4867324,12
4867948,14
4868580,15
4869212,18
4869832,17
4870460,17
4871084,18
4871708,16
4872340,12
4872960,12
4873588,11
4874216,11
4874840,11
4875468,12
4876088,13
4876716,14
4877348,14
4877968,14
4878600,15
4879224,16
4879852,14
4880484,10
4881104,11
4881732,11
4882360,12
4882984,11
4883612,11
4884232,13
4884864,16
4885484,15
4886112,16
4886740,15
4887364,15
4887996,19
4888628,16
4889248,15
4889880,14
4890504,14
4891132,13
4891764,10
4892384,11
4893016,14
4893640,16
4894264,16
4894896,16
4895512,18
4896144,14
4896772,14
4897392,15
4898024,11
4898648,11
4899276,11
4899908,10
4900528,13
4901160,15
4901784,17
4902408,17
4903036,17
4903656,18
4904288,21
4904912,20
4905536,11
4906168,12
4906788,11
4907420,11
4908052,10
4908672,13
4909304,12
4909928,14
4910560,14
4911192,18
4911812,19
4912444,12
4913068,11
4913696,13
4914324,11
4914944,12
4915580,12
4916200,12
4916824,20
4917452,14
4918072,15
4918700,17
4919332,20
4919952,24
4920584,25
4921204,27
4921836,31
4922464,27
4923084,13
4923712,11
4924336,11
4924960,11
4925588,13
4926208,17
4926836,14
4927460,20
4928084,21
4928716,14
4929336,14
4929964,10
4930592,12
4931216,20
4931844,29
4932468,30
4933100,21
4933728,12
4934352,19
4934984,23
4935608,26
4936232,21
4936860,20
4937480,21
4938108,21
4938732,21
4939356,13
4939988,10
4940612,10
4941244,11
4941872,10
4942496,12
4943124,14
4943748,14
4944380,14
4945012,14
4945632,13
4946260,11
4946884,10
4947508,12
4948140,12
4948760,13
4949388,11
4950016,10
4950640,12
4951272,15
4951896,18
4952524,16
4953156,15
4953776,15
4954404,11
4955028,12
4955656,15
4956288,11
4956904,11
4957532,13
4958156,11
4958784,12
4959412,12
4960032,14
4960660,15
4961292,16
4961912,16
4962540,11
4963164,14
4963796,20
4964428,27
4965048,20
4965676,11
4966304,12
4966928,14
4967556,22
4968176,26
4968804,19
4969428,16
4970052,15
4970684,11
4971304,11
4971936,14
4972564,17
4973184,16
4973812,11
4974440,17
4975068,19
4975700,22
4976320,22
4976948,16
4977572,15
4978200,16
4978828,13
4979448,12
4980076,11
4980700,11
4981324,11
4981956,12
4982576,15
4983204,15
4983836,13
4984456,12
4985084,16
4985712,15
4986340,16
4986972,16
4987592,20
4988224,17
4988848,11
4989472,11
4990100,16
4990720,16
4991352,11
4991976,15
4992604,21
4993232,23
4993852,20
4994480,15
4995108,15
4995728,13
4996360,15
4996984,12
4997612,11
4998244,12
4998864,11
4999492,11
5000116,12
5000740,13
5001372,22
5001992,29
5002624,25
5003248,23
5003868,20
5004500,17
5005124,12
5005756,10
5006388,12
5007008,15
5007640,20
5008264,21
5008892,20
5009524,19
5010144,16
5010776,16
5011400,16
5012024,15
5012652,12
5013272,15
5013904,17
5014532,15
5015152,14
5015784,14
5016408,14
5017040,13
5017668,13
5018288,15
5018916,14
5019540,15
5020168,16
5020796,15
5021416,16
5022048,11
5022672,11
5023296,11
5023928,11
5024548,13
5025176,16
5025808,14
5026424,14
5027056,14
5027680,15
5028308,17
5028940,18
5029560,17
5030192,15
5030816,12
5031440,11
5032072,11
5032688,11
5033320,13
5033944,16
5034568,27
5035200,25
5035816,20
5036448,20
5037080,15
5037696,11
5038328,12
5038952,11
5039584,10
5040216,10
5040832,10
5041460,16
5042088,17
5042712,13
5043344,15
5043960,15
5044588,16
5045216,15
5045840,11
5046468,10
5047088,12
5047720,12
5048348,10
5048968,14
5049596,19
5050224,23
5050856,25
5051488,19
5052104,14
5052736,15
5053360,15
5053988,11
5054620,14
5055240,18
5055872,16
5056496,14
5057124,10
5057752,11
5058380,11
5059012,12
5059640,14
5060264,15
5060896,15
5061520,15
5062152,12
5062780,11
5063400,13
5064032,16
5064656,15
5065280,13
5065912,10
5066532,11
5067164,12
5067796,12
5068416,19
5069048,19
5069676,16
5070304,16
5070936,13
5071560,13
5072192,13
5072816,13
5073440,12
5074072,10
5074688,11
5075320,13
5075944,11
5076568,13
5077200,15
5077820,15
5078452,15
5079084,10
5079704,11
5080336,11
5080960,17
5081588,16
5082220,14
5082840,12
5083472,14
5084096,21
5084720,22
5085352,15
5085968,14
5086600,17
5087228,19
5087852,24
5088484,22
5089108,20
5089740,17
5090372,10
5090992,10
5091624,16
5092248,21
5092872,17
5093504,14
5094124,15
5094756,15
5095380,17
5096004,13
5096636,16
5097256,15
5097888,11
5098520,11
5099136,11
5099772,11
5100396,12
5101028,17
5101660,20
5102280,19
5102912,15
5103536,15
5104160,18
5104792,20
5105412,14
5106044,10
5106668,10
5107296,11
5107924,10
5108552,11
5109184,13
5109816,16
5110436,14
5111064,15
5111692,14
5112324,23
5112956,22
5113580,19
5114212,15
5114836,12
5115464,11
5116096,12
5116716,13
5117348,23
5117984,31
5118604,28
5119236,18
5119864,16
5120496,19
5121124,24
5121740,24
5122372,16
5122996,11
5123616,11
5124244,11
5124864,14
5125492,11
5126116,13
5126736,14
5127364,14
5127984,15
5128612,15
5129244,10
5129864,13
5130492,19
5131116,16
5131744,12
5132376,12
5132992,16
5133624,15
5134244,17
5134868,19
5135500,18
5136120,19
5136748,17
5137372,17
5137996,13
5138624,11
5139248,11
5139876,11
5140508,10
5141128,11
5141756,19
5142380,21
5143012,20
5143640,14
5144264,15
5144892,15
5145516,17
5146144,15
5146772,13
5147392,16
5148020,21
5148644,21
5149268,15
5149900,12
5150520,12
5151148,20
5151780,22
5152400,21
5153028,16
5153652,15
5154280,12
5154912,16
5155532,15
5156160,13
5156784,9
5157356,10
5157992,12
5158608,17
5159240,27
5159864,20
5160488,15
5161116,14
5161736,15
5162364,11
5162988,11
5163612,11
5164240,12
5164864,11
5165496,14
5166124,14
5166744,14
5167372,11
5167996,17
5168628,16
5169260,16
5169880,18
5170508,13
5171136,11
5171760,15
5172388,17
5173008,17
5173636,11
5174260,13
5174884,13
5175516,12
5176140,14
5176772,15
5177404,18
5178024,19
5178652,16
5179276,11
5179908,11
5180540,10
5181160,11
5181792,11
5182416,14
5183036,15
5183668,14
5184288,12
5184916,15
5185548,16
5186168,28
5186796,36
5187420,30
5188052,24
5188680,21
5189304,15
5189932,11
5190556,11
5191184,11
5191812,10
5192432,15
5193060,15
5193684,15
5194308,18
5194940,16
5195560,13
5196192,11
5196820,10
5197440,11
5198068,11
5198692,11
5199324,16
5199956,21
5200576,20
5201208,20
5201832,15
5202456,17
5203084,16
5203704,14
5204332,15
5204956,15
5205580,11
5206212,10
5206832,10
5207460,11
5208092,12
5208712,12
5209340,12
5209968,15
5210596,18
5211228,19
5211848,15
5212480,12
5213100,11
5213728,12
5214356,10
5214976,11
5215608,13
5216232,11
5216856,12
5217484,15
5218104,25
5218732,26
5219364,19
5219984,16
5220616,13
5221240,12
5221872,11
5222500,10
5223120,11
5223748,11
5224372,11
5224996,12
5225624,10
5226248,15
5226876,19
5227500,19
5228128,16
5228756,12
5229380,11
5230012,11
5230644,10
5231264,11
5231896,11
5232520,11
5233152,12
5233780,10
5234400,15
5235028,17
5235656,22
5236280,16
5236912,14
5237528,11
5238160,11
5238788,14
5239408,19
5240040,14
5240664,11
5241292,11
5241924,16
5242544,19
5243176,19
5243800,13
5244420,16
5245052,14
5245672,12
5246300,11
5246924,11
5247548,11
5248180,10
5248796,10
5249428,13
5250056,11
5250672,12
5251300,14
5251924,14
5252552,17
5253180,16
5253800,19
5254428,25
5255048,16
5255680,11
5256308,20
5256928,17
5257556,11
5258180,21
5258804,27
5259432,29
5260056,17
5260684,18
5261308,23
5261936,19
5262564,10
5263188,11
5263820,11
5264448,10
5265064,14
5265696,16
5266320,12
5266948,11
5267576,12
5268200,21
5268828,24
5269452,27
5270076,25
5270704,20
5271328,17
5271956,11
5272588,10
5273208,11
5273836,11
5274460,12
5275092,15
5275720,14
5276336,16
5276968,15
5277592,15
5278216,16
5278844,13
5279464,12
5280092,11
5280716,13
5281340,11
5281968,11
5282584,12
5283212,11
5283836,11
5284464,16
5285092,23
5285716,21
5286344,18
5286976,15
5287592,13
5288220,10
5288844,10
5289472,10
5290104,10
5290720,14
5291348,24
5291972,22
5292596,15
5293228,14
5293848,15
5294476,19
5295100,19
5295728,14
5296356,11
5296980,11
5297612,12
5298240,16
5298856,20
5299488,13
5300112,15
5300740,16
5301372,23
5301992,21
5302620,17
5303244,18
5303868,15
5304500,10
5305120,10
5305748,9
5306320,11
5306944,13
5307572,11
5308192,15
5308820,17
5309452,16
5310072,16
5310704,17
5311328,15
5311960,15
5312592,17
5313208,13
5313836,11
5314460,11
5315088,11
5315716,16
5316336,19
5316964,19
5317588,12
5318216,21
5318844,22
5319464,25
5320096,21
5320724,10
5321344,11
5321976,10
5322600,12
5323228,10
5323860,12
5324480,16
5325112,12
5325732,13
5326356,14
5326984,14
5327608,15
5328236,15
5328860,16
5329480,19
5330112,12
5330728,10
5331356,11
5331984,11
5332608,11
5333236,11
5333860,11
5334488,15
5335120,16
5335736,13
5336364,15
5336988,14
5337612,11
5338240,11
5338856,10
5339488,13
5340112,19
5340736,15
5341364,15
5341984,22
5342612,17
5343244,12
5343864,16
5344496,16
5345116,16
5345748,15
5346376,13
5347000,11
5347628,11
5348252,11
5348876,14
5349508,12
5350128,12
5350760,12
5351380,14
5352004,15
5352632,16
5353256,20
5353884,19
5354516,14
5355136,15
5355768,15
5356392,12
5357020,10
5357652,10
5358272,12
5358900,12
5359524,14
5360152,15
5360780,14
5361400,19
5362028,20
5362652,18
5363276,12
5363908,10
5364528,11
5365156,11
5365788,16
5366408,14
5367036,23
5367660,25
5368292,18
5368920,16
5369540,14
5370168,15
5370792,11
5371420,25
5372048,33
5372668,21
5373296,13
5373920,11
5374548,14
5375176,14
5375796,11
5376428,14
5377056,14
5377680,13
5378308,14
5378932,13
5379560,13
5380188,12
5380808,15
5381436,13
5382060,10
5382684,11
5383312,12
5383936,21
5384564,25
5385188,17
5385812,15
5386444,15
5387064,11
5387692,11
5388324,13
5388944,11
5389572,11
5390196,11
5390828,10
5391456,10
5392076,11
5392704,13
5393328,14
5393952,15
5394580,14
5395200,15
5395828,11
5396452,11
5397076,16
5397708,16
5398328,12
5398960,11
5399588,11
5400208,12
5400836,14
5401464,17
5402092,21
5402724,18
5403344,15
5403972,11
5404600,11
5405224,11
5405852,12
5406472,16
5407104,21
5407724,26
5408348,18
5408980,14
5409600,15
5410232,14
5410860,14
5411480,15
5412108,17
5412732,21
5413364,19
5413992,14
5414616,11
5415244,13
5415868,16
5416492,11
5417124,14
5417744,19
5418372,17
5418996,17
5419620,20
5420252,19
5420876,18
5421508,10
5422136,12
5422756,16
5423384,10
5424008,13
5424640,13
5425268,11
5425888,15
5426520,13
5427144,16
5427768,14
5428396,20
5429016,24
5429644,18
5430268,10
5430896,12
5431524,13
5432148,14
5432780,15
5433412,12
5434032,17
5434660,20
5435284,20
5435912,18
5436540,19
5437160,15
5437792,10
5438416,12
5439040,12
5439668,19
5440288,24
5440916,21
5441544,15
5442168,11
5442796,15
5443420,15
5444048,15
5444680,15
5445296,13
5445924,12
5446548,12
5447172,12
5447804,23
5448424,27
5449052,14
5449676,12
5450296,13
5450928,16
5451544,17
5452172,18
5452796,14
5453424,17
5454052,20
5454676,22
5455308,20
5455936,16
5456560,12
5457188,12
5457812,14
5458440,11
5459068,14
5459688,13
5460316,17
5460940,15
5461564,15
5462196,15
5462816,13
5463444,11
5464076,13
5464696,17
5465324,14
5465948,12
5466580,11
5467208,17
5467832,25
5468464,27
5469088,25
5469712,19
5470340,11
5470960,11
5471588,15
5472216,20
5472840,21
5473468,16
5474088,20
5474716,20
5475348,14
5475968,14
5476596,17
5477224,21
5477852,22
5478484,23
5479104,23
5479732,20
5480356,20
5480980,19
5481608,20
5482232,25
5482860,19
5483488,13
5484112,28
5484740,35
5485360,41
5485988,35
5486620,28
5487240,28
5487872,23
5488496,17
5489124,11
5489756,10
5490376,13
5491004,13
5491632,11
5492256,15
5492884,16
5493504,15
5494136,21
5494760,15
5495384,13
5496012,11
5496632,11
5497264,11
5497892,10
5498512,15
5499144,19
5499768,14
5500396,11
5501028,22
5501648,33
5502280,25
5502904,15
5503528,14
5504160,10
5504776,11
5505404,11
5506028,11
5506652,15
5507284,12
5507908,13
5508536,13
5509168,16
5509784,26
5510416,26
5511040,23
5511668,17
5512300,12
5512920,12
5513552,11
5514176,13
5514800,14
5515428,10
5516048,12
5516680,12
5517304,13
5517928,15
5518560,15
5519184,15
5519816,16
5520448,16
5521064,20
5521692,18
5522320,16
5522948,11
5523580,15
5524200,21
5524828,24
5525452,17
5526080,14
5526708,16
5527328,23
5527960,27
5528588,17
5529208,11
5529840,11
5530460,11
5531092,10
5531720,10
5532344,13
5532972,13
5533596,13
5534220,13
5534852,15
5535472,17
5536104,21
5536724,21
5537348,18
5537980,14
5538600,11
5539228,11
5539860,10
5540480,11
5541108,11
5541732,12
5542364,14
5542996,18
5543616,14
5544248,19
5544872,18
5545496,12
5546128,17
5546744,21
5547376,18
5548000,15
5548624,11
5549256,13
5549872,12
5550504,16
5551136,23
5551756,19
5552388,15
5553012,14
5553644,11
5554272,11
5554892,12
5555524,14
5556148,14
5556772,11
5557404,10
5558024,11
5558656,15
5559280,17
5559904,16
5560536,15
5561160,15
5561792,14
5562420,11
5563040,11
5563672,11
5564296,11
5564928,11
5565556,11
5566176,11
5566808,12
5567432,12
5568056,16
5568688,16
5569304,14
5569936,16
5570568,18
5571184,19
5571816,13
5572440,11
5573068,12
5573700,10
5574320,12
5574952,11
5575576,15
5576200,21
5576828,15
5577448,15
5578076,15
5578704,16
5579328,14
5579960,10
5580576,11
5581208,15
5581836,11
5582456,12
5583084,11
5583712,12
5584340,16
5584972,16
5585592,17
5586224,19
5586848,19
5587472,17
5588100,14
5588720,13
5589352,11
5589976,19
5590600,16
5591232,12
5591848,11
5592480,15
5593108,14
5593728,19
5594356,17
5594984,15
5595612,15
5596244,15
5596864,17
5597492,13
5598120,12
5598744,16
5599376,10
5599992,18
5600624,20
5601252,19
5601876,18
5602504,17
5603124,15
5603752,14
5604384,13
5605004,11
5605632,10
5606256,13
5606888,12
5607516,10
5608136,12
5608764,14
5609388,14
5610016,15
5610644,16
5611264,15
5611896,18
5612520,11
5613144,11
5613772,10
5614392,11
5615024,11
5615652,10
5616272,12
5616900,12
5617524,20
5618156,25
5618788,21
5619408,17
5620036,17
5620660,16
5621284,12
5621916,10
5622536,11
5623164,13
5623792,17
5624416,12
5625044,11
5625668,11
5626300,14
5626932,14
5627552,17
5628184,17
5628808,15
5629436,13
5630068,14
5630688,12
5631320,11
5631948,13
5632572,14
5633204,12
5633824,11
5634452,14
5635084,14
5635704,17
5636332,22
5636956,31
5637588,38
5638216,35
5638840,23
5639468,12
5640092,12
5640716,14
5641348,14
5641968,17
5642596,19
5643220,17
5643844,14
5644472,14
5645096,14
5645724,12
5646356,10
5646976,13
5647604,11
5648228,13
5648860,11
5649488,11
5650108,13
5650736,16
5651360,17
5651984,14
5652616,15
5653232,14
5653864,13
5654488,12
5655112,11
5655740,12
5656360,16
5656988,14
5657620,10
5658240,11
5658868,11
5659492,14
5660124,14
5660752,15
5661372,18
5662000,14
5662628,13
5663252,12
5663880,10
5664504,15
5665132,18
5665756,19
5666380,14
5667012,12
5667632,23
5668260,25
5668892,22
5669512,15
5670144,13
5670768,11
5671396,11
5672028,11
5672648,11
5673276,11
5673904,11
5674528,11
5675156,10
5675776,15
5676408,17
5677032,16
5677656,15
5678284,18
5678904,20
5679536,19
5680164,15
5680784,11
5681412,13
5682040,13
5682668,13
5683300,14
5683920,11
5684548,17
5685172,17
5685796,18
5686428,16
5687048,14
5687676,14
5688304,12
5688928,11
5689556,10
5690184,11
5690816,11
5691444,11
5692064,13
5692696,15
5693320,17
5693952,16
5694580,15
5695200,12
5695832,14
5696456,19
5697080,16
5697708,11
5698328,11
5698956,13
5699580,18
5700208,23
5700836,27
5701460,26
5702092,21
5702724,22
5703344,19
5703976,14
5704600,11
5705224,11
5705856,14
5706472,15
5707104,11
5707728,11
5708352,12
5708984,12
5709600,14
5710232,15
5710864,15
5711480,16
5712112,19
5712736,23
5713368,14
5713996,12
5714616,13
5715248,11
5715872,12
5716496,19
5717124,24
5717744,26
5718376,19
5719000,14
5719628,14
5720260,14
5720880,20
5721512,20
5722144,21
5722760,19
5723392,10
5724020,20
5724652,23
5725280,18
5725904,15
5726536,15
5727160,16
5727784,15
5728416,20
5729040,15
5729672,14
5730296,26
5730920,27
5731552,19
5732176,13
5732808,13
5733436,14
5734056,13
5734692,14
5735312,18
5735944,21
5736572,18
5737192,12
5737820,12
5738444,13
5739068,11
5739700,10
5740320,12
5740948,11
5741580,14
5742200,17
5742828,13
5743452,15
5744084,15
5744712,15
5745336,13
5745964,12
5746588,12
5747212,11
5747844,10
5748464,11
5749092,11
5749720,13
5750344,13
5750976,17
5751592,17
5752224,15
5752856,18
5753472,18
5754104,15
5754728,15
5755360,12
5755988,10
5756608,11
5757240,14
5757864,17
5758488,13
5759120,14
5759736,17
5760368,26
5760992,24
5761616,18
5762244,14
5762864,13
5763492,15
5764120,17
5764744,16
5765372,13
5765996,11
5766628,12
5767256,15
5767872,21
5768504,16
5769128,17
5769748,22
5770380,22
5771000,20
5771628,15
5772252,15
5772876,13
5773508,10
5774128,13
5774756,11
5775388,10
5776008,17
5776636,15
5777260,15
5777888,15
5778520,13
5779136,15
5779768,13
5780392,12
5781016,12
5781644,11
5782264,11
5782892,11
5783520,14
5784144,20
5784772,18
5785392,15
5786024,15
5786652,14
5787272,11
5787900,11
5788524,13
5789156,10
5789784,10
5790408,11
5791036,14
5791664,21
5792288,24
5792916,22
5793536,14
5794164,16
5794792,21
5795416,17
5796044,13
5796664,13
5797292,17
5797924,18
5798544,13
5799172,11
5799796,12
5800428,19
5801060,26
5801680,21
5802308,25
5802932,24
5803556,25
5804188,22
5804808,15
5805436,11
5806060,19
5806688,17
5807316,11
5807944,11
5808572,11
5809204,13
5809824,15
5810456,15
5811080,15
5811712,13
5812340,11
5812960,11
5813588,11
5814216,11
5814840,12
5815472,13
5816088,11
5816720,13
5817348,14
5817968,15
5818596,16
5819220,24
5819852,20
5820484,14
5821104,14
5821736,13
5822360,13
5822984,17
5823616,22
5824232,17
5824864,12
5825488,11
5826112,14
5826740,15
5827360,16
5827988,17
5828620,14
5829240,12
5829868,11
5830492,11
5831124,11
5831756,10
5832376,11
5833004,12
5833632,11
5834256,16
5834884,14
5835504,15
5836136,18
5836760,15
5837384,11
5838016,11
5838636,10
5839264,11
5839896,10
5840512,12
5841140,12
5841764,16
5842396,21
5843028,18
5843648,15
5844276,20
5844900,22
5845524,16
5846156,10
5846776,12
5847408,12
5848032,14
5848656,13
5849284,14
5849904,16
5850532,16
5851164,19
5851784,20
5852416,18
5853040,15
5853668,11
5854300,10
5854920,10
5855552,11
5856176,11
5856800,11
5857428,11
5858048,13
5858676,11
5859300,15
5859924,17
5860556,14
5861176,15
5861808,12
5862436,11
5863056,15
5863684,19
5864308,20
5864940,11
5865572,10
5866192,11
5866824,12
5867448,15
5868072,16
5868704,16
5869320,14
5869952,14
5870576,13
5871200,14
5871832,13
5872456,11
5873088,11
5873716,10
5874336,11
5874968,11
5875592,11
5876224,15
5876852,19
5877472,24
5878104,23
5878728,14
5879352,11
5879984,11
5880604,12
5881232,11
5881864,11
5882488,15
5883120,15
5883744,12
5884376,17
5885008,20
5885624,25
5886256,23
5886880,17
5887504,10
5888136,14
5888752,15
5889384,13
5890008,13
5890632,13
5891260,11
5891880,12
5892508,15
5893140,14
5893760,15
5894388,16
5895016,18
5895648,17
5896276,11
5896896,11
5897528,10
5898152,11
5898776,11
5899408,11
5900024,11
5900656,15
5901280,15
5901904,18
5902532,15
5903152,14
5903784,13
5904412,19
5905032,17
5905660,13
5906288,11
5906916,10
5907548,10
5908168,11
5908796,11
5909424,15
5910048,15
5910676,18
5911296,17
5911928,11
5912552,11
5913176,11
5913808,14
5914424,15
5915052,23
5915684,23
5916304,16
5916936,16
5917560,19
5918188,17
5918820,20
5919440,17
5920072,12
5920692,11
5921316,15
5921948,14
5922568,12
5923196,15
5923824,15
5924448,17
5925076,15
5925700,15
5926332,16
5926964,20
5927584,18
5928216,15
5928840,12
5929468,10
5930100,11
5930720,14
5931352,15
5931976,13
5932600,12
5933232,11
5933848,11
5934480,14
5935108,15
5935728,14
5936360,21
5936984,27
5937612,22
5938244,16
5938864,12
5939496,11
5940120,15
5940740,13
5941372,10
5941992,11
5942620,15
5943248,17
5943868,16
5944500,14
5945120,13
5945748,12
5946380,11
5947000,12
5947628,12
5948256,14
5948884,12
5949516,10
5950136,13
5950768,19
5951392,28
5952016,27
5952644,24
5953264,17
5953892,10
5954516,10
5955144,11
5955772,10
5956392,11
5957024,12
5957652,13
5958272,11
5958904,12
5959528,16
5960160,18
5960788,16
5961408,16
5962040,12
5962664,12
5963288,11
5963916,10
5964536,11
5965168,12
5965792,18
5966416,16
5967044,12
5967664,20
5968296,19
5968924,18
5969544,32
5970176,29
5970800,22
5971428,11
5972060,10
5972680,13
5973308,11
5973936,13
5974560,17
5975192,15
5975808,15
5976440,13
5977064,15
5977688,15
5978316,13
5978936,15
5979568,13
5980196,12
5980816,11
5981444,11
5982068,11
5982700,11
5983332,14
5983952,15
5984584,16
5985208,17
5985832,16
5986464,18
5987080,15
5987712,13
5988336,13
5988960,12
5989592,15
5990216,16
5990848,11
5991476,11
5992096,11
5992724,13
5993352,14
5993980,16
5994612,14
5995232,12
5995864,11
5996488,11
5997112,16
5997744,17
5998364,15
5998992,16
5999624,10
6000248,13
6000880,21
6001504,22
6002132,23
6002764,18
6003384,12
6004012,13
6004636,12
6005260,10
6005892,11
6006512,13
6007144,12
6007768,11
6008392,10
6009024,14
6009640,13
6010272,15
6010904,15
6011520,15
6012152,10
6012776,12
6013408,10
6014040,10
6014656,10
6015288,11
6015916,11
6016544,17
6017172,20
6017792,17
6018424,14
6019048,16
6019672,17
6020304,11
6020920,11
6021552,11
6022184,10
6022800,15
6023432,17
6024056,11
6024684,12
6025316,11
6025936,18
6026568,24
6027192,32
6027816,25
6028448,15
6029064,10
6029696,15
6030320,22
6030944,25
6031576,24
6032200,22
6032828,13
6033460,12
6034080,24
6034708,27
6035336,27
6035968,25
6036600,23
6037216,15
6037848,11
6038472,11
6039096,11
6039728,11
6040348,10
6040976,18
6041608,19
6042224,15
6042856,14
6043480,15
6044112,15
6044740,15
6045360,14
6045992,12
6046616,12
6047240,11
6047872,13
6048488,12
6049120,13
6049744,12
6050368,12
6051000,23
6051620,29
6052248,25
6052880,17
6053500,14
6054128,12
6054756,11
6055384,10
6056016,11
6056636,10
6057268,11
6057892,18
6058516,13
6059148,14
6059768,14
6060400,14
6061024,15
6061648,15
6062280,13
6062896,14
6063528,11
6064160,12
6064776,17
6065408,12
6066032,17
6066660,17
6067292,17
6067912,18
6068544,16
6069168,16
6069792,15
6070424,16
6071040,18
6071672,17
6072296,12
6072924,11
6073556,16
6074180,16
6074812,14
6075444,12
6076064,15
6076696,16
6077320,15
6077952,15
6078584,11
6079204,10
6079836,11
6080460,11
6081084,13
6081716,12
6082336,12
6082968,12
6083596,10
6084216,15
6084844,14
6085468,14
6086100,14
6086732,10
6087352,13
6087984,11
6088608,11
6089232,12
6089864,11
6090480,12
6091112,16
6091736,13
6092364,15
6092996,14
6093616,20
6094244,15
6094876,12
6095496,15
6096128,21
6096752,28
6097380,20
6098012,11
6098632,17
6099264,12
6099888,11
6100512,19
6101144,25
6101760,23
6102392,23
6103016,20
6103644,15
6104276,13
6104900,10
6105532,11
6106164,10
6106784,11
6107416,13
6108040,10
6108672,13
6109304,13
6109920,13
6110552,15
6111176,15
6111804,15
6112436,12
6113056,14
6113688,11
6114316,12
6114936,11
6115568,12
6116192,14
6116824,20
6117452,23
6118072,30
6118704,31
6119332,22
6119956,21
6120588,18
6121208,11
6121840,13
6122464,17
6123088,11
6123720,10
6124340,10
6124968,11
6125600,14
6126220,14
6126852,16
6127476,17
6128108,21
6128740,20
6129360,17
6129992,13
6130616,11
6131240,11
6131872,11
6132492,11
6133124,11
6133748,14
6134376,23
6135008,25
6135632,17
6136268,17
6136900,13
6137520,11
6138156,11
6138780,11
6139408,12
6140040,10
6140660,12
6141292,15
6141916,20
6142544,17
6143180,14
6143804,14
6144436,14
6145064,10
6145688,11
6146316,11
6146940,12
6147568,12
6148196,10
6148816,12
6149444,12
6150068,12
6150692,17
6151320,15
6151944,15
6152572,15
6153200,16
6153824,21
6154452,18
6155076,18
6155708,15
6156340,10
6156960,11
6157588,15
6158212,15
6158844,14
6159476,14
6160096,16
6160724,15
6161348,15
6161972,10
6162604,10
6163224,12
6163852,12
6164476,16
6165104,16
6165732,12
6166360,11
6166988,11
6167620,13
6168240,15
6168868,15
6169496,19
6170120,23
6170748,19
6171368,13
6171996,11
6172624,11
6173248,11
6173876,10
6174496,10
6175128,13
6175756,15
6176376,15
6177004,15
6177628,18
6178260,12
6178888,16
6179512,22
6180144,21
6180768,22
6181392,17
6182024,15
6182640,25
6183272,23
6183896,21
6184520,17
6185152,15
6185768,17
6186396,20
6187028,24
6187648,27
6188276,28
6188904,23
6189532,17
6190164,10
6190784,13
6191416,11
6192040,11
6192664,15
6193292,16
6193912,20
6194544,21
6195168,14
6195792,11
6196424,11
6197044,12
6197672,12
6198304,11
6198924,11
6199556,12
6200180,15
6200812,21
6201440,28
6202064,26
6202696,27
6203320,22
6203944,25
6204576,18
6205192,10
6205824,11
6206448,10
6207076,11
6207704,14
6208332,13
6208960,14
6209588,14
6210208,16
6210840,14
6211464,15
6212092,15
6212724,11
6213344,11
6213976,22
6214600,31
6215224,29
6215856,20
6216472,14
6217104,13
6217736,18
6218352,18
6218984,23
6219608,25
6220240,32
6220868,36
6221488,35
6222120,18
6222744,11
6223368,11
6224000,10
6224616,11
6225248,12
6225872,14
6226496,16
6227128,14
6227744,14
6228376,16
6229008,17
6229624,21
6230256,19
6230880,17
6231508,20
6232140,19
6232760,13
6233392,12
6234016,20
6234640,24
6235272,23
6235888,23
6236520,23
6237144,24
6237768,19
6238400,19
6239016,21
6239648,22
6240280,12
6240900,14
6241528,13
6242152,17
6242784,13
6243412,14
6244032,15
6244660,14
6245288,9
6245860,11
6246496,11
6247112,12
6247740,14
6248364,11
6248988,11
6249620,11
6250240,12
6250868,16
6251492,19
6252120,21
6252748,16
6253368,11
6253996,11
6254628,10
6255248,14
6255880,16
6256504,13
6257136,11
6257764,18
6258384,25
6259016,20
6259640,15
6260264,15
6260892,14
6261512,13
6262144,11
6262768,11
