tempo_arduino_micro_s,valor_ADC
500,56
1004,62
1504,68
2000,70
2508,71
3000,73
3508,69
4000,62
4508,49
5000,32
5500,16
6000,11
6500,10
7004,16
7500,22
8000,30
8500,42
9000,50
9500,52
10000,54
10516,52
11036,44
11564,43
12084,37
12612,30
13132,27
13660,24
14180,22
14708,18
15228,21
15756,16
16276,11
16796,35
17316,61
17836,75
18356,74
18876,71
19396,69
19916,68
20436,65
20956,59
21476,45
21996,30
22516,16
23036,10
23564,15
24084,24
24612,26
25132,28
25660,31
26180,35
26708,41
27228,48
27756,55
28276,52
28804,45
29324,39
29852,39
30372,36
30900,31
31420,23
31948,16
32472,12
32996,22
33516,41
34044,59
34564,63
35092,62
35612,62
36140,64
36660,71
37188,67
37708,55
38236,42
38760,25
39284,14
39804,10
40332,15
40852,24
41372,33
41892,40
42412,41
42932,43
43452,47
43972,44
44492,36
45012,34
45532,34
46052,36
46572,32
47092,28
47612,27
48140,26
48660,25
49188,13
49708,18
50236,42
50756,57
51284,57
51804,57
52332,64
52852,67
53380,66
53900,53
54428,44
54948,37
55476,30
55996,22
56524,14
57044,10
57572,15
58096,22
58620,27
59140,33
59668,35
60188,34
60716,36
61240,36
61764,32
62284,28
62812,28
63332,31
63860,32
64384,29
64908,22
65428,12
65948,12
66468,19
66988,29
67508,41
68028,50
68548,55
69068,54
69588,52
70112,51
70632,45
71148,32
71672,16
72192,10
72716,12
73236,12
73764,16
74284,22
74812,20
75332,24
75860,19
76380,20
76908,23
77428,26
77956,30
78480,29
79004,30
79528,31
80052,30
80572,23
81100,20
81620,19
82148,15
82668,11
83196,16
83716,35
84244,48
84764,52
85292,57
85812,53
86340,47
86860,49
87388,45
87908,35
88436,23
88956,15
89484,10
90004,12
90524,16
91044,18
91564,20
92084,29
92604,33
93124,34
93644,35
94164,35
94684,34
95208,34
95724,33
96248,30
96764,32
97292,33
97812,30
98340,23
98860,13
99388,13
99908,30
100436,45
101000,56
101584,55
102156,55
102736,52
103304,52
103880,47
104456,37
105024,22
105600,14
106168,9
106692,12
107264,15
107848,15
108416,18
108992,22
109560,23
110128,27
110712,35
111284,47
111864,47
112432,43
113016,39
113584,31
114164,24
114744,21
115312,18
115896,11
116464,27
117048,45
117616,51
118200,56
118768,59
119344,58
119928,58
120500,50
121080,37
121648,26
122232,20
122804,12
123376,12
123960,18
124528,21
125112,23
125684,24
126264,28
126832,33
127416,37
127988,38
128564,34
129144,30
129712,27
130288,28
130856,27
131440,21
132008,16
132584,11
133160,18
133728,32
134304,43
134872,52
135456,56
136024,61
136608,59
137176,54
137752,42
138336,27
138904,15
139488,12
140056,19
140640,24
141208,24
141784,26
142368,27
142940,26
143520,27
144088,31
144672,32
145240,36
145824,37
146392,32
146972,25
147552,21
148120,17
148704,13
149272,12
149856,17
150424,30
151000,41
151584,46
152156,50
152736,53
153308,59
153888,60
154456,51
155040,31
155608,14
156184,11
156768,11
157340,13
157920,19
158492,30
159072,34
159644,31
160220,29
160800,29
161368,30
161944,30
162512,34
163096,35
163668,30
164248,25
164816,25
165384,21
165960,11
166528,24
167112,42
167680,48
168256,47
168824,56
169400,58
169968,56
170544,48
171128,38
171696,19
172280,12
172848,10
173432,11
174004,14
174576,13
175160,15
175728,22
176312,31
176880,37
177464,35
178032,34
178616,29
179184,26
179764,25
180344,25
180912,24
181496,21
182064,15
182648,13
183216,26
183792,42
184376,49
184944,49
185520,51
186092,51
186672,50
187240,40
187824,33
188396,27
188968,18
189552,12
190120,13
190704,20
191276,22
191856,25
192428,34
193000,38
193584,35
194156,34
194736,38
195304,37
195888,35
196456,32
197040,32
197612,28
198184,21
198768,14
199336,17
199920,37
200492,57
201072,61
201644,67
202216,70
202800,63
203372,51
203952,39
204524,36
205104,30
205672,19
206248,12
206816,10
207384,11
207960,11
208528,17
209112,30
209680,38
210264,43
210832,52
211408,51
211984,42
212552,36
213136,32
213704,30
214288,25
214860,19
215440,13
216008,18
216584,37
217160,58
217732,66
218312,67
218884,65
219464,65
220036,65
220616,57
221192,43
221764,26
222344,14
222916,10
223496,15
224068,27
224648,28
225216,38
225796,44
226376,46
226944,45
227528,40
228096,30
228680,28
229248,26
229832,25
230408,31
230976,37
231552,31
232124,15
232704,17
233272,38
233856,51
234428,62
235004,67
235584,71
236156,74
236736,69
237308,58
237888,39
238460,22
239040,17
239612,11
240188,12
240768,19
241336,25
241920,35
242488,42
243072,46
243644,51
244216,48
244800,47
245368,38
245952,34
246520,31
247104,24
247672,24
248256,21
248824,17
249400,15
249984,34
250552,60
251136,74
251708,72
252288,65
252860,66
253436,61
254016,58
254588,49
255168,31
255740,14
256320,16
256896,23
257472,28
258040,29
258608,34
259184,37
259756,43
260336,44
260904,47
261488,45
262056,40
262632,42
263216,37
263784,31
264368,32
264936,30
265520,14
266092,16
266672,38
267240,59
267816,71
268400,79
268968,74
269552,66
270120,63
270704,52
271276,42
271852,29
272432,15
273000,10
273584,14
274156,20
274736,20
275308,32
275888,39
276460,37
277036,38
277616,42
278184,42
278768,39
279340,41
279920,33
280492,27
281064,23
281648,20
282216,12
282792,24
283364,41
283944,57
284516,58
285096,60
285668,56
286244,64
286824,62
287392,56
287976,45
288548,24
289128,12
289696,11
290272,16
290856,23
291428,26
292008,34
292576,35
293160,41
293728,49
294312,51
294884,47
295456,43
296040,37
296608,32
297192,28
297764,18
298344,17
298916,11
299492,24
300072,35
300644,51
301224,57
301796,65
302376,70
302956,67
303536,61
304116,49
304692,39
305272,26
305844,11
306424,12
306996,24
307576,32
308152,35
308732,36
309312,37
309884,40
310464,40
311032,43
311616,41
312196,35
312776,31
313352,31
313924,28
314504,19
315076,15
315656,11
316228,21
316808,37
317380,56
317956,63
318536,65
319108,63
319688,62
320260,49
320840,39
321408,33
321992,28
322568,23
323136,13
323712,12
324284,22
324864,25
325432,32
326016,41
326588,43
327160,50
327744,47
328312,47
328896,50
329464,45
330048,39
330616,34
331200,24
331768,16
332344,15
332928,30
333496,47
334072,64
334644,69
335224,71
335796,70
336372,70
336952,66
337524,58
338104,43
338672,22
339256,11
339824,14
340408,21
340976,25
341552,30
342136,41
342708,46
343288,45
343856,40
344440,41
345008,43
345588,42
346168,36
346740,33
347320,30
347892,21
348472,14
349044,15
349624,31
350192,47
350772,57
351352,63
351924,60
352504,59
353080,58
353664,56
354232,49
354812,33
355392,16
355964,11
356544,10
357116,18
357696,23
358276,31
358856,35
359440,38
360008,38
360592,35
361164,38
361744,37
362312,39
362896,38
363464,37
364044,33
364624,22
365196,14
365776,13
366348,31
366928,54
367500,66
368080,64
368664,62
369232,62
369816,64
370388,58
370968,43
371540,27
372120,17
372688,10
373264,13
373848,21
374416,23
375000,29
375572,35
376152,43
376724,46
377300,37
377880,37
378452,34
379032,33
379604,30
380184,23
380756,20
381336,16
381916,12
382492,14
383072,31
383644,42
384224,46
384800,43
385384,45
385952,46
386528,42
387112,38
387684,29
388264,18
388832,10
389416,9
389936,11
390512,15
391084,15
391660,18
392240,26
392812,34
393392,33
393964,26
394544,21
395116,21
395696,20
396276,24
396852,27
397432,26
398004,19
398584,17
399156,11
399736,24
400316,40
400892,46
401472,50
402044,50
402624,47
403196,43
403776,43
404356,35
404936,19
405520,11
406092,11
406672,15
407244,18
407824,19
408396,26
408976,27
409548,28
410124,29
410704,30
411272,29
411856,29
412424,30
413008,26
413576,22
414160,18
414736,18
415304,11
415888,14
416456,28
417040,43
417608,47
418192,46
418760,49
419336,47
419920,40
420488,32
421072,30
421644,26
422224,17
422796,11
423376,15
423952,22
424524,19
425104,24
425672,27
426256,29
426824,29
427408,27
427980,28
428556,32
429136,32
429708,34
430288,32
430856,27
431440,23
432008,15
432592,14
433168,35
433740,50
434320,53
434892,47
435472,50
436040,51
436624,49
437192,43
437772,31
438352,17
438924,11
439504,10
440076,10
440656,15
441224,16
441808,20
442384,25
442956,27
443536,33
444108,42
444688,44
445260,41
445840,36
446412,32
446988,24
447568,12
448140,11
448720,15
449288,20
449872,29
450444,37
451024,41
451600,46
452168,48
452752,54
453324,53
453904,51
454476,41
455056,25
455628,13
456204,10
456784,17
457356,18
457936,19
458508,27
459088,31
459660,32
460240,37
460816,40
461384,34
461960,29
462532,27
463112,26
463684,26
464264,22
464832,24
465408,13
465992,16
466564,32
467144,45
467716,47
468296,48
468868,49
469448,52
470024,49
470596,42
471176,37
471748,26
472328,15
472900,10
473480,13
474052,18
474628,21
475208,30
475780,34
476360,33
476932,32
477512,29
478084,24
478664,24
479240,29
479812,32
480392,33
480964,32
481544,25
482116,12
482696,16
483268,36
483844,54
484424,51
484996,54
485576,55
486148,59
486728,57
487304,49
487888,36
488464,21
489036,11
489616,11
490184,18
490768,22
491348,26
491928,37
492508,40
493080,45
493664,47
494232,42
494816,35
495384,25
495968,19
496540,19
497116,21
497696,23
498264,24
498848,12
499420,26
500000,45
500568,56
501152,58
501724,54
502300,51
502880,54
503452,53
504032,45
504604,32
505184,19
505756,13
506332,10
506912,14
507484,22
508064,27
508636,34
509216,37
509796,36
510376,42
510956,41
511532,41
512116,33
512684,27
513264,22
513832,19
514416,14
514984,11
515560,14
516144,22
516712,38
517296,53
517864,54
518448,55
519016,59
519600,57
520172,51
520744,40
521328,33
521900,26
522480,14
523048,11
523632,13
524200,16
524776,23
525360,33
525932,43
526512,51
527084,54
527664,51
528236,45
528816,37
529384,33
529964,26
530544,19
531116,11
531696,13
532276,27
532856,46
533424,62
534004,61
534584,50
535156,40
535736,36
536308,43
536888,48
537460,42
538040,29
538608,15
539184,11
539768,19
540340,27
540920,21
541488,18
542072,18
542644,25
543220,29
543800,33
544372,34
544952,32
545524,32
546104,35
546676,32
547256,31
547828,28
548404,24
548984,11
549556,28
550136,55
550716,59
551296,62
551876,60
552452,61
553032,60
553604,52
554184,43
554756,30
555336,17
555916,10
556496,16
557080,20
557652,20
558232,27
558804,26
559384,30
559956,35
560540,42
561116,47
561692,44
562272,40
562844,34
563424,29
564000,30
564584,21
565152,15
565732,19
566312,39
566884,61
567464,66
568036,65
568616,58
569188,56
569768,50
570348,46
570924,32
571504,21
572076,12
572656,11
573236,11
573816,17
574396,21
574972,30
575552,32
576124,38
576704,43
577272,42
577856,43
578428,37
579008,31
579580,27
580156,24
580736,22
581308,20
581888,17
582460,11
583040,30
583612,46
584188,53
584768,54
585340,64
585920,67
586492,60
587072,52
587644,42
588224,24
588796,11
589372,12
589952,15
590524,16
591104,13
591676,22
592256,30
592836,39
593412,41
593992,36
594564,33
595144,32
595716,33
596296,32
596868,32
597448,24
598024,16
598596,11
599176,21
599748,37
600328,49
600908,53
601488,54
602068,52
602644,57
603224,58
603796,49
604376,35
604956,19
605536,11
606108,11
606684,17
607264,22
607836,21
608420,28
608988,30
609568,29
610140,37
610720,40
611300,35
611876,34
612456,37
613028,35
613608,31
614188,25
614772,16
615344,15
615924,27
616504,38
617076,52
617656,59
618228,57
618808,55
619388,54
619968,51
620552,39
621124,28
621704,18
622276,14
622856,11
623428,11
624008,21
624584,29
625164,38
625744,40
626316,40
626896,43
627476,39
628056,33
628628,28
629204,25
629784,23
630356,25
630936,19
631512,18
632092,11
632668,15
633248,32
633828,45
634404,57
634984,60
635556,61
636136,58
636716,47
637300,34
637876,26
638452,22
639032,19
639608,13
640188,9
640704,12
641280,17
641848,28
642424,36
642992,35
643572,34
644152,33
644724,33
645304,34
645872,33
646456,30
647024,31
647608,21
648180,16
648752,11
649336,20
649908,36
650488,49
651060,51
651640,54
652220,51
652796,49
653376,44
653948,39
654528,31
655100,21
655680,14
656256,11
656840,13
657416,18
657984,23
658568,28
659136,29
659720,28
660288,32
660872,34
661440,35
662016,35
662600,27
663168,26
663752,32
664324,24
664904,13
665476,14
666056,21
666632,28
667200,38
667784,48
668352,53
668936,56
669504,52
670088,45
670656,39
671236,29
671816,18
672388,10
672968,11
673536,15
674120,17
674688,19
675272,21
675848,27
676416,30
677000,30
677572,32
678152,25
678724,26
679304,30
679876,32
680452,31
681032,24
681600,15
682184,14
682756,24
683336,40
683908,47
684488,50
685064,54
685636,47
686216,46
686788,42
687368,33
687940,28
688520,16
689100,11
689676,12
690256,20
690828,24
691408,27
691976,30
692560,29
693128,26
693712,26
694288,26
694860,25
695440,22
696012,24
696592,28
697164,28
697744,22
698312,17
698892,11
699472,18
700044,34
700624,43
701196,45
701776,51
702356,54
702932,57
703512,49
704084,36
704664,27
705232,19
705816,13
706388,10
706968,14
707544,17
708124,27
708704,35
709276,35
709856,29
710428,35
711008,36
711580,34
712156,28
712736,24
713308,18
713888,16
714460,15
715040,12
715612,11
716192,16
716772,31
717348,41
717928,50
718500,52
719080,57
719652,58
720232,47
720808,34
721384,17
721968,10
722536,14
723120,18
723692,23
724272,23
724844,25
725424,23
725996,22
726572,22
727152,25
727724,28
728304,28
728876,25
729456,27
730028,26
730604,27
731184,26
731756,17
732336,12
732908,26
733488,44
734060,51
734640,59
735220,65
735796,60
736380,51
736952,45
737528,35
738108,24
738688,15
739260,11
739836,14
740416,20
740988,19
741568,25
742140,34
742720,37
743296,39
743880,33
744456,35
745028,34
745608,27
746176,22
746760,17
747332,16
747912,14
748492,11
749068,17
749648,30
750220,41
750800,47
751380,49
751960,50
752540,44
753116,45
753696,42
754268,33
754848,16
755420,10
756000,12
756572,18
757152,24
757732,23
758308,21
758888,18
759460,22
760040,28
760620,36
761200,40
761780,37
762356,30
762936,24
763508,21
764088,17
764660,13
765240,13
765820,20
766400,30
766984,42
767556,43
768140,47
768708,45
769288,48
769856,50
770440,45
771012,30
771588,17
772168,11
772740,11
773320,16
773892,19
774472,20
775044,24
775624,24
776200,28
776772,31
777352,33
777928,27
778504,27
779084,29
779664,25
780236,26
780812,21
781392,17
781964,11
782544,17
783116,29
783696,38
784276,40
784852,39
785432,40
786004,47
786584,47
787156,40
787740,32
788316,21
788896,16
789476,12
790052,10
790632,13
791204,16
791784,21
792356,26
792936,30
793516,32
794092,34
794672,34
795244,31
795824,28
796396,22
796976,19
797556,19
798136,18
798716,11
799296,18
799872,29
800448,39
801024,45
801596,54
802176,52
802748,42
803324,35
803904,32
804476,25
805056,13
805628,11
806208,10
806780,14
807360,17
807932,24
808508,26
809088,30
809660,34
810240,36
810812,37
811392,35
811972,30
812548,26
813128,19
813700,13
814280,11
814852,12
815432,18
816012,22
816592,33
817168,44
817740,43
818320,34
818892,31
819472,34
820048,33
820632,26
821200,23
821776,17
822352,15
822924,11
823504,11
824076,11
824656,14
825224,24
825808,29
826384,32
826956,32
827536,29
828104,27
828688,27
829260,28
829840,24
830408,19
830984,14
831568,11
832140,17
832720,30
833288,40
833872,43
834440,39
835024,39
835600,40
836168,37
836752,32
837324,27
837904,20
838476,14
839056,12
839628,11
840204,18
840784,19
841356,22
841936,27
842504,31
843088,31
843660,32
844240,29
844816,25
845384,17
845960,18
846528,22
847112,20
847684,16
848264,16
848832,11
849408,16
849992,32
850560,42
851144,47
851716,45
852296,38
852868,34
853448,24
854024,19
854596,14
855176,10
855748,14
856328,15
856896,15
857480,12
858052,13
858628,14
859208,18
859780,19
860360,15
860932,15
861512,17
862084,19
862664,22
863240,24
863812,22
864392,20
864964,17
865544,12
866116,13
866696,26
867268,38
867844,42
868424,47
868996,47
869576,44
870148,33
870728,24
871304,17
871888,15
872464,11
873036,11
873616,14
874184,15
874768,17
875340,21
875920,24
876500,29
877076,30
877656,28
878228,25
878808,22
879388,20
879968,19
880540,17
881116,17
881696,11
882268,12
882848,19
883420,28
884000,29
884568,31
885152,28
885724,37
886300,39
886880,37
887452,29
888032,21
888604,12
889184,10
889756,10
890332,13
890912,14
891484,17
892064,19
892636,20
893216,23
893796,24
894376,26
894956,25
895532,21
896116,17
896684,15
897264,15
897836,14
898416,12
898988,11
899564,15
900144,22
900716,25
901296,31
901868,35
902448,37
903016,34
903600,28
904172,24
904744,18
905328,14
905900,12
906480,9
907000,12
907576,17
908148,29
908728,27
909308,25
909884,20
910464,22
911036,22
911616,16
912196,17
912776,13
913348,11
913924,11
914504,11
915076,10
915656,11
916232,13
916808,20
917388,26
917968,32
918552,36
919124,37
919704,34
920276,25
920856,22
921436,13
922020,10
922592,11
923172,14
923752,14
924324,13
924904,17
925476,18
926056,16
926628,18
927204,20
927784,20
928356,23
928936,21
929508,18
930088,17
930660,18
931240,16
931812,11
932388,13
932968,18
933540,24
934120,28
934700,28
935280,29
935852,29
936428,32
937008,30
937580,27
938160,23
938736,14
939312,12
939892,12
940472,15
941052,16
941632,20
942208,21
942780,22
943360,21
943932,23
944512,19
945092,17
945668,18
946248,14
946820,17
947400,16
947972,17
948552,16
949132,11
949712,13
950288,23
950864,27
951440,33
952016,39
952592,43
953172,40
953752,35
954332,24
954908,15
955488,9
956012,10
956592,12
957168,13
957744,13
958324,15
958908,18
959484,23
960064,26
960640,26
961208,19
961792,17
962364,21
962944,26
963524,22
964100,16
964680,15
965252,15
965832,14
966404,16
966984,32
967556,37
968136,37
968720,34
969292,33
969872,31
970444,26
971024,21
971596,19
972176,17
972756,14
973332,10
973912,11
974484,13
975064,17
975636,18
976216,21
976796,22
977372,24
977952,20
978524,20
979104,21
979680,19
980256,20
980828,19
981408,17
981980,12
982556,11
983136,23
983708,27
984288,29
984860,33
985440,37
986012,38
986588,35
987168,33
987740,29
988320,19
988888,12
989472,11
990044,11
990624,13
991204,15
991780,21
992360,21
992932,23
993512,22
994084,24
994664,23
995236,18
995812,18
996392,18
996964,16
997544,18
998116,20
998696,12
999276,12
999856,21
1000428,27
1001048,37
1001676,40
1002296,33
1002924,24
1003552,19
1004168,21
1004800,20
1005420,16
1006048,13
1006680,10
1007296,15
1007924,21
1008548,21
1009172,19
1009800,24
1010424,27
1011052,30
1011676,26
1012300,20
1012932,20
1013552,14
1014180,11
1014812,10
1015432,13
1016060,24
1016684,31
1017312,30
1017944,31
1018560,34
1019192,28
1019816,29
1020440,31
1021068,23
1021688,14
1022316,11
1022940,11
1023568,11
1024196,11
1024812,17
1025440,20
1026068,23
1026684,25
1027312,25
1027932,21
1028560,19
1029188,18
1029804,19
1030432,17
1031056,17
1031684,12
1032312,10
1032928,13
1033556,21
1034180,22
1034804,24
1035432,29
1036048,32
1036676,30
1037300,32
1037920,27
1038548,18
1039172,12
1039804,10
1040432,10
1041048,13
1041676,19
1042296,22
1042928,23
1043556,26
1044176,28
1044804,23
1045424,21
1046044,13
1046676,12
1047296,13
1047924,12
1048544,11
1049168,11
1049796,15
1050412,23
1051040,29
1051672,31
1052288,37
1052916,41
1053536,36
1054168,28
1054796,18
1055416,13
1056044,12
1056664,13
1057284,13
1057912,16
1058536,21
1059164,21
1059788,16
1060412,18
1061040,23
1061656,27
1062284,24
1062908,15
1063536,17
1064164,15
1064788,12
1065416,13
1066044,24
1066660,31
1067292,33
1067912,33
1068544,33
1069172,34
1069792,32
1070420,23
1071044,16
1071664,10
1072296,12
1072912,17
1073540,15
1074164,12
1074788,14
1075416,15
1076040,16
1076668,16
1077296,24
1077912,23
1078540,20
1079164,19
1079792,16
1080420,11
1081036,11
1081668,11
1082288,11
1082912,15
1083540,22
1084160,28
1084788,33
1085412,34
1086036,31
1086664,24
1087280,17
1087912,13
1088540,13
1089156,11
1089788,11
1090408,11
1091036,11
1091668,12
1092288,17
1092916,20
1093540,20
1094164,17
1094792,16
1095408,15
1096036,17
1096660,17
1097280,17
1097912,15
1098528,11
1099156,13
1099788,18
1100408,25
1101036,26
1101660,28
1102288,29
1102920,29
1103536,33
1104164,28
1104788,24
1105412,22
1106044,12
1106664,11
1107292,14
1107912,17
1108536,20
1109168,24
1109784,25
1110412,23
1111036,22
1111664,19
1112292,17
1112916,17
1113548,15
1114180,13
1114800,13
1115428,11
1116052,16
1116680,25
1117308,24
1117928,27
1118556,25
1119180,25
1119808,28
1120436,31
1121056,27
1121684,21
1122312,12
1122932,9
1123508,11
1124136,15
1124764,15
1125396,17
1126016,19
1126644,17
1127268,17
1127896,18
1128524,18
1129144,18
1129772,19
1130396,21
1131016,21
1131648,13
1132264,13
1132892,22
1133516,28
1134140,30
1134768,29
1135384,31
1136016,39
1136640,38
1137264,29
1137892,19
1138516,11
1139144,10
1139776,10
1140392,11
1141024,13
1141648,20
1142276,24
1142908,22
1143528,23
1144156,22
1144780,21
1145404,21
1146036,18
1146656,14
1147284,13
1147916,10
1148536,15
1149164,20
1149788,28
1150416,24
1151048,28
1151664,33
1152296,31
1152916,26
1153540,20
1154168,19
1154792,16
1155420,13
1156044,10
1156664,13
1157296,15
1157912,19
1158540,15
1159164,12
1159792,15
1160420,19
1161044,19
1161672,19
1162300,18
1162920,21
1163548,22
1164172,18
1164800,13
1165428,14
1166048,25
1166676,29
1167300,25
1167924,23
1168556,26
1169176,25
1169804,27
1170428,30
1171056,29
1171684,20
1172308,14
1172940,10
1173568,13
1174184,12
1174816,19
1175440,22
1176068,23
1176700,23
1177320,23
1177948,17
1178572,14
1179196,14
1179824,15
1180448,18
1181076,16
1181708,10
1182328,12
1182956,16
1183580,21
1184212,26
1184840,31
1185460,33
1186088,35
1186712,31
1187336,24
1187964,14
1188584,11
1189212,10
1189836,11
1190460,12
1191088,14
1191704,21
1192332,25
1192956,24
1193584,25
1194212,22
1194836,17
1195468,14
1196100,16
1196720,19
1197352,13
1197976,13
1198600,13
1199228,13
1199848,29
1200476,32
1201100,32
1201724,35
1202356,34
1202976,31
1203604,29
1204236,24
1204856,15
1205484,11
1206108,14
1206736,14
1207368,12
1207984,16
1208616,15
1209236,15
1209864,17
1210492,18
1211112,19
1211740,16
1212364,19
1212988,23
1213620,19
1214240,19
1214868,13
1215500,10
1216120,16
1216748,22
1217372,27
1218000,26
1218632,29
1219248,38
1219876,39
1220500,37
1221124,29
1221756,16
1222376,13
1223008,11
1223632,11
1224256,12
1224884,17
1225504,29
1226136,35
1226764,30
1227384,23
1228012,19
1228640,18
1229268,17
1229896,20
1230520,16
1231148,11
1231772,11
1232396,15
1233024,26
1233640,34
1234268,32
1234892,29
1235516,28
1236144,30
1236764,31
1237392,27
1238020,18
1238640,13
1239268,11
1239892,11
1240520,15
1241152,18
1241768,21
1242396,22
1243020,21
1243652,22
1244280,20
1244896,19
1245524,17
1246148,17
1246772,13
1247400,12
1248024,15
1248652,12
1249276,12
1249900,24
1250528,26
1251152,27
1251780,32
1252412,34
1253032,34
1253660,33
1254284,29
1254916,21
1255544,16
1256168,11
1256796,11
1257420,12
1258044,18
1258672,18
1259296,19
1259924,19
1260556,18
1261176,19
1261804,21
1262428,23
1263060,22
1263688,21
1264308,17
1264936,14
1265560,11
1266184,16
1266812,23
1267432,31
1268060,33
1268684,41
1269308,40
1269940,35
1270560,34
1271188,25
1271820,16
1272440,11
1273068,13
1273692,13
1274324,13
1274952,18
1275572,25
1276200,23
1276824,15
1277448,12
1278080,14
1278696,21
1279328,22
1279952,19
1280576,15
1281204,12
1281820,13
1282448,20
1283076,19
1283696,19
1284324,21
1284944,29
1285572,39
1286204,32
1286824,27
1287452,25
1288072,19
1288700,13
1289332,12
1289952,15
1290580,13
1291204,17
1291824,18
1292452,17
1293072,17
1293700,16
1294324,12
1294944,14
1295576,16
1296196,19
1296828,19
1297456,14
1298072,11
1298700,12
1299324,16
1299952,19
1300580,23
1301200,24
1301828,24
1302452,29
1303072,29
1303704,27
1304320,23
1304948,14
1305572,13
1306196,11
1306828,12
1307448,11
1308076,14
1308708,14
1309328,21
1309956,23
1310580,23
1311212,19
1311840,19
1312456,18
1313084,13
1313704,12
1314328,13
1314956,10
1315576,13
1316204,19
1316824,23
1317448,27
1318076,28
1318696,30
1319324,34
1319952,29
1320568,26
1321200,22
1321820,16
1322448,11
1323076,16
1323696,17
1324324,15
1324944,14
1325572,17
1326200,19
1326824,21
1327452,21
1328076,20
1328696,18
1329324,15
1329944,13
1330572,11
1331196,13
1331820,11
1332448,12
1333068,20
1333696,25
1334328,28
1334944,29
1335572,29
1336196,28
1336824,24
1337452,21
1338072,19
1338700,16
1339324,11
1339944,10
1340576,11
1341192,14
1341820,17
1342444,20
1343068,20
1343696,20
1344312,21
1344940,21
1345568,21
1346184,19
1346812,15
1347436,12
1348064,11
1348692,13
1349312,17
1349940,26
1350564,26
1351184,28
1351816,28
1352432,33
1353060,30
1353684,26
1354304,20
1354932,15
1355552,13
1356180,10
1356808,10
1357428,12
1358060,16
1358680,19
1359312,27
1359940,26
1360560,25
1361188,25
1361812,20
1362436,15
1363064,13
1363688,15
1364316,15
1364936,10
1365560,19
1366188,25
1366808,32
1367436,31
1368060,32
1368680,32
1369312,35
1369932,29
1370564,22
1371192,15
1371808,13
1372440,11
1373064,16
1373692,12
1374320,13
1374936,17
1375568,20
1376192,19
1376812,17
1377444,17
1378064,18
1378692,19
1379316,18
1379936,16
1380568,15
1381192,13
1381820,11
1382452,14
1383068,23
1383700,25
1384320,25
1384948,30
1385576,34
1386200,32
1386828,28
1387452,26
1388076,18
1388704,12
1389328,11
1389956,11
1390580,12
1391204,18
1391832,21
1392460,19
1393088,19
1393716,18
1394336,17
1394964,16
1395588,19
1396216,25
1396844,20
1397464,15
1398092,11
1398716,12
1399340,17
1399968,22
1400588,26
1401216,32
1401840,33
1402464,35
1403092,32
1403716,25
1404344,17
1404972,12
1405592,13
1406220,12
1406844,11
1407476,13
1408104,15
1408724,18
1409356,23
1409976,24
1410600,19
1411228,18
1411848,23
1412476,26
1413100,31
1413724,24
1414352,15
1414972,12
1415600,17
1416228,31
1416848,40
1417476,39
1418100,38
1418728,36
1419360,33
1419976,28
1420604,20
1421228,15
1421852,11
1422480,11
1423104,12
1423732,14
1424356,17
1424980,17
1425608,14
1426232,15
1426860,17
1427492,20
1428112,21
1428740,20
1429364,19
1429996,19
1430624,14
1431248,11
1431876,13
1432500,17
1433128,25
1433756,28
1434376,29
1435004,33
1435628,34
1436248,34
1436880,29
1437496,21
1438124,15
1438752,12
1439376,11
1440004,11
1440624,12
1441252,17
1441884,18
1442504,20
1443132,24
1443756,25
1444380,20
1445008,18
1445624,20
1446252,17
1446876,14
1447500,14
1448128,11
1448744,13
1449372,18
1450000,24
1450624,27
1451252,33
1451876,38
1452504,40
1453132,35
1453752,25
1454380,15
1455004,10
1455628,10
1456256,12
1456880,13
1457508,14
1458132,17
1458756,18
1459384,20
1460008,22
1460636,24
1461264,23
1461880,21
1462512,17
1463136,14
1463764,14
1464396,10
1465016,12
1465644,17
1466268,28
1466892,31
1467520,35
1468136,36
1468764,35
1469392,29
1470016,25
1470644,20
1471264,14
1471892,11
1472524,10
1473144,13
1473772,12
1474396,17
1475028,17
1475656,19
1476272,23
1476904,22
1477524,22
1478148,24
1478780,24
1479400,22
1480028,13
1480652,11
1481272,15
1481904,16
1482520,19
1483148,26
1483772,31
1484400,35
1485028,34
1485652,32
1486280,28
1486908,18
1487528,12
1488156,11
1488780,12
1489408,11
1490036,16
1490656,16
1491284,21
1491908,22
1492532,22
1493160,20
1493776,15
1494404,11
1495028,11
1495652,10
1496284,10
1496904,15
1497536,20
1498164,11
1498784,13
1499412,22
1500036,28
1500668,31
1501296,31
1501916,31
1502544,27
1503168,19
1503792,21
1504424,22
1505040,17
1505668,11
1506292,15
1506916,12
1507544,12
1508168,14
1508800,20
1509428,20
1510048,17
1510680,17
1511300,20
1511932,23
1512564,19
1513184,17
1513812,15
1514436,13
1515064,11
1515692,16
1516312,24
1516940,27
1517564,32
1518192,37
1518820,32
1519444,30
1520076,27
1520704,22
1521324,18
1521952,12
1522576,11
1523204,15
1523832,14
1524456,17
1525084,17
1525708,18
1526332,19
1526964,20
1527584,19
1528216,21
1528844,22
1529464,24
1530096,21
1530720,19
1531348,11
1531980,12
1532600,23
1533232,33
1533856,39
1534480,39
1535112,36
1535728,33
1536360,30
1536984,23
1537604,17
1538232,14
1538856,13
1539484,10
1540112,13
1540736,15
1541364,19
1541988,21
1542616,23
1543248,27
1543864,27
1544492,23
1545116,20
1545740,16
1546368,15
1546992,11
1547620,11
1548244,13
1548868,18
1549496,29
1550112,35
1550740,37
1551372,32
1551992,30
1552624,31
1553248,27
1553876,22
1554508,14
1555128,12
1555760,11
1556384,11
1557008,12
1557636,15
1558256,20
1558884,23
1559508,18
1560132,17
1560760,19
1561384,21
1562012,23
1562644,22
1563264,26
1563892,19
1564516,11
1565144,13
1565772,17
1566392,25
1567020,30
1567644,33
1568268,32
1568900,35
1569520,33
1570148,29
1570772,19
1571396,13
1572024,10
1572648,14
1573276,15
1573908,12
1574528,15
1575156,16
1575780,17
1576412,19
1577040,22
1577664,21
1578292,21
1578916,19
1579540,23
1580168,20
1580792,15
1581424,12
1582048,20
1582672,30
1583300,29
1583920,32
1584552,37
1585180,33
1585800,33
1586432,27
1587056,21
1587684,17
1588316,12
1588936,10
1589564,11
1590188,10
1590812,12
1591444,16
1592064,19
1592692,24
1593316,24
1593944,20
1594572,18
1595192,21
1595824,20
1596452,20
1597072,17
1597704,13
1598328,11
1598956,19
1599588,28
1600208,33
1600836,34
1601456,33
1602080,33
1602708,30
1603328,29
1603956,22
1604576,17
1605200,11
1605828,11
1606448,14
1607076,12
1607704,15
1608320,16
1608948,20
1609572,21
1610200,21
1610828,17
1611448,16
1612076,15
1612700,18
1613324,19
1613952,16
1614576,11
1615204,13
1615828,21
1616452,27
1617080,31
1617700,33
1618328,35
1618956,32
1619576,32
1620204,27
1620828,20
1621456,15
1622084,10
1622704,11
1623332,14
1623956,18
1624584,25
1625212,26
1625832,27
1626460,27
1627084,24
1627708,21
1628340,14
1628960,11
1629588,11
1630216,11
1630840,11
1631468,11
1632092,13
1632724,21
1633352,30
1633972,33
1634600,33
1635224,32
1635848,31
1636476,29
1637096,24
1637728,19
1638352,13
1638976,10
1639604,12
1640220,12
1640848,14
1641476,16
1642092,17
1642720,20
1643344,23
1643972,21
1644600,19
1645216,19
1645844,18
1646464,18
1647092,17
1647720,14
1648344,13
1648972,19
1649592,31
1650216,34
1650844,33
1651464,34
1652092,34
1652712,33
1653336,28
1653964,18
1654584,14
1655212,11
1655840,11
1656456,12
1657084,12
1657708,17
1658336,22
1658964,24
1659580,24
1660212,21
1660832,18
1661452,19
1662084,20
1662704,21
1663332,20
1663956,19
1664580,14
1665208,11
1665824,19
1666452,35
1667080,41
1667696,44
1668324,38
1668948,34
1669576,31
1670204,26
1670824,20
1671452,15
1672072,10
1672700,12
1673332,14
1673952,15
1674580,17
1675204,19
1675824,23
1676452,19
1677072,21
1677700,17
1678324,16
1678944,17
1679576,17
1680196,17
1680824,18
1681452,11
1682068,19
1682700,30
1683320,36
1683948,38
1684580,36
1685196,32
1685828,29
1686448,20
1687072,17
1687700,12
1688320,10
1688948,13
1689568,14
1690192,17
1690820,21
1691440,20
1692068,16
1692696,21
1693312,21
1693940,13
1694564,16
1695192,15
1695820,14
1696440,15
1697068,13
1697692,11
1698312,15
1698940,27
1699560,33
1700188,33
1700808,26
1701432,27
1702060,29
1702680,33
1703308,27
1703928,22
1704552,20
1705180,14
1705804,11
1706432,11
1707060,10
1707680,15
1708308,19
1708932,23
1709560,26
1710188,27
1710808,26
1711436,26
1712060,26
1712684,25
1713312,19
1713928,17
1714556,11
1715180,18
1715804,34
1716436,41
1717060,41
1717688,34
1718316,32
1718936,26
1719564,21
1720188,21
1720820,19
1721448,17
1722064,13
1722692,13
1723316,13
1723940,14
1724568,16
1725188,16
1725816,17
1726440,19
1727060,17
1727692,18
1728312,21
1728940,21
1729568,22
1730192,18
1730820,12
1731444,12
1732072,15
1732700,26
1733320,28
1733948,27
1734572,32
1735196,40
1735824,43
1736440,35
1737072,23
1737696,13
1738316,13
1738948,10
1739568,17
1740196,17
1740828,16
1741444,14
1742072,20
1742696,33
1743324,25
1743952,15
1744576,13
1745204,19
1745828,20
1746452,17
1747080,17
1747696,13
1748328,13
1748948,19
1749572,29
1750204,36
1750824,34
1751452,33
1752084,34
1752704,35
1753332,27
1753956,17
1754588,14
1755216,13
1755832,10
1756464,13
1757088,15
1757712,20
1758340,22
1758960,23
1759588,25
1760216,29
1760836,25
1761468,16
1762084,19
1762716,17
1763344,13
1763960,11
1764588,12
1765212,15
1765840,22
1766468,24
1767084,34
1767716,41
1768336,41
1768964,37
1769592,34
1770216,29
1770844,21
1771468,13
1772092,11
1772724,14
1773344,13
1773972,17
1774604,21
1775224,24
1775852,20
1776476,20
1777108,23
1777736,27
1778356,23
1778984,20
1779608,16
1780232,12
1780860,11
1781480,11
1782108,16
1782732,26
1783356,31
1783984,31
1784608,34
1785236,34
1785868,34
1786488,31
1787116,22
1787740,16
1788372,11
1789000,10
1789624,11
1790252,11
1790876,16
1791504,20
1792132,24
1792748,25
1793380,27
1794000,27
1794624,26
1795252,18
1795872,13
1796500,11
1797128,11
1797752,13
1798380,12
1799004,23
1799636,29
1800264,32
1800888,35
1801516,38
1802140,36
1802764,30
1803392,22
1804016,17
1804644,15
1805268,11
1805888,12
1806516,12
1807136,12
1807764,18
1808392,28
1809016,29
1809644,31
1810264,24
1810896,18
1811524,14
1812144,13
1812772,15
1813396,17
1814020,15
1814652,10
1815272,17
1815900,31
1816524,33
1817148,32
1817780,41
1818400,44
1819028,39
1819656,30
1820280,21
1820908,13
1821532,11
1822160,10
1822792,16
1823408,23
1824036,17
1824660,13
1825284,19
1825912,24
1826536,27
1827164,21
1827788,21
1828412,20
1829044,17
1829664,16
1830292,12
1830924,12
1831544,11
1832172,13
1832796,25
1833428,33
1834056,40
1834680,43
1835308,41
1835932,38
1836556,29
1837188,18
1837808,10
1838436,11
1839060,11
1839684,11
1840316,10
1840936,15
1841564,20
1842196,22
1842816,23
1843444,21
1844068,16
1844696,15
1845324,14
1845944,20
1846572,23
1847196,15
1847816,11
1848448,12
1849064,19
1849692,29
1850316,34
1850940,31
1851568,31
1852184,34
1852816,32
1853436,24
1854064,18
1854692,16
1855316,13
1855948,11
1856580,14
1857200,14
1857828,21
1858452,21
1859076,21
1859708,23
1860328,25
1860956,22
1861580,16
1862204,15
1862836,16
1863456,14
1864084,11
1864712,11
1865336,15
1865964,23
1866588,29
1867216,30
1867848,31
1868464,32
1869092,30
1869716,23
1870340,15
1870972,16
1871592,16
1872220,11
1872844,11
1873468,11
1874100,14
1874720,16
1875348,19
1875976,18
1876600,19
1877228,17
1877852,17
1878484,20
1879112,21
1879736,22
1880364,19
1880988,12
1881612,13
1882240,18
1882864,29
1883492,30
1884120,34
1884744,33
1885372,28
1885992,28
1886620,24
1887252,18
1887872,12
1888504,11
1889124,10
1889756,13
1890384,13
1891004,17
1891632,19
1892256,21
1892880,25
1893508,23
1894128,22
1894760,19
1895380,17
1896004,17
1896632,15
1897256,15
1897884,11
1898516,12
1899136,24
1899768,31
1900388,36
1901020,39
1901652,41
1902272,35
1902900,24
1903528,20
1904152,14
1904780,10
1905400,11
1906028,13
1906652,15
1907276,18
1907908,16
1908528,20
1909156,20
1909788,15
1910408,13
1911036,11
1911660,13
1912292,25
1912924,28
1913544,25
1914176,18
1914800,11
1915424,25
1916056,35
1916672,32
1917304,32
1917928,39
1918552,49
1919184,42
1919804,30
1920436,20
1921064,14
1921680,12
1922308,10
1922932,11
1923560,16
1924192,27
1924808,22
1925436,18
1926060,19
1926684,22
1927312,16
1927928,15
1928560,19
1929180,19
1929804,20
1930436,20
1931056,13
1931684,12
1932312,24
1932936,29
1933564,33
1934188,34
1934820,33
1935448,33
1936068,32
1936696,28
1937316,19
1937940,13
1938572,10
1939192,11
1939824,12
1940448,15
1941072,19
1941700,23
1942320,23
1942952,22
1943580,16
1944200,18
1944828,20
1945456,18
1946084,21
1946716,17
1947336,14
1947964,11
1948588,17
1949212,27
1949840,29
1950464,32
1951092,32
1951716,32
1952344,29
1952972,22
1953592,16
1954220,10
1954852,11
1955472,12
1956100,11
1956724,12
1957356,16
1957984,16
1958608,18
1959236,18
1959860,17
1960484,15
1961112,16
1961736,16
1962364,16
1962988,17
1963612,17
1964244,13
1964868,11
1965496,16
1966128,23
1966744,31
1967372,37
1967996,41
1968624,41
1969256,36
1969872,33
1970500,23
1971124,14
1971748,11
1972380,10
1973000,12
1973628,16
1974252,23
1974876,25
1975504,23
1976128,21
1976756,19
1977388,18
1978008,18
1978636,19
1979260,19
1979888,15
1980520,16
1981136,13
1981764,11
1982388,22
1983012,30
1983644,35
1984264,35
1984892,37
1985516,35
1986140,32
1986768,20
1987392,17
1988020,18
1988648,12
1989264,10
1989896,13
1990520,13
1991148,18
1991780,22
1992400,24
1993028,21
1993652,25
1994276,25
1994904,22
1995528,20
1996156,22
1996784,20
1997408,14
1998036,11
1998660,22
1999292,34
1999920,40
2000544,40
2001172,39
2001796,33
2002428,33
2003056,27
2003672,24
2004300,17
2004924,13
2005548,11
2006180,16
2006800,15
2007428,19
2008052,18
2008676,23
2009304,25
2009928,20
2010556,17
2011184,16
2011808,19
2012436,18
2013060,19
2013692,19
2014320,15
2014940,12
2015568,23
2016192,29
2016816,25
2017444,30
2018064,34
2018692,38
2019316,34
2019940,28
2020568,19
2021192,17
2021820,13
2022452,10
2023072,13
2023700,12
2024324,13
2024952,16
2025580,19
2026200,24
2026828,27
2027452,23
2028080,17
2028708,14
2029328,15
2029956,13
2030580,13
2031204,11
2031836,14
2032460,24
2033092,27
2033720,27
2034340,23
2034972,27
2035596,30
2036224,31
2036856,24
2037472,20
2038104,19
2038728,11
2039352,12
2039984,12
2040600,15
2041232,17
2041864,19
2042480,22
2043108,22
2043736,19
2044364,19
2044996,20
2045616,21
2046244,17
2046872,18
2047496,14
2048128,12
2048740,17
2049368,27
2049992,31
2050612,31
2051240,34
2051856,36
2052484,31
2053104,29
2053728,19
2054356,15
2054980,11
2055608,11
2056236,12
2056856,13
2057484,17
2058104,19
2058732,21
2059364,22
2059984,22
2060612,21
2061236,21
2061856,22
2062484,20
2063100,18
2063732,14
2064356,11
2064976,14
2065604,23
2066220,32
2066852,35
2067480,39
2068096,35
2068724,33
2069348,24
2069976,12
2070608,11
2071224,11
2071852,18
2072476,22
2073100,17
2073728,16
2074344,16
2074972,16
2075596,21
2076220,20
2076848,13
2077464,11
2078092,11
2078716,12
2079344,13
2079972,11
2080596,11
2081228,12
2081856,19
2082472,34
2083100,40
2083724,42
2084352,41
2084980,30
2085600,31
2086228,29
2086852,23
2087472,16
2088104,13
2088720,10
2089348,14
2089972,13
2090592,19
2091220,20
2091844,22
2092472,22
2093100,21
2093720,22
2094348,23
2094972,22
2095600,20
2096228,16
2096848,17
2097476,12
2098096,11
2098720,17
2099348,27
2099964,33
2100596,34
2101216,33
2101840,34
2102468,29
2103088,27
2103716,21
2104344,14
2104968,11
2105596,11
2106220,13
2106848,14
2107476,17
2108096,20
2108724,21
2109348,23
2109972,23
2110604,20
2111224,21
2111852,19
2112476,17
2113100,17
2113728,14
2114352,11
2114980,13
2115608,24
2116232,29
2116860,32
2117484,34
2118112,34
2118740,34
2119360,33
2119988,25
2120612,18
2121236,12
2121864,10
2122488,11
2123116,13
2123740,16
2124364,19
2124996,20
2125616,21
2126244,23
2126872,21
2127492,19
2128120,19
2128744,17
2129372,17
2130000,18
2130620,17
2131252,11
2131872,13
2132496,24
2133124,30
2133744,38
2134372,39
2134996,38
2135620,35
2136252,26
2136872,20
2137500,15
2138132,14
2138752,11
2139380,13
2140004,13
2140636,17
2141264,19
2141880,19
2142512,21
2143136,22
2143760,18
2144388,21
2145008,21
2145636,21
2146260,19
2146884,17
2147512,13
2148132,11
2148760,20
2149388,29
2150008,27
2150636,27
2151260,33
2151888,35
2152520,27
2153136,21
2153764,15
2154388,13
2155012,15
2155644,13
2156264,12
2156892,11
2157516,15
2158140,17
2158768,15
2159384,16
2160016,19
2160640,22
2161260,27
2161892,26
2162516,22
2163144,18
2163772,19
2164392,13
2165020,15
2165644,33
2166276,42
2166904,45
2167520,44
2168152,39
2168776,32
2169400,29
2170028,24
2170648,16
2171276,12
2171900,10
2172528,14
2173156,15
2173780,15
2174412,15
2175040,17
2175660,20
2176288,23
2176912,23
2177540,21
2178168,21
2178792,21
2179420,20
2180044,16
2180664,12
2181296,11
2181912,18
2182540,25
2183164,26
2183792,33
2184420,35
2185044,35
2185672,31
2186300,25
2186920,18
2187548,17
2188172,14
2188800,10
2189428,11
2190048,13
2190676,18
2191304,21
2191928,23
2192556,21
2193176,23
2193804,21
2194428,18
2195056,19
2195684,17
2196308,14
2196940,13
2197572,11
2198192,15
2198824,23
2199448,32
2200072,31
2200700,31
2201320,30
2201952,25
2202572,23
2203196,25
2203828,20
2204448,12
2205076,11
2205708,12
2206328,13
2206956,15
2207580,14
2208212,14
2208840,15
2209464,17
2210092,17
2210716,19
2211340,21
2211972,22
2212592,20
2213220,15
2213844,13
2214468,11
2215096,17
2215712,27
2216344,28
2216972,30
2217592,32
2218220,37
2218844,35
2219476,28
2220108,20
2220728,19
2221356,12
2221984,11
2222608,13
2223236,12
2223856,23
2224484,27
2225108,25
2225736,24
2226364,22
2226984,19
2227616,14
2228244,12
2228864,14
2229492,12
2230116,13
2230748,11
2231376,10
2232000,19
2232628,25
2233252,31
2233880,35
2234508,34
2235128,35
2235760,31
2236384,25
2237008,19
2237636,12
2238256,12
2238888,11
2239516,15
2240136,18
2240768,23
2241388,27
2242020,27
2242648,22
2243264,18
2243892,18
2244516,18
2245140,17
2245768,17
2246384,14
2247016,13
2247640,11
2248264,15
2248892,26
2249512,29
2250144,31
2250772,32
2251392,33
2252024,33
2252648,28
2253276,25
2253908,14
2254528,11
2255156,11
2255780,13
2256404,22
2257032,24
2257648,23
2258280,19
2258900,19
2259524,18
2260152,16
2260776,17
2261404,16
2262036,12
2262656,12
2263284,13
2263908,11
2264540,20
2265168,22
2265788,26
2266416,24
2267040,17
2267660,20
2268292,30
2268912,36
2269540,28
2270164,26
2270788,22
2271420,20
2272040,12
2272668,13
2273300,26
2273920,32
2274548,21
2275172,16
2275804,15
2276432,14
2277056,15
2277684,16
2278312,12
2278936,12
2279564,11
2280184,13
2280812,17
2281436,12
2282060,25
2282692,30
2283312,25
2283940,19
2284572,23
2285192,25
2285820,17
2286444,16
2287076,14
2287704,16
2288328,16
2288956,11
2289580,13
2290208,15
2290836,14
2291456,14
2292084,14
2292708,19
2293336,25
2293964,25
2294584,26
2295212,30
2295840,30
2296464,21
2297092,11
2297716,20
2298348,27
2298976,27
2299592,32
2300224,36
2300848,42
2301472,35
2302100,19
2302720,21
2303348,24
2303976,14
2304600,11
2305228,10
2305848,13
2306476,19
2307104,28
2307728,15
2308356,18
2308980,20
2309612,22
2310240,17
2310856,11
2311484,21
2312108,32
2312732,16
2313364,10
2313984,11
2314612,11
2315236,14
2315860,23
2316492,23
2317112,33
2317740,29
2318372,30
2318992,32
2319624,27
2320244,22
2320876,15
2321504,14
2322120,11
2322752,13
2323376,14
2324000,16
2324628,19
2325248,25
2325876,26
2326500,29
2327124,23
2327752,18
2328376,17
2329004,17
2329636,12
2330256,11
2330884,13
2331508,17
2332136,26
2332768,27
2333388,31
2334016,36
2334640,40
2335264,32
2335896,20
2336512,21
2337144,18
2337768,19
2338392,11
2339020,11
2339640,13
2340268,15
2340900,19
2341520,21
2342148,24
2342776,26
2343404,20
2344036,14
2344656,16
2345284,17
2345908,20
2346532,19
2347164,12
2347784,15
2348412,26
2349036,25
2349664,25
2350292,24
2350916,28
2351548,33
2352180,30
2352800,28
2353428,29
2354056,24
2354684,13
2355316,10
2355936,13
2356564,15
2357188,19
2357812,22
2358440,20
2359064,24
2359692,24
2360316,20
2360944,17
2361572,15
2362200,17
2362828,16
2363460,17
2364080,12
2364708,12
2365336,23
2365960,30
2366588,33
2367208,35
2367840,33
2368464,33
2369088,32
2369716,25
2370336,17
2370968,12
2371596,10
2372216,13
2372844,13
2373468,14
2374100,16
2374732,22
2375352,25
2375984,20
2376608,20
2377232,19
2377860,16
2378480,15
2379108,16
2379732,13
2380356,11
2380988,10
2381608,11
2382236,14
2382868,24
2383488,32
2384116,39
2384740,40
2385372,41
2386000,34
2386624,24
2387252,16
2387876,15
2388500,10
2389128,12
2389752,13
2390384,17
2391008,21
2391632,21
2392264,22
2392880,21
2393512,21
2394144,25
2394764,25
2395392,20
2396016,13
2396648,15
2397276,12
2397896,14
2398528,20
2399152,33
2399776,37
2400408,39
2401024,39
2401652,39
2402276,32
2402900,25
2403528,18
2404152,12
2404780,11
2405412,10
2406032,11
2406664,13
2407284,18
2407916,19
2408544,20
2409164,21
2409792,24
2410416,25
2411040,29
2411668,22
2412288,17
2412916,12
2413540,14
2414164,11
2414796,12
2415416,21
2416044,32
2416676,42
2417296,41
2417924,37
2418548,40
2419180,30
2419808,18
2420432,14
2421060,12
2421684,10
2422312,15
2422940,16
2423560,18
2424192,20
2424816,20
2425440,17
2426068,17
2426692,21
2427324,21
2427956,20
2428576,20
2429204,17
2429832,16
2430460,12
2431092,11
2431712,19
2432344,25
2432968,28
2433588,31
2434220,33
2434840,39
2435468,34
2436092,26
2436720,21
2437348,17
2437972,11
2438604,13
2439232,14
2439856,12
2440484,16
2441108,20
2441736,23
2442364,23
2442984,24
2443612,19
2444236,17
2444864,17
2445492,18
2446112,17
2446740,17
2447372,12
2447992,15
2448624,25
2449248,34
2449876,36
2450508,34
2451128,32
2451760,33
2452384,31
2453008,26
2453636,18
2454256,14
2454888,11
2455512,13
2456136,22
2456768,25
2457388,30
2458020,25
2458648,17
2459264,15
2459892,16
2460516,17
2461144,14
2461772,12
2462392,13
2463020,14
2463644,13
2464268,11
2464896,18
2465512,27
2466144,33
2466768,36
2467392,35
2468020,30
2468640,25
2469268,21
2469896,21
2470516,12
2471144,13
2471768,11
2472396,10
2473028,10
2473648,13
2474276,14
2474900,17
2475528,21
2476156,25
2476776,25
2477408,27
2478032,24
2478656,21
2479284,19
2479904,19
2480536,12
2481164,12
2481784,26
2482412,34
2483036,34
2483668,31
2484296,33
2484920,34
2485548,29
2486172,25
2486796,19
2487424,14
2488048,11
2488676,11
2489300,14
2489924,16
2490552,19
2491176,22
2491808,21
2492436,24
2493056,21
2493684,19
2494308,14
2494940,14
2495572,12
2496192,12
2496820,12
2497444,11
2498068,14
2498696,23
2499320,28
2499948,33
2500572,35
2501196,37
2501824,32
2502448,26
2503076,21
2503708,16
2504328,13
2504956,14
2505580,24
2506212,21
2506844,16
2507464,19
2508096,16
2508720,15
2509344,14
2509972,14
2510592,21
2511220,27
2511848,24
2512472,21
2513100,14
2513720,12
2514348,11
2514980,16
2515600,32
2516228,36
2516852,38
2517484,35
2518116,30
2518736,31
2519368,23
2519992,16
2520616,15
2521244,12
2521864,11
2522492,11
2523116,12
2523740,17
2524372,21
2524996,26
2525628,29
2526256,30
2526880,27
2527508,15
2528136,11
2528764,11
2529396,10
2530016,12
2530644,11
2531268,14
2531892,18
2532524,18
2533144,27
2533776,33
2534404,33
2535024,33
2535656,31
2536280,24
2536908,17
2537540,12
2538160,11
2538792,13
2539416,14
2540040,12
2540668,15
2541288,20
2541916,23
2542544,24
2543168,18
2543800,13
2544416,16
2545044,17
2545676,18
2546296,15
2546928,12
2547552,13
2548180,16
2548812,26
2549432,28
2550064,31
2550688,35
2551312,33
2551944,31
2552564,28
2553192,22
2553816,15
2554440,13
2555072,11
2555696,13
2556328,16
2556956,19
2557576,24
2558208,25
2558832,22
2559464,20
2560096,20
2560712,21
2561340,21
2561960,19
2562580,18
2563208,17
2563828,15
2564460,11
2565080,14
2565704,25
2566332,30
2566952,37
2567580,43
2568208,41
2568832,38
2569460,30
2570084,24
2570712,18
2571340,11
2571960,13
2572588,17
2573212,20
2573836,22
2574464,19
2575080,16
2575712,17
2576336,15
2576956,16
2577588,18
2578208,19
2578836,18
2579468,13
2580088,12
2580716,11
2581340,13
2581968,22
2582596,28
2583216,33
2583844,31
2584468,30
2585092,32
2585724,32
2586344,25
2586972,17
2587592,15
2588216,12
2588848,10
2589464,13
2590092,16
2590716,20
2591344,23
2591972,23
2592600,19
2593228,18
2593856,20
2594480,20
2595108,17
2595732,16
2596360,17
2596988,16
2597608,13
2598236,11
2598860,21
2599484,29
2600116,36
2600736,37
2601364,37
2601996,34
2602616,33
2603244,25
2603868,19
2604496,12
2605128,10
2605744,15
2606372,15
2607000,21
2607624,19
2608252,17
2608872,19
2609500,21
2610124,19
2610748,17
2611380,15
2612000,17
2612628,16
2613256,15
2613880,11
2614508,17
2615132,24
2615764,31
2616392,33
2617012,31
2617640,31
2618264,32
2618888,32
2619516,26
2620136,14
2620768,11
2621392,12
2622016,12
2622644,10
2623264,15
2623892,21
2624520,20
2625140,21
2625772,19
2626392,15
2627020,13
2627648,16
2628272,18
2628900,15
2629520,18
2630148,16
2630780,11
2631400,16
2632028,29
2632652,30
2633272,30
2633904,33
2634520,37
2635148,32
2635772,26
2636400,21
2637028,16
2637652,11
2638280,12
2638908,14
2639528,16
2640156,17
2640780,16
2641408,19
2642036,22
2642652,25
2643284,20
2643904,18
2644528,19
2645156,20
2645776,21
2646404,21
2647024,12
2647648,14
2648280,23
2648900,27
2649532,29
2650160,34
2650784,37
2651412,35
2652036,30
2652664,27
2653296,21
2653912,17
2654540,13
2655164,11
2655788,11
2656420,14
2657040,20
2657668,23
2658292,23
2658912,23
2659544,19
2660168,21
2660796,21
2661428,12
2662048,13
2662676,15
2663300,20
2663928,15
2664556,12
2665176,17
2665804,25
2666424,34
2667044,42
2667676,40
2668296,43
2668924,37
2669544,31
2670168,22
2670796,14
2671416,11
2672044,13
2672672,17
2673288,15
2673916,18
2674540,19
2675172,24
2675800,25
2676424,23
2677052,19
2677676,16
2678300,15
2678928,14
2679552,16
2680180,13
2680804,11
2681428,12
2682056,22
2682676,25
2683304,29
2683932,28
2684552,32
2685180,35
2685804,37
2686432,27
2687064,19
2687680,14
2688308,11
2688932,13
2689552,13
2690184,16
2690800,19
2691428,23
2692052,22
2692676,21
2693304,18
2693920,18
2694548,18
2695176,16
2695800,17
2696428,16
2697052,12
2697680,12
2698308,17
2698928,19
2699556,22
2700180,27
2700804,31
2701436,34
2702056,33
2702684,26
2703308,19
2703932,12
2704564,10
2705184,11
2705812,11
2706440,14
2707064,21
2707692,25
2708316,19
2708944,14
2709576,11
2710192,13
2710820,14
2711444,16
2712068,18
2712700,18
2713320,15
2713948,12
2714572,18
2715196,28
2715824,30
2716448,30
2717076,27
2717708,27
2718328,32
2718956,29
2719580,25
2720212,19
2720840,15
2721456,11
2722088,11
2722708,14
2723332,19
2723964,20
2724584,24
2725212,25
2725836,27
2726456,23
2727084,18
2727704,19
2728332,19
2728952,19
2729576,17
2730208,13
2730832,12
2731460,21
2732092,29
2732712,35
2733340,36
2733964,38
2734596,35
2735228,32
2735848,29
2736476,21
2737100,15
2737724,11
2738356,11
2738976,14
2739604,13
2740236,17
2740856,21
2741484,21
2742108,20
2742736,19
2743368,16
2743984,15
2744616,19
2745240,23
2745864,21
2746492,20
2747112,13
2747740,11
2748364,21
2748988,29
2749620,30
2750240,36
2750868,37
2751500,36
2752120,33
2752748,27
2753372,19
2754000,16
2754628,13
2755248,11
2755876,13
2756500,14
2757124,18
2757756,20
2758376,20
2759008,21
2759632,19
2760256,20
2760884,21
2761504,19
2762132,24
2762764,20
2763384,18
2764012,13
2764636,12
2765268,28
2765896,34
2766520,32
2767148,28
2767772,27
2768396,31
2769024,35
2769648,33
2770276,24
2770900,15
2771524,11
2772152,10
2772772,11
2773400,18
2774028,17
2774648,18
2775276,18
2775900,22
2776532,20
2777160,20
2777784,23
2778412,22
2779036,18
2779660,15
2780292,12
2780912,12
2781540,23
2782164,31
2782792,34
2783420,35
2784040,36
2784668,32
2785300,31
2785920,29
2786548,18
2787172,11
2787800,10
2788432,12
2789048,12
2789680,13
2790304,15
2790928,18
2791556,20
2792176,21
2792804,20
2793428,20
2794052,19
2794684,22
2795304,20
2795932,16
2796564,16
2797184,13
2797812,12
2798436,21
2799068,27
2799700,32
2800320,35
2800948,37
2801572,31
2802196,24
2802824,18
2803448,19
2804076,17
2804700,11
2805324,12
2805952,12
2806576,12
2807204,15
2807832,21
2808456,27
2809084,25
2809708,19
2810336,15
2810968,17
2811588,15
2812216,13
2812840,12
2813464,13
2814092,10
2814712,18
2815344,31
2815968,33
2816592,32
2817224,40
2817840,35
2818468,30
2819096,23
2819720,18
2820348,14
2820972,13
2821600,10
2822232,12
2822848,12
2823476,17
2824100,20
2824724,23
2825352,24
2825976,25
2826604,22
2827228,20
2827852,22
2828480,20
2829096,16
2829728,15
2830356,10
2830976,14
2831604,21
2832228,28
2832860,29
2833488,34
2834104,38
2834736,37
2835360,33
2835984,27
2836612,20
2837232,15
2837860,10
2838484,12
2839108,16
2839740,17
2840360,17
2840988,17
2841620,18
2842240,25
2842868,24
2843492,23
2844120,23
2844752,18
2845372,15
2846000,13
2846624,11
2847248,11
2847876,14
2848496,23
2849124,29
2849748,31
2850372,37
2851000,38
2851624,32
2852252,23
2852884,16
2853504,15
2854132,11
2854760,11
2855388,11
2856020,12
2856640,17
2857268,17
2857892,18
2858516,18
2859148,16
2859768,15
2860396,17
2861024,16
2861648,15
2862276,15
2862896,16
2863524,13
2864156,10
2864776,15
2865404,24
2866032,26
2866660,29
2867292,32
2867912,33
2868540,31
2869164,27
2869784,19
2870412,14
2871032,12
2871660,11
2872284,10
2872908,14
2873540,18
2874160,23
2874788,21
2875420,18
2876040,16
2876668,17
2877292,19
2877924,19
2878552,19
2879176,21
2879808,19
2880432,11
2881052,16
2881680,25
2882300,29
2882932,31
2883556,31
2884176,33
2884808,34
2885424,29
2886052,22
2886680,17
2887304,13
2887932,11
2888556,11
2889184,11
2889812,12
2890432,17
2891060,18
2891684,20
2892308,21
2892936,24
2893552,25
2894184,25
2894804,17
2895428,13
2896060,12
2896680,13
2897308,11
2897936,15
2898552,29
2899184,36
2899808,39
2900436,39
2901068,40
2901688,37
2902316,27
2902944,19
2903568,11
2904196,10
2904816,9
2905392,11
2906024,12
2906648,16
2907276,19
2907896,23
2908524,21
2909148,20
2909772,19
2910400,18
2911024,20
2911652,21
2912284,18
2912904,15
2913532,12
2914156,11
2914788,19
2915416,28
2916040,28
2916668,30
2917292,31
2917916,31
2918548,30
2919168,27
2919796,21
2920420,19
2921044,15
2921672,10
2922292,13
2922920,17
2923548,17
2924168,19
2924796,20
2925420,25
2926052,25
2926684,20
2927304,16
2927936,13
2928560,14
2929184,14
2929812,16
2930432,12
2931060,13
2931688,22
2932308,29
2932940,31
2933560,32
2934192,37
2934820,38
2935440,33
2936072,25
2936692,15
2937324,11
2937956,12
2938576,19
2939204,17
2939828,15
2940456,16
2941084,14
2941704,20
2942336,23
2942960,19
2943584,17
2944216,17
2944840,17
2945468,15
2946096,14
2946720,15
2947348,12
2947972,15
2948604,24
2949236,28
2949856,31
2950484,33
2951108,37
2951732,38
2952360,30
2952976,21
2953608,17
2954228,12
2954856,11
2955484,13
2956108,14
2956740,20
2957368,20
2957992,23
2958624,19
2959248,21
2959876,18
2960508,18
2961128,21
2961756,21
2962380,17
2963004,15
2963632,10
2964256,15
2964884,23
2965516,26
2966136,29
2966764,29
2967388,35
2968020,35
2968648,30
2969272,24
2969904,20
2970524,16
2971148,11
2971780,10
2972400,13
2973028,14
2973652,17
2974276,19
2974908,18
2975528,21
2976156,20
2976788,18
2977408,19
2978036,18
2978660,19
2979292,17
2979920,13
2980536,11
2981168,18
2981792,26
2982416,28
2983044,30
2983664,33
2984292,33
2984916,37
2985540,33
2986172,26
2986792,16
2987424,11
2988052,10
2988672,13
2989304,15
2989928,19
2990556,19
2991188,19
2991808,19
2992436,19
2993060,19
2993684,19
2994316,17
2994936,17
2995568,17
2996188,16
2996812,13
2997444,11
2998064,22
2998692,33
2999324,30
2999944,32
3000576,37
3001200,37
3001828,31
3002460,28
3003080,19
3003708,11
3004336,11
3004960,11
3005588,10
3006208,13
3006840,17
3007464,25
3008088,27
3008716,22
3009336,15
3009964,13
3010596,16
3011216,17
3011844,20
3012468,19
3013100,18
3013732,14
3014352,12
3014984,24
3015608,34
3016232,43
3016864,46
3017480,43
3018112,40
3018736,36
3019360,22
3019992,13
3020616,11
3021248,11
3021876,14
3022496,15
3023124,19
3023752,24
3024380,24
3025012,22
3025632,21
3026260,17
3026888,17
3027512,15
3028140,16
3028760,15
3029392,15
3030024,13
3030640,11
3031272,15
3031896,27
3032528,31
3033156,35
3033776,32
3034404,33
3035028,29
3035656,27
3036288,18
3036904,14
3037532,12
3038160,11
3038784,13
3039416,16
3040032,21
3040664,21
3041292,20
3041912,25
3042540,27
3043164,22
3043796,19
3044428,16
3045048,19
3045676,15
3046304,12
3046928,12
3047556,16
3048176,25
3048804,33
3049428,37
3050056,39
3050684,36
3051304,34
3051936,31
3052564,24
3053184,19
3053812,11
3054440,11
3055068,16
3055700,19
3056320,19
3056948,19
3057576,18
3058200,16
3058832,17
3059448,19
3060080,23
3060704,20
3061328,13
3061960,10
3062576,11
3063204,10
3063836,10
3064456,14
3065088,23
3065712,21
3066344,27
3066972,31
3067592,33
3068224,34
3068848,32
3069472,27
3070104,18
3070724,12
3071352,10
3071980,12
3072608,13
3073236,18
3073860,21
3074488,25
3075116,25
3075736,25
3076364,24
3076988,21
3077620,19
3078248,15
3078864,13
3079496,13
3080120,11
3080740,14
3081372,18
3081992,28
3082620,29
3083244,35
3083868,34
3084500,27
3085124,27
3085752,28
3086380,22
3087000,19
3087628,13
3088252,11
3088884,13
3089512,16
3090132,18
3090760,23
3091384,27
3092008,31
3092636,26
3093256,24
3093884,23
3094508,18
3095132,14
3095764,13
3096388,12
3097016,12
3097648,18
3098264,25
3098896,32
3099520,36
3100148,35
3100780,38
3101400,37
3102032,29
3102656,24
3103280,15
3103912,13
3104528,11
3105160,13
3105784,15
3106408,19
3107036,20
3107664,20
3108292,23
3108924,26
3109544,30
3110176,25
3110800,18
3111428,13
3112060,14
3112680,16
3113312,11
3113936,17
3114560,27
3115188,34
3115808,37
3116440,37
3117068,35
3117688,39
3118320,38
3118944,32
3119572,20
3120204,13
3120824,11
3121452,11
3122076,14
3122700,16
3123332,17
3123952,21
3124580,22
3125204,23
3125828,28
3126456,28
3127080,26
3127708,27
3128340,24
3128960,17
3129588,13
3130212,11
3130844,20
3131476,35
3132096,41
3132728,47
3133352,49
3133976,48
3134608,45
3135224,39
3135856,26
3136480,14
3137104,11
3137732,13
3138352,21
3138984,20
3139612,14
3140232,17
3140860,19
3141484,23
3142116,21
3142748,20
3143368,23
3143996,25
3144624,25
3145248,24
3145876,14
3146496,12
3147124,16
3147752,29
3148376,36
3149008,37
3149624,43
3150252,45
3150884,44
3151504,35
3152136,27
3152760,24
3153392,17
3154020,11
3154640,10
3155268,16
3155892,17
3156516,21
3157148,22
3157768,26
3158400,27
3159024,26
3159648,24
3160280,26
3160904,27
3161536,26
3162164,23
3162784,18
3163416,11
3164040,22
3164672,41
3165300,54
3165920,55
3166552,51
3167176,51
3167800,44
3168432,38
3169052,31
3169680,22
3170312,12
3170932,10
3171564,16
3172188,20
3172820,23
3173448,26
3174072,28
3174704,29
3175328,26
3175952,23
3176584,23
3177200,25
3177832,27
3178456,25
3179080,21
3179712,17
3180328,11
3180960,20
3181588,35
3182208,42
3182840,45
3183464,48
3184096,48
3184724,48
3185344,43
3185976,32
3186600,21
3187224,16
3187852,10
3188472,13
3189104,17
3189728,22
3190352,26
3190984,30
3191604,31
3192236,31
3192868,30
3193488,25
3194120,24
3194744,22
3195376,22
3196008,17
3196628,11
3197260,16
3197884,29
3198508,39
3199140,46
3199760,50
3200392,46
3201016,46
3201636,41
3202268,35
3202888,26
3203516,17
3204148,10
3204768,11
3205396,18
3206020,27
3206648,31
3207276,32
3207896,32
3208524,33
3209148,35
3209772,38
3210400,36
3211016,29
3211644,17
3212268,11
3212892,11
3213520,13
3214144,23
3214772,40
3215404,47
3216024,47
3216652,46
3217276,45
3217904,43
3218532,39
3219152,29
3219784,22
3220408,16
3221028,11
3221660,14
3222280,17
3222908,21
3223532,26
3224160,29
3224788,29
3225412,26
3226044,23
3226672,27
3227296,29
3227924,25
3228548,22
3229180,16
3229808,11
3230424,16
3231056,26
3231680,40
3232304,46
3232932,49
3233552,47
3234180,50
3234804,47
3235428,41
3236060,28
3236684,15
3237312,10
3237940,14
3238560,21
3239188,21
3239812,27
3240444,28
3241072,30
3241688,31
3242320,31
3242944,27
3243568,31
3244196,28
3244816,28
3245444,20
3246068,15
3246692,11
3247324,19
3247948,36
3248580,47
3249208,47
3249832,51
3250464,49
3251088,48
3251716,39
3252348,30
3252968,23
3253596,16
3254224,11
3254848,18
3255476,20
3256096,20
3256724,23
3257356,27
3257976,33
3258604,31
3259228,27
3259860,26
3260488,28
3261112,32
3261744,29
3262368,21
3262992,14
3263624,14
3264244,27
3264872,41
3265496,45
3266120,50
3266748,57
3267368,54
3267996,46
3268628,36
3269248,29
3269876,18
3270504,11
3271132,11
3271764,14
3272384,16
3273016,29
3273640,33
3274264,34
3274896,35
3275512,34
3276144,28
3276768,23
3277392,19
3278024,25
3278640,29
3279268,24
3279896,13
3280512,15
3281140,30
3281760,46
3282388,49
3283020,52
3283640,53
3284268,54
3284888,47
3285512,37
3286140,22
3286760,13
3287388,10
3288008,12
3288632,15
3289260,16
3289880,25
3290508,29
3291128,31
3291752,30
3292380,25
3293004,19
3293632,25
3294260,28
3294880,31
3295508,26
3296132,21
3296760,13
3297388,16
3298004,38
3298636,54
3299256,59
3299880,60
3300508,53
3301128,50
3301756,45
3302380,33
3303004,19
3303632,11
3304252,12
3304880,17
3305508,18
3306128,25
3306756,29
3307380,33
3308008,34
3308640,31
3309256,29
3309884,28
3310508,29
3311132,31
3311760,26
3312384,20
3313012,13
3313636,13
3314260,24
3314888,39
3315508,49
3316136,57
3316764,54
3317384,51
3318012,43
3318636,33
3319268,24
3319896,12
3320512,12
3321144,15
3321764,17
3322388,17
3323020,25
3323640,27
3324268,31
3324892,33
3325516,31
3326144,26
3326764,26
3327392,26
3328024,23
3328636,21
3329264,16
3329888,11
3330516,22
3331144,34
3331768,44
3332396,49
3333020,49
3333644,49
3334272,48
3334888,44
3335516,33
3336140,20
3336764,14
3337392,10
3338012,14
3338640,19
3339264,17
3339888,26
3340516,33
3341140,37
3341768,36
3342396,30
3343016,31
3343644,31
3344268,28
3344896,25
3345528,22
3346144,16
3346772,12
3347396,29
3348020,42
3348648,48
3349272,53
3349900,53
3350524,50
3351152,49
3351780,44
3352404,32
3353036,19
3353664,10
3354288,11
3354916,17
3355540,16
3356164,25
3356796,30
3357416,33
3358048,33
3358672,35
3359296,33
3359924,24
3360544,24
3361172,21
3361800,21
3362416,18
3363048,13
3363668,13
3364300,25
3364928,41
3365544,47
3366176,51
3366800,51
3367428,51
3368056,45
3368672,38
3369300,25
3369924,15
3370544,10
3371176,11
3371792,16
3372424,19
3373048,24
3373668,30
3374300,31
3374924,34
3375552,37
3376180,34
3376800,31
3377428,27
3378052,20
3378680,19
3379312,17
3379928,12
3380556,21
3381180,37
3381800,46
3382432,51
3383048,51
3383676,53
3384300,49
3384924,40
3385552,29
3386172,18
3386800,13
3387428,11
3388048,21
3388676,22
3389300,23
3389932,25
3390560,28
3391176,30
3391808,29
3392432,27
3393052,25
3393684,24
3394304,22
3394932,19
3395556,16
3396180,13
3396808,11
3397424,22
3398056,39
3398684,48
3399304,53
3399932,54
3400556,53
3401184,51
3401816,43
3402432,34
3403060,18
3403684,11
3404308,12
3404936,16
3405560,19
3406188,24
3406812,26
3407432,28
3408064,31
3408680,33
3409308,33
3409936,31
3410560,28
3411188,27
3411812,29
3412440,23
3413072,13
3413688,17
3414320,37
3414944,52
3415568,54
3416196,49
3416816,47
3417444,45
3418068,39
3418692,33
3419324,22
3419944,15
3420576,11
3421204,10
3421824,16
3422452,16
3423076,21
3423708,26
3424340,31
3424960,34
3425588,31
3426212,30
3426836,28
3427468,24
3428088,25
3428716,21
3429340,17
3429968,11
3430596,18
3431216,36
3431844,44
3432472,48
3433096,50
3433724,54
3434348,50
3434980,42
3435608,30
3436232,17
3436860,12
3437484,11
3438108,15
3438740,15
3439360,21
3439988,25
3440616,31
3441240,35
3441868,34
3442488,31
3443116,27
3443748,26
3444368,27
3444996,24
3445620,17
3446248,12
3446880,14
3447496,32
3448124,45
3448748,48
3449372,50
3450004,48
3450624,51
3451252,48
3451876,39
3452500,25
3453132,14
3453752,11
3454380,14
3455012,18
3455632,17
3456264,23
3456884,27
3457516,31
3458144,33
3458764,35
3459392,39
3460016,33
3460640,30
3461268,20
3461888,13
3462516,11
3463140,17
3463764,25
3464392,28
3465012,15
3465640,13
3466268,18
3466888,32
3467516,32
3468140,22
3468772,12
3469404,10
3470024,14
3470652,12
3471280,12
3471904,17
3472532,35
3473152,45
3473780,39
3474408,19
3475032,13
3475660,18
3476280,25
3476908,31
3477540,32
3478160,25
3478788,19
3479416,14
3480044,11
3480676,20
3481296,39
3481928,39
3482548,30
3483172,25
3483804,26
3484424,19
3485052,11
3485676,11
3486300,11
3486932,16
3487552,19
3488184,20
3488812,16
3489432,19
3490060,21
3490684,23
3491312,27
3491944,35
3492560,32
3493192,30
3493816,29
3494440,26
3495068,28
3495688,23
3496316,11
3496940,15
3497564,28
3498196,24
3498820,21
3499452,39
3500080,46
3500704,55
3501336,69
3501960,72
3502592,58
3503220,46
3503840,27
3504468,10
3505092,11
3505720,16
3506348,16
3506968,18
3507600,14
3508220,22
3508848,22
3509476,14
3510100,13
3510732,21
3511364,30
3511984,44
3512616,39
3513240,19
3513864,19
3514492,42
3515112,53
3515744,57
3516368,55
3516992,45
3517624,38
3518240,31
3518872,23
3519504,16
3520124,13
3520752,11
3521376,14
3522004,16
3522636,23
3523256,37
3523884,45
3524508,42
3525128,38
3525760,35
3526376,33
3527008,31
3527628,27
3528252,25
3528884,21
3529504,16
3530132,13
3530764,31
3531384,46
3532012,49
3532636,53
3533268,51
3533900,50
3534520,46
3535148,36
3535772,25
3536396,15
3537028,10
3537648,11
3538276,17
3538900,19
3539524,26
3540156,32
3540776,36
3541404,35
3542036,33
3542656,32
3543288,31
3543908,28
3544540,25
3545168,20
3545792,21
3546420,14
3547044,13
3547668,30
3548300,43
3548920,47
3549548,49
3550172,54
3550800,53
3551428,44
3552048,37
3552676,22
3553308,14
3553928,11
3554556,11
3555180,14
3555812,16
3556444,19
3557064,30
3557696,35
3558320,37
3558944,36
3559572,28
3560192,25
3560820,25
3561444,21
3562072,18
3562700,11
3563320,13
3563952,21
3564580,35
3565200,42
3565828,45
3566452,45
3567084,47
3567716,46
3568336,42
3568964,33
3569588,23
3570216,12
3570844,11
3571464,24
3572092,31
3572720,43
3573344,45
3573976,43
3574600,42
3575228,43
3575860,29
3576480,11
3577108,21
3577736,21
3578368,12
3578996,10
3579616,12
3580248,11
3580872,16
3581496,15
3582128,38
3582744,38
3583376,46
3584008,65
3584624,61
3585252,35
3585876,16
3586504,11
3587136,14
3587752,19
3588384,44
3589008,59
3589636,69
3590268,68
3590888,61
3591516,45
3592144,31
3592768,25
3593396,16
3594016,27
3594644,27
3595276,14
3595896,15
3596524,41
3597152,79
3597780,79
3598412,68
3599032,59
3599664,37
3600288,14
3600912,11
3601540,10
3602160,11
3602788,11
3603412,11
3604036,11
3604668,11
3605288,13
3605916,29
3606544,24
3607160,14
3607792,19
3608416,29
3609044,30
3609672,12
3610296,24
3610924,44
3611544,52
3612168,25
3612800,11
3613416,22
3614044,35
3614668,51
3615292,59
3615924,48
3616544,18
3617172,29
3617804,50
3618424,58
3619052,55
3619676,30
3620308,15
3620936,28
3621552,11
3622184,16
3622808,26
3623432,49
3624060,61
3624680,34
3625308,16
3625932,11
3626556,23
3627184,50
3627808,75
3628436,53
3629068,10
3629688,41
3630316,50
3630944,43
3631572,37
3632204,30
3632824,35
3633452,36
3634076,33
3634700,29
3635332,26
3635952,17
3636580,11
3637204,11
3637828,12
3638460,18
3639080,21
3639708,25
3640340,30
3640960,34
3641588,40
3642212,49
3642844,57
3643476,54
3644096,43
3644724,36
3645352,33
3645976,33
3646604,16
3647224,18
3647852,38
3648480,54
3649100,89
3649732,122
3650404,130
3651080,92
3651708,53
3652328,26
3652956,11
3653580,21
3654208,26
3654836,31
3655456,34
3656088,47
3656716,54
3657336,58
3657964,49
3658588,40
3659220,24
3659848,14
3660472,21
3661104,21
3661728,14
3662352,13
3662980,24
3663600,37
3664228,51
3664852,60
3665476,57
3666108,51
3666728,44
3667356,40
3667988,35
3668608,29
3669236,11
3669860,39
3670492,38
3671124,42
3671744,55
3672376,53
3673000,25
3673624,27
3674252,36
3674872,25
3675504,13
3676128,58
3676752,68
3677384,51
3678000,11
3678632,26
3679264,41
3679884,39
3680516,24
3681140,14
3681768,29
3682400,32
3683016,35
3683648,40
3684272,34
3684896,21
3685524,12
3686144,11
3686776,11
3687396,12
3688020,16
3688648,30
3689272,27
3689900,13
3690528,20
3691148,29
3691776,15
3692400,39
3693028,37
3693660,16
3694280,11
3694908,23
3695532,31
3696156,21
3696788,12
3697408,29
3698036,46
3698660,57
3699284,60
3699912,53
3700532,48
3701160,41
3701788,35
3702408,25
3703036,11
3703660,13
3704292,21
3704924,26
3705544,31
3706176,38
3706800,42
3707424,41
3708052,29
3708672,25
3709300,23
3709928,28
3710552,41
3711180,39
3711800,26
3712432,15
3713060,11
3713680,29
3714308,48
3714932,54
3715564,47
3716192,46
3716816,48
3717444,45
3718068,27
3718692,13
3719324,58
3719944,48
3720576,61
3721200,46
3721820,15
3722452,20
3723076,32
3723708,43
3724336,24
3724956,38
3725584,20
3726208,28
3726840,20
3727468,28
3728088,11
3728716,31
3729340,21
3729964,18
3730592,14
3731216,49
3731844,74
3732468,59
3733092,60
3733724,70
3734348,71
3734980,49
3735612,40
3736232,28
3736864,14
3737488,30
3738120,44
3738748,32
3739368,41
3739996,61
3740624,63
3741248,61
3741876,54
3742496,50
3743128,41
3743756,40
3744376,45
3745004,40
3745628,19
3746260,81
3746888,82
3747512,51
3748144,61
3748768,74
3749392,67
3750020,56
3750640,57
3751268,47
3751892,29
3752520,19
3753148,11
3753768,11
3754396,22
3755028,28
3755648,31
3756280,29
3756904,33
3757536,34
3758164,30
3758784,50
3759416,38
3760040,53
3760664,48
3761292,38
3761912,37
3762544,44
3763168,22
3763792,20
3764424,44
3765044,63
3765672,54
3766304,47
3766920,59
3767552,73
3768180,94
3768808,88
3769440,40
3770056,17
3770688,13
3771312,25
3771936,29
3772568,35
3773184,40
3773816,42
3774440,40
3775064,38
3775696,35
3776312,32
3776944,33
3777572,29
3778192,32
3778824,39
3779448,51
3780076,43
3780708,26
3781328,15
3781956,14
3782584,23
3783208,42
3783836,45
3784456,77
3785088,131
3785768,158
3786436,136
3787116,44
3787736,15
3788364,33
3788992,31
3789616,35
3790244,42
3790876,44
3791496,41
3792128,36
3792748,35
3793380,34
3794012,30
3794632,31
3795264,25
3795884,17
3796512,11
3797140,21
3797760,41
3798388,48
3799016,49
3799640,52
3800272,50
3800892,47
3801520,44
3802152,31
3802772,18
3803404,11
3804028,12
3804660,15
3805288,18
3805912,30
3806544,38
3807168,53
3807792,56
3808424,49
3809040,44
3809672,34
3810296,28
3810920,33
3811552,36
3812176,29
3812804,13
3813436,53
3814056,74
3814688,50
3815312,34
3815944,39
3816572,55
3817192,64
3817824,40
3818448,16
3819072,29
3819704,42
3820320,15
3820952,20
3821584,25
3822200,31
3822832,17
3823456,18
3824088,52
3824716,62
3825336,24
3825968,28
3826592,46
3827216,49
3827844,32
3828464,33
3829096,15
3829720,19
3830344,30
3830976,35
3831596,23
3832228,28
3832860,52
3833480,70
3834112,59
3834740,26
3835368,25
3836000,23
3836624,11
3837256,15
3837880,22
3838508,37
3839140,14
3839764,22
3840396,48
3841020,56
3841640,62
3842272,65
3842892,55
3843524,38
3844152,25
3844772,19
3845400,12
3846024,11
3846652,12
3847284,10
3847904,17
3848532,28
3849160,24
3849784,29
3850412,66
3851032,89
3851660,79
3852284,80
3852912,49
3853540,13
3854164,15
3854796,21
3855424,16
3856040,19
3856672,27
3857292,40
3857924,43
3858552,41
3859172,35
3859804,36
3860428,34
3861052,34
3861680,28
3862304,24
3862936,11
3863564,22
3864184,41
3864812,55
3865436,59
3866068,57
3866700,54
3867320,53
3867948,45
3868576,35
3869200,17
3869828,22
3870448,41
3871080,42
3871704,49
3872328,72
3872956,65
3873576,73
3874208,65
3874836,35
3875456,16
3876088,47
3876708,31
3877340,75
3877972,72
3878592,34
3879224,23
3879848,24
3880472,17
3881100,13
3881720,25
3882348,67
3882972,99
3883600,76
3884228,50
3884848,35
3885476,26
3886108,12
3886728,12
3887356,17
3887984,23
3888616,21
3889248,26
3889864,30
3890496,37
3891120,39
3891744,37
3892376,52
3892992,62
3893624,76
3894248,62
3894872,59
3895500,27
3896120,12
3896748,23
3897380,42
3898000,85
3898628,130
3899304,124
3899980,115
3900660,59
3901280,29
3901912,15
3902540,10
3903160,14
3903792,21
3904416,29
3905040,31
3905668,39
3906288,41
3906916,40
3907540,36
3908168,25
3908796,18
3909416,20
3910048,25
3910676,26
3911296,23
3911928,12
3912552,12
3913180,17
3913812,31
3914432,42
3915064,40
3915688,37
3916312,41
3916944,49
3917560,51
3918192,40
3918816,27
3919440,13
3920072,10
3920688,13
3921316,20
3921948,18
3922568,28
3923196,37
3923824,41
3924456,45
3925084,46
3925704,54
3926336,54
3926960,53
3927584,37
3928216,20
3928832,12
3929464,23
3930088,37
3930712,44
3931344,84
3931964,117
3932648,80
3933268,56
3933888,51
3934516,41
3935140,28
3935768,16
3936396,10
3937016,16
3937644,28
3938268,56
3938892,75
3939524,90
3940144,89
3940772,66
3941404,48
3942024,51
3942656,33
3943276,18
3943908,100
3944588,127
3945260,34
3945884,16
3946516,16
3947136,24
3947768,22
3948392,35
3949020,46
3949652,22
3950272,29
3950900,26
3951528,19
3952152,15
3952780,30
3953400,45
3954028,28
3954652,11
3955276,17
3955908,26
3956528,31
3957156,35
3957788,38
3958408,43
3959036,40
3959664,37
3960292,31
3960924,26
3961544,26
3962176,22
3962800,11
3963424,16
3964056,33
3964672,43
3965304,50
3965928,55
3966552,55
3967184,53
3967804,45
3968436,21
3969064,11
3969680,18
3970312,38
3970936,51
3971564,46
3972196,49
3972816,47
3973444,31
3974068,31
3974692,47
3975324,18
3975944,87
3976572,95
3977200,29
3977824,24
3978452,29
3979076,23
3979708,12
3980340,20
3980960,39
3981588,48
3982212,49
3982844,52
3983476,48
3984096,46
3984724,35
3985348,24
3985972,14
3986604,10
3987224,13
3987852,21
3988476,19
3989104,25
3989736,24
3990360,33
3990992,44
3991624,57
3992244,67
3992872,68
3993500,55
3994124,31
3994756,11
3995376,18
3996004,35
3996632,42
3997256,53
3997884,67
3998504,59
3999136,54
3999764,53
4000384,50
4001012,44
4001636,34
4002264,23
4002892,10
4003512,13
4004140,16
4004764,17
4005388,25
4006020,32
4006640,30
4007268,26
4007892,23
4008516,21
4009144,26
4009768,32
4010396,38
4011028,48
4011648,45
4012276,33
4012900,17
4013532,20
4014164,50
4014784,68
4015412,55
4016036,69
4016660,67
4017288,47
4017904,32
4018536,29
4019160,17
4019784,11
4020412,10
4021032,15
4021660,38
4022292,44
4022912,21
4023540,55
4024168,33
4024796,24
4025428,38
4026048,14
4026676,31
4027300,39
4027924,45
4028556,44
4029176,41
4029808,24
4030428,26
4031052,52
4031684,49
4032304,47
4032932,49
4033564,50
4034184,58
4034816,59
4035436,49
4036068,37
4036696,16
4037320,13
4037948,17
4038576,22
4039196,29
4039828,31
4040448,35
4041076,38
4041700,35
4042324,33
4042956,32
4043576,29
4044208,27
4044836,22
4045456,20
4046084,11
4046708,16
4047336,32
4047968,43
4048588,49
4049216,55
4049840,62
4050464,60
4051096,47
4051716,38
4052344,22
4052968,12
4053592,11
4054224,17
4054848,25
4055480,28
4056108,32
4056728,32
4057356,35
4057984,32
4058612,31
4059244,32
4059864,33
4060496,29
4061120,25
4061744,24
4062372,18
4062992,14
4063624,23
4064248,50
4064872,35
4065500,25
4066128,14
4066756,16
4067388,26
4068008,24
4068636,47
4069264,72
4069892,45
4070524,22
4071144,16
4071776,26
4072400,63
4073024,52
4073652,20
4074272,64
4074904,29
4075532,18
4076152,32
4076784,49
4077408,56
4078040,35
4078668,37
4079288,22
4079920,13
4080544,22
4081168,51
4081800,80
4082416,78
4083048,70
4083672,69
4084296,53
4084928,33
4085544,18
4086176,11
4086804,12
4087424,19
4088056,26
4088680,30
4089308,35
4089940,40
4090560,40
4091192,34
4091816,31
4092440,38
4093072,43
4093692,32
4094324,17
4094948,12
4095576,11
4096208,13
4096824,13
4097448,44
4098076,14
4098692,15
4099320,14
4099944,13
4100572,12
4101200,20
4101816,64
4102444,95
4103064,70
4103688,72
4104316,71
4104936,32
4105564,16
4106188,58
4106812,82
4107440,84
4108056,73
4108684,76
4109308,88
4109936,99
4110564,43
4111188,17
4111816,40
4112444,70
4113064,91
4113692,98
4114316,119
4114996,108
4115672,49
4116296,35
4116924,27
4117552,22
4118176,15
4118804,30
4119428,47
4120056,15
4120688,27
4121304,46
4121932,30
4122556,39
4123180,53
4123808,52
4124428,45
4125056,43
4125676,31
4126300,19
4126932,12
4127556,26
4128184,34
4128812,33
4129432,13
4130060,19
4130684,43
4131312,59
4131940,73
4132560,77
4133188,59
4133812,57
4134436,26
4135064,12
4135680,14
4136312,21
4136936,23
4137560,35
4138188,42
4138808,29
4139436,19
4140068,19
4140688,23
4141316,67
4141940,50
4142572,30
4143200,21
4143816,18
4144448,22
4145072,22
4145696,32
4146324,18
4146944,37
4147572,46
4148196,43
4148820,45
4149448,45
4150068,46
4150696,48
4151324,41
4151944,28
4152576,16
4153196,11
4153828,21
4154456,31
4155080,32
4155708,33
4156332,32
4156956,35
4157588,40
4158208,30
4158836,14
4159460,19
4160084,33
4160712,32
4161336,28
4161964,23
4162592,12
4163208,23
4163836,44
4164460,53
4165088,51
4165716,48
4166336,50
4166964,48
4167588,42
4168212,34
4168840,22
4169464,13
4170092,11
4170716,19
4171340,28
4171968,27
4172588,31
4173216,37
4173848,31
4174464,27
4175092,24
4175716,23
4176348,23
4176976,22
4177592,23
4178224,18
4178844,13
4179468,15
4180096,29
4180712,42
4181344,49
4181968,51
4182588,52
4183220,50
4183840,51
4184468,43
4185096,29
4185720,15
4186348,10
4186972,17
4187600,24
4188228,23
4188848,32
4189476,36
4190100,37
4190724,31
4191356,22
4191976,27
4192608,38
4193232,47
4193856,51
4194484,52
4195104,37
4195732,13
4196364,40
4196984,43
4197612,53
4198240,55
4198868,59
4199496,60
4200120,49
4200748,27
4201372,29
4201996,45
4202624,28
4203240,20
4203872,28
4204492,11
4205116,17
4205748,38
4206368,43
4206996,15
4207628,50
4208248,64
4208876,13
4209500,31
4210128,29
4210760,36
4211376,44
4212008,46
4212628,33
4213256,15
4213884,24
4214504,43
4215132,51
4215756,57
4216380,55
4217012,50
4217632,36
4218260,17
4218892,12
4219512,16
4220140,20
4220764,21
4221396,18
4222028,14
4222648,18
4223276,28
4223904,15
4224528,32
4225156,38
4225776,42
4226404,44
4227028,45
4227652,55
4228280,43
4228896,14
4229528,48
4230156,52
4230776,49
4231404,55
4232028,79
4232660,43
4233288,40
4233904,44
4234536,43
4235160,29
4235784,14
4236412,10
4237032,17
4237660,25
4238284,29
4238908,36
4239540,41
4240160,45
4240788,45
4241416,44
4242040,35
4242668,28
4243292,18
4243920,23
4244552,11
4245168,11
4245800,11
4246424,14
4247044,22
4247676,20
4248296,30
4248928,65
4249552,109
4250228,88
4250852,57
4251476,31
4252108,18
4252736,10
4253360,12
4253988,16
4254616,19
4255240,23
4255868,28
4256488,33
4257116,37
4257740,40
4258364,39
4258996,34
4259616,31
4260248,27
4260876,26
4261496,23
4262124,19
4262748,11
4263376,19
4264004,35
4264624,42
4265252,45
4265876,54
4266500,63
4267132,74
4267752,53
4268380,30
4269004,16
4269628,13
4270260,20
4270880,43
4271508,56
4272140,50
4272760,39
4273388,35
4274012,38
4274644,47
4275272,28
4275888,65
4276520,83
4277144,33
4277768,28
4278396,34
4279016,20
4279648,11
4280272,22
4280896,36
4281524,42
4282144,46
4282772,49
4283404,50
4284024,43
4284652,34
4285276,27
4285908,12
4286540,17
4287160,31
4287792,38
4288416,39
4289040,45
4289668,54
4290288,63
4290916,34
4291540,36
4292164,15
4292792,49
4293416,84
4294044,49
4294676,16
4295296,22
4295924,13
4296548,14
4297180,23
4297812,32
4298432,44
4299060,48
4299688,48
4300312,47
4300944,41
4301560,30
4302188,18
4302812,11
4303436,14
4304064,23
4304680,28
4305312,33
4305940,39
4306560,41
4307188,42
4307812,57
4308444,49
4309072,28
4309692,25
4310320,26
4310944,27
4311572,34
4312200,30
4312820,59
4313448,54
4314072,53
4314696,53
4315324,53
4315944,56
4316576,53
4317204,45
4317824,29
4318452,13
4319080,20
4319708,30
4320340,34
4320960,41
4321588,45
4322212,35
4322836,17
4323464,50
4324088,41
4324716,14
4325340,32
4325964,43
4326596,45
4327216,38
4327844,28
4328472,19
4329096,13
4329724,16
4330348,33
4330980,47
4331608,46
4332232,49
4332860,54
4333484,53
4334108,49
4334740,39
4335360,27
4335988,13
4336616,10
4337240,15
4337868,23
4338488,32
4339116,36
4339748,41
4340368,39
4341000,33
4341624,25
4342252,14
4342884,18
4343504,26
4344132,13
4344756,29
4345384,36
4346012,24
4346632,12
4347264,27
4347884,38
4348512,49
4349140,51
4349764,56
4350396,52
4351028,32
4351648,20
4352280,13
4352904,11
4353532,11
4354160,13
4354780,19
4355408,32
4356032,16
4356656,19
4357284,42
4357904,45
4358532,42
4359156,33
4359780,25
4360412,16
4361036,15
4361664,14
4362292,10
4362912,21
4363540,28
4364164,31
4364792,27
4365424,26
4366044,13
4366672,15
4367296,13
4367920,11
4368548,11
4369168,43
4369796,24
4370420,17
4371044,30
4371676,16
4372300,16
4372932,53
4373560,52
4374180,21
4374808,42
4375432,19
4376064,20
4376692,22
4377312,19
4377944,23
4378568,23
4379188,12
4379820,14
4380440,27
4381068,31
4381696,38
4382320,48
4382952,51
4383576,47
4384204,39
4384836,26
4385456,17
4386084,11
4386708,11
4387336,16
4387964,24
4388584,34
4389212,40
4389836,37
4390464,35
4391092,31
4391712,32
4392344,29
4392972,36
4393592,35
4394224,32
4394848,27
4395480,15
4396108,11
4396728,24
4397360,49
4397984,75
4398608,64
4399240,45
4399860,57
4400492,78
4401116,61
4401740,29
4402372,10
4402992,10
4403624,11
4404252,15
4404872,17
4405500,25
4406124,28
4406752,34
4407384,37
4408004,36
4408632,35
4409256,33
4409880,30
4410508,27
4411128,26
4411756,21
4412384,12
4413008,22
4413640,34
4414256,50
4414888,48
4415516,40
4416136,50
4416768,59
4417392,66
4418020,44
4418652,18
4419272,11
4419900,13
4420524,15
4421148,19
4421780,22
4422400,32
4423028,36
4423652,40
4424280,41
4424908,38
4425528,35
4426156,32
4426788,26
4427408,24
4428036,14
4428664,11
4429292,14
4429924,26
4430544,40
4431172,50
4431800,49
4432424,37
4433052,26
4433672,21
4434300,17
4434928,14
4435552,13
4436180,24
4436804,12
4437432,29
4438064,42
4438684,14
4439312,12
4439936,19
4440568,18
4441200,23
4441820,27
4442448,34
4443072,37
4443696,21
4444324,12
4444944,19
4445572,18
4446196,11
4446824,19
4447452,33
4448076,35
4448708,29
4449336,31
4449956,47
4450584,63
4451208,63
4451836,43
4452468,44
4453088,73
4453720,22
4454344,29
4454968,28
4455596,32
4456216,46
4456844,51
4457472,49
4458096,45
4458724,41
4459352,43
4459980,47
4460612,40
4461232,37
4461864,25
4462488,12
4463112,18
4463744,33
4464364,61
4464992,83
4465616,70
4466240,63
4466868,59
4467488,45
4468116,35
4468748,22
4469368,15
4470000,11
4470624,13
4471252,14
4471884,19
4472504,30
4473136,38
4473760,38
4474384,39
4475016,45
4475632,39
4476264,35
4476892,30
4477516,29
4478144,24
4478768,16
4479400,12
4480032,28
4480648,44
4481276,63
4481900,71
4482528,70
4483160,61
4483776,49
4484408,39
4485032,27
4485656,13
4486284,12
4486904,19
4487532,23
4488156,25
4488780,31
4489412,37
4490032,35
4490660,29
4491292,24
4491912,25
4492544,23
4493168,26
4493796,26
4494428,24
4495048,19
4495680,11
4496300,17
4496924,37
4497556,47
4498176,52
4498804,55
4499428,56
4500056,57
4500684,40
4501304,31
4501936,18
4502564,14
4503184,11
4503816,16
4504440,24
4505072,17
4505700,13
4506320,21
4506948,39
4507572,41
4508196,40
4508824,37
4509440,36
4510068,37
4510692,38
4511320,36
4511948,26
4512568,15
4513196,14
4513828,38
4514448,58
4515076,72
4515704,71
4516332,70
4516960,63
4517584,48
4518216,44
4518840,30
4519464,29
4520092,18
4520712,16
4521340,25
4521964,33
4522588,40
4523220,47
4523844,51
4524472,52
4525104,45
4525720,49
4526352,53
4526976,39
4527604,12
4528236,10
4528856,23
4529484,22
4530108,25
4530732,81
4531364,78
4531984,51
4532612,41
4533236,61
4533860,102
4534544,78
4535160,44
4535792,18
4536424,10
4537040,15
4537668,30
4538292,39
4538916,49
4539548,48
4540168,38
4540796,36
4541424,32
4542048,32
4542680,29
4543304,32
4543936,42
4544568,54
4545184,48
4545816,26
4546440,13
4547068,38
4547700,32
4548320,35
4548948,57
4549576,47
4550200,41
4550828,29
4551448,56
4552080,99
4552704,106
4553380,37
4554008,29
4554632,32
4555260,16
4555892,46
4556512,54
4557144,54
4557768,55
4558392,55
4559020,48
4559640,39
4560272,28
4560896,23
4561520,19
4562148,12
4562772,16
4563404,27
4564036,38
4564656,44
4565284,46
4565908,53
4566536,47
4567168,43
4567784,37
4568416,32
4569036,21
4569664,12
4570292,16
4570912,32
4571544,37
4572172,41
4572792,45
4573424,43
4574048,42
4574680,30
4575308,11
4575928,13
4576560,11
4577184,14
4577812,21
4578440,21
4579060,17
4579692,24
4580316,17
4580940,15
4581572,34
4582192,58
4582824,37
4583456,22
4584076,63
4584704,124
4585380,100
4586052,42
4586680,14
4587296,16
4587928,22
4588556,30
4589176,35
4589804,37
4590428,33
4591060,29
4591688,29
4592308,30
4592936,38
4593560,39
4594188,31
4594816,26
4595440,17
4596068,11
4596692,15
4597316,13
4597948,16
4598568,56
4599196,85
4599828,64
4600448,50
4601076,39
4601704,32
4602332,33
4602964,42
4603584,33
4604216,19
4604840,35
4605464,49
4606092,64
4606712,80
4607344,78
4607968,70
4608596,71
4609224,62
4609840,33
4610468,11
4611100,10
4611720,13
4612348,13
4612972,49
4613600,163
4614284,143
4614956,58
4615580,44
4616212,52
4616832,47
4617460,33
4618084,21
4618716,13
4619344,10
4619968,20
4620596,31
4621224,35
4621844,50
4622476,58
4623096,55
4623728,52
4624352,37
4624972,17
4625604,22
4626224,27
4626852,27
4627484,40
4628104,27
4628732,15
4629356,12
4629988,17
4630616,25
4631240,28
4631868,39
4632492,46
4633116,46
4633748,40
4634368,33
4634996,27
4635620,36
4636244,23
4636876,10
4637496,18
4638124,23
4638756,28
4639376,37
4640004,47
4640628,56
4641256,48
4641888,32
4642504,29
4643132,30
4643760,39
4644384,32
4645012,14
4645632,27
4646260,41
4646884,48
4647508,45
4648140,56
4648760,61
4649388,52
4650020,44
4650640,33
4651268,36
4651892,43
4652524,22
4653156,14
4653776,30
4654404,29
4655028,28
4655652,30
4656284,28
4656904,31
4657532,33
4658160,31
4658784,29
4659416,28
4660036,28
4660668,28
4661296,23
4661920,25
4662548,13
4663172,14
4663804,37
4664436,43
4665056,44
4665684,58
4666308,70
4666936,115
4667616,92
4668232,49
4668864,13
4669492,20
4670112,33
4670740,39
4671368,30
4671996,37
4672628,40
4673248,38
4673876,38
4674500,36
4675128,41
4675756,40
4676376,36
4677004,20
4677632,12
4678256,12
4678888,17
4679508,17
4680140,48
4680772,30
4681392,48
4682020,65
4682648,78
4683272,88
4683900,58
4684520,32
4685152,14
4685772,25
4686396,49
4687028,54
4687648,31
4688280,31
4688908,46
4689528,60
4690160,61
4690784,51
4691412,47
4692044,61
4692664,58
4693292,20
4693916,109
4694596,105
4695276,45
4695896,16
4696528,14
4697156,46
4697776,73
4698408,50
4699028,30
4699656,40
4700288,20
4700904,15
4701532,12
4702160,13
4702784,27
4703416,30
4704036,30
4704664,12
4705292,27
4705912,41
4706544,49
4707168,37
4707800,21
4708432,35
4709052,42
4709684,44
4710308,47
4710936,42
4711564,26
4712184,15
4712812,18
4713436,40
4714064,75
4714692,79
4715312,72
4715944,58
4716572,48
4717192,39
4717824,30
4718448,21
4719076,15
4719708,11
4720328,23
4720956,33
4721584,34
4722208,42
4722836,34
4723456,20
4724084,23
4724708,31
4725336,29
4725964,22
4726584,18
4727212,19
4727844,28
4728464,23
4729092,11
4729720,23
4730348,39
4730980,46
4731600,47
4732232,51
4732856,53
4733480,46
4734112,29
4734728,20
4735360,11
4735984,11
4736608,10
4737240,19
4737864,21
4738492,15
4739124,13
4739744,23
4740376,35
4741000,40
4741632,39
4742260,38
4742880,33
4743508,31
4744136,25
4744760,21
4745392,14
4746008,14
4746640,28
4747272,44
4747888,49
4748520,47
4749144,47
4749776,45
4750404,33
4751024,26
4751656,22
4752280,21
4752904,15
4753532,16
4754152,13
4754784,13
4755408,14
4756032,29
4756664,48
4757280,61
4757908,63
4758540,31
4759160,20
4759792,15
4760416,24
4761044,13
4761676,16
4762296,21
4762924,41
4763548,22
4764172,17
4764804,14
4765424,23
4766056,49
4766680,43
4767304,28
4767936,101
4768608,150
4769284,84
4769908,14
4770528,13
4771160,17
4771784,27
4772408,43
4773036,49
4773656,51
4774288,40
4774916,40
4775536,41
4776168,37
4776792,32
4777424,25
4778052,18
4778672,13
4779304,16
4779928,32
4780552,43
4781184,46
4781804,46
4782432,44
4783060,48
4783684,41
4784316,33
4784936,14
4785568,22
4786200,27
4786820,14
4787452,11
4788076,13
4788704,19
4789336,39
4789960,19
4790592,14
4791216,33
4791840,32
4792472,38
4793092,43
4793720,44
4794348,36
4794972,31
4795604,15
4796228,15
4796860,38
4797492,58
4798112,83
4798744,109
4799420,84
4800040,52
4800672,40
4801288,30
4801916,31
4802540,11
4803164,35
4803796,37
4804420,37
4805048,50
4805680,56
4806300,52
4806928,53
4807552,46
4808184,33
4808812,24
4809432,23
4810064,17
4810688,11
4811312,16
4811944,33
4812560,28
4813192,33
4813816,43
4814440,48
4815068,51
4815692,53
4816324,53
4816952,46
4817568,36
4818200,26
4818824,15
4819452,11
4820084,16
4820704,24
4821332,23
4821960,28
4822584,36
4823212,46
4823832,53
4824464,47
4825088,30
4825712,29
4826340,34
4826964,41
4827596,15
4828228,43
4828848,19
4829476,11
4830100,39
4830728,65
4831356,49
4831976,44
4832608,54
4833236,60
4833860,48
4834488,35
4835112,21
4835744,13
4836372,18
4836992,21
4837620,23
4838248,25
4838876,31
4839508,34
4840128,42
4840756,43
4841380,55
4842004,58
4842636,54
4843256,60
4843888,44
4844512,19
4845136,11
4845764,16
4846384,63
4847016,140
4847696,130
4848372,66
4849000,49
4849624,43
4850248,37
4850876,27
4851496,15
4852128,11
4852760,14
4853376,24
4854008,40
4854632,53
4855264,64
4855892,64
4856512,43
4857144,25
4857768,27
4858392,35
4859024,13
4859640,13
4860272,28
4860896,25
4861520,11
4862152,11
4862772,13
4863400,28
4864032,40
4864656,47
4865284,47
4865908,40
4866536,40
4867168,44
4867788,32
4868416,12
4869040,16
4869664,24
4870292,30
4870912,30
4871544,25
4872168,18
4872792,22
4873424,24
4874040,46
4874672,55
4875300,55
4875920,37
4876552,15
4877176,11
4877804,11
4878436,10
4879056,17
4879688,29
4880312,42
4880936,49
4881564,52
4882184,53
4882812,51
4883440,48
4884064,45
4884692,38
4885316,28
4885948,14
4886576,13
4887200,21
4887828,21
4888456,31
4889084,40
4889716,45
4890336,41
4890964,39
4891592,35
4892216,32
4892844,31
4893464,38
4894096,48
4894724,39
4895344,19
4895976,11
4896600,24
4897228,34
4897860,59
4898480,103
4899164,122
4899836,95
4900464,46
4901096,14
4901720,16
4902352,21
4902984,21
4903604,23
4904232,12
4904860,16
4905484,19
4906116,35
4906736,44
4907368,43
4907992,36
4908616,27
4909248,25
4909872,17
4910504,17
4911136,18
4911756,15
4912388,11
4913012,19
4913644,45
4914276,46
4914896,45
4915528,49
4916152,50
4916776,44
4917404,34
4918024,26
4918652,24
4919276,24
4919900,12
4920532,16
4921152,24
4921784,27
4922412,36
4923032,49
4923660,59
4924284,57
4924916,50
4925544,36
4926164,26
4926792,23
4927416,17
4928040,21
4928668,46
4929288,41
4929916,37
4930540,48
4931164,51
4931792,43
4932416,29
4933044,22
4933676,12
4934296,11
4934928,18
4935552,26
4936180,31
4936812,32
4937432,21
4938060,27
4938684,21
4939308,79
4939940,77
4940560,27
4941188,12
4941812,38
4942436,33
4943068,23
4943692,34
4944320,22
4944952,11
4945568,18
4946200,13
4946824,35
4947452,49
4948084,56
4948704,57
4949332,51
4949960,52
4950584,49
4951212,39
4951832,29
4952464,13
4953092,16
4953712,34
4954340,37
4954968,37
4955596,38
4956228,43
4956848,47
4957476,42
4958100,35
4958728,34
4959356,31
4959976,27
4960608,24
4961232,16
4961856,12
4962484,12
4963104,24
4963732,27
4964364,21
4964984,19
4965612,24
4966236,32
4966868,40
4967500,38
4968120,33
4968748,67
4969372,97
4969996,45
4970628,10
4971248,17
4971876,27
4972500,31
4973128,39
4973756,46
4974376,52
4975008,49
4975636,50
4976256,54
4976888,57
4977508,40
4978140,11
4978772,22
4979392,25
4980020,53
4980644,88
4981268,87
4981900,69
4982520,77
4983148,64
4983776,35
4984400,16
4985028,10
4985648,21
4986276,27
4986908,25
4987528,25
4988156,14
4988784,13
4989416,22
4990048,24
4990664,29
4991296,25
4991924,17
4992548,25
4993180,30
4993800,37
4994428,33
4995052,23
4995680,13
4996308,18
4996936,35
4997564,47
4998196,52
4998816,72
4999444,81
5000068,55
5000700,25
5001328,17
5001948,19
5002576,17
5003200,11
5003824,25
5004456,29
5005076,37
5005704,42
5006332,39
5006956,28
5007588,13
5008212,22
5008840,34
5009472,37
5010088,34
5010720,27
5011344,15
5011976,15
5012604,13
5013224,47
5013856,72
5014480,46
5015104,48
5015736,53
5016356,53
5016984,44
5017616,31
5018232,15
5018864,11
5019488,13
5020116,15
5020748,18
5021368,35
5022000,49
5022624,57
5023248,59
5023880,56
5024496,49
5025128,48
5025752,50
5026376,32
5027008,14
5027624,13
5028256,51
5028888,97
5029504,83
5030136,39
5030760,35
5031392,37
5032020,41
5032640,64
5033272,81
5033896,57
5034520,26
5035152,11
5035772,11
5036404,16
5037028,22
5037652,21
5038284,30
5038904,36
5039536,41
5040164,43
5040784,43
5041412,39
5042040,36
5042668,33
5043300,29
5043920,21
5044548,14
5045172,12
5045800,17
5046428,33
5047048,47
5047676,45
5048304,46
5048928,52
5049560,53
5050184,50
5050816,39
5051448,28
5052064,20
5052696,14
5053320,11
5053952,12
5054584,16
5055204,24
5055832,28
5056460,34
5057084,40
5057716,46
5058336,40
5058968,33
5059596,34
5060216,50
5060848,55
5061472,52
5062104,33
5062732,12
5063352,26
5063984,29
5064608,75
5065232,131
5065916,104
5066588,77
5067216,50
5067848,20
5068464,11
5069096,12
5069724,26
5070348,20
5070980,12
5071600,29
5072232,46
5072856,52
5073480,53
5074112,43
5074728,29
5075360,23
5075992,18
5076612,17
5077244,17
5077868,19
5078500,12
5079132,15
5079752,26
5080384,36
5081008,34
5081632,36
5082260,39
5082880,41
5083508,37
5084136,28
5084760,14
5085392,12
5086012,38
5086640,35
5087272,11
5087892,17
5088524,35
5089148,37
5089780,27
5090412,34
5091032,25
5091664,27
5092288,30
5092912,36
5093544,32
5094164,21
5094796,12
5095420,18
5096048,28
5096680,37
5097304,43
5097936,43
5098564,44
5099184,47
5099816,49
5100440,47
5101064,45
5101696,34
5102316,27
5102944,13
5103572,11
5104196,12
5104828,19
5105448,26
5106080,42
5106708,42
5107328,46
5107960,44
5108584,35
5109216,31
5109848,31
5110472,32
5111104,26
5111728,13
5112356,21
5112988,40
5113608,50
5114240,39
5114864,75
5115492,53
5116124,32
5116752,35
5117384,30
5118016,17
5118636,12
5119268,14
5119896,11
5120524,25
5121152,62
5121772,86
5122400,100
5123080,92
5123696,69
5124324,67
5124948,70
5125576,17
5126204,54
5126824,59
5127452,103
5128128,122
5128796,102
5129472,41
5130096,25
5130724,23
5131356,30
5131976,41
5132604,41
5133228,27
5133852,21
5134484,19
5135104,16
5135732,12
5136356,11
5136980,17
5137608,26
5138228,17
5138856,14
5139484,20
5140104,40
5140732,65
5141356,80
5141988,86
5142616,86
5143240,85
5143868,75
5144492,71
5145116,37
5145748,15
5146368,17
5146996,41
5147620,77
5148244,98
5148872,124
5149548,120
5150224,131
5150908,79
5151528,32
5152160,15
5152788,10
5153408,24
5154036,28
5154660,32
5155292,38
5155920,47
5156544,51
5157172,51
5157796,51
5158424,43
5159052,38
5159672,36
5160304,26
5160928,13
5161552,23
5162180,28
5162800,27
5163428,41
5164060,52
5164680,55
5165308,45
5165932,40
5166564,44
5167192,22
5167816,11
5168448,15
5169068,20
5169692,22
5170324,14
5170944,21
5171576,33
5172200,23
5172820,17
5173452,34
5174072,50
5174700,49
5175332,50
5175952,43
5176584,36
5177208,34
5177836,34
5178468,16
5179088,21
5179716,32
5180344,63
5180968,73
5181596,54
5182216,42
5182844,56
5183472,91
5184096,70
5184724,25
5185348,12
5185976,22
5186604,26
5187224,27
5187852,23
5188476,25
5189108,26
5189736,15
5190360,15
5190992,19
5191616,29
5192240,39
5192868,45
5193488,47
5194120,40
5194744,26
5195368,16
5196000,13
5196624,48
5197252,91
5197884,110
5198556,99
5199184,72
5199808,32
5200432,14
5201060,20
5201680,29
5202308,17
5202932,11
5203556,11
5204188,13
5204812,25
5205440,29
5206068,48
5206688,94
5207316,101
5207992,68
5208616,51
5209244,45
5209864,62
5210492,69
5211116,35
5211744,92
5212372,83
5212996,91
5213628,196
5214312,172
5214980,84
5215608,45
5216232,35
5216856,25
5217484,18
5218104,12
5218732,12
5219364,18
5219984,25
5220616,25
5221240,27
5221872,37
5222500,46
5223120,46
5223748,46
5224372,43
5224996,39
5225628,32
5226248,24
5226876,24
5227500,22
5228128,14
5228756,11
5229380,18
5230012,30
5230644,42
5231264,56
5231896,77
5232520,79
5233152,55
5233780,35
5234400,23
5235028,13
5235656,11
5236280,19
5236908,29
5237528,30
5238160,35
5238788,35
5239408,34
5240040,34
5240664,17
5241292,13
5241924,18
5242544,27
5243176,27
5243800,27
5244420,23
5245052,14
5245672,15
5246300,29
5246924,43
5247548,48
5248180,50
5248796,47
5249424,46
5250056,36
5250672,32
5251300,22
5251924,13
5252552,14
5253180,23
5253800,21
5254428,15
5255048,29
5255680,38
5256308,44
5256928,49
5257556,40
5258180,35
5258804,35
5259432,33
5260056,30
5260684,23
5261308,18
5261936,12
5262564,20
5263188,37
5263820,43
5264448,48
5265064,39
5265696,29
5266316,24
5266948,24
5267576,18
5268200,13
5268828,10
5269452,10
5270076,27
5270704,56
5271328,16
5271956,22
5272588,42
5273208,49
5273836,45
5274460,43
5275092,51
5275720,43
5276340,19
5276968,47
5277592,32
5278216,31
5278844,14
5279464,19
5280092,48
5280716,48
5281340,44
5281968,44
5282584,46
5283212,44
5283836,36
5284464,25
5285092,10
5285716,18
5286344,27
5286976,28
5287592,28
5288220,37
5288844,48
5289472,20
5290104,61
5290720,55
5291348,45
5291972,16
5292596,42
5293228,16
5293848,54
5294476,60
5295100,50
5295728,39
5296356,36
5296980,116
5297664,137
5298336,140
5299012,120
5299692,84
5300316,45
5300936,13
5301564,22
5302188,35
5302812,38
5303444,28
5304064,19
5304692,30
5305316,46
5305940,42
5306572,44
5307192,41
5307820,40
5308452,42
5309072,41
5309700,32
5310328,27
5310956,28
5311588,14
5312208,36
5312836,48
5313460,41
5314084,49
5314712,49
5315336,61
5315964,64
5316588,48
5317212,25
5317844,10
5318468,17
5319096,21
5319728,27
5320348,26
5320976,27
5321600,27
5322228,14
5322860,14
5323480,21
5324112,38
5324736,39
5325360,32
5325988,20
5326608,11
5327236,13
5327860,13
5328484,17
5329112,21
5329736,29
5330364,40
5330992,48
5331616,60
5332244,67
5332868,55
5333496,41
5334128,28
5334744,16
5335376,13
5336000,24
5336620,32
5337252,38
5337872,33
5338500,29
5339124,23
5339748,20
5340380,14
5341000,13
5341632,32
5342260,35
5342880,28
5343508,24
5344132,20
5344764,14
5345392,17
5346008,20
5346640,33
5347260,44
5347884,55
5348516,54
5349136,55
5349764,70
5350388,71
5351016,58
5351644,27
5352268,18
5352900,34
5353528,42
5354148,36
5354776,29
5355400,29
5356032,30
5356660,30
5357280,36
5357908,40
5358536,41
5359160,29
5359788,35
5360408,47
5361036,47
5361660,35
5362288,25
5362916,11
5363540,26
5364172,26
5364800,47
5365424,95
5366052,37
5366676,61
5367304,148
5367984,138
5368652,38
5369276,15
5369908,31
5370528,30
5371160,19
5371784,24
5372412,39
5373044,44
5373664,49
5374292,51
5374920,51
5375544,47
5376176,35
5376792,33
5377420,29
5378044,12
5378672,46
5379300,61
5379924,63
5380552,54
5381184,51
5381800,49
5382428,46
5383052,41
5383680,28
5384312,11
5384928,17
5385556,23
5386184,24
5386808,19
5387436,12
5388056,13
5388684,18
5389308,22
5389936,30
5390564,38
5391188,38
5391820,33
5392452,34
5393072,36
5393700,40
5394324,16
5394952,23
5395580,13
5396200,11
5396828,13
5397452,13
5398076,17
5398708,29
5399328,46
5399960,56
5400588,78
5401208,104
5401888,92
5402512,55
5403140,26
5403772,12
5404392,18
5405020,26
5405648,41
5406272,51
5406900,48
5407520,41
5408148,33
5408780,25
5409400,19
5410028,16
5410652,18
5411280,18
5411912,13
5412528,12
5413156,29
5413780,33
5414408,37
5415036,50
5415656,53
5416288,49
5416912,43
5417536,31
5418164,16
5418784,11
5419416,15
5420044,22
5420664,19
5421296,21
5421920,29
5422548,35
5423180,42
5423800,47
5424432,49
5425056,45
5425680,44
5426308,29
5426928,20
5427560,15
5428180,22
5428804,75
5429432,72
5430056,51
5430684,28
5431316,16
5431936,16
5432568,18
5433188,29
5433820,28
5434452,22
5435072,11
5435700,12
5436328,12
5436952,19
5437580,56
5438200,68
5438832,18
5439456,27
5440080,26
5440708,26
5441328,27
5441956,46
5442584,44
5443208,19
5443836,15
5444460,25
5445088,15
5445720,12
5446336,30
5446968,37
5447588,39
5448216,43
5448844,43
5449464,42
5450092,34
5450716,30
5451340,21
5451972,16
5452592,13
5453220,10
5453852,16
5454472,32
5455100,35
5455724,35
5456356,36
5456984,35
5457600,33
5458232,21
5458856,13
5459480,19
5460108,24
5460728,20
5461356,13
5461980,15
5462604,29
5463236,44
5463856,49
5464484,49
5465116,52
5465736,53
5466364,49
5466988,40
5467620,25
5468248,12
5468872,11
5469500,20
5470124,40
5470748,62
5471380,72
5472000,76
5472628,70
5473252,50
5473876,49
5474508,30
5475128,74
5475760,137
5476440,70
5477064,13
5477696,27
5478320,24
5478944,21
5479572,12
5480192,32
5480820,46
5481444,41
5482068,38
5482700,36
5483320,33
5483952,21
5484580,27
5485200,24
5485828,12
5486452,17
5487084,16
5487716,20
5488336,27
5488964,18
5489588,18
5490212,21
5490844,35
5491464,47
5492092,38
5492716,32
5493340,30
5493972,25
5494596,18
5495228,11
5495856,23
5496476,41
5497104,51
5497732,52
5498360,59
5498992,57
5499608,58
5500236,51
5500864,19
5501488,11
5502116,25
5502736,13
5503368,18
5503992,23
5504616,31
5505248,38
5505872,49
5506500,53
5507132,66
5507752,73
5508384,63
5509008,55
5509636,35
5510268,10
5510888,14
5511516,16
5512144,25
5512768,58
5513396,32
5514016,55
5514648,122
5515328,101
5516004,90
5516632,150
5517308,187
5517988,96
5518616,19
5519240,23
5519872,36
5520504,34
5521120,38
5521748,41
5522376,43
5523000,46
5523632,47
5524248,45
5524880,40
5525508,37
5526128,35
5526760,33
5527384,29
5528016,19
5528644,11
5529264,22
5529896,34
5530520,44
5531140,46
5531772,51
5532392,63
5533020,71
5533648,59
5534268,34
5534900,15
5535520,11
5536148,19
5536780,22
5537400,24
5538028,29
5538652,32
5539284,33
5539912,34
5540536,33
5541164,32
5541792,31
5542416,29
5543044,27
5543664,30
5544296,25
5544920,13
5545544,17
5546176,31
5546792,45
5547424,47
5548056,58
5548672,65
5549304,70
5549928,59
5550560,55
5551188,37
5551808,15
5552440,31
5553064,13
5553688,38
5554320,65
5554936,52
5555568,41
5556192,43
5556816,52
5557444,57
5558064,29
5558696,27
5559324,20
5559944,14
5560576,26
5561200,13
5561832,23
5562460,17
5563080,32
5563712,49
5564336,61
5564960,61
5565592,53
5566212,45
5566840,34
5567468,20
5568092,11
5568720,10
5569344,11
5569976,11
5570604,14
5571224,24
5571852,28
5572476,33
5573108,34
5573736,35
5574360,35
5574992,29
5575616,25
5576240,25
5576868,24
5577488,19
5578120,12
5578744,16
5579368,31
5579996,44
5580624,51
5581256,42
5581884,15
5582504,19
5583132,26
5583760,33
5584388,29
5585020,36
5585640,51
5586268,19
5586892,84
5587516,66
5588148,23
5588768,34
5589400,59
5590028,100
5590700,24
5591328,13
5591952,11
5592584,28
5593212,28
5593832,25
5594464,24
5595088,13
5595712,23
5596344,43
5596960,53
5597592,53
5598224,45
5598844,34
5599472,31
5600100,28
5600728,19
5601356,13
5601976,11
5602604,11
5603228,17
5603852,19
5604484,24
5605104,31
5605736,35
5606360,37
5606984,36
5607612,33
5608232,36
5608860,35
5609492,32
5610112,33
5610744,25
5611368,15
5611996,17
5612628,35
5613248,55
5613876,60
5614504,59
5615128,51
5615756,43
5616376,43
5617004,27
5617628,22
5618252,19
5618884,12
5619504,11
5620136,11
5620764,10
5621384,18
5622016,23
5622640,25
5623268,27
5623900,32
5624520,30
5625152,35
5625776,36
5626400,43
5627028,46
5627648,32
5628280,14
5628904,19
5629528,40
5630156,47
5630776,43
5631408,40
5632040,40
5632656,50
5633284,45
5633908,30
5634536,37
5635164,43
5635784,18
5636412,21
5637036,27
5637660,31
5638292,30
5638912,34
5639540,39
5640164,36
5640788,15
5641420,16
5642040,30
5642668,27
5643300,10
5643920,28
5644548,21
5645172,12
5645804,24
5646432,37
5647056,43
5647684,45
5648308,45
5648932,47
5649564,42
5650184,35
5650816,18
5651440,20
5652064,31
5652692,34
5653316,33
5653948,23
5654576,16
5655192,23
5655824,28
5656448,18
5657076,15
5657708,12
5658328,20
5658956,45
5659580,44
5660204,26
5660832,12
5661456,23
5662084,24
5662708,29
5663336,43
5663964,49
5664588,43
5665220,33
5665852,12
5666472,17
5667100,13
5667728,17
5668356,15
5668988,14
5669608,15
5670236,33
5670864,13
5671488,14
5672120,13
5672736,31
5673368,60
5673996,22
5674616,35
5675248,47
5675872,46
5676500,41
5677132,40
5677752,33
5678384,13
5679008,18
5679632,35
5680264,44
5680880,49
5681508,49
5682136,49
5682760,46
5683388,37
5684008,23
5684636,11
5685268,10
5685888,15
5686516,27
5687140,28
5687772,35
5688404,34
5689024,35
5689656,38
5690276,33
5690904,13
5691532,12
5692152,49
5692784,77
5693408,73
5694032,56
5694664,22
5695284,15
5695912,20
5696544,100
5697220,120
5697896,108
5698576,107
5699252,68
5699876,39
5700500,20
5701128,11
5701756,18
5702376,26
5703008,34
5703632,30
5704256,26
5704888,21
5705504,13
5706136,14
5706768,23
5707388,35
5708020,31
5708644,28
5709276,23
5709904,26
5710524,22
5711156,13
5711780,17
5712408,29
5713036,38
5713656,30
5714288,27
5714912,34
5715536,29
5716168,34
5716784,29
5717416,11
5718048,26
5718664,32
5719296,29
5719920,41
5720552,35
5721184,27
5721804,78
5722432,68
5723056,27
5723680,24
5724312,35
5724932,31
5725560,28
5726184,29
5726812,24
5727444,19
5728068,12
5728700,13
5729328,27
5729952,42
5730584,49
5731208,51
5731840,50
5732468,49
5733088,42
5733720,31
5734348,18
5734976,11
5735604,11
5736224,19
5736852,21
5737484,24
5738104,29
5738732,33
5739356,39
5739988,41
5740620,36
5741240,29
5741868,25
5742492,26
5743116,32
5743748,32
5744368,32
5744996,15
5745620,14
5746244,33
5746876,58
5747496,94
5748124,104
5748808,98
5749424,84
5750052,43
5750680,12
5751304,14
5751932,21
5752552,22
5753184,20
5753808,20
5754432,48
5755064,64
5755680,60
5756312,47
5756944,31
5757560,30
5758192,45
5758816,35
5759448,54
5760076,10
5760692,22
5761324,13
5761944,13
5762568,29
5763196,41
5763816,46
5764444,48
5765068,48
5765692,45
5766324,40
5766944,34
5767572,21
5768204,10
5768824,12
5769452,18
5770076,18
5770708,14
5771336,24
5771956,37
5772584,44
5773212,47
5773832,44
5774464,43
5775084,40
5775712,33
5776336,32
5776960,25
5777588,18
5778208,11
5778836,35
5779468,76
5780088,96
5780716,82
5781340,63
5781972,51
5782600,40
5783224,33
5783852,25
5784480,13
5785100,11
5785732,11
5786352,20
5786980,28
5787604,36
5788228,40
5788856,42
5789480,41
5790108,34
5790740,18
5791360,18
5791988,11
5792616,33
5793244,43
5793876,39
5794496,33
5795124,12
5795752,25
5796376,44
5797004,55
5797624,95
5798252,93
5798880,72
5799500,50
5800132,23
5800752,15
5801384,12
5802012,10
5802632,17
5803264,25
5803888,35
5804516,43
5805148,54
5805768,59
5806400,49
5807020,47
5807648,24
5808276,13
5808896,31
5809524,48
5810152,42
5810776,37
5811408,101
5812076,74
5812704,49
5813332,47
5813952,44
5814584,33
5815208,26
5815832,29
5816464,35
5817080,39
5817708,29
5818332,11
5818960,37
5819588,12
5820208,33
5820836,37
5821468,40
5822088,45
5822716,47
5823344,45
5823976,38
5824608,32
5825224,26
5825852,22
5826480,19
5827104,16
5827732,12
5828352,17
5828980,28
5829608,44
5830232,47
5830860,48
5831480,51
5832112,49
5832740,45
5833360,37
5833992,28
5834616,19
5835248,12
5835876,26
5836496,54
5837128,63
5837752,70
5838376,64
5839008,56
5839624,49
5840252,15
5840876,38
5841500,48
5842132,57
5842756,23
5843388,16
5844016,24
5844632,14
5845264,13
5845888,27
5846520,41
5847148,45
5847768,50
5848396,51
5849024,45
5849648,31
5850276,18
5850896,16
5851524,16
5852152,14
5852776,21
5853408,43
5854032,26
5854664,20
5855296,20
5855912,49
5856544,47
5857172,27
5857800,12
5858428,23
5859048,31
5859680,29
5860304,21
5860928,13
5861556,12
5862176,23
5862808,40
5863436,44
5864056,47
5864684,48
5865308,49
5865940,39
5866572,28
5867192,23
5867824,11
5868448,11
5869072,12
5869704,15
5870320,12
5870952,11
5871576,15
5872200,27
5872832,33
5873452,34
5874080,30
5874712,25
5875332,24
5875964,23
5876588,24
5877220,19
5877852,12
5878472,16
5879104,32
5879728,47
5880352,51
5880984,54
5881600,54
5882228,48
5882856,35
5883480,24
5884112,11
5884732,21
5885364,35
5885992,55
5886616,57
5887248,41
5887876,30
5888508,14
5889136,18
5889756,15
5890384,14
5891008,27
5891632,67
5892264,16
5892880,62
5893508,73
5894136,23
5894760,12
5895388,15
5896016,13
5896644,40
5897276,54
5897896,36
5898528,26
5899152,27
5899780,24
5900412,16
5901032,27
5901660,52
5902284,53
5902908,21
5903540,16
5904160,13
5904788,43
5905420,58
5906040,40
5906668,28
5907292,24
5907924,41
5908556,49
5909176,42
5909804,32
5910432,24
5911056,19
5911684,11
5912304,24
5912936,42
5913560,47
5914184,52
5914816,54
5915436,65
5916064,65
5916696,45
5917316,25
5917948,12
5918572,10
5919204,13
5919832,19
5920456,21
5921088,31
5921712,34
5922336,35
5922964,34
5923584,32
5924216,30
5924840,32
5925460,26
5926092,22
5926712,19
5927340,15
5927972,11
5928592,23
5929224,38
5929848,51
5930476,43
5931108,40
5931728,42
5932360,37
5932984,29
5933608,21
5934236,14
5934856,12
5935488,11
5936112,18
5936736,12
5937368,22
5937992,34
5938624,61
5939256,60
5939872,37
5940500,25
5941124,35
5941756,33
5942384,34
5943008,33
5943640,43
5944264,63
5944888,23
5945516,24
5946136,39
5946768,44
5947392,46
5948016,45
5948644,48
5949272,51
5949900,48
5950532,36
5951152,15
5951784,13
5952408,15
5953032,15
5953660,14
5954280,24
5954908,26
5955536,31
5956160,31
5956788,32
5957408,31
5958040,29
5958668,27
5959288,28
5959920,28
5960544,25
5961172,14
5961804,14
5962424,32
5963052,46
5963680,52
5964304,55
5964936,55
5965552,54
5966184,48
5966804,37
5967432,24
5968060,14
5968680,11
5969308,16
5969940,22
5970560,22
5971188,28
5971816,31
5972448,32
5973076,38
5973696,39
5974328,44
5974952,43
5975576,40
5976208,34
5976828,23
5977460,21
5978084,14
5978708,26
5979340,62
5979960,60
5980592,49
5981224,43
5981840,39
5982472,63
5983096,65
5983728,29
5984356,10
5984976,19
5985604,30
5986228,36
5986856,27
5987484,12
5988104,31
5988736,61
5989360,58
5989984,40
5990616,45
5991240,15
5991868,68
5992500,87
5993120,36
5993752,24
5994376,15
5995008,17
5995636,32
5996256,49
5996888,44
5997512,35
5998136,31
5998768,32
5999384,35
6000016,32
6000648,28
6001264,20
6001896,11
6002520,14
6003148,19
6003780,21
6004400,29
6005028,31
6005656,32
6006280,32
6006912,33
6007528,32
6008160,32
6008784,31
6009408,31
6010040,26
6010656,17
6011288,11
6011916,20
6012536,39
6013168,50
6013792,52
6014424,55
6015056,52
6015672,49
6016308,42
6016932,34
6017556,21
6018184,12
6018808,10
6019436,19
6020064,32
6020688,46
6021316,48
6021936,55
6022568,59
6023196,68
6023816,50
6024448,13
6025072,16
6025700,19
6026332,12
6026952,37
6027584,67
6028208,57
6028832,20
6029460,25
6030080,53
6030712,29
6031336,35
6031960,57
6032592,70
6033216,55
6033848,39
6034480,16
6035096,11
6035728,17
6036352,23
6036984,23
6037616,31
6038232,35
6038864,36
6039492,33
6040116,33
6040748,30
6041368,30
6042000,31
6042628,27
6043248,25
6043876,18
6044504,12
6045132,12
6045764,18
6046384,31
6047016,37
6047640,47
6048264,49
6048892,36
6049512,41
6050144,51
6050768,27
6051392,17
6052024,11
6052640,17
6053272,19
6053900,15
6054520,13
6055152,15
6055776,45
6056408,61
6057036,58
6057656,45
6058288,34
6058912,41
6059536,40
6060168,13
6060784,11
6061420,19
6062044,18
6062672,101
6063352,148
6064028,96
6064648,63
6065276,50
6065896,42
6066528,32
6067152,17
6067776,11
6068408,11
6069028,16
6069660,25
6070288,26
6070912,34
6071544,36
6072168,40
6072800,40
6073428,36
6074048,33
6074680,32
6075304,31
6075928,26
6076560,20
6077180,17
6077812,11
6078436,16
6079060,32
6079692,45
6080312,48
6080944,47
6081572,43
6082192,43
6082824,37
6083448,25
6084076,15
6084708,10
6085328,14
6085956,14
6086584,15
6087208,11
6087836,16
6088456,25
6089084,26
6089712,29
6090336,32
6090968,33
6091592,34
6092224,35
6092852,36
6093472,29
6094100,21
6094724,15
6095356,15
6095988,44
6096608,70
6097240,74
6097864,77
6098488,61
6099120,54
6099736,40
6100368,17
6101000,18
6101616,29
6102248,37
6102876,44
6103508,34
6104140,36
6104760,14
6105392,35
6106016,52
6106640,21
6107272,26
6107888,39
6108520,41
6109144,38
6109768,32
6110400,24
6111016,20
6111648,11
6112280,21
6112904,34
6113536,45
6114160,48
6114792,49
6115424,51
6116044,52
6116672,52
6117300,39
6117924,24
6118556,10
6119176,15
6119808,24
6120432,27
6121056,29
6121688,31
6122312,36
6122944,40
6123576,39
6124192,38
6124824,33
6125448,31
6126080,27
6126708,23
6127328,17
6127960,12
6128588,28
6129212,46
6129844,52
6130464,52
6131096,51
6131728,44
6132348,29
6132980,11
6133604,14
6134236,23
6134868,21
6135488,21
6136120,23
6136748,13
6137372,35
6138008,43
6138624,47
6139256,20
6139884,41
6140512,37
6141144,20
6141768,22
6142400,41
6143032,41
6143652,27
6144288,24
6144908,26
6145540,13
6146168,23
6146784,16
6147412,43
6148036,109
6148712,130
6149388,82
6150008,49
6150636,13
6151268,16
6151888,20
6152516,19
6153140,13
6153768,20
6154396,13
6155016,27
6155648,35
6156272,35
6156896,37
6157524,41
6158148,41
6158780,30
6159408,27
6160032,23
6160660,20
6161284,17
6161912,14
6162544,16
6163164,39
6163792,52
6164420,67
6165044,75
6165672,65
6166292,80
6166920,87
6167544,31
6168172,21
6168800,33
6169424,26
6170056,21
6170684,26
6171304,32
6171936,34
6172560,37
6173188,41
6173820,40
6174440,41
6175072,37
6175696,32
6176320,37
6176948,35
6177568,20
6178196,15
6178828,27
6179448,38
6180080,24
6180704,15
6181332,30
6181964,63
6182584,47
6183212,23
6183836,32
6184464,60
6185096,54
6185712,78
6186340,47
6186964,16
6187592,29
6188220,35
6188840,37
6189468,38
6190100,38
6190720,41
6191352,40
6191976,46
6192608,53
6193240,40
6193856,29
6194488,15
6195112,19
6195736,34
6196368,54
6196988,67
6197616,59
6198244,52
6198868,54
6199500,47
6200120,33
6200752,19
6201384,10
6202000,12
6202632,17
6203256,17
6203888,21
6204516,25
6205136,33
6205768,35
6206392,35
6207016,37
6207648,33
6208268,30
6208896,30
6209520,29
6210144,27
6210776,19
6211400,11
6212028,17
6212660,34
6213280,39
6213912,44
6214536,51
6215168,60
6215796,67
6216416,55
6217048,33
6217672,20
6218296,11
6218928,27
6219544,44
6220176,56
6220808,55
6221424,50
6222056,50
6222680,59
6223312,44
6223944,13
6224564,11
6225192,41
6225820,60
6226444,17
6227076,19
6227696,12
6228324,12
6228952,11
6229576,44
6230208,74
6230824,67
6231456,70
6232088,88
6232704,68
6233336,38
6233960,18
6234588,11
6235220,14
6235840,19
6236472,23
6237096,26
6237720,33
6238352,36
6238972,39
6239604,39
6240228,30
6240852,21
6241480,20
6242104,21
6242732,22
6243364,26
6243984,30
6244616,23
6245240,12
6245872,29
6246500,46
6247120,48
6247748,48
6248372,51
6248996,53
6249624,40
6250248,23
6250876,15
6251500,11
6252128,22
6252756,33
6253384,25
6254012,30
6254644,16
6255264,33
6255896,24
6256520,14
6257152,32
6257780,42
6258400,47
6259028,43
6259656,36
6260280,29
6260912,15
6261528,18
6262160,37
6262788,50
