tempo_arduino_micro_s,valor_ADC
500,16
1004,17
1504,17
2000,16
2508,14
3000,16
3508,23
4000,26
4508,25
5000,24
5500,18
6000,12
6500,12
7004,11
7500,10
8000,13
8500,14
9000,15
9500,15
10000,17
10516,16
11036,12
11564,10
12084,10
12612,10
13132,11
13660,12
14180,16
14708,26
15228,32
15756,28
16276,25
16796,18
17316,16
17836,15
18356,16
18876,16
19396,15
19916,23
20436,32
20956,33
21476,29
21996,23
22516,18
23036,15
23564,10
24084,10
24612,12
25132,14
25660,15
26180,16
26708,15
27228,17
27756,14
28276,11
28804,11
29324,11
29852,12
30372,13
30900,14
31420,19
31948,23
32468,26
32996,20
33516,15
34044,15
34564,15
35092,16
35612,16
36140,13
36660,22
37188,30
37708,30
38236,30
38760,26
39284,21
39804,18
40332,12
40852,11
41372,14
41892,18
42412,17
42932,17
43452,15
43972,16
44492,15
45012,15
45532,13
46052,12
46572,12
47092,14
47612,17
48140,23
48660,17
49188,17
49708,14
50236,15
50756,17
51284,16
51804,15
52332,15
52852,15
53380,15
53900,20
54428,24
54948,23
55476,25
55996,23
56524,13
57044,11
57572,12
58096,11
58620,22
59140,22
59668,17
60188,16
60716,16
61240,10
61764,12
62284,17
62812,14
63332,10
63860,10
64384,10
64908,12
65428,20
65948,31
66468,28
66988,15
67508,16
68028,18
68548,16
69068,17
69588,15
70108,16
70628,22
71148,26
71672,25
72192,22
72716,19
73236,16
73764,12
74284,11
74812,14
75332,14
75860,15
76384,16
76908,17
77428,18
77956,13
78476,12
79004,10
79528,11
80052,11
80572,10
81100,14
81620,20
82148,17
82668,18
83196,21
83720,17
84244,16
84764,15
85292,16
85812,17
86340,19
86860,22
87388,18
87908,22
88436,18
88956,14
89484,12
90004,11
90524,10
91044,11
91564,18
92084,18
92604,16
93124,17
93644,16
94164,14
94684,11
95208,12
95724,12
96248,13
96764,13
97292,15
97812,11
98340,10
98860,14
99388,21
99908,18
100436,15
101000,22
101584,21
102156,18
102736,14
103304,18
103880,17
104456,20
105024,17
105600,14
106168,17
106744,12
107312,11
107896,12
108464,20
109040,17
109624,15
110192,16
110776,16
111344,11
111928,11
112500,11
113080,10
113648,13
114224,15
114808,22
115376,35
115960,36
116528,24
117112,14
117684,15
118256,16
118840,17
119408,18
119992,19
120564,26
121144,36
121716,32
122296,21
122864,18
123444,17
124024,12
124592,13
125176,15
125744,16
126328,15
126896,15
127472,14
128056,12
128624,12
129200,12
129768,14
130344,24
130912,13
131496,14
132064,14
132640,36
133224,34
133792,20
134368,15
134936,18
135520,16
136088,22
136664,31
137240,30
137808,33
138392,30
138960,25
139544,22
140112,15
140696,12
141268,17
141840,19
142424,18
142992,16
143576,15
144144,16
144728,13
145296,11
145872,12
146448,11
147016,11
147600,11
148168,21
148752,18
149320,15
149904,17
150476,15
151048,17
151632,15
152204,16
152784,15
153356,19
153936,21
154504,27
155088,24
155664,22
156232,21
156816,19
157384,15
157968,13
158540,17
159120,15
159692,15
160268,15
160848,14
161416,12
161992,11
162560,12
163144,11
163716,11
164296,13
164872,19
165440,24
166016,24
166584,21
167168,15
167736,16
168312,17
168880,15
169456,17
170032,14
170600,14
171184,20
171752,23
172336,25
172904,23
173488,13
174056,13
174636,18
175216,18
175784,18
176368,17
176936,16
177520,16
178088,13
178664,16
179248,16
179816,13
180392,14
180960,14
181544,19
182112,23
182696,23
183264,27
183840,15
184424,16
184992,16
185568,23
186140,25
186720,29
187288,32
187864,26
188448,26
189016,22
189600,18
190168,11
190752,13
191324,11
191904,13
192476,15
193048,17
193632,18
194200,15
194784,11
195352,13
195936,12
196504,11
197080,15
197664,16
198232,22
198816,22
199384,26
199968,19
200540,15
201120,18
201688,22
202264,23
202848,30
203420,30
204000,27
204568,32
205152,26
205720,17
206288,12
206864,10
207432,10
208008,20
208576,18
209152,15
209720,16
210304,15
210872,14
211448,14
212032,14
212600,15
213176,14
213744,15
214328,13
214900,23
215480,27
216048,23
216624,18
217208,14
217776,18
218360,17
218928,16
219512,15
220084,20
220656,29
221240,32
221808,31
222392,22
222964,15
223544,11
224116,11
224696,13
225264,16
225844,15
226424,16
226992,16
227576,15
228144,12
228728,10
229296,10
229872,13
230456,17
231024,12
231608,19
232176,19
232760,20
233332,19
233912,15
234484,15
235056,16
235640,18
236208,15
236792,19
237364,25
237944,27
238516,29
239092,23
239672,11
240244,11
240824,13
241392,11
241976,13
242544,18
243128,20
243700,18
244272,16
244856,11
245424,14
246008,10
246576,11
247160,11
247728,11
248304,14
248888,25
249456,31
250040,27
250608,19
251192,20
251764,20
252344,23
252916,39
253492,34
254072,33
254644,35
255224,28
255796,18
256376,11
256952,13
257520,11
258104,18
258672,23
259248,22
259816,15
260392,15
260960,15
261544,11
262112,11
262688,11
263272,16
263840,19
264424,24
264992,27
265576,23
266148,18
266724,15
267304,18
267872,15
268456,16
269028,17
269608,17
270176,23
270760,30
271328,32
271908,29
272488,21
273056,21
273640,17
274208,15
274792,16
275364,17
275936,16
276520,15
277088,15
277672,11
278244,11
278824,15
279396,15
279976,16
280548,19
281124,22
281704,28
282272,26
282856,22
283428,16
284008,15
284576,16
285156,15
285736,16
286308,15
286888,21
287456,26
288040,28
288608,24
289184,21
289752,24
290328,19
290912,15
291484,13
292064,13
292632,16
293216,15
293784,15
294364,11
294944,11
295516,15
296096,17
296668,14
297248,10
297816,15
298400,18
298968,23
299548,17
300128,15
300700,15
301280,15
301860,15
302440,17
303012,17
303588,14
304168,21
304740,33
305320,28
305892,18
306472,14
307052,11
307632,15
308208,17
308784,16
309368,20
309936,21
310520,16
311092,13
311672,16
312244,15
312820,11
313400,12
313972,10
314552,14
315124,15
315704,17
316276,22
316856,16
317428,16
318004,18
318584,17
319156,17
319736,18
320316,22
320896,30
321464,29
322040,19
322624,20
323192,18
323776,10
324348,14
324928,15
325496,17
326080,16
326648,16
327224,18
327808,14
328376,10
328952,10
329520,11
330104,11
330672,12
331248,16
331832,22
332404,27
332984,19
333552,15
334128,16
334696,17
335280,15
335848,16
336424,19
337008,18
337576,24
338160,25
338728,21
339312,17
339880,13
340456,11
341040,12
341608,18
342192,18
342764,15
343344,15
343912,16
344496,12
345064,12
345644,11
346224,11
346796,14
347376,17
347948,18
348528,16
349096,18
349672,18
350256,15
350828,15
351408,17
351980,17
352560,15
353136,25
353720,26
354288,30
354868,32
355448,26
356020,19
356600,15
357172,11
357752,13
358324,17
358900,15
359480,15
360048,16
360632,18
361204,15
361784,15
362352,14
362936,13
363508,11
364084,11
364664,16
365236,22
365816,29
366388,32
366968,21
367540,15
368116,18
368696,17
369264,22
369848,27
370416,26
371000,23
371572,24
372152,21
372724,18
373296,15
373880,11
374448,11
375032,17
375604,17
376184,15
376756,17
377332,19
377912,13
378484,12
379064,13
379636,11
380216,12
380788,19
381368,28
381948,24
382524,15
383104,15
383676,14
384260,16
384832,17
385416,16
385988,16
386560,21
387144,27
387716,30
388296,32
388868,19
389448,14
390016,11
390600,11
391176,11
391748,15
392328,18
392896,18
393480,16
394052,15
394632,11
395204,14
395780,11
396360,11
396932,10
397512,12
398084,15
398664,22
399236,28
399816,23
400400,16
400972,15
401552,17
402124,18
402704,15
403276,14
403856,15
404428,20
405004,25
405584,25
406156,22
406736,11
407308,13
407888,17
408460,20
409040,17
409616,16
410184,16
410760,15
411328,11
411912,13
412480,14
413064,17
413632,24
414208,28
414792,30
415360,24
415944,26
416516,16
417096,21
417664,27
418248,25
418824,24
419392,19
419976,21
420544,22
421128,21
421696,18
422280,21
422852,18
423424,14
424008,14
424576,15
425152,17
425720,15
426304,15
426872,16
427456,15
428028,10
428600,13
429184,11
429756,10
430336,11
430908,13
431488,18
432060,23
432632,20
433216,17
433788,16
434368,18
434940,17
435520,16
436088,15
436672,19
437240,22
437816,24
438400,25
438968,24
439552,21
440124,16
440704,11
441272,11
441852,14
442432,14
443000,17
443584,16
444156,15
444736,12
445308,15
445888,13
446460,11
447036,11
447616,12
448188,20
448768,21
449336,22
449920,20
450488,16
451068,16
451648,20
452216,18
452800,14
453368,18
453952,20
454524,24
455104,22
455676,20
456252,16
456832,13
457404,11
457984,12
458556,16
459136,15
459708,18
460284,19
460864,15
461432,11
462008,11
462576,11
463160,10
463732,10
464312,11
464884,11
465456,14
466040,25
466608,28
467192,16
467764,15
468344,19
468916,21
469492,26
470072,27
470644,25
471224,27
471796,24
472376,21
472948,18
473528,15
474108,10
474684,10
475264,14
475836,15
476416,16
476996,14
477576,13
478148,11
478724,11
479304,14
479876,11
480456,11
481028,12
481608,20
482176,23
482760,15
483336,15
483908,15
484488,16
485056,17
485640,16
486212,15
486792,20
487368,22
487944,24
488528,24
489100,23
489680,21
490248,17
490832,12
491404,11
491984,15
492568,15
493136,16
493720,14
494292,14
494872,10
495444,11
496024,12
496592,15
497172,17
497752,17
498324,20
498904,23
499476,25
500056,18
500628,16
501204,19
501784,19
502356,18
502936,16
503508,21
504088,26
504668,26
505248,25
505820,17
506396,16
506976,16
507548,12
508128,12
508700,14
509280,16
509860,16
510436,15
511016,13
511592,19
512172,17
512740,17
513320,16
513888,13
514464,15
515032,22
515612,28
516192,32
516760,22
517344,17
517912,17
518496,19
519064,27
519640,28
520224,28
520792,29
521376,34
521948,29
522528,24
523096,19
523680,13
524248,11
524824,14
525408,16
525976,15
526560,16
527128,16
527712,12
528284,11
528856,11
529440,11
530008,11
530592,19
531164,19
531744,19
532324,19
532904,24
533472,24
534052,15
534632,17
535204,22
535784,24
536356,29
536936,32
537508,30
538084,24
538664,18
539232,19
539816,18
540388,11
540968,9
541484,11
542064,14
542636,16
543212,15
543792,15
544364,15
544944,13
545516,11
546096,12
546664,15
547248,15
547816,18
548396,18
548976,17
549548,18
550128,17
550700,15
551280,17
551852,19
552428,18
553008,18
553576,21
554160,25
554732,24
555312,16
555884,13
556464,13
557036,12
557612,14
558192,19
558764,19
559344,16
559916,15
560500,17
561076,11
561652,10
562232,11
562804,12
563384,12
563956,17
564536,17
565104,22
565688,21
566260,22
566836,18
567416,15
567988,16
568568,17
569144,17
569728,17
570300,22
570876,28
571456,28
572028,21
572608,19
573180,15
573760,11
574336,11
574920,16
575496,17
576068,16
576648,17
577216,17
577800,11
578368,11
578952,11
579524,10
580096,11
580680,17
581252,21
581832,22
582404,23
582984,21
583556,16
584136,16
584720,17
585292,22
585872,19
586444,18
587024,20
587596,17
588176,25
588756,26
589332,25
589912,19
590484,12
591064,10
591636,15
592216,14
592796,15
593372,16
593952,16
594524,13
595104,11
595676,10
596256,12
596828,11
597408,13
597980,23
598556,29
599136,28
599708,25
600288,18
600868,15
601448,18
602028,18
602604,18
603184,24
603756,28
604336,29
604908,25
605488,26
606060,22
606640,15
607220,13
607796,14
608380,18
608948,20
609528,16
610108,15
610688,18
611268,14
611844,11
612424,11
612996,11
613576,12
614152,17
614732,26
615304,24
615888,27
616464,29
617036,16
617616,15
618184,15
618768,19
619340,23
619920,27
620500,26
621076,21
621656,22
622228,23
622808,20
623380,17
623960,11
624532,10
625108,19
625688,17
626260,15
626840,15
627412,15
627992,12
628564,11
629144,9
629664,12
630236,12
630816,11
631388,16
631968,21
632544,23
633120,27
633700,20
634280,16
634852,16
635428,15
636008,12
636580,20
637160,30
637740,32
638320,34
638900,26
639476,20
640060,16
640628,14
641208,15
641776,18
642360,16
642932,16
643512,16
644084,15
644656,13
645240,11
645808,14
646392,17
646964,15
647544,14
648116,20
648688,20
649272,19
649844,17
650424,17
650992,15
651576,16
652148,15
652728,12
653308,17
653884,31
654464,33
655036,27
655616,19
656192,17
656776,11
657344,11
657920,11
658504,17
659072,17
659656,15
660224,15
660808,16
661376,13
661952,10
662524,11
663096,11
663680,11
664248,11
664832,20
665404,24
665984,24
666552,32
667132,27
667712,16
668280,24
668864,18
669432,19
670016,29
670588,29
671168,25
671740,25
672316,18
672896,14
673464,12
674048,10
674616,12
675200,21
675768,17
676348,15
676928,16
677496,21
678080,16
678648,11
679232,11
679800,13
680384,13
680952,11
681532,12
682112,19
682684,23
683264,28
683836,22
684416,16
684988,16
685560,19
686144,24
686712,18
687296,11
687868,15
688448,17
689020,16
689600,15
690168,15
690748,14
691328,13
691896,15
692480,14
693048,21
693632,19
694204,19
694780,14
695360,11
695932,18
696512,17
697084,16
697664,16
698232,24
698816,25
699388,15
699964,14
700544,15
701116,16
701696,16
702276,16
702856,15
703436,15
704012,21
704592,20
705164,27
705744,23
706316,18
706896,15
707472,14
708052,16
708632,18
709204,17
709784,16
710356,17
710936,14
711516,11
712096,13
712676,11
713252,12
713832,21
714404,27
714984,31
715556,25
716136,16
716716,15
717292,15
717872,16
718444,15
719024,19
719596,22
720176,22
720752,25
721336,32
721908,28
722484,23
723064,27
723636,20
724216,11
724788,15
725368,15
725940,16
726516,16
727096,15
727668,14
728248,11
728820,14
729400,17
729972,10
730552,13
731124,15
731700,22
732280,27
732852,26
733432,21
734004,15
734584,17
735164,22
735740,18
736320,13
736892,14
737472,22
738044,24
738624,17
739196,18
739776,27
740360,18
740932,12
741512,12
742084,14
742664,15
743232,15
743816,15
744388,13
744964,12
745544,11
746116,12
746696,10
747268,14
747848,18
748428,24
749008,25
749584,26
750156,19
750736,16
751308,21
751888,21
752468,15
753048,11
753628,17
754204,26
754784,26
755356,19
755936,20
756508,19
757088,11
757660,12
758236,14
758816,15
759388,17
759968,16
760544,15
761120,11
761692,10
762272,11
762844,13
763420,11
764000,10
764572,14
765152,22
765732,21
766312,22
766892,15
767468,15
768052,15
768620,15
769200,16
769768,11
770352,25
770924,34
771504,25
772076,18
772652,14
773232,11
773804,10
774384,14
774956,18
775536,16
776116,15
776692,14
777272,15
777844,11
778424,13
778992,13
779576,11
780148,10
780728,13
781308,15
781884,14
782464,22
783036,30
783616,22
784196,15
784776,16
785348,17
785924,18
786504,23
787076,24
787656,26
788228,29
788808,27
789384,22
789968,19
790552,11
791124,11
791704,15
792280,16
792856,16
793436,15
794020,14
794596,14
795172,12
795752,10
796328,11
796904,11
797484,13
798064,18
798644,19
799220,19
799800,17
800376,14
800952,18
801524,22
802104,19
802676,19
803256,21
803828,26
804404,23
804984,19
805556,12
806136,15
806716,13
807296,9
807816,11
808392,16
808968,21
809536,22
810120,19
810692,14
811272,15
811852,12
812432,11
813004,12
813580,11
814160,14
814732,21
815312,21
815884,19
816464,14
817044,15
817620,17
818200,18
818772,20
819352,17
819924,22
820504,23
821072,20
821648,17
822216,13
822792,11
823376,11
823944,11
824528,16
825096,18
825680,19
826248,19
826824,17
827400,15
827968,11
828552,11
829124,12
829704,13
830272,15
830856,11
831424,13
832004,19
832584,30
833152,28
833736,19
834304,15
834888,16
835456,19
836040,18
836616,18
837188,18
837768,24
838336,24
838920,23
839500,24
840080,21
840648,12
841216,11
841800,15
842368,18
842952,17
843520,14
844104,15
844676,10
845256,10
845832,11
846400,11
846984,11
847556,12
848136,19
848704,27
849288,28
849856,24
850436,15
851016,18
851588,16
852168,19
852736,23
853320,25
853892,24
854472,20
855048,19
855616,19
856200,21
856772,14
857352,11
857924,15
858504,22
859076,22
859652,17
860232,15
860804,15
861384,12
861956,14
862536,17
863108,15
863688,15
864264,19
864832,26
865416,25
865988,20
866568,17
867136,15
867720,16
868300,18
868876,19
869456,15
870028,17
870608,23
871184,28
871768,27
872340,22
872916,19
873496,11
874068,10
874648,16
875220,19
875800,16
876372,15
876952,15
877524,14
878100,15
878680,14
879252,14
879832,11
880412,11
880992,12
881560,18
882140,15
882720,15
883292,17
883872,14
884444,17
885024,18
885596,23
886176,24
886756,23
887332,14
887912,10
888484,10
889064,11
889636,12
890216,10
890788,12
891364,17
891944,19
892516,17
893096,17
893668,18
894248,17
894820,12
895400,14
895980,11
896556,10
897136,11
897708,16
898288,27
898860,25
899440,26
900012,30
900588,22
901168,15
901736,17
902320,18
902892,19
903472,22
904044,24
904624,28
905196,28
905772,20
906352,13
906924,11
907504,12
908076,13
908656,15
909228,15
909804,16
910384,15
910956,15
911536,11
912108,11
912688,11
913256,13
913840,17
914420,18
914996,22
915576,21
916148,23
916728,18
917308,16
917888,18
918468,16
919044,16
919624,19
920196,25
920776,20
921352,22
921932,27
922504,22
923088,17
923664,12
924236,10
924816,13
925384,19
925968,17
926540,15
927120,16
927700,13
928276,12
928856,12
929428,12
930008,11
930580,22
931160,27
931732,24
932308,21
932888,19
933460,17
934040,15
934612,15
935192,17
935764,19
936344,24
936924,27
937500,28
938080,29
938652,22
939232,17
939812,16
940392,17
940972,14
941548,14
942128,14
942700,14
943280,16
943852,16
944432,16
945012,15
945592,17
946172,11
946752,10
947328,11
947900,16
948480,21
949052,17
949632,22
950212,18
950788,15
951368,18
951940,19
952524,17
953096,21
953672,27
954252,30
954832,30
955416,25
955992,19
956572,14
957144,9
957672,12
958244,12
958824,17
959404,15
959980,17
960564,18
961136,12
961712,18
962284,15
962864,11
963436,12
964016,15
964588,11
965164,11
965744,14
966316,19
966896,19
967476,15
968056,17
968636,23
969212,18
969792,17
970364,19
970944,20
971516,23
972100,21
972676,18
973260,16
973840,11
974412,11
974992,15
975564,15
976144,15
976716,19
977296,18
977876,11
978452,10
979032,11
979604,12
980184,12
980756,11
981336,19
981916,26
982492,32
983072,29
983644,17
984224,18
984796,19
985376,19
985956,18
986536,21
987108,26
987684,25
988264,22
988836,17
989416,13
989988,11
990568,11
991140,14
991716,19
992296,16
992868,15
993448,16
994016,15
994600,11
995172,11
995752,13
996332,11
996908,14
997488,19
998060,21
998640,15
999216,19
999800,19
1000372,15
1000992,15
1001620,16
1002240,19
1002868,15
1003492,14
1004116,25
1004744,34
1005360,28
1005992,21
1006620,16
1007240,12
1007868,14
1008492,17
1009120,16
1009748,16
1010368,17
1010996,18
1011620,11
1012244,11
1012872,10
1013496,11
1014124,15
1014748,21
1015372,24
1016000,31
1016620,31
1017248,16
1017876,20
1018496,26
1019124,31
1019748,29
1020380,17
1021008,16
1021632,19
1022260,14
1022884,27
1023508,24
1024140,18
1024756,15
1025384,19
1026004,17
1026628,15
1027252,17
1027868,15
1028496,15
1029124,11
1029740,11
1030368,11
1030992,14
1031620,19
1032248,23
1032864,26
1033492,19
1034116,15
1034744,16
1035372,17
1035992,17
1036620,16
1037244,18
1037864,27
1038492,29
1039112,25
1039740,27
1040364,17
1040984,11
1041612,12
1042228,15
1042860,15
1043488,15
1044104,16
1044732,11
1045356,10
1045984,11
1046612,13
1047228,22
1047860,22
1048480,23
1049104,25
1049732,24
1050348,17
1050976,15
1051600,21
1052220,25
1052852,26
1053468,24
1054100,25
1054728,24
1055344,21
1055972,17
1056596,17
1057224,12
1057856,10
1058472,16
1059100,15
1059724,16
1060352,15
1060980,16
1061600,17
1062228,15
1062852,19
1063476,15
1064104,12
1064720,16
1065348,19
1065972,30
1066592,20
1067224,20
1067844,22
1068472,22
1069104,19
1069720,20
1070348,26
1070972,26
1071600,25
1072228,17
1072848,18
1073476,22
1074100,17
1074720,16
1075352,17
1075968,15
1076596,17
1077220,16
1077840,11
1078468,10
1079088,11
1079716,11
1080344,11
1080960,14
1081588,19
1082212,18
1082844,20
1083472,21
1084088,15
1084720,15
1085340,16
1085964,16
1086596,18
1087216,17
1087844,15
1088468,18
1089092,18
1089720,14
1090336,13
1090964,11
1091592,16
1092216,19
1092844,16
1093468,15
1094096,15
1094724,10
1095344,11
1095972,11
1096596,11
1097220,13
1097852,13
1098472,21
1099100,22
1099724,21
1100348,17
1100976,15
1101600,16
1102228,15
1102856,15
1103476,21
1104104,28
1104728,30
1105356,25
1105988,24
1106608,24
1107236,11
1107860,13
1108484,17
1109112,16
1109736,16
1110364,15
1110988,15
1111616,12
1112244,10
1112864,12
1113492,12
1114124,12
1114744,16
1115372,22
1115996,25
1116628,21
1117260,16
1117880,19
1118508,18
1119132,17
1119756,16
1120388,14
1121008,17
1121636,24
1122260,18
1122880,19
1123512,14
1124128,11
1124760,11
1125388,14
1126008,18
1126636,17
1127260,15
1127888,11
1128520,12
1129136,13
1129764,11
1130388,11
1131012,17
1131644,22
1132264,20
1132892,19
1133516,17
1134140,15
1134768,16
1135384,16
1136016,16
1136636,18
1137264,23
1137892,34
1138516,32
1139148,20
1139776,18
1140400,14
1141028,11
1141652,15
1142280,15
1142908,14
1143528,17
1144156,19
1144780,14
1145404,13
1146036,10
1146656,11
1147284,12
1147916,12
1148536,18
1149164,22
1149788,24
1150416,15
1151048,15
1151664,17
1152296,16
1152916,22
1153540,24
1154168,24
1154792,31
1155420,27
1156044,18
1156664,17
1157292,12
1157912,11
1158540,15
1159164,16
1159784,15
1160416,16
1161036,15
1161668,13
1162296,14
1162912,12
1163540,11
1164164,11
1164792,13
1165424,14
1166040,19
1166668,23
1167292,19
1167916,16
1168548,18
1169168,21
1169796,25
1170420,30
1171044,34
1171672,30
1172296,22
1172924,17
1173556,12
1174176,11
1174804,11
1175428,14
1176060,15
1176688,15
1177304,15
1177936,13
1178560,11
1179180,10
1179812,10
1180432,14
1181060,16
1181684,24
1182308,25
1182940,22
1183564,21
1184192,16
1184820,14
1185440,15
1186068,21
1186692,29
1187320,34
1187952,30
1188568,24
1189196,17
1189820,15
1190444,10
1191072,10
1191696,13
1192324,15
1192948,16
1193572,18
1194204,16
1194828,10
1195456,13
1196084,14
1196704,12
1197336,15
1197960,19
1198588,21
1199220,22
1199840,23
1200468,15
1201092,16
1201716,16
1202348,15
1202968,21
1203596,27
1204220,26
1204848,24
1205476,16
1206100,13
1206728,11
1207360,11
1207976,12
1208608,18
1209228,21
1209860,16
1210488,15
1211104,12
1211736,11
1212360,12
1212984,12
1213612,10
1214232,11
1214860,13
1215488,18
1216112,25
1216740,21
1217364,15
1217992,17
1218624,21
1219240,19
1219868,15
1220492,20
1221120,27
1221748,25
1222368,19
1223000,13
1223624,11
1224248,11
1224876,11
1225496,16
1226128,15
1226752,15
1227376,15
1228004,12
1228628,11
1229260,12
1229888,10
1230512,14
1231140,19
1231764,27
1232388,24
1233020,23
1233640,19
1234268,15
1234892,16
1235512,15
1236144,13
1236760,26
1237388,21
1238012,22
1238640,22
1239268,24
1239892,22
1240520,12
1241152,11
1241768,15
1242396,15
1243020,14
1243648,16
1244280,15
1244896,11
1245524,11
1246148,12
1246772,11
1247400,12
1248024,15
1248652,17
1249276,17
1249900,19
1250528,17
1251152,16
1251780,17
1252412,16
1253032,17
1253660,20
1254284,27
1254916,31
1255544,25
1256168,20
1256796,14
1257420,12
1258044,14
1258676,15
1259296,16
1259924,17
1260556,14
1261176,13
1261804,11
1262428,11
1263060,10
1263688,13
1264308,19
1264936,24
1265560,23
1266184,15
1266812,16
1267432,16
1268060,15
1268684,15
1269308,15
1269940,13
1270560,23
1271188,32
1271820,34
1272440,30
1273068,20
1273692,11
1274324,10
1274952,12
1275572,15
1276200,15
1276824,17
1277448,16
1278076,14
1278696,15
1279328,12
1279952,11
1280576,11
1281204,12
1281820,20
1282448,23
1283076,24
1283696,18
1284324,15
1284944,15
1285572,16
1286200,16
1286816,23
1287444,25
1288068,29
1288696,28
1289324,22
1289944,19
1290572,11
1291192,11
1291816,17
1292444,16
1293064,15
1293692,14
1294312,14
1294936,13
1295568,15
1296184,13
1296812,11
1297440,15
1298056,20
1298684,21
1299308,23
1299936,22
1300564,16
1301184,17
1301812,18
1302436,20
1303056,16
1303688,13
1304304,12
1304932,14
1305556,19
1306180,23
1306812,14
1307432,11
1308060,12
1308692,16
1309312,16
1309940,17
1310564,19
1311196,15
1311824,11
1312440,12
1313068,13
1313692,11
1314312,11
1314944,17
1315560,19
1316188,18
1316808,18
1317432,15
1318060,16
1318680,16
1319308,15
1319932,19
1320552,24
1321184,27
1321804,21
1322432,19
1323060,21
1323680,21
1324308,17
1324928,16
1325560,16
1326188,15
1326808,16
1327436,16
1328060,13
1328680,14
1329308,16
1329928,13
1330556,11
1331180,11
1331804,16
1332432,24
1333048,25
1333676,17
1334304,16
1334920,16
1335552,16
1336172,12
1336804,25
1337432,34
1338048,35
1338676,29
1339300,28
1339924,31
1340552,16
1341168,13
1341796,16
1342420,16
1343040,16
1343672,15
1344288,15
1344916,11
1345544,10
1346168,13
1346796,10
1347416,13
1348048,18
1348676,22
1349296,24
1349924,20
1350548,16
1351172,15
1351804,16
1352424,17
1353052,16
1353672,21
1354296,27
1354924,28
1355544,25
1356172,24
1356796,17
1357420,11
1358048,11
1358672,16
1359300,16
1359928,15
1360552,15
1361180,11
1361804,11
1362432,11
1363060,10
1363680,11
1364308,14
1364928,21
1365552,24
1366180,24
1366800,23
1367428,17
1368052,15
1368672,16
1369304,17
1369924,21
1370556,23
1371184,27
1371800,28
1372432,19
1373056,16
1373684,11
1374312,10
1374928,12
1375560,18
1376184,16
1376804,15
1377432,16
1378056,20
1378684,17
1379308,14
1379932,12
1380560,11
1381176,12
1381804,12
1382436,16
1383052,19
1383684,15
1384304,16
1384936,16
1385564,14
1386184,16
1386812,19
1387436,21
1388060,22
1388688,21
1389308,21
1389936,16
1390560,11
1391184,13
1391812,20
1392432,21
1393060,17
1393692,15
1394312,15
1394940,11
1395564,10
1396192,13
1396820,16
1397440,18
1398068,19
1398692,19
1399316,22
1399944,17
1400560,16
1401192,16
1401816,16
1402436,16
1403068,22
1403688,27
1404316,25
1404944,21
1405568,18
1406196,18
1406820,16
1407452,10
1408080,11
1408696,16
1409324,15
1409948,15
1410568,16
1411196,12
1411816,12
1412444,10
1413068,11
1413692,11
1414320,12
1414944,19
1415572,28
1416204,27
1416824,19
1417452,16
1418076,19
1418704,17
1419336,16
1419952,22
1420580,27
1421204,27
1421828,25
1422460,16
1423080,11
1423708,12
1424332,12
1424956,12
1425584,14
1426208,18
1426836,21
1427468,14
1428088,15
1428716,16
1429340,13
1429972,11
1430600,11
1431216,15
1431848,18
1432472,19
1433096,17
1433728,14
1434344,16
1434972,17
1435596,16
1436216,16
1436848,21
1437464,17
1438092,15
1438716,22
1439340,24
1439968,19
1440592,19
1441220,20
1441848,18
1442468,15
1443100,14
1443724,16
1444352,16
1444980,14
1445600,14
1446228,13
1446852,11
1447472,15
1448104,21
1448720,20
1449348,25
1449972,22
1450596,15
1451224,15
1451848,17
1452476,17
1453104,18
1453728,20
1454356,20
1454980,26
1455612,26
1456240,19
1456856,16
1457484,12
1458108,14
1458732,19
1459360,17
1459976,16
1460608,17
1461228,21
1461852,22
1462484,15
1463104,11
1463736,11
1464364,10
1464984,18
1465612,21
1466236,22
1466864,21
1467492,14
1468112,17
1468740,17
1469364,17
1469992,20
1470620,23
1471240,32
1471868,32
1472496,28
1473116,20
1473748,13
1474372,11
1475004,13
1475632,17
1476248,16
1476876,16
1477500,18
1478128,15
1478756,12
1479376,13
1480004,13
1480628,22
1481248,29
1481880,33
1482496,28
1483124,23
1483748,15
1484372,19
1485000,22
1485620,23
1486252,26
1486880,31
1487496,31
1488124,24
1488748,20
1489376,19
1490004,20
1490624,15
1491252,11
1491876,15
1492496,15
1493128,15
1493744,16
1494372,14
1495000,12
1495624,13
1496252,12
1496872,12
1497500,11
1498132,19
1498752,23
1499380,24
1500004,19
1500636,16
1501264,15
1501880,17
1502512,20
1503136,21
1503760,22
1504392,29
1505008,37
1505636,25
1506260,16
1506884,11
1507512,10
1508136,20
1508764,19
1509396,16
1510016,16
1510648,15
1511268,11
1511900,13
1512532,12
1513152,12
1513780,11
1514404,11
1515028,18
1515660,22
1516280,24
1516908,18
1517532,15
1518156,15
1518788,14
1519408,24
1520036,32
1520668,33
1521288,29
1521916,23
1522540,19
1523172,22
1523804,15
1524424,11
1525052,14
1525676,15
1526300,15
1526932,14
1527552,16
1528184,10
1528808,11
1529428,11
1530060,10
1530680,12
1531312,16
1531940,22
1532560,24
1533192,20
1533816,15
1534444,17
1535076,16
1535696,15
1536328,13
1536948,17
1537572,24
1538200,27
1538824,22
1539452,18
1540076,16
1540696,14
1541328,13
1541944,15
1542572,15
1543204,14
1543824,15
1544452,13
1545076,12
1545704,10
1546332,10
1546952,11
1547580,15
1548204,21
1548828,22
1549456,28
1550072,23
1550704,17
1551328,16
1551952,16
1552584,22
1553200,26
1553828,33
1554460,34
1555080,27
1555708,19
1556332,17
1556964,11
1557592,10
1558216,12
1558844,17
1559468,14
1560092,15
1560720,16
1561344,12
1561972,10
1562596,13
1563220,13
1563848,14
1564468,21
1565096,27
1565724,25
1566344,20
1566972,18
1567596,15
1568228,16
1568856,19
1569472,19
1570104,22
1570728,26
1571348,35
1571980,30
1572600,19
1573228,17
1573852,11
1574476,11
1575108,15
1575728,16
1576356,15
1576988,14
1577608,17
1578236,10
1578860,10
1579492,11
1580120,10
1580744,16
1581376,20
1582000,27
1582624,31
1583252,26
1583872,18
1584504,15
1585128,21
1585752,23
1586380,17
1587000,27
1587632,32
1588260,27
1588880,21
1589508,17
1590132,19
1590764,15
1591396,12
1592016,14
1592644,15
1593268,17
1593892,19
1594524,16
1595144,10
1595776,11
1596400,11
1597024,11
1597656,11
1598280,20
1598908,23
1599540,26
1600160,19
1600788,15
1601408,16
1602040,16
1602668,16
1603284,19
1603912,22
1604536,25
1605160,28
1605788,22
1606408,17
1607036,11
1607656,11
1608280,11
1608912,14
1609528,15
1610156,16
1610788,14
1611408,11
1612036,10
1612660,11
1613292,11
1613920,14
1614536,14
1615164,17
1615788,22
1616412,25
1617040,19
1617664,17
1618292,19
1618916,20
1619536,17
1620168,19
1620784,23
1621412,26
1622044,24
1622664,18
1623292,12
1623916,11
1624548,12
1625176,17
1625792,18
1626424,17
1627048,15
1627668,16
1628300,23
1628920,19
1629548,11
1630172,11
1630796,12
1631428,24
1632048,31
1632676,29
1633304,27
1633928,24
1634556,18
1635180,16
1635812,32
1636444,37
1637064,31
1637696,33
1638320,35
1638944,25
1639572,16
1640188,20
1640816,13
1641440,15
1642060,18
1642688,15
1643304,17
1643932,21
1644560,13
1645176,11
1645804,12
1646424,11
1647052,11
1647684,10
1648300,22
1648932,25
1649552,40
1650180,36
1650808,16
1651424,15
1652052,16
1652676,15
1653296,16
1653928,17
1654544,29
1655172,39
1655796,37
1656416,38
1657048,26
1657668,11
1658296,12
1658924,15
1659540,16
1660172,17
1660792,17
1661420,13
1662052,13
1662672,11
1663300,15
1663924,11
1664548,13
1665176,23
1665792,24
1666420,24
1667040,23
1667664,17
1668292,14
1668912,15
1669540,13
1670168,24
1670784,43
1671412,43
1672036,32
1672664,22
1673292,16
1673912,11
1674540,11
1675164,14
1675784,15
1676416,17
1677032,16
1677660,20
1678284,15
1678908,12
1679536,11
1680152,10
1680780,11
1681400,16
1682024,25
1682652,33
1683272,30
1683900,19
1684532,15
1685148,17
1685776,17
1686400,25
1687028,27
1687656,26
1688272,24
1688904,29
1689524,22
1690148,17
1690776,12
1691400,13
1692028,17
1692648,15
1693272,15
1693900,16
1694520,13
1695148,12
1695776,12
1696396,11
1697024,11
1697644,14
1698272,17
1698900,19
1699520,23
1700148,20
1700768,16
1701392,15
1702024,16
1702640,19
1703268,24
1703892,27
1704512,35
1705144,38
1705760,35
1706388,22
1707016,13
1707636,10
1708264,12
1708888,17
1709516,16
1710144,17
1710768,16
1711396,11
1712020,12
1712644,12
1713272,12
1713896,17
1714524,22
1715148,26
1715776,29
1716404,24
1717024,16
1717652,16
1718284,15
1718904,16
1719532,17
1720156,23
1720788,27
1721416,27
1722032,26
1722664,21
1723284,14
1723908,10
1724540,12
1725160,15
1725788,19
1726412,16
1727036,15
1727664,15
1728284,13
1728912,11
1729532,10
1730160,15
1730788,21
1731412,24
1732040,19
1732668,18
1733288,16
1733916,15
1734540,15
1735168,18
1735796,22
1736416,26
1737044,23
1737668,18
1738292,19
1738920,19
1739536,18
1740168,12
1740792,11
1741416,14
1742044,21
1742668,18
1743296,21
1743924,16
1744544,21
1745172,20
1745796,11
1746424,12
1747056,12
1747672,11
1748300,16
1748924,25
1749548,24
1750180,16
1750800,16
1751428,16
1752052,16
1752676,16
1753304,17
1753928,20
1754560,21
1755188,22
1755808,25
1756436,23
1757060,11
1757692,11
1758320,14
1758940,17
1759568,17
1760192,15
1760816,15
1761444,10
1762060,11
1762692,12
1763312,12
1763936,17
1764564,16
1765188,17
1765816,18
1766444,16
1767060,15
1767692,15
1768312,16
1768940,16
1769572,14
1770192,23
1770820,36
1771444,38
1772068,26
1772696,20
1773320,18
1773948,12
1774572,11
1775196,14
1775828,17
1776452,15
1777080,15
1777708,16
1778328,15
1778956,11
1779580,11
1780212,11
1780840,11
1781456,15
1782088,21
1782712,27
1783336,21
1783964,15
1784584,16
1785212,15
1785836,20
1786460,20
1787092,21
1787716,27
1788344,29
1788972,22
1789592,20
1790220,15
1790848,12
1791476,15
1792108,16
1792724,16
1793356,15
1793976,15
1794600,13
1795228,16
1795848,14
1796476,13
1797100,11
1797724,14
1798352,22
1798972,22
1799600,21
1800228,18
1800848,16
1801476,17
1802100,15
1802728,16
1803360,17
1803976,20
1804604,25
1805228,29
1805852,22
1806480,15
1807096,11
1807724,10
1808348,14
1808972,16
1809600,17
1810216,16
1810844,15
1811476,10
1812096,12
1812724,17
1813348,16
1813976,14
1814604,10
1815224,12
1815852,18
1816476,26
1817100,21
1817728,15
1818352,16
1818980,16
1819604,13
1820224,11
1820856,21
1821472,30
1822100,37
1822732,34
1823352,29
1823980,13
1824604,11
1825236,15
1825864,14
1826480,18
1827108,15
1827732,17
1828360,15
1828988,11
1829608,13
1830236,10
1830860,11
1831484,15
1832116,19
1832736,24
1833364,20
1833996,16
1834616,16
1835244,15
1835868,17
1836500,21
1837128,26
1837752,31
1838384,29
1839008,25
1839632,21
1840260,13
1840880,11
1841508,11
1842132,14
1842756,15
1843388,14
1844004,15
1844632,11
1845264,11
1845880,11
1846508,10
1847128,13
1847760,15
1848388,16
1849008,15
1849636,25
1850256,21
1850884,15
1851512,15
1852136,17
1852764,17
1853388,15
1854016,19
1854644,36
1855264,34
1855892,23
1856524,14
1857144,14
1857772,13
1858396,15
1859024,17
1859652,16
1860272,17
1860900,16
1861524,10
1862148,10
1862780,10
1863400,11
1864028,13
1864652,15
1865276,19
1865904,19
1866520,21
1867152,16
1867780,15
1868400,17
1869028,16
1869652,18
1870280,23
1870912,23
1871528,24
1872156,21
1872780,19
1873412,17
1874040,12
1874664,11
1875292,15
1875916,17
1876540,16
1877168,14
1877792,15
1878420,13
1879052,10
1879672,12
1880304,11
1880928,11
1881556,15
1882188,18
1882808,17
1883436,18
1884064,14
1884688,16
1885316,16
1885936,16
1886564,13
1887188,22
1887812,25
1888444,22
1889064,14
1889692,11
1890320,12
1890944,13
1891572,17
1892196,25
1892828,21
1893456,16
1894080,19
1894708,13
1895332,11
1895956,11
1896588,10
1897208,12
1897836,19
1898460,25
1899084,21
1899716,18
1900336,18
1900964,15
1901596,16
1902216,18
1902844,17
1903468,17
1904100,23
1904732,32
1905352,31
1905980,23
1906604,19
1907228,11
1907860,10
1908480,14
1909108,15
1909732,15
1910360,15
1910988,15
1911608,13
1912240,13
1912868,12
1913488,11
1914120,15
1914744,22
1915376,19
1916004,15
1916624,14
1917256,15
1917880,16
1918504,18
1919136,17
1919752,16
1920384,21
1921008,23
1921632,29
1922260,25
1922884,23
1923512,22
1924140,11
1924760,13
1925388,16
1926012,15
1926640,15
1927272,15
1927888,13
1928516,14
1929140,12
1929764,11
1930392,10
1931008,15
1931640,26
1932264,21
1932888,21
1933516,26
1934136,21
1934764,18
1935396,15
1936016,15
1936644,16
1937268,19
1937896,26
1938524,28
1939144,27
1939776,23
1940400,17
1941024,15
1941652,16
1942272,17
1942900,15
1943528,15
1944152,16
1944780,12
1945400,20
1946032,13
1946660,11
1947280,12
1947908,11
1948532,11
1949160,15
1949792,20
1950408,19
1951036,15
1951660,16
1952284,17
1952916,17
1953536,20
1954164,23
1954788,27
1955412,27
1956044,24
1956664,17
1957292,11
1957924,10
1958544,15
1959172,15
1959796,15
1960428,14
1961056,14
1961680,11
1962308,11
1962932,11
1963556,13
1964188,16
1964808,21
1965436,27
1966060,24
1966688,19
1967316,14
1967940,18
1968568,20
1969200,20
1969816,20
1970444,25
1971068,27
1971696,29
1972328,25
1972944,21
1973572,16
1974196,12
1974820,11
1975448,15
1976072,16
1976700,15
1977324,16
1977948,12
1978576,10
1979200,14
1979828,11
1980456,12
1981080,15
1981708,19
1982332,15
1982964,16
1983592,18
1984216,17
1984844,15
1985468,17
1986092,19
1986720,23
1987336,25
1987964,28
1988588,29
1989212,21
1989840,16
1990456,13
1991088,11
1991716,12
1992336,16
1992964,15
1993588,15
1994220,15
1994848,12
1995472,14
1996104,12
1996728,14
1997352,19
1997980,18
1998600,23
1999228,24
1999852,27
2000476,18
2001104,15
2001728,20
2002356,19
2002988,20
2003608,25
2004236,30
2004860,29
2005488,27
2006116,22
2006736,18
2007364,11
2007988,11
2008612,15
2009240,14
2009864,16
2010492,16
2011116,16
2011740,13
2012368,11
2012992,10
2013620,11
2014248,14
2014872,15
2015500,13
2016124,17
2016756,17
2017384,15
2018000,15
2018632,15
2019252,17
2019876,19
2020508,23
2021128,25
2021756,30
2022380,27
2023008,21
2023636,15
2024260,11
2024892,11
2025520,14
2026140,16
2026768,17
2027392,18
2028020,11
2028652,10
2029272,10
2029900,11
2030524,11
2031148,13
2031780,20
2032400,25
2033028,23
2033652,17
2034276,16
2034908,16
2035532,15
2036164,16
2036792,18
2037412,19
2038040,23
2038664,29
2039296,24
2039924,19
2040544,14
2041172,13
2041800,17
2042424,19
2043052,15
2043672,16
2044304,16
2044932,11
2045552,10
2046184,11
2046808,12
2047436,11
2048068,16
2048684,24
2049312,30
2049932,23
2050560,15
2051188,14
2051808,16
2052436,19
2053056,21
2053680,24
2054308,24
2054928,26
2055556,29
2056180,25
2056800,17
2057428,11
2058052,11
2058680,15
2059308,14
2059928,15
2060556,15
2061180,13
2061808,13
2062436,10
2063056,10
2063684,11
2064304,12
2064928,16
2065556,18
2066176,20
2066804,17
2067428,16
2068048,15
2068676,16
2069296,19
2069924,18
2070552,18
2071168,27
2071796,27
2072420,21
2073048,20
2073680,16
2074296,10
2074924,12
2075548,16
2076168,15
2076796,16
2077416,16
2078044,11
2078668,10
2079292,10
2079924,10
2080544,14
2081172,21
2081800,29
2082416,35
2083044,29
2083668,17
2084296,16
2084924,17
2085544,19
2086172,18
2086796,24
2087424,26
2088052,22
2088668,24
2089300,26
2089920,22
2090544,14
2091172,10
2091792,13
2092420,16
2093044,17
2093668,16
2094296,16
2094920,17
2095548,23
2096176,20
2096800,12
2097428,11
2098048,11
2098680,11
2099308,16
2099924,19
2100556,15
2101176,15
2101800,18
2102428,19
2103044,19
2103676,21
2104300,21
2104924,23
2105552,21
2106168,15
2106800,13
2107428,10
2108048,11
2108676,16
2109300,17
2109932,16
2110560,14
2111176,16
2111804,18
2112432,12
2113052,10
2113680,10
2114304,13
2114932,17
2115556,18
2116180,19
2116808,17
2117424,15
2118052,16
2118684,18
2119304,17
2119932,18
2120556,19
2121188,17
2121816,18
2122432,23
2123060,22
2123684,15
2124308,11
2124940,13
2125560,17
2126188,17
2126812,16
2127436,15
2128064,11
2128680,10
2129308,11
2129940,14
2130556,19
2131188,22
2131812,24
2132440,23
2133068,17
2133688,15
2134316,17
2134940,16
2135564,20
2136196,24
2136816,26
2137444,24
2138068,23
2138692,19
2139320,12
2139944,9
2140520,13
2141152,11
2141772,15
2142404,19
2143024,19
2143652,17
2144284,14
2144904,12
2145532,17
2146156,17
2146784,12
2147416,14
2148032,17
2148664,21
2149288,17
2149912,13
2150540,16
2151160,16
2151788,15
2152412,15
2153032,11
2153664,21
2154280,25
2154908,23
2155536,20
2156160,18
2156788,15
2157412,12
2158044,16
2158672,21
2159288,17
2159920,15
2160544,16
2161168,16
2161796,14
2162416,13
2163044,11
2163668,10
2164292,13
2164920,15
2165536,19
2166168,25
2166796,19
2167416,15
2168044,15
2168668,16
2169296,16
2169928,19
2170544,27
2171172,24
2171796,21
2172424,19
2173052,18
2173672,13
2174300,12
2174924,15
2175548,16
2176180,16
2176796,17
2177428,15
2178056,11
2178672,14
2179300,12
2179924,11
2180552,12
2181184,16
2181800,23
2182428,19
2183052,17
2183680,18
2184308,14
2184928,18
2185556,18
2186180,14
2186804,19
2187436,26
2188056,25
2188684,24
2189308,18
2189936,13
2190564,11
2191188,10
2191820,13
2192452,15
2193072,19
2193700,17
2194324,17
2194952,12
2195580,10
2196200,11
2196828,10
2197452,13
2198076,23
2198708,29
2199328,27
2199956,21
2200588,15
2201208,17
2201836,18
2202460,17
2203092,20
2203720,29
2204340,31
2204968,34
2205592,28
2206216,23
2206844,16
2207464,11
2208092,10
2208716,16
2209340,15
2209968,14
2210592,15
2211220,13
2211852,10
2212472,13
2213100,14
2213724,14
2214356,15
2214984,18
2215608,18
2216236,19
2216860,19
2217484,15
2218116,14
2218736,17
2219364,18
2219988,20
2220612,24
2221244,28
2221864,27
2222492,23
2223124,20
2223744,19
2224376,14
2224996,17
2225628,16
2226256,15
2226880,15
2227508,17
2228132,15
2228756,12
2229388,14
2230008,13
2230636,13
2231264,18
2231888,26
2232516,20
2233136,16
2233764,15
2234396,14
2235016,15
2235644,15
2236272,15
2236900,21
2237532,26
2238152,28
2238784,29
2239408,26
2240032,25
2240660,16
2241280,12
2241908,16
2242532,18
2243156,18
2243784,15
2244408,15
2245036,11
2245668,10
2246288,15
2246916,18
2247540,26
2248172,27
2248800,21
2249424,21
2250052,15
2250676,14
2251300,16
2251932,17
2252552,19
2253184,15
2253804,14
2254428,20
2255056,27
2255672,19
2256304,17
2256932,13
2257552,16
2258180,12
2258804,15
2259432,14
2260064,14
2260680,16
2261308,12
2261932,13
2262556,11
2263188,10
2263808,12
2264436,10
2265060,13
2265684,16
2266312,22
2266932,19
2267560,15
2268188,14
2268808,15
2269436,18
2270060,21
2270692,21
2271320,20
2271944,17
2272576,18
2273200,20
2273824,12
2274452,10
2275072,16
2275700,17
2276324,15
2276948,15
2277580,15
2278200,11
2278832,10
2279460,12
2280080,18
2280708,19
2281332,17
2281964,20
2282592,18
2283208,16
2283840,16
2284464,16
2285088,16
2285716,18
2286336,17
2286964,15
2287592,18
2288216,24
2288844,28
2289464,27
2290092,23
2290724,12
2291344,11
2291972,14
2292600,19
2293228,17
2293860,14
2294480,15
2295108,11
2295732,11
2296356,14
2296984,11
2297604,12
2298232,15
2298856,17
2299480,19
2300108,14
2300728,15
2301356,17
2301988,18
2302608,19
2303240,18
2303864,16
2304496,19
2305124,24
2305744,20
2306372,16
2306996,15
2307620,12
2308248,14
2308864,17
2309492,17
2310116,16
2310740,16
2311368,12
2311992,14
2312620,13
2313252,14
2313872,16
2314500,15
2315124,20
2315756,23
2316384,23
2317004,16
2317632,15
2318256,21
2318880,20
2319508,17
2320128,19
2320756,23
2321380,30
2322004,30
2322632,21
2323252,19
2323880,13
2324508,10
2325128,12
2325756,15
2326380,15
2327012,16
2327640,16
2328264,12
2328892,11
2329516,11
2330144,13
2330772,16
2331392,19
2332020,19
2332644,19
2333268,20
2333900,16
2334520,16
2335148,15
2335780,16
2336400,21
2337028,22
2337652,19
2338280,21
2338912,16
2339528,16
2340156,18
2340780,11
2341404,11
2342036,16
2342656,16
2343284,15
2343908,16
2344532,14
2345164,10
2345784,11
2346412,12
2347044,10
2347664,15
2348292,23
2348920,25
2349548,23
2350180,19
2350800,15
2351428,16
2352056,20
2352676,19
2353308,16
2353928,23
2354556,27
2355184,27
2355808,21
2356440,17
2357064,11
2357692,10
2358324,10
2358944,15
2359572,15
2360200,16
2360828,16
2361456,10
2362080,11
2362708,12
2363332,11
2363956,16
2364588,19
2365208,19
2365836,21
2366460,24
2367088,19
2367716,15
2368344,17
2368972,18
2369600,16
2370224,19
2370852,27
2371476,37
2372104,35
2372732,29
2373352,19
2373984,11
2374608,11
2375232,17
2375864,15
2376480,17
2377108,18
2377740,17
2378360,15
2378988,15
2379612,13
2380244,12
2380872,11
2381496,13
2382124,15
2382748,18
2383372,21
2384004,15
2384624,15
2385252,16
2385876,17
2386504,15
2387132,23
2387752,28
2388380,30
2389012,25
2389632,20
2390264,13
2390888,11
2391516,11
2392148,15
2392768,14
2393400,15
2394024,15
2394648,13
2395280,10
2395896,11
2396528,11
2397152,11
2397776,14
2398408,25
2399024,25
2399656,22
2400284,17
2400904,15
2401532,15
2402156,15
2402788,15
2403416,17
2404036,21
2404664,29
2405288,35
2405912,29
2406544,16
2407160,11
2407788,10
2408412,11
2409036,14
2409664,15
2410288,16
2410916,15
2411548,10
2412168,11
2412796,10
2413420,12
2414052,10
2414684,13
2415304,19
2415936,21
2416560,20
2417184,17
2417812,15
2418432,18
2419060,20
2419684,20
2420308,21
2420940,22
2421560,29
2422192,23
2422820,22
2423440,20
2424068,12
2424692,11
2425324,15
2425956,16
2426576,17
2427204,15
2427828,15
2428452,11
2429084,14
2429704,14
2430336,13
2430960,12
2431584,15
2432216,18
2432840,24
2433468,21
2434096,15
2434720,15
2435348,15
2435972,16
2436604,19
2437236,26
2437856,31
2438484,29
2439108,24
2439732,19
2440364,14
2440984,11
2441612,11
2442236,14
2442864,15
2443492,15
2444120,15
2444748,11
2445380,10
2446000,11
2446628,11
2447256,13
2447880,16
2448508,18
2449128,25
2449756,25
2450384,17
2451008,16
2451636,15
2452256,16
2452888,16
2453516,18
2454136,22
2454768,23
2455392,23
2456024,24
2456652,20
2457272,14
2457904,11
2458528,13
2459148,19
2459780,18
2460400,17
2461028,15
2461652,11
2462276,11
2462904,11
2463520,11
2464152,17
2464780,22
2465400,27
2466028,27
2466652,26
2467280,17
2467908,16
2468528,17
2469156,16
2469780,18
2470404,24
2471036,23
2471656,29
2472284,25
2472908,23
2473532,21
2474164,14
2474784,11
2475412,15
2476044,14
2476664,15
2477292,16
2477916,15
2478548,10
2479180,10
2479800,12
2480428,15
2481052,19
2481676,26
2482304,29
2482928,27
2483556,23
2484180,15
2484804,16
2485432,20
2486052,22
2486680,22
2487308,26
2487928,29
2488556,29
2489180,21
2489812,21
2490440,20
2491060,14
2491688,15
2492312,15
2492936,15
2493564,15
2494184,15
2494812,11
2495436,11
2496064,11
2496692,10
2497312,13
2497940,15
2498572,20
2499192,23
2499820,24
2500444,21
2501076,16
2501704,18
2502328,21
2502960,20
2503584,24
2504208,22
2504836,16
2505456,21
2506084,19
2506708,11
2507336,13
2507964,12
2508584,18
2509216,22
2509844,18
2510464,20
2511092,18
2511716,11
2512348,10
2512976,10
2513600,11
2514228,11
2514852,15
2515480,21
2516108,23
2516728,25
2517356,18
2517984,15
2518608,17
2519236,18
2519856,22
2520488,31
2521116,30
2521736,26
2522364,17
2522988,13
2523620,13
2524252,10
2524872,11
2525500,19
2526124,15
2526752,15
2527380,16
2528000,17
2528628,15
2529252,13
2529876,12
2530508,10
2531128,12
2531760,18
2532388,18
2533008,17
2533640,18
2534264,15
2534896,17
2535524,16
2536144,18
2536772,18
2537400,25
2538024,29
2538656,25
2539272,22
2539904,20
2540528,17
2541152,11
2541780,11
2542408,15
2543036,17
2543668,16
2544288,15
2544916,11
2545544,12
2546172,11
2546804,10
2547424,13
2548052,20
2548680,26
2549304,22
2549932,18
2550552,17
2551184,16
2551812,18
2552432,18
2553064,21
2553688,27
2554316,32
2554948,26
2555568,23
2556200,22
2556824,20
2557448,14
2558080,10
2558696,14
2559328,15
2559956,15
2560584,16
2561212,14
2561828,13
2562460,10
2563088,10
2563704,10
2564332,12
2564956,15
2565584,19
2566212,23
2566832,23
2567460,16
2568084,15
2568708,15
2569336,15
2569960,16
2570588,22
2571212,24
2571832,29
2572460,19
2573080,17
2573708,15
2574332,12
2574960,12
2575588,17
2576212,15
2576840,15
2577468,16
2578088,13
2578716,10
2579340,10
2579968,11
2580600,12
2581216,13
2581844,17
2582468,18
2583088,21
2583720,20
2584336,16
2584964,15
2585588,17
2586212,18
2586840,17
2587464,17
2588092,20
2588720,24
2589344,22
2589972,20
2590596,18
2591228,17
2591856,17
2592476,16
2593104,15
2593728,15
2594352,15
2594980,11
2595600,14
2596228,13
2596852,12
2597476,13
2598104,12
2598728,17
2599356,20
2599988,20
2600608,16
2601236,16
2601860,17
2602492,19
2603120,17
2603736,21
2604368,25
2604992,31
2605616,27
2606244,19
2606864,15
2607492,10
2608116,12
2608740,15
2609368,15
2609992,15
2610624,16
2611252,14
2611872,12
2612500,12
2613124,14
2613752,15
2614380,17
2615000,20
2615628,20
2616256,24
2616880,20
2617508,14
2618128,19
2618756,19
2619380,23
2620004,21
2620636,25
2621260,24
2621892,23
2622520,18
2623136,11
2623768,13
2624388,12
2625016,11
2625644,16
2626260,22
2626892,22
2627512,19
2628136,11
2628764,10
2629384,11
2630012,11
2630636,13
2631256,19
2631888,20
2632504,19
2633132,20
2633760,19
2634376,15
2635008,15
2635632,20
2636260,26
2636888,31
2637504,31
2638132,29
2638756,18
2639380,12
2640008,10
2640624,12
2641252,13
2641876,13
2642500,16
2643128,15
2643744,15
2644372,18
2645000,16
2645624,11
2646252,10
2646876,11
2647504,11
2648132,14
2648752,21
2649380,22
2650004,22
2650628,17
2651260,15
2651880,19
2652508,19
2653132,19
2653756,23
2654384,27
2655004,31
2655632,23
2656260,15
2656880,15
2657508,11
2658132,10
2658760,16
2659388,15
2660008,16
2660636,16
2661260,15
2661888,11
2662520,12
2663136,12
2663764,11
2664384,12
2665008,18
2665636,22
2666252,26
2666880,24
2667504,17
2668128,16
2668756,16
2669380,19
2670008,19
2670640,25
2671256,26
2671884,24
2672508,21
2673136,18
2673768,16
2674384,12
2675012,12
2675636,13
2676260,14
2676888,15
2677504,15
2678136,15
2678760,11
2679380,11
2680012,12
2680632,12
2681260,11
2681888,14
2682512,17
2683140,26
2683764,23
2684392,17
2685024,15
2685640,19
2686268,25
2686892,31
2687516,33
2688148,29
2688764,22
2689392,22
2690016,19
2690636,13
2691268,10
2691888,13
2692516,15
2693144,17
2693760,15
2694388,15
2695012,11
2695640,11
2696272,10
2696888,11
2697516,11
2698140,14
2698764,17
2699392,20
2700016,21
2700644,17
2701268,15
2701892,16
2702520,18
2703144,15
2703772,17
2704404,16
2705024,22
2705652,20
2706276,16
2706904,14
2707532,14
2708152,12
2708780,16
2709404,16
2710028,15
2710660,15
2711280,15
2711908,13
2712532,14
2713156,12
2713788,10
2714408,13
2715036,13
2715664,14
2716284,13
2716912,15
2717536,15
2718164,15
2718796,16
2719416,17
2720044,21
2720668,30
2721288,34
2721916,33
2722536,27
2723164,14
2723788,10
2724412,11
2725040,10
2725664,13
2726292,15
2726920,14
2727544,15
2728172,11
2728796,12
2729424,12
2730052,13
2730672,13
2731300,17
2731924,21
2732548,25
2733180,24
2733800,19
2734428,15
2735052,15
2735676,18
2736308,21
2736928,27
2737556,20
2738188,14
2738808,18
2739436,21
2740060,23
2740688,17
2741320,14
2741936,17
2742564,18
2743188,15
2743816,16
2744444,14
2745064,11
2745692,11
2746316,12
2746940,11
2747568,11
2748184,16
2748816,27
2749436,26
2750064,19
2750692,14
2751320,17
2751948,16
2752580,14
2753200,13
2753828,19
2754452,24
2755080,28
2755708,20
2756328,20
2756956,15
2757580,10
2758204,11
2758836,14
2759456,17
2760084,17
2760716,14
2761336,15
2761964,12
2762588,11
2763220,11
2763848,15
2764472,16
2765104,21
2765724,26
2766348,22
2766980,16
2767600,15
2768228,17
2768852,21
2769476,21
2770104,25
2770720,36
2771352,33
2771980,28
2772600,21
2773228,17
2773852,13
2774484,16
2775112,20
2775732,16
2776360,15
2776984,15
2777608,16
2778236,16
2778856,15
2779484,14
2780112,12
2780736,13
2781364,14
2781984,19
2782616,19
2783244,22
2783864,18
2784496,16
2785120,17
2785748,17
2786380,14
2787000,19
2787628,26
2788252,28
2788876,24
2789504,22
2790128,16
2790756,11
2791380,14
2792004,14
2792632,15
2793256,16
2793884,15
2794516,15
2795136,13
2795768,13
2796392,11
2797020,11
2797652,12
2798272,16
2798900,22
2799528,27
2800152,25
2800780,14
2801400,19
2802028,21
2802652,18
2803276,19
2803904,21
2804524,25
2805152,24
2805780,23
2806400,20
2807028,13
2807652,11
2808280,11
2808912,15
2809528,14
2810160,18
2810784,21
2811408,12
2812036,12
2812656,12
2813284,12
2813908,11
2814536,12
2815164,16
2815784,18
2816416,21
2817044,19
2817664,15
2818292,15
2818916,18
2819544,18
2820172,22
2820792,28
2821420,28
2822044,25
2822668,17
2823296,14
2823916,12
2824544,12
2825168,15
2825792,16
2826420,14
2827040,19
2827668,17
2828296,11
2828920,11
2829548,11
2830172,13
2830800,12
2831428,11
2832048,14
2832676,15
2833300,19
2833924,17
2834556,15
2835176,16
2835808,15
2836432,17
2837056,21
2837684,24
2838304,31
2838932,27
2839564,18
2840184,16
2840812,10
2841436,11
2842068,14
2842696,15
2843320,15
2843948,15
2844572,15
2845196,11
2845828,10
2846448,12
2847076,12
2847700,16
2848324,20
2848956,20
2849576,21
2850204,20
2850836,14
2851456,17
2852084,17
2852708,18
2853340,20
2853968,26
2854592,28
2855220,25
2855844,17
2856468,14
2857100,10
2857720,11
2858348,12
2858972,15
2859596,15
2860228,14
2860848,15
2861476,15
2862108,10
2862728,11
2863356,11
2863984,11
2864616,14
2865244,19
2865864,22
2866496,27
2867120,24
2867744,15
2868376,17
2868992,19
2869620,20
2870244,22
2870868,24
2871496,29
2872112,27
2872744,21
2873372,15
2873992,13
2874620,11
2875244,12
2875876,15
2876504,15
2877124,15
2877752,15
2878376,13
2879000,11
2879628,11
2880248,12
2880876,14
2881496,17
2882120,26
2882748,34
2883368,31
2883996,19
2884624,15
2885240,18
2885872,28
2886492,37
2887124,33
2887752,30
2888368,31
2888996,22
2889620,19
2890244,17
2890872,10
2891496,11
2892124,15
2892748,15
2893372,16
2894004,14
2894624,17
2895252,13
2895880,11
2896504,13
2897132,17
2897756,20
2898388,20
2899016,17
2899632,20
2900264,18
2900888,14
2901508,16
2902140,16
2902760,18
2903388,17
2904012,20
2904636,23
2905268,22
2905888,17
2906516,19
2907148,10
2907768,11
2908396,11
2909020,16
2909652,16
2910280,15
2910904,15
2911532,11
2912160,9
2912728,10
2913356,11
2913976,14
2914604,11
2915228,17
2915852,23
2916480,22
2917104,19
2917736,16
2918360,17
2918984,18
2919612,19
2920232,23
2920860,25
2921492,26
2922112,20
2922740,16
2923364,15
2923996,11
2924628,12
2925248,17
2925876,21
2926500,17
2927124,15
2927756,15
2928376,15
2929004,15
2929628,11
2930252,12
2930884,14
2931504,14
2932132,18
2932764,20
2933384,18
2934012,15
2934636,15
2935268,15
2935900,16
2936520,19
2937148,21
2937776,26
2938400,31
2939028,28
2939648,25
2940276,14
2940904,11
2941528,11
2942156,15
2942776,15
2943408,15
2944036,14
2944656,15
2945284,11
2945908,10
2946536,12
2947168,14
2947788,20
2948416,23
2949040,23
2949664,20
2950296,16
2950912,15
2951544,16
2952168,17
2952788,18
2953420,18
2954040,17
2954668,19
2955300,24
2955920,25
2956548,24
2957176,17
2957804,11
2958436,10
2959056,16
2959684,17
2960308,17
2960932,17
2961560,10
2962184,13
2962812,12
2963436,11
2964060,10
2964692,17
2965312,19
2965944,13
2966572,19
2967192,17
2967820,15
2968448,17
2969076,16
2969708,16
2970328,19
2970956,23
2971580,25
2972200,24
2972832,19
2973448,19
2974076,12
2974700,11
2975324,13
2975956,15
2976580,15
2977208,17
2977840,18
2978456,12
2979088,13
2979712,14
2980340,11
2980972,10
2981592,12
2982220,16
2982848,21
2983468,21
2984100,14
2984720,16
2985348,18
2985972,19
2986596,19
2987228,22
2987852,22
2988480,22
2989108,18
2989728,21
2990360,19
2990984,13
2991612,11
2992244,15
2992864,15
2993492,15
2994116,15
2994740,13
2995372,10
2995992,11
2996620,11
2997244,10
2997872,13
2998500,23
2999124,22
2999756,17
3000388,18
3001008,15
3001636,16
3002260,15
3002888,16
3003516,16
3004136,26
3004768,31
3005392,30
3006016,21
3006648,13
3007264,10
3007896,15
3008528,12
3009144,15
3009772,15
3010400,15
3011028,15
3011660,11
3012280,11
3012908,11
3013532,10
3014160,11
3014788,13
3015408,22
3016040,22
3016660,19
3017288,16
3017916,15
3018536,15
3019168,17
3019796,18
3020416,23
3021048,27
3021672,31
3022304,29
3022932,21
3023552,15
3024184,12
3024808,11
3025428,17
3026060,14
3026680,16
3027312,16
3027936,16
3028560,11
3029188,11
3029808,11
3030440,11
3031068,14
3031688,22
3032316,30
3032944,28
3033572,19
3034204,14
3034824,15
3035456,16
3036080,19
3036704,21
3037336,18
3037952,20
3038584,27
3039208,23
3039832,18
3040464,14
3041080,15
3041712,15
3042340,17
3042960,15
3043588,15
3044216,16
3044844,13
3045476,14
3046096,13
3046728,11
3047352,11
3047976,13
3048604,19
3049224,22
3049852,24
3050480,17
3051104,15
3051736,15
3052360,16
3052988,16
3053620,16
3054240,29
3054868,33
3055496,27
3056124,21
3056756,17
3057376,15
3058008,11
3058632,13
3059256,19
3059884,16
3060504,14
3061136,16
3061764,12
3062384,16
3063016,17
3063640,14
3064272,17
3064904,12
3065520,12
3066152,15
3066776,19
3067400,15
3068032,15
3068652,17
3069284,18
3069908,17
3070532,21
3071164,25
3071788,21
3072420,16
3073048,17
3073664,21
3074292,13
3074916,13
3075544,19
3076176,17
3076792,16
3077420,16
3078044,16
3078668,15
3079300,12
3079920,11
3080548,11
3081172,14
3081796,21
3082428,22
3083048,23
3083676,20
3084308,14
3084928,16
3085556,17
3086180,20
3086812,25
3087440,26
3088056,26
3088688,25
3089308,13
3089932,14
3090564,15
3091184,14
3091816,14
3092440,14
3093064,16
3093692,16
3094312,15
3094944,12
3095572,10
3096192,12
3096820,11
3097448,12
3098076,15
3098708,22
3099328,25
3099956,23
3100584,19
3101208,15
3101836,16
3102456,16
3103088,15
3103712,17
3104336,23
3104964,28
3105584,27
3106216,23
3106844,22
3107464,15
3108096,14
3108720,16
3109348,15
3109980,16
3110600,17
3111228,15
3111856,13
3112480,13
3113112,10
3113728,11
3114356,11
3114980,11
3115604,16
3116236,20
3116856,24
3117484,21
3118116,16
3118736,16
3119364,20
3119992,24
3120624,28
3121252,28
3121872,28
3122504,19
3123128,18
3123752,15
3124380,11
3125000,11
3125628,14
3126252,15
3126876,15
3127508,15
3128132,12
3128764,11
3129392,10
3130016,13
3130644,11
3131272,15
3131900,23
3132532,26
3133152,25
3133784,19
3134408,15
3135032,15
3135660,15
3136280,21
3136908,26
3137532,25
3138160,25
3138788,24
3139412,18
3140044,13
3140672,11
3141296,11
3141924,11
3142552,16
3143176,17
3143804,15
3144424,17
3145052,17
3145676,18
3146304,13
3146932,10
3147552,12
3148184,13
3148812,16
3149432,17
3150060,17
3150688,16
3151316,15
3151948,17
3152568,18
3153200,17
3153824,24
3154448,27
3155076,25
3155696,18
3156324,15
3156952,17
3157576,13
3158208,11
3158824,14
3159456,15
3160084,15
3160704,16
3161336,15
3161960,12
3162588,11
3163220,10
3163840,12
3164472,11
3165096,16
3165720,18
3166352,16
3166968,17
3167600,15
3168224,16
3168848,17
3169476,15
3170096,16
3170728,29
3171356,34
3171976,32
3172608,26
3173232,21
3173864,13
3174496,10
3175112,12
3175744,17
3176368,16
3176992,16
3177620,16
3178240,13
3178868,12
3179496,12
3180120,11
3180752,12
3181368,17
3182000,21
3182632,21
3183248,21
3183880,20
3184508,16
3185136,15
3185768,18
3186388,19
3187020,22
3187644,25
3188272,27
3188900,22
3189520,20
3190152,19
3190776,14
3191400,10
3192032,15
3192656,17
3193288,18
3193920,16
3194536,16
3195168,15
3195796,12
3196424,10
3197056,10
3197672,15
3198304,21
3198932,20
3199556,19
3200188,15
3200804,15
3201432,15
3202064,17
3202680,19
3203308,17
3203932,19
3204560,25
3205188,26
3205808,24
3206436,20
3207056,16
3207684,11
3208312,11
3208936,15
3209564,16
3210188,15
3210812,17
3211440,18
3212064,16
3212692,11
3213324,11
3213944,16
3214572,24
3215196,26
3215828,22
3216456,18
3217080,17
3217708,15
3218332,19
3218956,21
3219588,17
3220208,18
3220836,24
3221460,28
3222084,25
3222712,18
3223336,17
3223964,12
3224596,11
3225216,13
3225844,15
3226468,15
3227100,15
3227728,15
3228344,11
3228976,11
3229600,11
3230220,13
3230852,18
3231472,19
3232104,21
3232724,22
3233348,24
3233980,18
3234600,16
3235228,18
3235860,18
3236480,17
3237108,19
3237732,24
3238364,27
3238992,24
3239616,23
3240244,21
3240868,15
3241492,13
3242124,15
3242744,18
3243372,19
3244000,18
3244620,15
3245252,11
3245872,14
3246500,15
3247132,14
3247752,13
3248384,16
3249008,19
3249636,20
3250264,20
3250888,15
3251516,17
3252144,17
3252768,18
3253396,17
3254016,22
3254644,28
3255272,29
3255896,23
3256528,19
3257144,14
3257772,11
3258404,11
3259024,17
3259652,15
3260280,16
3260908,16
3261540,12
3262160,17
3262792,14
3263416,11
3264040,11
3264668,10
3265288,13
3265916,14
3266540,20
3267168,21
3267796,16
3268420,15
3269052,16
3269684,16
3270304,20
3270936,24
3271560,25
3272192,23
3272820,21
3273440,23
3274072,17
3274696,13
3275320,15
3275952,15
3276572,15
3277204,15
3277828,15
3278448,11
3279072,11
3279696,11
3280324,13
3280952,20
3281568,21
3282196,25
3282820,24
3283448,23
3284076,16
3284692,17
3285324,19
3285944,17
3286568,19
3287196,22
3287816,25
3288444,27
3289064,20
3289688,16
3290316,14
3290936,12
3291564,11
3292192,15
3292808,15
3293436,15
3294060,15
3294688,15
3295316,10
3295936,11
3296564,11
3297188,12
3297812,11
3298440,15
3299056,21
3299684,20
3300308,18
3300932,14
3301560,15
3302176,16
3302808,18
3303436,24
3304056,33
3304684,33
3305308,25
3305936,20
3306564,18
3307184,15
3307812,11
3308436,11
3309060,14
3309692,14
3310312,17
3310940,16
3311564,11
3312188,11
3312816,11
3313440,12
3314068,12
3314696,15
3315320,19
3315948,21
3316572,22
3317204,18
3317832,15
3318448,15
3319080,16
3319700,15
3320324,20
3320956,26
3321576,29
3322204,25
3322828,19
3323452,18
3324084,14
3324704,13
3325332,12
3325964,14
3326584,16
3327212,17
3327836,17
3328468,11
3329096,11
3329720,11
3330348,11
3330968,11
3331592,13
3332220,19
3332840,24
3333468,23
3334092,17
3334712,15
3335344,15
3335960,18
3336588,20
3337212,26
3337840,25
3338468,26
3339092,19
3339720,15
3340348,16
3340968,18
3341596,15
3342220,19
3342848,17
3343476,16
3344096,18
3344724,16
3345348,12
3345968,11
3346600,10
3347216,11
3347844,15
3348468,21
3349092,22
3349720,22
3350344,15
3350972,17
3351604,20
3352224,20
3352852,20
3353476,21
3354108,17
3354736,16
3355360,20
3355988,19
3356612,19
3357236,13
3357868,10
3358488,12
3359116,15
3359740,15
3360368,15
3360996,15
3361620,12
3362248,11
3362876,10
3363496,11
3364124,17
3364748,23
3365376,31
3366004,28
3366624,22
3367252,17
3367876,14
3368500,15
3369128,15
3369744,19
3370372,23
3370996,26
3371620,31
3372248,34
3372872,29
3373500,23
3374128,15
3374752,11
3375380,13
3376004,14
3376632,16
3377260,17
3377880,17
3378508,11
3379132,11
3379760,12
3380388,10
3381008,11
3381636,16
3382260,23
3382880,23
3383512,27
3384136,20
3384764,15
3385392,15
3386016,17
3386644,22
3387268,31
3387896,32
3388524,29
3389144,27
3389772,19
3390396,13
3391020,10
3391652,10
3392272,16
3392900,18
3393524,15
3394148,15
3394776,17
3395400,15
3396028,14
3396656,12
3397280,11
3397908,17
3398532,22
3399164,22
3399792,23
3400408,22
3401036,15
3401660,15
3402284,16
3402912,15
3403528,19
3404160,28
3404784,34
3405408,35
3406036,30
3406660,30
3407288,20
3407920,11
3408536,12
3409164,14
3409788,15
3410416,15
3411048,15
3411664,12
3412292,11
3412916,10
3413540,10
3414172,11
3414792,15
3415420,21
3416044,23
3416668,21
3417300,18
3417924,15
3418552,17
3419180,17
3419800,16
3420428,18
3421052,22
3421684,25
3422312,20
3422932,15
3423564,12
3424188,10
3424808,11
3425440,14
3426056,17
3426684,16
3427308,15
3427932,15
3428564,10
3429188,11
3429816,12
3430448,12
3431064,14
3431692,12
3432316,14
3432948,21
3433576,23
3434200,17
3434828,17
3435456,17
3436080,16
3436708,15
3437328,27
3437956,34
3438584,33
3439208,20
3439836,14
3440464,12
3441092,11
3441724,10
3442344,15
3442972,14
3443596,15
3444228,15
3444856,12
3445472,12
3446100,12
3446724,12
3447348,12
3447976,14
3448600,24
3449228,26
3449852,28
3450480,23
3451108,15
3451732,15
3452364,15
3452992,16
3453616,21
3454244,26
3454868,34
3455496,32
3456124,27
3456744,26
3457372,22
3457996,15
3458616,13
3459248,15
3459864,15
3460492,15
3461116,15
3461744,12
3462372,11
3462996,13
3463628,15
3464256,16
3464880,21
3465508,26
3466132,19
3466760,17
3467388,16
3468008,17
3468636,17
3469260,17
3469884,18
3470516,23
3471136,24
3471768,24
3472396,20
3473016,20
3473644,17
3474268,14
3474900,13
3475528,15
3476152,15
3476784,15
3477408,15
3478032,17
3478660,14
3479280,11
3479908,13
3480536,11
3481160,15
3481792,21
3482408,25
3483036,25
3483664,17
3484284,15
3484912,22
3485536,21
3486164,20
3486792,18
3487416,21
3488044,21
3488668,20
3489292,13
3489920,14
3490536,16
3491164,15
3491792,18
3492416,17
3493044,14
3493664,16
3494292,17
3494924,12
3495544,11
3496172,11
3496796,11
3497428,10
3498056,12
3498680,25
3499308,29
3499936,30
3500560,25
3501188,16
3501808,16
3502436,18
3503060,19
3503688,17
3504316,20
3504936,24
3505564,25
3506196,19
3506816,18
3507448,15
3508068,12
3508700,11
3509332,16
3509952,15
3510580,15
3511208,15
3511832,11
3512464,11
3513080,11
3513708,13
3514332,12
3514960,11
3515588,20
3516208,26
3516836,22
3517468,18
3518088,17
3518720,16
3519344,19
3519976,21
3520608,27
3521224,28
3521852,24
3522476,20
3523100,21
3523732,21
3524352,13
3524980,10
3525604,15
3526228,15
3526856,14
3527480,17
3528108,19
3528740,12
3529360,13
3529988,11
3530612,11
3531244,11
3531872,14
3532496,21
3533124,19
3533748,20
3534372,15
3535004,20
3535624,23
3536252,24
3536876,28
3537500,30
3538132,25
3538756,15
3539384,12
3540012,16
3540632,17
3541260,13
3541884,12
3542516,15
3543148,16
3543768,16
3544396,16
3545020,13
3545644,13
3546276,11
3546896,11
3547524,11
3548148,15
3548772,26
3549404,22
3550028,19
3550660,17
3551292,14
3551912,15
3552544,17
3553168,21
3553800,27
3554428,30
3555048,33
3555680,29
3556304,21
3556928,15
3557556,10
3558176,13
3558808,14
3559436,15
3560056,15
3560684,15
3561308,16
3561940,10
3562572,11
3563192,13
3563824,13
3564448,19
3565072,25
3565700,23
3566320,25
3566948,25
3567576,15
3568200,21
3568828,21
3569448,20
3570076,21
3570708,21
3571328,24
3571956,24
3572584,19
3573212,17
3573844,15
3574464,11
3575092,11
3575720,17
3576344,17
3576972,20
3577592,20
3578224,12
3578848,14
3579472,17
3580104,12
3580720,13
3581352,15
3581984,18
3582608,19
3583240,21
3583864,18
3584496,16
3585128,16
3585744,16
3586372,16
3586996,23
3587620,29
3588252,32
3588872,33
3589500,27
3590124,19
3590748,11
3591380,11
3592004,14
3592632,17
3593260,15
3593880,17
3594508,17
3595132,12
3595764,13
3596396,11
3597016,12
3597644,12
3598268,11
3598892,17
3599524,18
3600144,19
3600772,16
3601396,15
3602020,15
3602652,15
3603276,12
3603904,23
3604532,30
3605152,33
3605780,22
3606404,19
3607032,19
3607660,14
3608280,11
3608908,15
3609532,15
3610156,15
3610784,16
3611408,16
3612036,13
3612660,12
3613284,10
3613912,11
3614536,14
3615168,20
3615796,22
3616416,28
3617044,22
3617668,15
3618296,15
3618924,16
3619544,16
3620172,19
3620796,24
3621420,30
3622052,26
3622672,21
3623300,19
3623924,11
3624548,12
3625180,11
3625804,14
3626432,16
3627060,16
3627680,16
3628308,11
3628932,13
3629564,19
3630192,12
3630816,11
3631444,11
3632068,12
3632692,13
3633324,16
3633944,16
3634572,16
3635200,15
3635824,16
3636452,17
3637076,29
3637708,31
3638336,29
3638956,24
3639584,17
3640212,16
3640840,11
3641468,10
3642088,13
3642716,15
3643340,15
3643968,16
3644596,14
3645216,10
3645844,11
3646476,10
3647096,11
3647724,11
3648352,17
3648980,21
3649608,22
3650224,23
3650852,16
3651476,15
3652100,16
3652732,18
3653352,21
3653980,19
3654608,11
3655228,10
3655860,10
3656480,17
3657108,16
3657740,10
3658360,11
3658988,15
3659616,15
3660244,17
3660876,18
3661496,15
3662124,11
3662748,11
3663372,11
3664004,16
3664624,26
3665252,27
3665880,23
3666504,25
3667132,20
3667752,15
3668384,17
3669012,22
3669632,24
3670264,20
3670888,19
3671516,24
3672148,23
3672768,22
3673400,34
3674024,35
3674648,26
3675276,21
3675896,24
3676528,17
3677152,17
3677776,17
3678408,11
3679024,11
3679656,14
3680288,21
3680904,24
3681532,23
3682156,15
3682788,19
3683420,14
3684040,21
3684668,40
3685296,49
3685920,44
3686548,36
3687168,31
3687796,30
3688416,27
3689040,30
3689668,30
3690288,31
3690916,34
3691544,35
3692160,35
3692792,31
3693416,19
3694044,19
3694676,22
3695296,16
3695924,25
3696552,29
3697172,16
3697804,12
3698424,26
3699052,59
3699676,76
3700300,76
3700932,70
3701552,61
3702184,60
3702812,27
3703432,15
3704060,52
3704688,78
3705316,73
3705948,42
3706568,18
3707196,16
3707824,27
3708448,12
3709076,26
3709696,31
3710324,29
3710952,20
3711576,15
3712208,12
3712824,13
3713452,16
3714084,28
3714704,33
3715332,32
3715956,44
3716588,53
3717216,20
3717840,87
3718468,96
3719092,85
3719716,104
3720400,86
3721016,54
3721644,29
3722276,12
3722896,13
3723524,17
3724148,36
3724780,77
3725412,84
3726032,69
3726664,67
3727288,83
3727912,72
3728544,13
3729160,25
3729788,30
3730412,13
3731036,13
3731668,11
3732292,15
3732924,44
3733552,22
3734172,17
3734804,31
3735428,25
3736056,49
3736688,93
3737308,147
3737988,123
3738664,101
3739340,58
3739968,13
3740592,32
3741216,60
3741844,56
3742464,54
3743096,65
3743720,105
3744396,132
3745072,130
3745748,60
3746368,24
3747000,73
3747616,60
3748248,52
3748876,28
3749496,24
3750128,14
3750752,17
3751380,16
3752012,14
3752632,16
3753264,34
3753888,38
3754512,16
3755144,73
3755760,89
3756392,35
3757016,37
3757644,59
3758272,28
3758896,15
3759528,15
3760156,15
3760776,26
3761404,41
3762032,30
3762660,36
3763292,22
3763912,45
3764544,76
3765168,71
3765792,79
3766420,51
3767040,42
3767672,57
3768296,111
3768972,118
3769648,58
3770272,16
3770896,28
3771524,58
3772144,83
3772776,74
3773400,15
3774024,21
3774656,52
3775272,108
3775956,104
3776636,20
3777256,49
3777884,20
3778512,14
3779136,17
3779764,40
3780384,30
3781016,29
3781644,42
3782264,140
3782948,36
3783568,118
3784252,188
3784932,76
3785552,25
3786184,16
3786812,20
3787432,69
3788064,39
3788688,24
3789320,51
3789948,14
3790568,62
3791196,111
3791880,123
3792548,82
3793176,46
3793800,82
3794428,150
3795112,59
3795728,50
3796360,49
3796984,85
3797608,53
3798240,17
3798864,76
3799496,62
3800124,52
3800744,74
3801376,64
3802000,74
3802628,81
3803260,76
3803880,53
3804512,13
3805136,41
3805760,39
3806392,12
3807008,22
3807640,12
3808272,19
3808888,16
3809520,45
3810144,56
3810776,71
3811404,82
3812024,63
3812652,63
3813280,50
3813904,13
3814536,46
3815152,25
3815784,28
3816408,70
3817032,60
3817660,15
3818280,37
3818912,25
3819540,17
3820160,31
3820788,43
3821416,15
3822048,51
3822676,28
3823296,41
3823928,49
3824552,41
3825176,12
3825808,14
3826424,17
3827056,29
3827680,21
3828304,17
3828936,10
3829560,20
3830192,36
3830824,31
3831444,25
3832072,39
3832700,26
3833328,11
3833960,16
3834584,35
3835216,89
3835840,101
3836516,60
3837144,33
3837768,55
3838400,86
3839032,79
3839652,59
3840284,61
3840908,51
3841536,35
3842164,36
3842784,45
3843412,75
3844036,137
3844712,80
3845336,44
3845960,13
3846588,41
3847216,69
3847840,57
3848468,27
3849092,66
3849724,44
3850352,30
3850976,56
3851604,88
3852228,38
3852852,90
3853480,54
3854104,22
3854732,40
3855356,62
3855984,53
3856616,13
3857240,13
3857868,13
3858500,10
3859120,13
3859752,17
3860376,24
3861000,20
3861628,18
3862248,39
3862876,25
3863500,21
3864128,11
3864756,16
3865376,35
3866008,45
3866636,36
3867256,23
3867884,18
3868508,47
3869140,33
3869772,50
3870392,57
3871024,29
3871648,22
3872272,41
3872900,47
3873520,24
3874148,11
3874776,17
3875400,43
3876028,54
3876648,21
3877276,52
3877908,40
3878528,30
3879156,14
3879784,12
3880412,12
3881044,34
3881664,51
3882292,52
3882916,21
3883544,17
3884172,48
3884792,59
3885424,29
3886048,15
3886672,26
3887304,17
3887920,13
3888552,42
3889184,53
3889804,61
3890436,44
3891060,13
3891692,14
3892320,28
3892940,67
3893568,93
3894192,54
3894816,60
3895444,117
3896116,153
3896796,188
3897476,66
3898096,97
3898724,137
3899408,95
3900024,79
3900656,34
3901280,19
3901908,26
3902540,26
3903160,17
3903792,29
3904416,33
3905040,50
3905668,55
3906288,31
3906920,24
3907540,13
3908168,21
3908796,30
3909416,18
3910048,23
3910676,15
3911296,33
3911928,12
3912552,51
3913184,12
3913812,34
3914432,40
3915060,73
3915688,60
3916312,30
3916944,11
3917560,29
3918192,51
3918816,44
3919440,30
3920072,22
3920688,11
3921316,21
3921948,27
3922568,15
3923196,11
3923824,22
3924452,53
3925084,46
3925704,40
3926336,16
3926960,16
3927584,17
3928216,13
3928832,22
3929464,21
3930088,25
3930712,53
3931344,31
3931964,20
3932596,16
3933224,39
3933840,20
3934472,64
3935096,45
3935724,29
3936356,24
3936976,34
3937604,63
3938228,67
3938852,26
3939484,34
3940104,40
3940732,33
3941360,55
3941984,123
3942664,168
3943340,74
3943960,61
3944588,58
3945208,47
3945836,37
3946460,24
3947084,11
3947716,34
3948336,54
3948964,63
3949596,42
3950216,21
3950848,15
3951472,15
3952100,29
3952732,19
3953352,16
3953980,12
3954608,19
3955232,23
3955860,26
3956480,28
3957108,70
3957736,45
3958360,32
3958988,68
3959608,40
3960240,48
3960868,32
3961488,33
3962120,11
3962744,96
3963372,195
3964056,156
3964724,58
3965352,32
3965984,114
3966652,185
3967332,110
3968012,24
3968632,20
3969260,33
3969884,20
3970516,11
3971144,42
3971768,121
3972448,44
3973072,104
3973748,98
3974376,21
3975000,54
3975628,56
3976260,19
3976880,69
3977508,77
3978136,27
3978760,60
3979388,101
3980060,61
3980688,70
3981316,35
3981936,47
3982568,60
3983192,85
3983824,61
3984452,15
3985072,39
3985704,34
3986328,38
3986952,41
3987580,62
3988200,45
3988828,38
3989456,129
3990132,108
3990812,56
3991432,15
3992064,80
3992692,70
3993312,43
3993944,23
3994568,57
3995192,77
3995824,60
3996440,13
3997072,13
3997704,14
3998320,42
3998952,116
3999628,70
4000256,15
4000884,22
4001504,41
4002132,51
4002756,40
4003380,18
4004008,20
4004632,24
4005260,20
4005884,15
4006512,118
4007192,143
4007860,74
4008480,17
4009108,14
4009728,24
4010356,47
4010980,29
4011604,43
4012236,14
4012856,23
4013484,28
4014116,11
4014736,28
4015364,33
4015988,26
4016620,34
4017248,53
4017864,58
4018496,70
4019120,43
4019744,37
4020372,12
4020992,67
4021620,91
4022244,33
4022868,57
4023500,66
4024120,24
4024748,37
4025380,22
4026000,15
4026628,20
4027252,33
4027884,63
4028512,46
4029136,25
4029764,40
4030388,33
4031016,27
4031644,11
4032264,15
4032892,40
4033516,34
4034140,22
4034772,17
4035396,15
4036024,25
4036656,18
4037272,12
4037900,14
4038524,47
4039156,64
4039788,11
4040408,48
4041036,82
4041660,73
4042284,51
4042916,20
4043536,130
4044216,102
4044900,148
4045572,26
4046196,13
4046820,24
4047444,17
4048076,26
4048696,37
4049324,36
4049956,46
4050576,40
4051204,19
4051828,18
4052460,63
4053088,100
4053764,122
4054440,46
4055068,125
4055740,287
4056420,158
4057096,43
4057720,56
4058348,85
4058972,27
4059604,43
4060232,14
4060852,21
4061480,36
4062104,51
4062728,44
4063356,22
4063976,11
4064608,13
4065232,18
4065860,15
4066488,13
4067108,18
4067740,29
4068368,52
4068992,93
4069624,97
4070248,74
4070880,21
4071508,138
4072180,170
4072856,94
4073488,12
4074104,45
4074736,45
4075360,12
4075992,13
4076620,22
4077240,18
4077872,23
4078496,28
4079120,25
4079752,17
4080372,21
4081000,12
4081624,32
4082248,12
4082876,46
4083496,14
4084128,44
4084756,45
4085376,41
4086008,47
4086632,26
4087260,44
4087892,13
4088512,15
4089144,23
4089768,47
4090392,56
4091024,35
4091644,18
4092272,17
4092900,16
4093524,15
4094156,36
4094776,33
4095408,12
4096040,23
4096660,46
4097288,49
4097908,32
4098536,12
4099164,21
4099784,42
4100412,26
4101032,16
4101656,16
4102284,16
4102904,17
4103532,13
4104152,21
4104776,32
4105404,14
4106024,23
4106652,15
4107280,40
4107896,17
4108524,65
4109148,22
4109776,87
4110404,138
4111076,50
4111700,16
4112324,18
4112948,14
4113576,25
4114196,31
4114824,16
4115448,44
4116072,27
4116700,31
4117324,42
4117952,35
4118580,23
4119200,15
4119828,17
4120452,27
4121080,17
4121708,28
4122324,32
4122956,15
4123576,41
4124200,54
4124832,63
4125448,18
4126076,44
4126700,44
4127324,21
4127952,14
4128576,32
4129204,45
4129832,15
4130456,25
4131084,34
4131708,18
4132336,11
4132968,35
4133584,12
4134212,67
4134840,21
4135460,66
4136092,94
4136712,49
4137340,47
4137964,119
4138640,102
4139312,16
4139936,14
4140560,23
4141188,22
4141808,57
4142436,45
4143060,21
4143684,47
4144312,73
4144936,17
4145564,18
4146196,12
4146816,18
4147444,19
4148068,14
4148696,22
4149324,19
4149944,16
4150572,17
4151196,17
4151820,26
4152452,28
4153072,35
4153700,60
4154324,54
4154948,31
4155576,30
4156200,143
4156880,78
4157508,11
4158128,20
4158756,11
4159380,24
4160008,21
4160632,22
4161256,17
4161884,11
4162508,11
4163128,14
4163756,27
4164376,13
4165004,32
4165628,25
4166256,32
4166884,38
4167508,30
4168136,22
4168764,18
4169384,25
4170012,27
4170636,34
4171264,15
4171892,11
4172512,23
4173140,49
4173764,38
4174388,11
4175016,20
4175640,21
4176268,16
4176892,16
4177520,15
4178148,20
4178772,21
4179400,11
4180028,14
4180648,19
4181276,22
4181900,21
4182528,25
4183156,22
4183776,13
4184404,17
4185028,15
4185652,15
4186280,29
4186896,37
4187524,30
4188148,11
4188772,19
4189400,20
4190024,13
4190656,42
4191284,42
4191904,15
4192536,59
4193160,66
4193788,79
4194416,46
4195040,48
4195668,55
4196292,49
4196916,23
4197548,16
4198168,35
4198800,54
4199420,44
4200048,30
4200676,21
4201296,15
4201928,15
4202556,18
4203176,25
4203804,13
4204428,19
4205056,31
4205688,41
4206304,39
4206932,32
4207556,25
4208180,19
4208812,14
4209432,14
4210060,21
4210684,30
4211312,35
4211940,27
4212564,18
4213196,15
4213824,17
4214440,41
4215072,37
4215696,20
4216324,39
4216956,60
4217576,60
4218208,36
4218832,20
4219456,17
4220084,55
4220704,118
4221384,76
4222016,14
4222632,13
4223260,25
4223888,36
4224516,19
4225148,19
4225768,15
4226396,17
4227020,20
4227644,15
4228272,21
4228892,11
4229520,17
4230144,24
4230768,19
4231396,16
4232020,24
4232648,53
4233280,49
4233896,45
4234524,29
4235148,25
4235780,63
4236412,66
4237032,32
4237660,12
4238284,11
4238908,10
4239540,17
4240160,14
4240788,14
4241416,36
4242040,54
4242668,36
4243292,19
4243920,58
4244552,93
4245168,70
4245800,38
4246424,25
4247044,58
4247676,144
4248348,66
4248972,15
4249596,22
4250224,13
4250852,17
4251476,26
4252108,18
4252736,33
4253360,41
4253988,27
4254616,92
4255240,55
4255868,13
4256488,14
4257116,30
4257740,39
4258364,49
4258996,16
4259616,27
4260244,29
4260876,26
4261496,27
4262124,31
4262748,20
4263376,37
4264004,54
4264624,40
4265252,14
4265876,31
4266500,69
4267132,21
4267752,13
4268380,16
4269004,21
4269628,15
4270260,12
4270880,23
4271508,22
4272140,18
4272760,16
4273388,11
4274012,12
4274644,20
4275272,12
4275888,19
4276520,15
4277144,19
4277764,21
4278396,12
4279016,24
4279648,17
4280272,11
4280896,12
4281524,30
4282144,57
4282772,47
4283404,12
4284024,59
4284652,69
4285276,35
4285908,15
4286540,14
4287160,25
4287792,11
4288416,17
4289040,21
4289668,14
4290288,11
4290916,18
4291540,29
4292164,14
4292792,15
4293416,19
4294044,16
4294676,14
4295296,12
4295924,39
4296552,52
4297180,38
4297812,19
4298432,21
4299060,40
4299688,24
4300312,12
4300944,18
4301560,16
4302188,46
4302812,45
4303436,47
4304064,14
4304680,62
4305312,76
4305940,46
4306560,40
4307188,17
4307812,10
4308444,16
4309072,14
4309692,16
4310320,17
4310944,27
4311568,30
4312196,11
4312816,25
4313444,17
4314068,24
4314692,27
4315324,21
4315944,14
4316576,16
4317204,12
4317824,15
4318452,17
4319080,15
4319708,29
4320340,36
4320960,33
4321588,11
4322212,29
4322836,65
4323468,86
4324088,95
4324716,26
4325340,16
4325964,20
4326596,14
4327216,16
4327844,16
4328476,66
4329096,85
4329724,80
4330348,45
4330980,17
4331608,62
4332232,81
4332860,36
4333484,73
4334108,36
4334740,22
4335360,82
4335988,49
4336616,17
4337240,18
4337868,37
4338488,34
4339120,35
4339748,16
4340368,26
4340996,44
4341624,20
4342252,18
4342884,22
4343504,37
4344132,37
4344756,16
4345380,24
4346012,16
4346632,26
4347260,19
4347884,12
4348508,12
4349140,14
4349764,12
4350396,13
4351028,14
4351648,24
4352280,21
4352904,16
4353532,11
4354164,15
4354784,21
4355412,27
4356036,29
4356660,26
4357288,14
4357912,12
4358540,11
4359164,14
4359792,19
4360420,24
4361044,20
4361676,15
4362304,21
4362920,19
4363552,13
4364176,11
4364804,36
4365432,56
4366052,55
4366680,24
4367304,14
4367928,18
4368560,23
4369176,17
4369804,23
4370428,31
4371056,25
4371688,12
4372312,33
4372940,55
4373572,22
4374192,21
4374824,60
4375448,94
4376072,103
4376752,39
4377368,23
4378000,41
4378624,21
4379248,12
4379876,11
4380500,11
4381132,16
4381764,14
4382384,18
4383016,26
4383640,36
4384264,23
4384892,20
4385512,16
4386140,17
4386764,48
4387388,61
4388020,46
4388640,27
4389268,12
4389900,11
4390520,16
4391148,11
4391772,17
4392404,27
4393036,28
4393656,42
4394284,21
4394908,34
4395536,81
4396164,77
4396784,42
4397416,64
4398040,44
4398664,49
4399296,57
4399916,58
4400548,44
4401176,40
4401796,51
4402428,31
4403052,21
4403680,33
4404312,58
4404928,88
4405556,81
4406180,40
4406804,26
4407436,26
4408056,37
4408684,20
4409308,29
4409932,18
4410564,43
4411184,32
4411816,22
4412444,22
4413064,41
4413696,46
4414320,58
4414948,21
4415580,32
4416200,43
4416828,22
4417452,27
4418076,17
4418708,15
4419328,19
4419956,16
4420584,12
4421208,25
4421836,36
4422456,49
4423084,36
4423716,18
4424336,16
4424964,13
4425588,12
4426216,14
4426848,29
4427464,30
4428096,18
4428720,31
4429344,21
4429972,13
4430592,21
4431220,12
4431844,27
4432472,77
4433100,81
4433720,67
4434348,19
4434980,33
4435600,28
4436228,23
4436852,17
4437484,11
4438116,56
4438736,111
4439420,112
4440100,37
4440720,13
4441348,11
4441976,13
4442604,18
4443236,14
4443856,15
4444488,23
4445108,21
4445732,17
4446364,18
4446984,15
4447612,11
4448240,12
4448864,22
4449492,33
4450116,37
4450748,27
4451376,14
4452000,20
4452628,23
4453256,17
4453884,17
4454516,16
4455136,11
4455764,12
4456388,18
4457012,17
4457644,26
4458264,38
4458892,27
4459516,34
4460144,21
4460776,16
4461400,15
4462032,22
4462660,18
4463280,20
4463912,11
4464536,13
4465160,29
4465788,49
4466408,52
4467036,45
4467664,21
4468288,80
4468916,79
4469536,51
4470168,38
4470796,13
4471416,24
4472048,12
4472672,11
4473304,28
4473932,22
4474552,35
4475184,21
4475808,51
4476432,51
4477064,26
4477680,16
4478312,19
4478936,43
4479564,32
4480196,18
4480816,16
4481444,33
4482072,44
4482692,34
4483320,32
4483944,49
4484572,42
4485204,14
4485824,22
4486452,49
4487076,93
4487700,94
4488328,46
4488944,18
4489576,11
4490200,22
4490824,38
4491452,26
4492072,17
4492700,41
4493332,34
4493952,20
4494584,16
4495208,39
4495836,36
4496468,22
4497088,14
4497716,13
4498344,11
4498968,12
4499596,10
4500216,11
4500848,15
4501472,15
4502096,20
4502724,25
4503344,17
4503976,14
4504608,13
4505224,15
4505856,11
4506480,17
4507108,46
4507736,25
4508356,19
4508984,31
4509608,14
4510228,18
4510860,22
4511480,21
4512108,11
4512732,23
4513356,15
4513984,25
4514608,45
4515236,35
4515868,50
4516488,59
4517116,40
4517740,14
4518372,22
4519004,32
4519624,21
4520252,21
4520876,13
4521500,11
4522132,20
4522752,27
4523384,29
4524008,28
4524632,20
4525260,11
4525880,16
4526508,14
4527140,16
4527760,18
4528388,26
4529012,19
4529644,13
4530272,11
4530896,19
4531524,11
4532148,17
4532772,18
4533404,14
4534024,23
4534652,21
4535276,16
4535904,28
4536536,26
4537160,23
4537788,25
4538420,23
4539040,25
4539668,29
4540296,26
4540924,13
4541556,12
4542176,12
4542808,29
4543432,46
4544056,33
4544684,25
4545304,26
4545932,17
4546556,67
4547184,56
4547816,30
4548440,17
4549068,25
4549700,28
4550320,31
4550952,25
4551576,16
4552200,16
4552828,22
4553448,18
4554080,16
4554704,14
4555328,39
4555960,64
4556580,46
4557208,15
4557840,13
4558456,25
4559088,30
4559712,30
4560344,15
4560972,16
4561592,17
4562224,17
4562848,35
4563472,18
4564100,19
4564720,51
4565348,53
4565976,59
4566600,54
4567232,22
4567848,15
4568476,27
4569108,52
4569728,30
4570356,46
4570980,31
4571612,25
4572244,80
4572864,115
4573544,54
4574168,13
4574792,15
4575424,11
4576040,17
4576672,16
4577304,27
4577920,32
4578548,13
4579176,59
4579808,66
4580436,63
4581056,60
4581688,23
4582312,47
4582936,41
4583568,43
4584188,46
4584820,16
4585444,17
4586068,21
4586700,22
4587320,32
4587952,19
4588580,11
4589200,19
4589828,18
4590452,22
4591084,30
4591716,18
4592336,15
4592964,16
4593588,16
4594216,18
4594844,28
4595464,34
4596092,23
4596720,35
4597344,35
4597972,13
4598600,47
4599228,33
4599860,12
4600480,20
4601108,14
4601736,14
4602364,13
4602996,14
4603616,12
4604244,10
4604872,14
4605496,12
4606124,20
4606744,14
4607376,13
4608004,10
4608620,11
4609248,14
4609872,19
4610504,43
4611132,62
4611752,24
4612380,15
4613004,13
4613636,12
4614264,15
4614888,50
4615516,62
4616140,58
4616764,56
4617396,16
4618016,58
4618644,55
4619276,44
4619896,45
4620524,29
4621152,11
4621780,21
4622408,12
4623032,11
4623664,12
4624288,13
4624912,18
4625540,10
4626160,17
4626788,16
4627412,15
4628036,15
4628668,16
4629288,12
4629916,11
4630548,16
4631168,13
4631796,15
4632424,30
4633052,33
4633684,44
4634304,32
4634932,28
4635556,33
4636180,37
4636812,12
4637432,28
4638064,83
4638688,142
4639364,79
4639992,15
4640616,11
4641244,13
4641876,15
4642496,19
4643124,23
4643748,21
4644372,28
4645004,24
4645624,25
4646252,11
4646880,12
4647500,13
4648132,16
4648752,33
4649384,52
4650012,52
4650632,21
4651260,85
4651888,54
4652516,38
4653148,50
4653768,50
4654396,32
4655024,21
4655648,19
4656276,21
4656896,15
4657524,14
4658152,11
4658776,15
4659408,21
4660024,17
4660652,17
4661284,16
4661904,11
4662532,11
4663160,17
4663788,17
4664420,11
4665040,33
4665668,41
4666292,50
4666916,27
4667548,18
4668168,23
4668796,17
4669424,15
4670048,16
4670676,14
4671304,26
4671932,55
4672564,42
4673184,11
4673812,11
4674436,14
4675068,28
4675696,28
4676320,17
4676948,29
4677572,27
4678200,21
4678828,11
4679448,15
4680080,13
4680700,12
4681328,11
4681956,14
4682580,23
4683212,47
4683844,56
4684464,42
4685096,16
4685720,21
4686344,25
4686972,44
4687592,76
4688224,73
4688848,56
4689472,37
4690100,16
4690720,10
4691348,12
4691980,38
4692600,58
4693228,24
4693856,15
4694484,21
4695116,14
4695736,38
4696368,43
4696992,18
4697616,17
4698244,16
4698864,22
4699496,31
4700120,41
4700744,30
4701376,15
4701996,20
4702624,22
4703256,15
4703880,15
4704512,17
4705136,11
4705768,20
4706396,12
4707016,34
4707648,34
4708276,39
4708900,51
4709532,26
4710152,15
4710788,15
4711408,45
4712032,56
4712664,17
4713288,14
4713916,19
4714548,29
4715168,15
4715800,35
4716424,40
4717056,46
4717684,30
4718304,15
4718936,19
4719560,21
4720184,24
4720812,16
4721432,44
4722060,74
4722688,126
4723364,92
4723988,23
4724616,13
4725244,11
4725876,13
4726496,15
4727124,17
4727752,27
4728376,29
4729008,23
4729624,23
4730252,25
4730880,12
4731504,11
4732136,14
4732760,11
4733392,16
4734024,17
4734640,17
4735272,17
4735900,28
4736524,37
4737156,12
4737776,37
4738404,47
4739028,36
4739656,21
4740284,18
4740904,13
4741536,11
4742164,16
4742784,19
4743412,21
4744040,29
4744668,33
4745300,23
4745920,23
4746552,47
4747176,17
4747800,52
4748432,53
4749052,69
4749680,65
4750304,24
4750928,46
4751560,89
4752180,63
4752808,27
4753440,26
4754056,11
4754684,19
4755312,41
4755940,59
4756572,38
4757192,12
4757824,15
4758448,11
4759072,15
4759704,26
4760320,27
4760952,16
4761576,15
4762200,13
4762832,15
4763452,34
4764080,24
4764712,13
4765332,15
4765960,39
4766588,47
4767216,44
4767848,23
4768468,23
4769096,64
4769724,66
4770348,35
4770980,10
4771600,13
4772232,21
4772856,12
4773480,14
4774112,15
4774736,15
4775364,19
4775996,14
4776616,19
4777248,18
4777872,27
4778504,16
4779132,34
4779752,24
4780384,14
4781012,16
4781636,29
4782268,46
4782888,54
4783520,46
4784148,20
4784768,25
4785400,19
4786024,20
4786656,37
4787284,61
4787904,74
4788536,57
4789160,25
4789784,15
4790416,18
4791032,12
4791664,23
4792292,28
4792916,21
4793548,25
4794168,14
4794800,19
4795432,35
4796052,43
4796680,42
4797308,26
4797940,14
4798572,30
4799192,25
4799828,23
4800452,18
4801076,19
4801708,16
4802328,16
4802956,15
4803580,18
4804208,19
4804836,21
4805460,23
4806092,14
4806720,13
4807340,11
4807968,15
4808592,10
4809224,19
4809852,23
4810472,15
4811100,23
4811728,25
4812352,19
4812984,14
4813600,32
4814228,45
4814860,46
4815480,21
4816108,28
4816732,40
4817364,13
4817992,16
4818608,19
4819240,63
4819864,60
4820488,37
4821116,11
4821736,21
4822368,33
4822992,17
4823616,24
4824244,59
4824864,56
4825492,45
4826124,27
4826744,16
4827376,34
4828000,41
4828628,35
4829260,28
4829880,63
4830512,73
4831136,51
4831760,33
4832392,23
4833008,70
4833640,66
4834264,16
4834888,17
4835516,42
4836136,73
4836768,87
4837396,34
4838016,11
4838648,9
4839216,27
4839852,39
4840484,34
4841104,30
4841732,11
4842356,29
4842988,17
4843620,14
4844240,19
4844868,21
4845492,19
4846116,24
4846748,16
4847368,14
4847996,29
4848624,40
4849248,42
4849880,15
4850504,27
4851132,49
4851764,29
4852384,15
4853016,16
4853640,11
4854272,12
4854900,15
4855520,16
4856152,12
4856776,15
4857400,22
4858032,46
4858648,61
4859280,37
4859912,15
4860528,20
4861160,25
4861784,26
4862416,18
4863044,17
4863664,12
4864296,15
4864920,18
4865544,13
4866172,12
4866792,15
4867420,20
4868044,14
4868668,24
4869300,24
4869920,19
4870548,29
4871180,29
4871800,29
4872432,25
4873056,17
4873684,42
4874316,48
4874936,13
4875564,12
4876192,15
4876816,20
4877444,16
4878064,15
4878696,11
4879320,13
4879944,11
4880576,17
4881192,11
4881824,19
4882452,42
4883072,59
4883704,51
4884328,44
4884956,20
4885588,42
4886208,28
4886840,14
4887464,51
4888088,72
4888716,52
4889336,30
4889968,11
4890592,17
4891216,15
4891844,16
4892464,33
4893096,27
4893724,14
4894344,15
4894976,17
4895600,11
4896232,20
4896860,11
4897480,12
4898108,29
4898736,35
4899360,52
4899988,45
4900608,32
4901240,18
4901864,28
4902488,49
4903116,52
4903736,28
4904368,13
4905000,10
4905616,16
4906244,37
4906872,30
4907504,19
4908132,14
4908752,11
4909384,17
4910012,26
4910636,32
4911268,27
4911888,12
4912524,11
4913148,10
4913776,10
4914408,12
4915036,27
4915668,39
4916296,54
4916916,65
4917544,52
4918168,19
4918792,30
4919420,45
4920040,55
4920668,59
4921292,39
4921916,18
4922544,11
4923168,11
4923796,29
4924428,20
4925048,11
4925676,11
4926300,17
4926932,15
4927564,28
4928184,36
4928812,17
4929436,23
4930060,42
4930688,36
4931304,30
4931936,14
4932560,16
4933184,21
4933812,10
4934432,15
4935060,20
4935692,20
4936312,15
4936940,12
4937564,13
4938196,20
4938828,35
4939448,47
4940076,47
4940704,37
4941328,15
4941956,28
4942576,21
4943204,15
4943828,26
4944456,34
4945084,30
4945704,19
4946332,15
4946964,15
4947584,17
4948212,13
4948836,15
4949468,15
4950100,12
4950720,13
4951348,23
4951976,17
4952600,17
4953232,25
4953848,14
4954480,12
4955104,11
4955728,11
4956360,10
4956976,11
4957604,12
4958236,18
4958856,11
4959488,17
4960112,17
4960740,35
4961372,22
4961992,13
4962620,22
4963244,21
4963868,13
4964496,20
4965120,17
4965748,31
4966376,27
4967000,13
4967628,19
4968248,31
4968876,19
4969508,14
4970128,17
4970756,11
4971384,12
4972012,12
4972644,11
4973264,13
4973892,22
4974520,29
4975144,33
4975776,21
4976392,15
4977024,16
4977644,16
4978268,16
4978900,11
4979524,14
4980156,14
4980784,20
4981408,38
4982040,30
4982664,23
4983292,16
4983924,11
4984544,14
4985172,15
4985800,19
4986424,16
4987052,13
4987672,21
4988304,44
4988932,48
4989552,35
4990184,24
4990808,27
4991440,15
4992072,11
4992688,20
4993316,26
4993940,37
4994568,41
4995196,18
4995816,18
4996448,44
4997072,47
4997696,15
4998324,42
4998944,66
4999572,71
5000204,56
5000824,35
5001452,53
5002076,94
5002708,71
5003340,20
5003960,15
5004592,16
5005216,11
5005840,15
5006468,30
5007088,59
5007720,58
5008344,30
5008968,11
5009596,20
5010216,29
5010848,25
5011476,26
5012096,18
5012728,13
5013352,16
5013984,24
5014612,12
5015232,11
5015864,25
5016488,15
5017112,12
5017744,15
5018360,17
5018992,21
5019616,21
5020240,17
5020868,10
5021488,24
5022116,45
5022748,33
5023368,11
5024000,35
5024620,33
5025252,20
5025884,28
5026504,16
5027136,30
5027760,46
5028384,54
5029016,47
5029632,14
5030264,18
5030888,11
5031512,16
5032144,19
5032760,11
5033392,12
5034024,16
5034644,22
5035276,19
5035900,15
5036532,15
5037164,14
5037784,19
5038416,26
5039040,31
5039664,27
5040296,17
5040912,16
5041544,27
5042168,29
5042792,20
5043424,19
5044048,15
5044676,18
5045308,16
5045928,21
5046556,15
5047184,11
5047816,29
5048444,46
5049064,42
5049696,30
5050320,15
5050944,35
5051576,68
5052192,31
5052824,15
5053456,15
5054072,11
5054704,13
5055328,18
5055960,22
5056596,21
5057216,15
5057848,11
5058472,11
5059096,17
5059728,14
5060344,14
5060976,15
5061600,15
5062224,13
5062856,22
5063476,38
5064104,38
5064736,44
5065356,34
5065988,20
5066612,39
5067244,35
5067876,44
5068496,41
5069128,16
5069752,28
5070380,30
5071012,19
5071632,11
5072264,48
5072892,45
5073516,19
5074148,11
5074772,22
5075404,30
5076036,24
5076656,25
5077288,15
5077912,16
5078536,17
5079168,15
5079792,16
5080424,16
5081048,11
5081672,14
5082300,11
5082920,12
5083552,25
5084180,26
5084800,16
5085428,15
5086056,21
5086688,27
5087320,20
5087936,23
5088568,47
5089196,45
5089820,15
5090452,29
5091072,61
5091704,105
5092388,91
5093008,33
5093640,15
5094264,15
5094896,19
5095524,16
5096144,15
5096776,21
5097400,28
5098028,45
5098656,55
5099280,65
5099912,47
5100536,26
5101164,18
5101792,15
5102420,47
5103052,79
5103684,53
5104304,32
5104936,38
5105564,27
5106188,24
5106820,28
5107440,19
5108072,17
5108696,25
5109320,25
5109952,16
5110576,15
5111208,21
5111840,14
5112460,11
5113092,14
5113720,13
5114352,13
5114984,15
5115604,24
5116236,19
5116860,13
5117488,15
5118120,16
5118740,18
5119372,16
5120004,31
5120620,27
5121248,21
5121872,22
5122500,21
5123128,16
5123752,12
5124380,10
5125004,12
5125632,11
5126260,13
5126880,18
5127508,15
5128132,16
5128756,13
5129384,11
5130004,11
5130632,23
5131256,35
5131880,43
5132508,27
5133132,18
5133760,12
5134388,19
5135008,40
5135636,35
5136260,23
5136892,17
5137520,21
5138140,17
5138768,17
5139392,16
5140016,13
5140644,10
5141264,12
5141892,13
5142516,29
5143140,45
5143768,42
5144392,19
5145024,15
5145652,16
5146272,24
5146900,19
5147524,28
5148152,63
5148784,62
5149400,55
5150032,48
5150656,27
5151280,51
5151908,80
5152528,54
5153156,39
5153780,33
5154404,17
5155036,13
5155660,14
5156292,15
5156920,18
5157544,11
5158176,17
5158800,13
5159428,32
5160060,44
5160680,29
5161308,26
5161932,28
5162556,24
5163188,28
5163808,26
5164436,18
5165068,18
5165688,35
5166316,22
5166940,17
5167572,18
5168204,14
5168824,35
5169452,30
5170076,15
5170700,13
5171332,29
5171952,16
5172580,17
5173204,28
5173828,29
5174460,43
5175080,41
5175708,33
5176340,14
5176960,16
5177588,15
5178216,26
5178844,26
5179476,55
5180096,78
5180728,25
5181352,21
5181976,34
5182608,55
5183224,48
5183856,18
5184480,14
5185100,15
5185732,14
5186352,17
5186980,16
5187612,30
5188232,29
5188860,28
5189484,26
5190116,11
5190748,10
5191368,17
5191996,11
5192624,17
5193248,30
5193880,23
5194496,22
5195124,24
5195752,24
5196376,25
5197008,17
5197624,24
5198252,12
5198884,11
5199504,14
5200136,12
5200760,26
5201388,25
5202020,21
5202640,25
5203268,18
5203892,11
5204516,10
5205144,11
5205764,11
5206392,21
5207016,12
5207640,18
5208268,11
5208888,19
5209516,43
5210148,33
5210768,19
5211400,19
5212024,12
5212652,26
5213284,26
5213904,12
5214536,14
5215160,13
5215784,27
5216416,20
5217032,16
5217664,25
5218284,15
5218908,17
5219540,18
5220164,17
5220796,23
5221428,36
5222048,41
5222680,31
5223304,20
5223932,25
5224564,10
5225184,14
5225812,11
5226436,16
5227060,15
5227692,18
5228312,19
5228944,24
5229568,20
5230192,13
5230824,11
5231448,11
5232076,11
5232708,14
5233328,25
5233956,21
5234584,15
5235208,15
5235836,16
5236456,30
5237088,29
5237712,26
5238336,25
5238968,11
5239584,45
5240216,79
5240848,64
5241464,58
5242096,36
5242720,15
5243352,15
5243980,20
5244600,15
5245228,16
5245852,17
5246476,22
5247104,18
5247724,11
5248352,12
5248976,21
5249596,31
5250228,34
5250848,29
5251476,15
5252104,16
5252728,16
5253356,19
5253980,21
5254608,15
5255236,14
5255856,37
5256484,73
5257108,50
5257732,24
5258364,39
5258984,37
5259612,18
5260236,49
5260860,45
5261488,16
5262104,15
5262736,22
5263364,11
5263984,16
5264612,24
5265236,13
5265864,51
5266496,73
5267112,53
5267744,18
5268364,37
5268996,38
5269624,36
5270248,31
5270876,26
5271500,11
5272128,24
5272756,21
5273376,12
5274008,16
5274636,23
5275256,21
5275884,17
5276508,15
5277140,29
5277768,26
5278384,14
5279016,13
5279640,11
5280264,11
5280892,10
5281512,15
5282140,26
5282764,54
5283388,54
5284016,44
5284632,21
5285260,22
5285884,62
5286512,71
5287140,29
5287764,23
5288392,32
5289020,35
5289640,25
5290268,69
5290888,68
5291520,42
5292148,29
5292768,75
5293400,47
5294020,15
5294644,19
5295276,12
5295896,27
5296524,48
5297148,25
5297776,13
5298404,18
5299028,23
5299660,34
5300288,34
5300912,19
5301540,15
5302164,17
5302792,18
5303420,19
5304040,15
5304668,54
5305292,72
5305916,34
5306548,10
5307168,16
5307796,19
5308428,14
5309048,32
5309676,28
5310300,17
5310932,18
5311564,20
5312184,28
5312812,14
5313436,19
5314060,13
5314692,10
5315312,12
5315940,18
5316564,28
5317188,29
5317820,20
5318440,15
5319068,14
5319700,16
5320320,17
5320948,31
5321572,45
5322204,38
5322836,11
5323456,34
5324088,80
5324712,92
5325336,92
5325964,50
5326584,21
5327212,15
5327836,19
5328460,19
5329088,18
5329704,34
5330332,23
5330960,22
5331584,23
5332212,12
5332836,21
5333464,28
5334092,32
5334712,30
5335340,34
5335964,19
5336588,29
5337220,30
5337840,21
5338468,14
5339092,39
5339716,23
5340344,48
5340968,85
5341596,67
5342228,44
5342848,30
5343476,15
5344100,15
5344732,16
5345360,23
5345976,28
5346608,30
5347232,24
5347852,24
5348484,14
5349104,13
5349732,11
5350356,16
5350984,17
5351612,17
5352232,21
5352860,28
5353492,22
5354112,17
5354740,15
5355364,26
5355996,26
5356628,24
5357248,13
5357876,28
5358500,45
5359128,32
5359756,15
5360376,19
5361004,17
5361628,15
5362252,14
5362884,10
5363504,14
5364132,11
5364764,13
5365384,15
5366012,13
5366636,25
5367268,75
5367896,100
5368572,72
5369196,17
5369820,37
5370444,112
5371128,135
5371796,72
5372420,31
5373048,11
5373672,12
5374300,15
5374928,11
5375552,14
5376184,14
5376800,16
5377428,18
5378056,14
5378672,12
5379304,28
5379924,21
5380556,14
5381184,10
5381808,14
5382436,26
5383060,39
5383684,34
5384316,20
5384936,15
5385564,20
5386188,25
5386816,23
5387444,14
5388064,11
5388692,13
5389324,11
5389944,28
5390572,27
5391196,11
5391828,14
5392460,28
5393080,25
5393708,17
5394332,18
5394956,26
5395588,27
5396208,12
5396836,18
5397460,29
5398084,13
5398716,12
5399336,11
5399968,12
5400596,26
5401216,26
5401848,16
5402468,24
5403100,50
5403732,43
5404352,11
5404980,21
5405604,33
5406228,17
5406860,32
5407480,55
5408108,25
5408732,24
5409356,25
5409984,45
5410600,42
5411232,32
5411860,19
5412480,15
5413108,15
5413732,26
5414364,29
5414992,19
5415616,19
5416244,12
5416868,11
5417492,14
5418124,18
5418744,24
5419372,15
5420000,17
5420620,13
5421252,14
5421872,11
5422504,17
5423132,20
5423752,17
5424384,13
5425008,33
5425636,41
5426268,56
5426888,43
5427516,16
5428140,19
5428764,13
5429396,14
5430016,13
5430644,11
5431268,25
5431892,53
5432524,51
5433144,43
5433772,43
5434404,26
5435024,32
5435652,52
5436280,46
5436908,28
5437540,16
5438160,12
5438788,21
5439416,22
5440040,21
5440668,30
5441288,24
5441916,10
5442540,12
5443164,15
5443792,17
5444412,22
5445040,15
5445668,14
5446288,12
5446916,20
5447540,43
5448172,62
5448800,59
5449416,50
5450048,19
5450672,57
5451296,82
5451924,56
5452544,31
5453172,15
5453796,11
5454420,11
5455052,26
5455672,51
5456300,40
5456932,14
5457552,13
5458180,33
5458804,81
5459436,57
5460064,41
5460688,34
5461316,19
5461940,14
5462564,13
5463196,16
5463816,15
5464448,32
5465068,51
5465696,104
5466376,105
5467044,63
5467664,90
5468296,182
5468964,130
5469640,16
5470268,19
5470888,14
5471516,14
5472144,29
5472772,20
5473404,14
5474024,14
5474652,13
5475276,13
5475900,15
5476532,22
5477152,15
5477784,15
5478412,18
5479032,17
5479660,14
5480284,20
5480916,21
5481544,11
5482168,23
5482796,21
5483424,20
5484048,38
5484676,26
5485296,15
5485924,15
5486548,39
5487176,43
5487804,25
5488424,16
5489052,16
5489684,16
5490304,18
5490932,17
5491556,11
5492188,16
5492816,14
5493440,21
5494068,19
5494692,19
5495316,13
5495948,10
5496568,12
5497196,11
5497824,17
5498448,24
5499076,25
5499696,18
5500324,12
5500956,16
5501576,35
5502208,55
5502832,35
5503464,16
5504096,20
5504712,20
5505340,18
5505964,25
5506588,13
5507220,10
5507840,25
5508468,36
5509096,35
5509720,16
5510348,39
5510968,42
5511596,34
5512228,19
5512848,12
5513476,19
5514104,17
5514732,20
5515364,29
5515984,38
5516616,35
5517240,24
5517864,15
5518496,14
5519112,15
5519744,15
5520368,26
5520992,59
5521620,71
5522244,51
5522876,17
5523508,11
5524128,11
5524760,13
5525384,11
5526012,21
5526644,15
5527264,14
5527896,15
5528520,31
5529144,67
5529776,55
5530392,25
5531020,16
5531644,11
5532272,15
5532900,41
5533524,75
5534156,69
5534788,22
5535408,77
5536040,112
5536712,92
5537328,49
5537960,30
5538576,27
5539208,20
5539832,13
5540456,13
5541084,21
5541712,21
5542340,11
5542972,14
5543592,15
5544224,19
5544848,19
5545476,15
5546108,26
5546728,35
5547360,28
5547984,11
5548608,12
5549240,11
5549856,14
5550488,15
5551116,15
5551736,22
5552368,17
5552992,23
5553620,19
5554252,16
5554872,33
5555504,77
5556128,70
5556752,40
5557384,16
5558000,17
5558632,17
5559256,13
5559880,14
5560512,15
5561128,15
5561760,19
5562388,38
5563008,34
5563640,25
5564264,14
5564896,12
5565524,38
5566144,28
5566776,16
5567400,29
5568024,23
5568652,18
5569272,16
5569904,20
5570528,15
5571152,36
5571784,53
5572400,46
5573028,17
5573660,14
5574280,15
5574912,13
5575536,12
5576164,14
5576796,14
5577416,15
5578048,15
5578672,13
5579296,10
5579928,11
5580544,11
5581176,14
5581800,21
5582424,25
5583052,19
5583672,20
5584304,29
5584932,32
5585552,33
5586184,38
5586808,31
5587436,13
5588068,46
5588688,69
5589320,53
5589944,39
5590568,29
5591200,11
5591816,11
5592448,11
5593072,16
5593696,19
5594324,21
5594948,16
5595580,11
5596212,26
5596832,29
5597460,31
5598088,12
5598716,28
5599348,16
5599968,11
5600600,15
5601224,16
5601848,26
5602480,25
5603096,16
5603728,13
5604356,10
5604976,11
5605604,13
5606228,10
5606860,15
5607492,30
5608112,24
5608740,11
5609364,14
5609992,31
5610620,63
5611240,44
5611868,15
5612492,22
5613116,23
5613748,12
5614368,19
5614996,25
5615628,14
5616248,37
5616876,45
5617500,36
5618132,26
5618760,16
5619384,16
5620012,18
5620636,37
5621260,50
5621892,44
5622512,36
5623144,27
5623768,29
5624392,22
5625020,11
5625640,13
5626268,14
5626900,14
5627520,17
5628152,19
5628776,13
5629408,16
5630040,19
5630660,17
5631292,16
5631916,21
5632544,15
5633172,29
5633792,24
5634420,21
5635044,21
5635668,19
5636296,17
5636920,20
5637548,47
5638180,77
5638800,69
5639428,35
5640052,21
5640684,13
5641312,12
5641928,33
5642560,32
5643184,28
5643808,30
5644436,16
5645056,17
5645684,17
5646308,11
5646932,15
5647564,16
5648184,18
5648812,12
5649444,14
5650064,17
5650692,20
5651316,15
5651948,17
5652580,16
5653200,15
5653828,17
5654452,15
5655076,10
5655704,29
5656328,56
5656956,65
5657580,44
5658208,17
5658836,14
5659460,21
5660092,36
5660720,42
5661344,17
5661972,18
5662600,11
5663228,19
5663860,12
5664480,20
5665108,34
5665732,23
5666356,29
5666988,42
5667608,21
5668236,22
5668860,28
5669488,18
5670116,19
5670744,17
5671372,10
5672004,10
5672624,11
5673256,11
5673880,24
5674504,35
5675132,31
5675752,24
5676384,23
5677008,18
5677632,15
5678264,18
5678880,24
5679508,35
5680140,25
5680760,13
5681388,13
5682016,28
5682644,40
5683276,20
5683896,13
5684524,16
5685148,23
5685772,32
5686404,44
5687024,37
5687652,26
5688280,17
5688904,15
5689532,34
5690152,64
5690784,61
5691412,37
5692032,12
5692664,47
5693288,83
5693920,55
5694548,31
5695168,35
5695800,27
5696424,15
5697048,12
5697676,19
5698296,21
5698924,20
5699548,20
5700172,30
5700804,27
5701424,26
5702056,15
5702684,19
5703304,18
5703936,18
5704560,19
5705188,16
5705820,24
5706440,16
5707068,13
5707696,16
5708320,20
5708952,21
5709568,15
5710200,17
5710824,33
5711448,21
5712080,13
5712696,11
5713328,12
5713956,15
5714576,48
5715208,18
5715832,26
5716460,32
5717092,29
5717712,15
5718344,21
5718968,15
5719596,15
5720228,16
5720848,26
5721480,40
5722104,36
5722728,19
5723360,12
5723984,63
5724616,76
5725248,73
5725864,46
5726496,27
5727120,15
5727752,25
5728384,34
5729004,28
5729632,17
5730256,11
5730884,17
5731512,30
5732136,23
5732768,15
5733400,33
5734024,44
5734656,50
5735280,44
5735912,19
5736540,27
5737160,71
5737788,73
5738412,50
5739036,28
5739668,18
5740288,15
5740916,11
5741540,11
5742164,12
5742796,15
5743416,15
5744044,21
5744676,28
5745296,42
5745924,36
5746548,21
5747180,14
5747812,23
5748432,11
5749064,20
5749688,39
5750312,15
5750940,12
5751560,14
5752192,18
5752816,17
5753440,18
5754072,15
5754696,17
5755328,38
5755956,38
5756576,30
5757208,17
5757832,11
5758460,9
5759040,11
5759664,15
5760296,16
5760916,21
5761540,15
5762172,14
5762792,17
5763420,25
5764044,38
5764668,43
5765296,31
5765912,27
5766544,15
5767168,47
5767792,45
5768420,19
5769044,15
5769676,14
5770304,14
5770920,29
5771552,27
5772176,32
5772804,15
5773436,12
5774056,12
5774684,11
5775312,15
5775936,28
5776564,27
5777184,28
5777812,24
5778444,20
5779064,11
5779692,18
5780316,12
5780948,13
5781580,12
5782200,13
5782828,19
5783452,27
5784076,43
5784708,30
5785328,18
5785960,15
5786580,15
5787204,28
5787832,33
5788456,33
5789084,31
5789716,28
5790336,29
5790968,27
5791592,16
5792220,10
5792852,14
5793472,15
5794100,15
5794724,15
5795348,15
5795980,12
5796600,15
5797228,18
5797852,30
5798476,38
5799108,31
5799728,22
5800356,18
5800988,14
5801608,21
5802236,40
5802860,33
5803492,25
5804124,22
5804744,27
5805376,34
5806000,35
5806624,29
5807252,19
5807872,13
5808504,9
5809076,11
5809704,15
5810336,23
5810952,35
5811584,33
5812208,31
5812832,17
5813460,23
5814088,31
5814716,33
5815348,16
5815968,27
5816600,46
5817224,50
5817852,32
5818484,21
5819104,49
5819736,58
5820360,47
5820984,41
5821612,34
5822232,21
5822864,12
5823492,10
5824112,14
5824740,11
5825364,16
5825996,17
5826624,18
5827248,20
5827876,18
5828500,17
5829128,12
5829756,22
5830376,29
5831008,15
5831632,11
5832256,13
5832884,22
5833504,29
5834136,34
5834768,28
5835384,21
5836016,15
5836640,22
5837272,44
5837900,27
5838520,17
5839148,23
5839776,31
5840400,30
5841028,22
5841648,18
5842276,13
5842900,15
5843524,15
5844156,21
5844776,25
5845404,25
5846036,16
5846656,11
5847288,11
5847912,11
5848540,15
5849172,20
5849792,22
5850420,22
5851044,26
5851672,17
5852300,16
5852920,20
5853548,15
5854176,33
5854800,51
5855432,35
5856048,42
5856680,40
5857308,15
5857928,11
5858556,16
5859180,19
5859812,16
5860444,14
5861064,15
5861696,14
5862320,14
5862944,18
5863572,26
5864192,38
5864820,43
5865444,45
5866072,37
5866700,22
5867320,12
5867952,15
5868580,15
5869200,22
5869828,33
5870456,40
5871084,51
5871716,65
5872336,66
5872968,35
5873592,15
5874216,10
5874848,13
5875468,11
5876100,15
5876724,17
5877348,17
5877980,14
5878608,15
5879236,10
5879868,10
5880488,12
5881120,11
5881744,15
5882376,24
5883004,27
5883624,26
5884256,23
5884880,15
5885504,21
5886136,16
5886756,19
5887388,23
5888020,14
5888640,13
5889268,12
5889892,11
5890524,12
5891152,27
5891776,29
5892408,13
5893032,14
5893656,15
5894288,15
5894904,21
5895536,16
5896160,12
5896784,26
5897416,23
5898036,18
5898664,15
5899296,26
5899912,25
5900544,28
5901168,27
5901796,17
5902428,29
5903048,41
5903676,41
5904304,42
5904928,28
5905556,20
5906176,17
5906804,15
5907432,14
5908056,15
5908684,21
5909304,18
5909932,27
5910564,24
5911184,21
5911816,18
5912440,17
5913072,10
5913700,11
5914320,15
5914948,19
5915576,31
5916200,44
5916828,48
5917448,41
5918076,19
5918704,17
5919328,28
5919960,35
5920584,19
5921216,15
5921844,15
5922464,11
5923092,16
5923716,27
5924348,33
5924980,38
5925600,19
5926228,14
5926856,15
5927480,20
5928108,16
5928728,15
5929356,22
5929984,23
5930608,22
5931240,13
5931864,15
5932492,12
5933124,14
5933744,14
5934376,15
5935000,17
5935624,17
5936256,14
5936872,15
5937504,21
5938128,15
5938752,11
5939384,11
5940000,11
5940628,19
5941260,19
5941880,23
5942508,21
5943132,17
5943764,15
5944392,14
5945016,15
5945644,12
5946268,11
5946892,24
5947524,34
5948144,35
5948776,38
5949400,44
5950024,25
5950656,12
5951272,19
5951904,21
5952536,20
5953152,31
5953784,17
5954408,19
5955036,40
5955668,41
5956288,42
5956916,35
5957544,19
5958168,12
5958800,10
5959416,14
5960048,18
5960672,35
5961296,26
5961924,14
5962544,14
5963172,18
5963804,24
5964424,27
5965056,32
5965680,31
5966308,35
5966940,32
5967560,21
5968192,20
5968816,16
5969440,17
5970068,16
5970688,28
5971316,33
5971944,21
5972568,14
5973196,12
5973816,27
5974448,23
5975076,14
5975696,19
5976328,36
5976952,34
5977584,19
5978216,14
5978832,20
5979464,25
5980092,16
5980716,12
5981348,16
5981968,16
5982600,23
5983224,31
5983848,38
5984480,24
5985104,16
5985732,18
5986364,15
5986984,26
5987616,31
5988240,15
5988868,15
5989500,13
5990120,14
5990752,21
5991376,40
5992000,32
5992632,24
5993252,19
5993880,21
5994512,17
5995132,18
5995764,17
5996388,13
5997020,18
5997652,22
5998272,20
5998904,13
5999528,23
6000152,37
6000784,45
6001400,47
6002028,27
6002656,21
6003280,28
6003908,34
6004528,51
6005156,38
6005788,36
6006408,27
6007036,27
6007664,35
6008296,25
6008924,34
6009544,47
6010176,34
6010800,21
6011424,19
6012056,33
6012672,31
6013304,14
6013932,26
6014556,25
6015188,17
6015812,11
6016448,11
6017076,25
6017696,36
6018324,25
6018952,18
6019580,25
6020212,46
6020832,31
6021464,23
6022088,24
6022712,18
6023340,10
6023960,11
6024592,10
6025220,20
6025840,43
6026468,51
6027096,28
6027724,23
6028356,47
6028976,71
6029608,33
6030232,11
6030856,11
6031488,11
6032104,15
6032736,26
6033360,31
6033984,34
6034616,28
6035232,17
6035864,19
6036496,43
6037112,47
6037744,58
6038372,60
6039004,40
6039636,28
6040256,15
6040888,10
6041512,16
6042136,16
6042768,16
6043388,16
6044016,14
6044640,21
6045268,34
6045896,48
6046520,26
6047152,29
6047784,24
6048400,13
6049032,12
6049656,25
6050284,35
6050916,26
6051536,21
6052168,39
6052792,17
6053416,17
6054048,26
6054668,34
6055296,22
6055920,19
6056548,17
6057180,10
6057804,11
6058436,15
6059068,12
6059688,20
6060320,52
6060944,53
6061576,21
6062208,22
6062824,31
6063456,33
6064080,45
6064704,57
6065336,49
6065952,40
6066584,13
6067212,39
6067832,49
6068464,28
6069088,21
6069720,18
6070348,16
6070968,16
6071600,25
6072224,32
6072848,32
6073480,30
6074096,27
6074728,14
6075352,11
6075976,40
6076608,52
6077232,51
6077864,41
6078496,16
6079116,46
6079748,50
6080376,33
6081004,23
6081636,12
6082256,17
6082888,26
6083508,21
6084136,19
6084764,14
6085384,18
6086012,16
6086640,16
6087264,24
6087892,43
6088516,39
6089148,29
6089780,28
6090400,19
6091028,11
6091656,12
6092288,11
6092916,15
6093536,17
6094164,15
6094792,16
6095416,27
6096044,40
6096664,34
6097292,26
6097916,15
6098544,17
6099176,22
6099800,25
6100432,15
6101064,16
6101684,19
6102312,20
6102940,15
6103564,17
6104196,12
6104816,20
6105448,26
6106072,43
6106696,38
6107328,24
6107944,13
6108576,27
6109208,23
6109828,14
6110460,14
6111084,17
6111716,15
6112348,34
6112968,32
6113600,30
6114224,19
6114848,12
6115480,20
6116100,31
6116728,39
6117356,38
6117980,29
6118612,33
6119240,32
6119868,17
6120500,31
6121120,34
6121752,46
6122376,63
6123008,45
6123640,16
6124256,15
6124888,14
6125512,21
6126136,46
6126768,35
6127384,15
6128016,15
6128648,19
6129264,17
6129896,13
6130520,11
6131152,21
6131784,20
6132404,11
6133036,11
6133660,19
6134288,22
6134920,19
6135540,15
6136172,15
6136796,15
6137424,17
6138056,31
6138676,35
6139308,13
6139940,11
6140564,18
6141196,15
6141820,11
6142452,11
6143088,15
6143708,14
6144340,16
6144964,19
6145584,24
6146216,23
6146832,22
6147464,15
6148088,14
6148708,25
6149340,13
6149964,34
6150592,61
6151224,56
6151840,23
6152472,17
6153096,45
6153724,67
6154356,54
6154976,42
6155604,33
6156232,27
6156856,18
6157484,16
6158104,12
6158732,13
6159356,12
6159984,13
6160616,16
6161240,21
6161868,35
6162500,39
6163120,25
6163752,13
6164376,15
6165000,10
6165628,11
6166248,19
6166876,26
6167504,18
6168128,15
6168756,44
6169376,37
6170008,21
6170636,20
6171256,33
6171884,31
6172512,26
6173140,29
6173772,37
6174392,27
6175024,11
6175648,12
6176272,30
6176900,41
6177520,43
6178148,39
6178776,32
6179400,24
6180028,81
6180648,55
6181280,11
6181908,33
6182528,32
6183156,21
6183784,17
6184412,12
6185044,19
6185664,19
6186292,17
6186916,17
6187540,16
6188172,16
6188792,17
6189424,29
6190048,23
6190672,12
6191304,11
6191920,11
6192552,11
6193184,15
6193804,15
6194436,21
6195060,33
6195692,27
6196324,14
6196944,15
6197576,35
6198200,25
6198824,22
6199456,28
6200072,35
6200704,25
6201328,16
6201952,14
6202584,16
6203208,29
6203836,32
6204468,35
6205088,28
6205720,30
6206344,32
6206976,21
6207604,10
6208224,22
6208852,20
6209476,15
6210100,15
6210732,20
6211352,27
6211984,25
6212612,16
6213232,13
6213864,27
6214488,27
6215116,28
6215748,32
6216368,30
6217000,14
6217624,33
6218248,33
6218880,17
6219496,16
6220128,16
6220752,14
6221380,15
6222012,22
6222632,25
6223264,17
6223896,13
6224516,11
6225144,10
6225772,10
6226404,15
6227032,15
6227652,15
6228280,17
6228908,13
6229532,14
6230160,16
6230784,13
6231416,16
6232040,26
6232664,35
6233296,34
6233912,50
6234544,17
6235176,41
6235796,46
6236428,62
6237052,46
6237680,15
6238312,15
6238932,15
6239564,35
6240188,40
6240812,21
6241444,14
6242064,11
6242692,11
6243320,16
6243944,21
6244572,26
6245196,17
6245828,11
6246460,10
6247080,11
6247708,11
6248332,11
6248960,15
6249592,22
6250208,22
6250840,19
6251464,17
6252088,15
6252716,14
6253336,15
6253968,17
6254596,22
6255216,38
6255848,40
6256472,28
6257104,19
6257732,10
6258352,24
6258984,41
6259608,46
6260232,41
6260864,18
6261480,22
6262112,57
6262736,53
