tempo_arduino_micro_s,valor_ADC
500,18
1004,15
1504,11
2000,10
2508,15
3000,22
3508,29
4000,44
4508,47
5000,32
5500,24
6000,18
6500,14
7000,14
7500,23
8000,28
8500,24
9000,18
9500,18
10000,10
10508,18
11028,43
11556,68
12076,41
12604,21
13124,15
13648,16
14172,12
14700,12
15220,12
15748,12
16268,12
16796,12
17316,19
17836,22
18356,33
18876,40
19396,31
19916,18
20436,10
20956,15
21476,16
21996,42
22516,30
23036,16
23564,13
24084,14
24612,11
25132,13
25660,13
26180,10
26708,12
27228,19
27756,22
28276,30
28804,13
29324,16
29852,21
30372,13
30900,12
31420,11
31948,14
32468,23
32996,20
33516,19
34044,24
34564,12
35092,11
35612,36
36140,42
36660,27
37188,26
37708,16
38236,29
38760,37
39284,23
39804,12
40332,17
40852,11
41372,16
41892,22
42412,12
42932,26
43452,42
43972,39
44492,21
45012,23
45532,53
46052,54
46572,33
47092,13
47612,18
48140,20
48660,14
49188,11
49708,12
50236,15
50756,17
51284,18
51804,18
52332,17
52852,17
53380,15
53900,14
54428,15
54948,14
55476,12
55996,11
56524,12
57044,12
57572,10
58096,10
58620,10
59140,10
59668,11
60188,14
60716,16
61240,16
61764,14
62284,11
62812,10
63332,13
63860,12
64384,13
64908,14
65428,12
65948,13
66468,10
66988,19
67508,22
68028,25
68548,29
69068,23
69588,23
70108,13
70628,14
71148,10
71668,23
72192,31
72716,48
73236,63
73764,25
74284,17
74812,21
75332,21
75860,11
76384,14
76908,12
77428,16
77956,22
78476,27
79004,18
79528,11
80052,15
80572,23
81100,12
81620,20
82148,16
82668,14
83196,54
83720,79
84244,65
84764,22
85292,28
85812,63
86340,85
86860,86
87388,52
87908,25
88436,12
88956,30
89484,38
90008,16
90524,22
91044,17
91564,50
92084,67
92604,31
93124,24
93644,56
94164,61
94684,52
95208,20
95724,16
96248,28
96764,21
97292,23
97812,36
98340,92
98860,110
99440,43
99960,14
100484,37
101048,91
101632,111
102256,24
102832,27
103400,12
103968,39
104544,47
105112,37
105688,13
106256,12
106832,13
107400,11
107984,13
108560,11
109128,11
109712,11
110280,18
110864,26
111432,17
112016,32
112584,23
113160,12
113744,15
114312,48
114896,17
115464,26
116048,18
116616,64
117192,81
117768,19
118336,41
118912,28
119480,18
120064,39
120632,29
121216,23
121784,18
122360,14
122944,32
123512,82
124096,96
124664,65
125248,31
125816,11
126400,12
126968,14
127544,28
128128,70
128696,72
129272,133
129892,169
130520,107
131148,63
131716,15
132296,97
132864,146
133500,121
134120,54
134688,27
135272,11
135840,14
136424,25
136992,50
137576,78
138148,97
138720,106
139356,52
139924,14
140504,63
141076,88
141656,111
142276,86
142848,37
143424,22
143992,139
144628,168
145244,134
145876,98
146452,20
147020,168
147652,272
148272,157
148900,14
149468,13
150040,27
150624,51
151196,29
151776,11
152348,30
152928,66
153500,106
154128,162
154756,182
155376,43
155952,76
156524,163
157156,182
157784,158
158400,17
158976,18
159548,21
160128,11
160696,15
161264,11
161840,20
162408,26
162992,37
163564,24
164144,29
164712,29
165288,15
165856,12
166424,13
167000,25
167568,32
168144,44
168712,35
169288,28
169856,11
170432,18
171000,11
171576,30
172160,43
172728,55
173304,76
173872,89
174456,49
175024,21
175592,97
176176,167
176796,125
177424,48
177992,131
178628,89
179196,32
179776,25
180352,103
180972,147
181600,35
182172,12
182744,26
183328,51
183900,30
184480,24
185048,20
185624,49
186192,16
186768,67
187340,87
187912,139
188548,144
189168,56
189744,44
190312,99
190896,90
191464,35
192044,29
192624,50
193192,23
193768,62
194336,23
194920,25
195488,15
196064,58
196648,16
197216,36
197800,13
198368,46
198952,79
199524,33
200104,17
200672,11
201248,12
201832,15
202404,22
202984,11
203556,13
204136,19
204708,46
205284,58
205864,49
206432,37
207008,83
207576,70
208160,37
208728,13
209304,66
209872,138
210500,175
211128,70
211700,17
212280,16
212848,19
213432,20
214004,19
214576,18
215160,17
215728,19
216312,17
216884,15
217464,15
218036,15
218608,11
219192,15
219764,11
220344,11
220912,14
221496,13
222064,12
222648,35
223220,55
223796,14
224376,33
224944,19
225528,12
226096,11
226680,10
227248,10
227824,11
228408,11
228976,11
229560,17
230132,15
230712,12
231280,11
231864,11
232432,11
233008,11
233592,13
234164,15
234744,16
235316,14
235896,12
236468,11
237044,9
237568,13
238148,14
238728,11
239296,11
239880,25
240452,46
241032,45
241604,14
242176,34
242760,26
243332,37
243912,71
244484,133
245116,107
245740,28
246308,74
246888,110
247508,135
248136,72
248708,52
249288,33
249864,50
250432,70
251016,34
251588,17
252168,11
252736,14
253320,29
253892,44
254468,85
255048,38
255620,22
256200,23
256772,68
257352,60
257920,17
258504,10
259080,18
259648,25
260232,22
260800,23
261384,17
261952,35
262536,31
263104,18
263680,29
264264,19
264832,15
265416,11
265988,11
266568,12
267136,15
267712,17
268280,16
268856,15
269440,11
270008,11
270592,17
271160,13
271744,11
272316,18
272888,30
273472,88
274044,43
274624,46
275192,27
275776,19
276356,11
276936,10
277512,17
278084,30
278664,80
279236,67
279816,113
280440,100
281068,15
281644,17
282212,11
282792,19
283364,27
283944,28
284516,10
285096,18
285668,21
286244,27
286824,30
287392,35
287976,15
288548,24
289128,11
289696,16
290272,25
290856,11
291428,14
292008,10
292576,11
293160,11
293732,13
294312,11
294884,10
295456,11
296040,20
296608,19
297192,15
297764,19
298344,38
298916,17
299492,38
300072,26
300644,21
301224,15
301796,27
302376,18
302948,15
303528,37
304100,65
304676,131
305308,140
305928,92
306504,20
307076,109
307708,209
308340,91
308908,11
309488,13
310056,13
310640,18
311212,34
311788,52
312368,60
312940,30
313520,15
314092,60
314672,62
315244,26
315824,19
316396,66
316972,93
317552,35
318124,12
318704,13
319276,18
319856,22
320436,12
321008,15
321592,40
322164,46
322744,66
323312,55
323896,35
324464,135
325100,110
325728,26
326292,18
326872,27
327444,22
328024,21
328592,28
329168,47
329744,115
330364,126
330992,91
331556,21
332136,145
332760,185
333380,115
334008,49
334572,15
335152,12
335724,19
336304,17
336872,11
337448,11
338032,12
338600,12
339184,13
339756,18
340336,17
340904,15
341480,12
342064,11
342636,12
343216,10
343784,14
344368,15
344936,11
345520,21
346092,19
346664,20
347248,14
347816,15
348400,19
348968,24
349552,25
350124,21
350700,11
351280,15
351852,27
352432,26
353000,40
353584,30
354156,13
354736,32
355308,30
355884,24
356464,15
357036,14
357616,29
358188,24
358768,15
359344,12
359924,13
360504,19
361072,22
361656,11
362224,11
362808,27
363380,21
363960,14
364532,18
365108,13
365688,38
366260,64
366840,66
367412,37
367992,12
368564,73
369140,66
369720,22
370288,12
370872,22
371444,16
372024,16
372592,17
373176,13
373748,27
374324,17
374904,12
375476,15
376056,15
376628,11
377208,17
377780,11
378356,15
378936,13
379508,22
380088,27
380660,33
381240,96
381820,111
382452,89
383028,21
383600,19
384184,61
384756,128
385388,109
386008,47
386580,12
387160,19
387732,14
388312,21
388884,22
389464,14
390032,14
390612,11
391192,20
391764,22
392344,14
392912,22
393496,16
394068,22
394648,19
395220,11
395796,21
396376,15
396948,21
397528,56
398100,71
398680,31
399260,42
399836,91
400416,116
401040,37
401616,18
402184,11
402768,18
403340,45
403920,27
404496,17
405064,12
405648,11
406220,11
406800,11
407372,27
407952,35
408524,20
409100,43
409680,29
410252,15
410832,11
411400,27
411984,37
412552,34
413136,32
413712,15
414280,27
414864,56
415432,47
416016,39
416584,18
417160,15
417728,25
418304,41
418888,22
419456,29
420040,20
420608,10
421184,11
421752,24
422336,24
422908,32
423480,42
424064,40
424632,30
425216,23
425784,14
426368,17
426936,27
427512,35
428096,27
428664,14
429248,11
429816,17
430400,23
430968,11
431552,14
432124,11
432696,11
433280,11
433848,21
434432,29
435004,17
435584,13
436152,20
436732,22
437312,13
437884,20
438464,21
439032,14
439616,15
440196,28
440776,15
441352,44
441924,26
442504,24
443076,21
443656,17
444228,20
444808,17
445376,38
445956,26
446536,54
447108,23
447688,36
448260,40
448840,18
449408,11
449992,9
450512,10
451084,12
451664,14
452232,13
452816,14
453384,15
453968,13
454540,11
455120,12
455696,24
456264,20
456848,11
457416,11
458000,12
458572,15
459152,16
459724,17
460300,11
460880,46
461448,79
462024,98
462596,91
463176,42
463748,65
464328,127
464956,94
465524,39
466104,21
466676,14
467256,9
467772,16
468352,33
468924,39
469500,32
470080,18
470652,17
471232,48
471804,56
472384,33
472956,20
473536,14
474120,10
474692,11
475272,11
475844,10
476424,11
476996,11
477576,11
478148,10
478724,13
479304,11
479876,11
480456,18
481028,24
481608,30
482176,14
482760,24
483336,39
483908,48
484488,53
485060,42
485640,16
486212,74
486792,83
487372,21
487948,58
488528,42
489100,16
489680,35
490248,85
490832,97
491404,30
491984,16
492568,13
493136,10
493720,15
494288,25
494872,20
495444,15
496024,21
496592,33
497172,22
497752,17
498324,21
498904,13
499476,10
500056,10
500624,12
501204,10
501784,11
502352,19
502936,11
503508,15
504088,38
504668,22
505248,28
505820,26
506396,30
506976,51
507548,50
508128,26
508708,11
509288,35
509868,65
510444,82
511024,58
511596,32
512180,20
512748,14
513328,23
513896,25
514480,16
515048,17
515624,11
516208,14
516776,13
517360,11
517928,27
518512,26
519080,33
519656,34
520240,25
520808,15
521392,45
521964,56
522544,55
523116,40
523696,21
524264,18
524844,13
525424,37
525996,35
526576,11
527144,10
527728,17
528300,18
528872,46
529456,32
530028,15
530608,16
531180,25
531760,27
532340,13
532920,25
533488,14
534068,15
534648,20
535216,21
535800,17
536372,14
536952,24
537524,18
538100,48
538680,22
539248,15
539832,27
540404,14
540984,13
541552,14
542136,11
542708,11
543284,10
543864,11
544436,11
545016,12
545588,21
546168,23
546740,19
547316,13
547896,12
548464,11
549048,23
549620,32
550200,29
550772,23
551352,10
551924,26
552500,57
553080,47
553652,24
554232,15
554804,11
555384,12
555956,11
556532,15
557112,13
557684,13
558264,12
558836,16
559416,28
559988,31
560572,30
561148,21
561724,11
562304,46
562876,57
563456,23
564032,17
564616,21
565188,14
565764,11
566344,15
566916,29
567496,47
568068,50
568648,28
569220,26
569800,57
570376,50
570948,36
571528,24
572100,29
572680,27
573260,12
573840,11
574416,11
574992,11
575576,13
576148,12
576728,20
577296,26
577880,20
578452,13
579028,16
579608,31
580180,26
580760,11
581332,19
581912,13
582484,11
583064,11
583636,11
584212,13
584792,19
585364,11
585944,13
586516,10
587096,13
587668,17
588244,12
588824,14
589392,11
589976,23
590548,37
591128,58
591708,39
592288,30
592868,14
593444,70
594024,92
594596,53
595176,20
595748,11
596328,12
596900,14
597476,14
598056,12
598628,17
599208,12
599780,13
600360,18
600940,21
601520,17
602100,10
602676,12
603256,12
603828,14
604408,16
604988,12
605568,24
606140,55
606716,41
607296,22
607872,12
608452,34
609024,65
609600,62
610180,29
610760,12
611344,11
611916,12
612496,12
613068,13
613648,11
614228,19
614812,19
615384,11
615964,15
616544,14
617116,23
617696,17
618268,10
618848,11
619420,20
619996,28
620576,19
621148,15
621728,17
622300,11
622880,12
623452,11
624032,28
624612,47
625188,29
625768,12
626340,14
626920,15
627500,11
628080,29
628652,31
629228,15
629808,15
630380,17
630960,23
631532,18
632112,20
632692,22
633272,27
633852,58
634432,27
635008,14
635580,13
636160,19
636740,51
637320,56
637900,40
638476,12
639056,15
639632,12
640212,11
640784,31
641360,18
641928,19
642512,25
643088,21
643656,15
644240,12
644808,11
645392,14
645964,20
646544,11
647112,13
647692,16
648272,32
648844,42
649424,38
649996,30
650576,21
651152,22
651732,57
652312,59
652884,26
653464,14
654036,30
654616,39
655196,33
655780,14
656352,34
656928,38
657512,32
658084,29
658664,20
659232,13
659816,11
660384,11
660960,20
661544,18
662116,11
662696,21
663268,27
663848,18
664420,11
665000,15
665572,13
666148,27
666728,50
667296,58
667880,41
668448,12
669032,41
669600,80
670176,64
670760,22
671328,19
671912,22
672484,14
673064,13
673632,17
674216,11
674788,11
675364,11
675944,11
676512,19
677096,53
677668,46
678248,33
678820,15
679392,39
679976,60
680548,44
681128,19
681696,11
682280,14
682848,11
683432,10
684004,10
684576,13
685160,11
685732,16
686312,28
686884,35
687464,23
688036,11
688608,15
689192,14
689764,15
690344,11
690916,18
691496,14
692072,12
692656,16
693228,16
693804,13
694384,24
694956,33
695536,29
696116,26
696696,37
697264,40
697844,47
698424,29
698992,10
699576,14
700148,21
700728,28
701300,29
701880,27
702460,25
703036,12
703616,27
704192,37
704768,39
705340,33
705920,12
706492,24
707068,25
707648,13
708220,26
708800,50
709368,40
709952,11
710524,15
711104,15
711676,20
712256,22
712832,19
713404,11
713984,23
714564,22
715144,13
715716,12
716292,14
716872,23
717444,46
718024,43
718596,13
719176,37
719748,42
720328,35
720904,23
721472,12
722056,11
722624,14
723208,22
723776,26
724360,13
724932,13
725508,17
726088,30
726660,20
727240,12
727812,17
728392,30
728972,39
729552,13
730128,22
730700,35
731280,28
731852,20
732432,24
733012,19
733592,11
734164,17
734740,11
735320,22
735892,36
736476,39
737052,44
737632,33
738208,17
738788,14
739368,20
739940,13
740520,14
741092,11
741672,11
742252,12
742832,14
743412,10
743988,11
744568,12
745140,18
745720,17
746292,18
746872,19
747444,32
748020,50
748600,32
749172,11
749752,16
750324,29
750904,66
751484,69
752064,34
752648,13
753220,13
753800,20
754372,24
754952,21
755532,12
756112,17
756684,20
757260,22
757840,29
758412,25
758992,15
759564,15
760144,30
760724,40
761300,25
761880,11
762452,13
763032,13
763604,12
764184,11
764756,13
765336,11
765916,11
766492,10
767072,10
767648,9
768176,10
768744,11
769328,9
769844,10
770424,10
770996,11
771572,13
772152,13
772724,11
773304,12
773876,15
774456,10
775024,11
775608,22
776188,31
776764,33
777344,31
777916,24
778496,13
779076,33
779656,43
780236,15
780812,12
781392,18
781964,21
782544,37
783116,40
783696,30
784276,10
784852,22
785432,16
786004,19
786584,16
787156,15
787740,19
788316,19
788896,25
789476,30
790052,21
790632,19
791204,10
791784,33
792356,27
792936,14
793516,11
794092,11
794672,16
795244,29
795824,29
796396,12
796976,16
797556,19
798136,24
798716,33
799296,32
799872,22
800448,12
801024,13
801596,11
802176,21
802748,43
803324,58
803904,45
804476,35
805056,16
805628,23
806208,17
806780,11
807360,18
807932,25
808508,24
809088,11
809660,17
810240,12
810812,17
811392,19
811972,36
812548,32
813128,32
813700,14
814280,21
814852,34
815432,15
816012,10
816592,15
817168,11
817740,15
818320,10
818892,25
819472,34
820048,18
820632,11
821200,15
821776,15
822360,11
822928,12
823512,10
824084,10
824664,10
825232,11
825808,16
826392,16
826964,12
827544,24
828112,27
828696,19
829268,17
829848,19
830416,18
830992,14
831576,13
832148,11
832728,10
833296,10
833880,10
834448,10
835024,13
835608,12
836176,12
836760,11
837332,11
837912,11
838484,13
839064,12
839636,13
840212,11
840792,14
841364,12
841944,17
842512,31
843096,28
843668,26
844244,12
844824,43
845392,56
845968,43
846536,13
847120,16
847692,11
848272,15
848840,33
849416,12
850000,18
850568,27
851152,45
851724,26
852304,11
852876,13
853456,12
854032,40
854604,47
855184,16
855756,14
856336,12
856904,25
857488,25
858060,19
858636,18
859216,12
859788,21
860368,14
860944,18
861528,19
862100,17
862676,13
863256,14
863828,25
864408,19
864980,11
865560,11
866132,11
866712,9
867232,11
867804,15
868384,15
868956,11
869536,12
870108,21
870688,24
871264,20
871848,12
872420,18
872992,12
873576,12
874148,11
874728,9
875248,20
875824,46
876396,38
876976,14
877556,12
878132,15
878712,15
879284,13
879864,11
880444,11
881024,11
881592,11
882172,11
882752,10
883324,11
883904,12
884476,11
885056,11
885628,20
886208,42
886780,64
887356,71
887936,55
888508,24
889088,55
889660,108
890292,93
890864,57
891436,23
892016,13
892588,10
893168,11
893748,11
894328,11
894908,14
895484,11
896068,15
896636,12
897216,16
897788,22
898368,21
898940,14
899520,20
900092,36
900668,35
901248,23
901820,12
902400,29
902968,43
903552,40
904124,18
904696,11
905280,12
905852,12
906432,14
907004,10
907584,12
908156,21
908736,18
909320,14
909892,10
910472,12
911044,13
911624,12
912204,21
912784,17
913356,13
913932,12
914512,19
915084,17
915664,22
916244,18
916824,17
917396,11
917972,10
918552,23
919128,36
919704,35
920276,25
920856,14
921436,13
922020,11
922592,11
923168,15
923752,20
924324,20
924904,19
925476,22
926056,34
926628,30
927204,22
927784,20
928356,42
928936,56
929508,57
930088,27
930668,14
931248,11
931820,11
932396,10
932976,10
933548,11
934128,13
934708,10
935288,14
935868,15
936444,12
937024,11
937596,11
938176,11
938752,11
939328,11
939908,10
940488,11
941072,11
941644,11
942224,11
942796,12
943376,14
943956,10
944536,11
945116,12
945692,12
946272,13
946844,12
947424,12
948004,11
948584,15
949156,32
949732,33
950312,16
950888,18
951464,39
952036,45
952616,38
953196,21
953776,11
954356,41
954932,53
955512,22
956088,12
956664,12
957244,11
957824,11
958404,14
958980,12
959564,15
960136,17
960712,14
961284,13
961864,15
962436,25
963016,33
963592,74
964164,62
964744,24
965316,18
965896,14
966468,11
967048,10
967620,19
968196,23
968776,30
969348,27
969928,11
970500,15
971080,14
971660,12
972240,14
972824,12
973396,10
973976,11
974548,15
975128,9
975648,11
976224,16
976804,11
977380,18
977960,19
978532,11
979112,12
979688,12
980264,16
980836,40
981416,59
981988,52
982564,42
983144,16
983716,38
984296,84
984868,84
985448,41
986020,26
986592,22
987176,15
987748,13
988328,20
988900,18
989480,33
990052,57
990632,57
991212,33
991788,14
992368,11
992940,28
993520,43
994100,32
994680,27
995252,39
995828,33
996408,25
996980,20
997560,14
998132,11
998712,11
999292,10
999872,11
1000444,14
1001064,18
1001692,12
1002316,15
1002944,11
1003572,10
1004192,13
1004820,11
1005440,11
1006072,12
1006700,29
1007320,13
1007948,23
1008572,21
1009196,12
1009828,14
1010448,29
1011076,48
1011700,19
1012324,18
1012952,15
1013576,12
1014208,13
1014836,11
1015456,11
1016084,49
1016708,21
1017336,12
1017968,11
1018584,13
1019216,10
1019840,13
1020464,16
1021092,16
1021712,19
1022340,14
1022968,13
1023592,23
1024224,13
1024844,11
1025472,26
1026100,32
1026716,24
1027344,21
1027968,30
1028596,13
1029224,13
1029840,14
1030468,23
1031088,41
1031708,21
1032336,12
1032956,13
1033588,21
1034212,28
1034832,24
1035460,11
1036080,13
1036708,11
1037336,11
1037952,16
1038580,21
1039204,29
1039832,17
1040460,11
1041076,10
1041708,11
1042328,11
1042948,11
1043580,11
1044200,12
1044828,12
1045448,12
1046068,12
1046700,22
1047320,25
1047948,21
1048572,12
1049192,14
1049824,23
1050444,23
1051072,11
1051700,19
1052320,21
1052948,12
1053568,15
1054200,17
1054828,21
1055444,15
1056076,14
1056696,27
1057316,23
1057948,12
1058564,12
1059196,17
1059820,18
1060440,12
1061072,12
1061688,13
1062316,13
1062948,12
1063568,11
1064196,12
1064820,15
1065448,24
1066076,18
1066696,14
1067324,10
1067944,10
1068568,10
1069196,10
1069816,17
1070444,25
1071064,19
1071688,13
1072320,14
1072936,25
1073564,35
1074192,14
1074816,12
1075444,10
1076068,14
1076696,14
1077324,14
1077944,12
1078572,11
1079196,12
1079816,13
1080448,15
1081064,20
1081692,13
1082316,16
1082936,13
1083568,12
1084184,14
1084812,14
1085436,16
1086060,14
1086688,12
1087312,13
1087940,42
1088572,25
1089188,12
1089820,15
1090440,19
1091072,24
1091700,24
1092320,20
1092948,17
1093572,30
1094196,23
1094824,24
1095440,20
1096072,13
1096692,19
1097316,23
1097944,17
1098568,23
1099196,37
1099828,16
1100448,23
1101076,11
1101700,17
1102328,18
1102960,16
1103576,12
1104208,12
1104828,16
1105452,15
1106084,16
1106700,11
1107332,11
1107956,12
1108576,11
1109208,11
1109828,11
1110460,11
1111088,12
1111712,11
1112340,12
1112964,18
1113592,28
1114224,33
1114844,33
1115472,35
1116096,31
1116720,16
1117348,15
1117968,55
1118596,59
1119220,33
1119848,23
1120476,15
1121100,13
1121728,15
1122360,20
1122976,17
1123604,11
1124228,10
1124860,12
1125488,17
1126104,13
1126736,17
1127356,34
1127980,33
1128612,31
1129232,13
1129860,26
1130480,55
1131104,42
1131732,14
1132356,14
1132988,21
1133616,14
1134232,12
1134860,10
1135484,30
1136116,42
1136744,33
1137360,13
1137992,23
1138616,43
1139240,25
1139868,16
1140488,11
1141116,47
1141740,23
1142364,30
1142996,18
1143620,12
1144248,11
1144880,14
1145496,30
1146128,49
1146752,41
1147380,23
1148008,10
1148632,13
1149260,11
1149884,10
1150508,10
1151136,11
1151756,16
1152384,16
1153008,14
1153628,11
1154260,13
1154880,15
1155508,12
1156136,11
1156760,11
1157388,11
1158012,12
1158640,17
1159268,14
1159888,33
1160516,47
1161140,44
1161764,22
1162392,11
1163008,13
1163636,77
1164260,93
1164884,55
1165512,16
1166128,16
1166760,18
1167388,12
1168008,11
1168636,21
1169256,19
1169888,15
1170516,14
1171136,15
1171764,13
1172388,20
1173012,11
1173644,16
1174264,32
1174892,30
1175516,11
1176140,16
1176772,10
1177392,23
1178024,38
1178652,48
1179272,37
1179900,15
1180524,14
1181152,11
1181784,17
1182400,11
1183028,11
1183652,22
1184276,32
1184908,47
1185528,42
1186156,24
1186780,13
1187404,42
1188032,53
1188656,45
1189284,16
1189912,17
1190532,10
1191160,10
1191784,14
1192412,11
1193044,11
1193664,14
1194292,13
1194916,18
1195540,17
1196168,12
1196792,30
1197424,34
1198048,13
1198672,11
1199300,16
1199920,12
1200552,13
1201180,26
1201800,28
1202428,11
1203052,11
1203684,15
1204312,16
1204928,22
1205560,27
1206184,30
1206808,32
1207436,36
1208056,32
1208684,12
1209308,40
1209932,42
1210560,70
1211184,37
1211812,13
1212444,24
1213064,46
1213692,49
1214316,15
1214948,37
1215580,44
1216200,95
1216828,102
1217504,16
1218120,37
1218748,37
1219368,41
1219996,37
1220628,16
1221248,26
1221876,19
1222500,20
1223132,22
1223760,28
1224384,13
1225012,41
1225636,60
1226260,27
1226892,29
1227512,37
1228144,33
1228768,13
1229392,31
1230020,14
1230640,23
1231268,17
1231896,15
1232516,12
1233144,53
1233768,56
1234396,27
1235024,12
1235644,39
1236272,89
1236896,130
1237568,94
1238196,31
1238816,194
1239496,151
1240176,15
1240800,16
1241428,31
1242052,11
1242676,47
1243304,38
1243920,15
1244552,21
1245176,34
1245800,47
1246428,14
1247052,37
1247680,17
1248312,11
1248928,22
1249556,51
1250180,65
1250808,15
1251440,32
1252056,17
1252684,35
1253308,25
1253932,50
1254564,19
1255184,51
1255812,37
1256436,59
1257060,19
1257688,33
1258312,14
1258940,59
1259572,76
1260192,48
1260820,79
1261444,128
1262124,98
1262748,74
1263368,18
1263996,82
1264624,216
1265300,83
1265924,12
1266548,17
1267180,75
1267812,138
1268484,94
1269108,20
1269732,55
1270360,65
1270988,23
1271608,199
1272288,261
1272968,116
1273644,36
1274268,241
1274952,304
1275620,258
1276300,233
1276980,29
1277600,89
1278228,31
1278856,18
1279484,57
1280116,26
1280732,23
1281360,16
1281980,21
1282604,26
1283232,21
1283848,23
1284476,20
1285096,13
1285720,22
1286348,16
1286968,30
1287596,29
1288224,37
1288840,13
1289468,57
1290092,107
1290772,156
1291448,52
1292064,49
1292692,15
1293320,47
1293936,83
1294564,29
1295188,20
1295816,27
1296448,47
1297064,68
1297692,108
1298368,71
1298984,36
1299612,12
1300232,13
1300860,11
1301484,28
1302108,56
1302736,80
1303352,101
1304032,25
1304660,146
1305332,174
1306008,114
1306688,54
1307304,26
1307932,51
1308556,97
1309184,43
1309816,26
1310432,17
1311064,20
1311684,14
1312308,58
1312936,83
1313552,57
1314180,76
1314804,66
1315424,73
1316056,187
1316728,183
1317400,50
1318028,11
1318648,15
1319276,11
1319896,43
1320520,46
1321148,27
1321764,13
1322392,17
1323024,24
1323640,26
1324268,16
1324892,14
1325520,12
1326148,11
1326768,16
1327396,11
1328016,13
1328644,20
1329272,20
1329888,17
1330520,14
1331144,12
1331768,10
1332396,19
1333016,47
1333644,20
1334264,53
1334888,32
1335516,14
1336140,21
1336768,40
1337396,56
1338016,126
1338696,98
1339312,38
1339936,52
1340564,146
1341236,197
1341912,108
1342592,31
1343216,21
1343844,27
1344468,11
1345088,23
1345720,55
1346336,91
1346964,85
1347592,37
1348208,56
1348836,118
1349512,70
1350136,20
1350764,13
1351384,21
1352012,11
1352636,31
1353256,39
1353884,35
1354504,31
1355132,20
1355756,14
1356380,12
1357008,11
1357624,18
1358252,33
1358880,21
1359504,14
1360132,14
1360752,50
1361384,25
1362012,58
1362628,49
1363256,14
1363880,31
1364504,37
1365132,28
1365752,29
1366380,25
1367004,21
1367628,17
1368256,17
1368872,17
1369504,27
1370132,20
1370752,12
1371380,15
1372004,25
1372632,21
1373260,11
1373880,11
1374508,10
1375132,11
1375756,12
1376384,11
1377008,16
1377636,13
1378260,22
1378880,12
1379512,23
1380128,13
1380756,24
1381388,12
1382008,15
1382636,34
1383260,78
1383888,87
1384516,41
1385136,19
1385764,132
1386440,158
1387108,54
1387732,17
1388356,25
1388988,27
1389616,13
1390232,63
1390860,53
1391484,13
1392116,15
1392744,11
1393360,11
1393992,21
1394612,24
1395236,20
1395864,14
1396488,30
1397116,37
1397740,33
1398364,13
1398992,38
1399612,39
1400240,93
1400868,118
1401540,82
1402164,17
1402788,133
1403464,135
1404144,20
1404768,20
1405396,13
1406028,20
1406648,13
1407276,33
1407900,36
1408528,19
1409156,59
1409776,45
1410404,23
1411028,36
1411652,126
1412332,89
1412952,13
1413580,13
1414212,16
1414832,16
1415460,10
1416084,15
1416708,14
1417340,30
1417960,37
1418588,14
1419212,15
1419836,23
1420464,25
1421088,15
1421716,101
1422400,118
1423068,106
1423744,36
1424368,57
1424992,155
1425672,118
1426340,35
1426960,17
1427588,17
1428208,16
1428836,16
1429460,71
1430084,95
1430712,39
1431336,15
1431964,39
1432596,79
1433216,38
1433848,15
1434468,32
1435096,34
1435728,20
1436344,14
1436972,13
1437596,39
1438220,48
1438848,44
1439464,14
1440096,11
1440716,12
1441340,21
1441968,25
1442584,29
1443212,13
1443836,27
1444456,35
1445088,33
1445712,24
1446340,16
1446968,12
1447592,12
1448220,11
1448844,10
1449472,15
1450100,34
1450720,36
1451348,27
1451972,34
1452596,20
1453224,22
1453848,22
1454476,12
1455100,31
1455728,40
1456356,72
1456980,59
1457608,25
1458236,11
1458856,16
1459484,20
1460108,17
1460736,120
1461420,109
1462092,62
1462716,17
1463348,96
1463968,202
1464648,78
1465272,24
1465896,16
1466524,14
1467144,11
1467772,17
1468396,28
1469020,29
1469652,18
1470276,13
1470904,11
1471532,25
1472152,62
1472780,29
1473404,27
1474036,34
1474664,25
1475280,19
1475908,15
1476532,27
1477152,24
1477784,40
1478400,17
1479028,51
1479652,51
1480276,12
1480904,13
1481520,10
1482152,13
1482780,10
1483400,16
1484028,13
1484652,10
1485284,12
1485912,10
1486528,11
1487156,12
1487780,19
1488404,23
1489032,15
1489648,10
1490280,12
1490900,31
1491524,25
1492152,21
1492776,33
1493404,25
1494036,14
1494656,11
1495284,21
1495908,33
1496540,13
1497168,33
1497784,42
1498416,55
1499036,58
1499660,46
1500292,44
1500912,50
1501540,28
1502164,25
1502788,23
1503420,18
1504040,17
1504668,32
1505296,44
1505920,38
1506548,60
1507172,75
1507804,41
1508432,27
1509056,59
1509688,123
1510364,91
1510984,38
1511612,23
1512232,13
1512860,12
1513492,10
1514112,12
1514740,11
1515368,11
1515996,23
1516628,36
1517248,30
1517876,24
1518500,11
1519124,21
1519756,22
1520376,32
1521004,12
1521628,12
1522252,13
1522880,17
1523504,17
1524132,13
1524764,18
1525384,27
1526012,13
1526636,25
1527268,45
1527896,36
1528520,19
1529148,12
1529772,14
1530396,14
1531028,11
1531648,11
1532276,13
1532904,11
1533528,10
1534156,10
1534776,11
1535408,11
1536036,10
1536652,11
1537280,11
1537904,12
1538532,13
1539164,12
1539784,31
1540412,24
1541036,25
1541660,29
1542288,17
1542908,22
1543536,31
1544160,61
1544784,48
1545412,16
1546032,13
1546660,12
1547292,12
1547912,15
1548540,11
1549164,19
1549796,25
1550424,29
1551040,14
1551672,13
1552296,13
1552920,26
1553548,26
1554168,22
1554796,38
1555424,29
1556044,13
1556676,10
1557296,16
1557924,25
1558552,30
1559176,29
1559804,14
1560428,15
1561060,18
1561688,16
1562304,26
1562932,36
1563556,43
1564180,27
1564808,59
1565424,67
1566052,41
1566676,24
1567304,90
1567932,68
1568552,31
1569180,10
1569812,12
1570432,17
1571060,16
1571684,12
1572316,21
1572944,34
1573568,20
1574196,22
1574824,29
1575444,22
1576076,11
1576696,13
1577324,12
1577948,12
1578572,13
1579204,16
1579824,12
1580452,74
1581084,94
1581704,17
1582332,14
1582960,15
1583588,31
1584220,35
1584840,40
1585468,21
1586092,25
1586716,48
1587348,30
1587968,15
1588596,13
1589220,12
1589844,11
1590476,18
1591096,29
1591724,41
1592356,58
1592976,16
1593604,79
1594228,64
1594860,14
1595492,19
1596112,52
1596744,78
1597368,57
1597992,17
1598624,69
1599240,60
1599872,27
1600496,30
1601116,27
1601748,20
1602368,12
1603000,11
1603628,11
1604248,13
1604876,11
1605496,12
1606128,12
1606756,18
1607376,23
1608004,10
1608628,11
1609248,15
1609876,16
1610496,12
1611124,12
1611748,13
1612372,12
1613000,14
1613624,17
1614252,18
1614880,17
1615496,31
1616128,32
1616752,41
1617380,35
1618008,16
1618632,33
1619260,67
1619884,62
1620504,15
1621136,26
1621752,36
1622384,29
1623008,13
1623632,39
1624260,46
1624880,38
1625508,12
1626140,22
1626760,45
1627388,65
1628012,22
1628644,23
1629272,34
1629892,30
1630520,22
1631144,12
1631768,14
1632400,10
1633016,12
1633644,14
1634268,12
1634892,10
1635524,12
1636144,11
1636772,11
1637404,15
1638024,23
1638656,26
1639276,18
1639904,12
1640532,14
1641148,23
1641776,18
1642396,18
1643020,31
1643648,30
1644264,19
1644892,13
1645512,22
1646132,33
1646764,12
1647380,13
1648008,10
1648632,11
1649256,17
1649884,11
1650504,12
1651132,16
1651760,15
1652380,35
1653012,43
1653632,22
1654264,18
1654892,14
1655512,15
1656140,11
1656764,26
1657384,31
1658016,19
1658632,13
1659260,11
1659884,11
1660504,11
1661132,11
1661752,13
1662380,14
1663008,13
1663632,16
1664260,18
1664884,11
1665508,11
1666140,12
1666756,11
1667384,10
1668008,11
1668628,11
1669260,10
1669876,11
1670508,11
1671128,12
1671752,16
1672380,30
1673000,36
1673628,25
1674256,12
1674872,13
1675500,48
1676124,47
1676752,27
1677380,14
1678000,13
1678628,11
1679252,11
1679876,14
1680508,16
1681124,11
1681752,10
1682376,12
1683000,32
1683628,48
1684244,53
1684876,46
1685496,25
1686120,31
1686748,61
1687368,88
1688000,76
1688628,56
1689248,25
1689876,13
1690500,10
1691128,16
1691756,31
1692376,34
1693004,37
1693624,36
1694248,16
1694876,16
1695496,16
1696124,26
1696744,18
1697368,28
1697996,32
1698616,42
1699244,44
1699872,18
1700488,11
1701116,11
1701740,25
1702368,13
1702996,12
1703616,20
1704244,39
1704868,13
1705488,12
1706120,18
1706736,19
1707364,18
1707988,11
1708612,11
1709240,10
1709864,17
1710492,29
1711120,46
1711744,24
1712372,14
1712996,39
1713624,62
1714256,36
1714872,11
1715500,15
1716124,18
1716748,14
1717376,10
1718000,27
1718628,25
1719252,29
1719876,35
1720508,17
1721128,12
1721756,12
1722384,21
1723000,19
1723628,25
1724252,15
1724880,42
1725508,105
1726180,88
1726804,39
1727428,11
1728052,12
1728680,21
1729296,35
1729924,46
1730544,36
1731172,30
1731800,17
1732424,55
1733052,61
1733680,61
1734304,14
1734932,35
1735556,20
1736188,13
1736816,18
1737432,19
1738060,13
1738684,13
1739308,16
1739940,20
1740560,27
1741188,19
1741812,17
1742436,11
1743064,15
1743688,30
1744316,18
1744944,12
1745560,21
1746192,24
1746816,12
1747444,12
1748072,12
1748696,12
1749324,12
1749948,10
1750572,10
1751200,11
1751816,12
1752448,11
1753072,15
1753696,12
1754324,16
1754948,12
1755576,17
1756204,11
1756824,13
1757452,15
1758076,11
1758704,11
1759336,12
1759956,10
1760588,11
1761208,11
1761832,22
1762460,29
1763080,13
1763708,15
1764332,15
1764956,36
1765584,37
1766200,12
1766832,12
1767460,10
1768080,12
1768708,29
1769328,30
1769960,20
1770588,10
1771208,13
1771836,13
1772460,13
1773084,11
1773712,11
1774332,27
1774960,41
1775584,33
1776208,22
1776836,13
1777456,49
1778084,28
1778712,26
1779336,65
1779964,34
1780588,16
1781220,31
1781848,95
1782464,95
1783096,42
1783716,12
1784340,23
1784972,30
1785592,25
1786220,16
1786844,11
1787468,25
1788100,18
1788720,15
1789348,32
1789980,22
1790600,22
1791228,41
1791856,31
1792488,17
1793116,10
1793736,13
1794364,19
1794988,12
1795612,25
1796240,38
1796856,17
1797484,18
1798108,12
1798732,16
1799360,10
1799984,29
1800612,22
1801244,31
1801864,50
1802492,33
1803116,18
1803744,15
1804372,38
1804992,67
1805620,55
1806240,19
1806864,15
1807492,15
1808112,12
1808740,17
1809360,12
1809984,15
1810612,12
1811232,16
1811860,25
1812488,16
1813108,13
1813740,17
1814364,17
1814992,10
1815624,14
1816240,19
1816868,12
1817492,18
1818120,27
1818748,22
1819368,19
1819996,11
1820620,12
1821244,11
1821876,12
1822496,12
1823124,14
1823756,12
1824376,12
1825004,11
1825628,14
1826256,13
1826884,12
1827504,22
1828132,21
1828756,21
1829384,13
1830012,28
1830632,36
1831260,20
1831884,10
1832508,10
1833140,10
1833760,11
1834388,11
1835020,13
1835640,15
1836268,14
1836892,21
1837524,17
1838152,13
1838772,11
1839400,11
1840024,11
1840648,11
1841276,23
1841896,35
1842528,25
1843152,14
1843776,21
1844404,35
1845024,22
1845652,12
1846280,12
1846896,14
1847528,14
1848148,19
1848780,11
1849408,14
1850024,16
1850656,11
1851276,39
1851908,23
1852536,16
1853160,20
1853788,11
1854412,12
1855036,13
1855668,12
1856288,14
1856916,25
1857544,21
1858164,11
1858792,16
1859416,13
1860044,11
1860672,13
1861288,13
1861920,15
1862544,18
1863172,23
1863800,18
1864424,12
1865052,18
1865676,25
1866300,20
1866928,16
1867544,23
1868172,16
1868796,10
1869424,13
1870052,13
1870676,34
1871308,57
1871936,18
1872560,15
1873188,13
1873812,11
1874440,14
1875068,12
1875688,20
1876316,19
1876940,12
1877564,52
1878196,64
1878816,60
1879444,19
1880076,34
1880696,55
1881324,76
1881952,58
1882580,25
1883208,12
1883828,11
1884456,11
1885080,11
1885704,11
1886332,11
1886952,15
1887580,13
1888204,13
1888828,12
1889456,11
1890080,11
1890708,20
1891340,22
1891960,17
1892588,12
1893212,19
1893844,30
1894472,21
1895096,13
1895724,19
1896348,28
1896972,30
1897600,14
1898216,29
1898844,23
1899468,15
1900092,26
1900724,11
1901344,43
1901972,25
1902604,29
1903224,26
1903852,35
1904480,63
1905108,48
1905740,30
1906360,15
1906988,11
1907616,23
1908240,20
1908868,10
1909488,11
1910116,17
1910744,12
1911368,22
1911996,18
1912616,11
1913248,15
1913880,14
1914496,10
1915128,14
1915752,13
1916384,11
1917012,23
1917632,29
1918264,21
1918888,13
1919512,13
1920144,31
1920760,66
1921388,49
1922012,13
1922636,12
1923264,11
1923880,10
1924512,15
1925140,14
1925760,11
1926388,13
1927012,13
1927640,13
1928268,42
1928888,48
1929516,42
1930140,22
1930764,11
1931392,36
1932016,49
1932644,25
1933268,11
1933892,19
1934524,26
1935144,26
1935772,31
1936404,23
1937024,14
1937652,11
1938276,12
1938904,13
1939536,12
1940152,13
1940784,29
1941408,33
1942032,18
1942660,13
1943280,12
1943908,16
1944536,23
1945160,17
1945788,11
1946408,12
1947036,15
1947664,17
1948284,29
1948912,18
1949536,15
1950164,30
1950796,20
1951416,11
1952044,9
1952616,11
1953244,15
1953876,25
1954496,25
1955124,19
1955748,34
1956376,37
1957004,27
1957624,23
1958252,14
1958876,11
1959500,19
1960132,11
1960752,15
1961380,13
1962012,12
1962632,15
1963260,14
1963884,13
1964516,10
1965148,10
1965768,11
1966396,11
1967020,11
1967644,11
1968276,10
1968896,11
1969524,11
1970148,12
1970772,11
1971400,12
1972016,19
1972644,14
1973272,13
1973892,11
1974520,10
1975144,13
1975772,17
1976404,11
1977024,11
1977652,12
1978276,21
1978896,25
1979528,51
1980144,38
1980772,11
1981400,31
1982024,60
1982652,78
1983272,75
1983904,33
1984532,10
1985152,16
1985780,32
1986404,40
1987032,14
1987664,15
1988280,25
1988908,22
1989532,20
1990156,12
1990788,56
1991408,71
1992036,68
1992660,30
1993284,12
1993912,14
1994536,13
1995164,45
1995796,62
1996416,45
1997044,17
1997668,46
1998300,69
1998928,73
1999548,41
2000176,13
2000796,44
2001420,45
2002052,30
2002672,12
2003300,12
2003924,18
2004548,23
2005176,11
2005792,12
2006420,10
2007052,12
2007672,17
2008300,11
2008924,12
2009552,11
2010184,11
2010800,11
2011432,11
2012056,13
2012680,13
2013308,19
2013928,24
2014556,21
2015180,19
2015804,14
2016436,10
2017056,15
2017684,11
2018312,12
2018936,11
2019564,17
2020188,24
2020820,23
2021448,26
2022064,24
2022696,19
2023320,15
2023944,11
2024572,14
2025192,21
2025820,20
2026444,13
2027068,11
2027700,14
2028320,15
2028948,14
2029576,11
2030200,15
2030828,15
2031452,11
2032084,21
2032712,17
2033336,11
2033964,11
2034588,21
2035212,26
2035844,16
2036464,12
2037096,31
2037720,32
2038344,38
2038976,37
2039592,43
2040224,56
2040852,41
2041472,17
2042104,11
2042728,16
2043356,20
2043988,28
2044608,30
2045240,16
2045864,13
2046488,18
2047120,13
2047736,21
2048368,28
2048992,31
2049612,37
2050240,39
2050856,11
2051480,23
2052108,12
2052724,11
2053356,16
2053976,13
2054604,12
2055232,14
2055848,11
2056476,10
2057096,10
2057728,11
2058356,12
2058976,12
2059604,11
2060224,11
2060848,11
2061476,11
2062096,12
2062724,13
2063344,12
2063968,11
2064596,10
2065220,11
2065848,11
2066476,10
2067096,10
2067724,10
2068348,11
2068976,11
2069604,10
2070220,12
2070852,26
2071476,31
2072100,27
2072728,13
2073344,17
2073972,50
2074596,61
2075220,13
2075848,19
2076464,29
2077092,33
2077724,34
2078344,34
2078972,35
2079596,15
2080224,46
2080852,68
2081468,45
2082096,51
2082720,42
2083340,21
2083972,10
2084592,11
2085220,13
2085840,17
2086464,15
2087092,22
2087712,34
2088340,29
2088968,28
2089584,54
2090212,59
2090836,44
2091464,34
2092092,24
2092712,12
2093340,17
2093964,16
2094592,18
2095224,19
2095840,13
2096468,13
2097092,17
2097716,13
2098344,11
2098960,17
2099592,18
2100212,13
2100836,10
2101464,12
2102088,11
2102716,16
2103344,13
2103964,12
2104592,14
2105216,24
2105844,23
2106472,16
2107096,15
2107724,11
2108348,33
2108972,37
2109600,14
2110216,12
2110848,15
2111472,16
2112096,41
2112724,29
2113344,15
2113976,11
2114604,11
2115224,13
2115852,35
2116476,38
2117104,27
2117732,21
2118352,16
2118984,69
2119608,63
2120232,43
2120860,30
2121480,16
2122108,12
2122732,11
2123356,16
2123984,12
2124608,14
2125236,18
2125868,32
2126488,53
2127116,67
2127740,60
2128372,49
2129000,15
2129616,53
2130244,70
2130868,40
2131492,30
2132120,41
2132736,22
2133364,16
2133988,13
2134612,11
2135240,12
2135864,15
2136492,13
2137120,12
2137744,22
2138372,20
2138996,22
2139624,48
2140256,32
2140872,12
2141500,28
2142124,31
2142748,20
2143376,12
2144000,28
2144628,39
2145252,21
2145876,11
2146504,13
2147124,11
2147752,11
2148380,10
2149000,19
2149628,27
2150252,23
2150884,21
2151512,21
2152132,12
2152760,37
2153384,50
2154004,43
2154636,28
2155256,12
2155884,16
2156508,32
2157132,31
2157760,10
2158384,18
2159012,17
2159644,20
2160264,18
2160892,13
2161516,12
2162144,12
2162772,12
2163392,13
2164020,12
2164644,12
2165268,23
2165896,29
2166512,23
2167140,16
2167764,10
2168388,11
2169020,11
2169640,17
2170268,18
2170900,22
2171520,17
2172148,23
2172772,25
2173404,15
2174032,16
2174652,49
2175280,35
2175904,18
2176532,12
2177160,12
2177776,17
2178404,17
2179028,14
2179652,13
2180280,14
2180896,17
2181524,24
2182156,20
2182776,12
2183404,17
2184028,10
2184656,13
2185284,12
2185904,20
2186532,28
2187156,28
2187784,19
2188412,12
2189032,13
2189660,12
2190284,15
2190908,11
2191540,10
2192160,11
2192788,11
2193416,12
2194040,11
2194668,29
2195292,36
2195924,38
2196552,19
2197168,15
2197800,46
2198424,49
2199048,24
2199676,10
2200296,11
2200924,11
2201548,11
2202176,15
2202804,12
2203424,15
2204052,16
2204684,10
2205304,14
2205932,13
2206556,17
2207188,12
2207820,10
2208440,13
2209068,24
2209692,34
2210316,25
2210948,14
2211568,13
2212196,12
2212820,12
2213444,20
2214072,19
2214696,17
2215324,11
2215956,19
2216576,33
2217204,23
2217828,27
2218460,12
2219088,29
2219704,38
2220336,23
2220960,14
2221584,12
2222212,11
2222832,11
2223460,11
2224084,14
2224708,12
2225340,10
2225960,16
2226588,24
2227220,11
2227840,24
2228468,27
2229092,17
2229724,19
2230352,80
2230976,92
2231608,17
2232232,30
2232856,40
2233484,31
2234104,17
2234732,17
2235360,57
2235984,32
2236612,16
2237232,20
2237864,18
2238492,16
2239112,12
2239744,52
2240368,46
2240996,21
2241624,20
2242248,19
2242876,30
2243500,33
2244124,26
2244752,11
2245372,16
2246000,21
2246624,31
2247248,30
2247876,52
2248496,30
2249124,13
2249756,10
2250376,12
2251004,18
2251632,15
2252260,11
2252892,10
2253508,11
2254140,13
2254764,23
2255384,21
2256012,10
2256628,11
2257260,25
2257884,42
2258508,46
2259136,41
2259756,13
2260384,35
2261012,44
2261632,51
2262260,41
2262884,20
2263516,12
2264144,15
2264764,26
2265392,11
2266016,13
2266640,13
2267268,34
2267888,32
2268516,13
2269140,28
2269764,37
2270396,22
2271016,13
2271648,16
2272276,34
2272896,41
2273524,15
2274148,11
2274780,11
2275408,13
2276028,20
2276656,15
2277280,13
2277904,16
2278532,22
2279152,33
2279780,49
2280404,41
2281028,14
2281660,38
2282280,38
2282908,39
2283540,23
2284160,46
2284788,43
2285412,15
2286044,37
2286676,78
2287296,68
2287928,21
2288552,23
2289176,17
2289804,16
2290424,11
2291052,13
2291680,13
2292304,13
2292932,13
2293552,21
2294184,20
2294812,22
2295432,21
2296060,17
2296684,12
2297312,10
2297944,13
2298560,11
2299192,11
2299816,13
2300440,15
2301068,16
2301688,12
2302316,13
2302944,13
2303568,13
2304200,13
2304816,12
2305444,12
2306072,15
2306688,19
2307316,11
2307940,12
2308568,15
2309196,14
2309816,12
2310444,11
2311068,12
2311692,11
2312320,12
2312936,13
2313568,12
2314192,13
2314816,12
2315444,11
2316064,11
2316692,12
2317324,10
2317944,11
2318572,22
2319196,12
2319828,13
2320460,12
2321080,15
2321708,12
2322332,13
2322956,13
2323584,31
2324208,48
2324836,47
2325460,35
2326084,24
2326712,13
2327336,12
2327964,14
2328596,18
2329216,16
2329844,13
2330468,15
2331100,15
2331728,30
2332348,16
2332976,14
2333600,15
2334224,17
2334852,12
2335472,13
2336100,13
2336724,12
2337348,11
2337976,11
2338596,11
2339224,11
2339852,18
2340472,17
2341100,12
2341724,11
2342356,13
2342988,14
2343608,15
2344236,16
2344860,17
2345484,16
2346116,11
2346736,20
2347364,17
2347992,11
2348616,13
2349244,18
2349864,10
2350492,17
2351124,14
2351744,12
2352376,14
2353000,22
2353628,21
2354260,18
2354880,17
2355512,14
2356132,12
2356756,39
2357388,32
2358008,12
2358636,14
2359260,17
2359884,33
2360516,42
2361136,54
2361764,31
2362396,16
2363016,16
2363644,13
2364268,10
2364900,11
2365532,10
2366152,20
2366784,29
2367408,15
2368032,15
2368660,22
2369280,11
2369908,22
2370532,21
2371156,13
2371788,11
2372408,12
2373036,11
2373668,11
2374288,11
2374920,13
2375544,29
2376176,24
2376804,10
2377424,15
2378052,13
2378676,12
2379300,12
2379932,12
2380552,17
2381184,23
2381804,16
2382428,16
2383060,10
2383684,15
2384312,15
2384944,15
2385560,13
2386192,12
2386816,12
2387444,12
2388076,10
2388696,11
2389324,10
2389948,11
2390576,13
2391204,12
2391824,15
2392456,14
2393080,12
2393704,13
2394332,15
2394960,12
2395588,11
2396220,11
2396840,12
2397468,11
2398092,10
2398724,12
2399356,16
2399976,11
2400608,10
2401232,11
2401856,23
2402488,47
2403104,45
2403736,22
2404364,12
2404984,36
2405612,69
2406240,46
2406868,15
2407496,12
2408120,17
2408748,20
2409372,37
2409996,33
2410628,11
2411248,12
2411876,13
2412500,12
2413124,13
2413756,13
2414376,13
2415008,11
2415636,10
2416256,15
2416884,13
2417508,11
2418140,11
2418768,11
2419388,12
2420016,19
2420640,29
2421264,41
2421892,28
2422512,20
2423140,18
2423764,27
2424392,39
2425020,25
2425640,17
2426268,27
2426900,20
2427520,13
2428148,12
2428776,13
2429404,12
2430036,15
2430656,16
2431288,15
2431912,15
2432536,11
2433168,21
2433784,31
2434416,18
2435040,11
2435664,13
2436292,20
2436912,19
2437540,20
2438172,19
2438792,12
2439420,21
2440044,29
2440676,13
2441304,15
2441928,24
2442556,27
2443180,19
2443808,17
2444436,31
2445056,17
2445684,24
2446308,35
2446936,20
2447564,14
2448184,13
2448812,14
2449444,18
2450064,27
2450692,18
2451320,12
2451948,13
2452580,12
2453200,16
2453828,20
2454456,19
2455080,14
2455712,13
2456328,22
2456960,21
2457584,24
2458208,22
2458840,13
2459460,41
2460092,74
2460720,46
2461336,18
2461968,13
2462592,13
2463220,12
2463852,10
2464472,11
2465100,10
2465724,11
2466348,11
2466976,10
2467600,11
2468228,10
2468852,10
2469472,15
2470104,17
2470728,18
2471356,16
2471988,14
2472608,26
2473236,21
2473860,19
2474492,10
2475120,22
2475740,53
2476368,45
2476992,23
2477616,15
2478244,14
2478864,16
2479492,15
2480116,15
2480740,13
2481368,10
2481992,11
2482620,16
2483252,18
2483872,14
2484500,11
2485124,12
2485752,11
2486380,13
2487000,13
2487628,12
2488252,11
2488876,11
2489508,10
2490128,12
2490756,11
2491380,11
2492004,13
2492636,21
2493260,12
2493892,22
2494520,20
2495144,18
2495776,12
2496400,17
2497028,23
2497660,22
2498280,12
2498908,29
2499532,32
2500156,47
2500784,38
2501408,16
2502036,11
2502668,12
2503288,19
2503916,16
2504540,13
2505172,12
2505800,10
2506424,12
2507052,10
2507676,15
2508304,17
2508932,17
2509552,12
2510180,15
2510804,29
2511428,37
2512060,23
2512680,12
2513308,21
2513940,36
2514560,30
2515188,19
2515816,17
2516444,45
2517076,46
2517696,37
2518328,21
2518952,11
2519576,13
2520208,16
2520824,32
2521452,41
2522076,41
2522700,25
2523332,14
2523952,41
2524584,52
2525212,34
2525832,13
2526464,11
2527088,16
2527716,15
2528348,16
2528968,29
2529596,13
2530224,31
2530848,31
2531476,14
2532096,14
2532724,31
2533352,32
2533976,13
2534608,10
2535224,11
2535852,11
2536484,12
2537104,15
2537736,13
2538360,12
2538988,15
2539620,15
2540240,16
2540868,13
2541492,11
2542116,12
2542748,10
2543368,12
2543996,11
2544624,14
2545248,14
2545880,12
2546504,11
2547132,10
2547764,11
2548384,12
2549016,11
2549640,12
2550272,15
2550900,16
2551520,16
2552152,32
2552776,47
2553400,29
2554032,12
2554648,21
2555280,19
2555912,21
2556528,31
2557160,19
2557788,12
2558420,12
2559048,24
2559672,38
2560308,22
2560928,14
2561548,12
2562176,12
2562796,12
2563428,13
2564048,11
2564672,11
2565300,10
2565916,11
2566548,25
2567176,35
2567792,34
2568424,24
2569044,11
2569672,22
2570304,38
2570920,39
2571548,29
2572172,24
2572800,29
2573428,30
2574048,36
2574676,24
2575300,13
2575924,11
2576552,20
2577176,19
2577804,15
2578428,11
2579056,12
2579684,12
2580308,23
2580940,28
2581568,13
2582184,11
2582812,10
2583436,10
2584064,13
2584696,17
2585312,14
2585940,12
2586564,13
2587188,12
2587816,11
2588436,12
2589064,13
2589688,15
2590308,18
2590940,11
2591564,15
2592196,21
2592824,18
2593440,19
2594068,12
2594692,17
2595320,31
2595952,23
2596568,15
2597196,10
2597820,16
2598444,11
2599072,10
2599696,15
2600324,41
2600948,46
2601572,28
2602204,21
2602824,11
2603456,11
2604084,12
2604704,13
2605332,11
2605956,11
2606588,10
2607216,10
2607840,10
2608468,21
2609092,18
2609716,16
2610348,10
2610968,19
2611596,19
2612220,20
2612848,17
2613476,11
2614100,14
2614728,11
2615360,12
2615976,23
2616608,22
2617232,12
2617860,14
2618492,20
2619112,23
2619744,17
2620368,20
2620992,23
2621620,16
2622236,13
2622868,15
2623496,11
2624112,11
2624740,11
2625364,12
2625992,14
2626620,14
2627236,13
2627864,15
2628488,14
2629116,12
2629744,11
2630368,14
2630996,24
2631620,31
2632244,27
2632872,30
2633488,41
2634116,31
2634740,15
2635364,46
2635992,86
2636616,77
2637244,19
2637876,42
2638496,28
2639124,11
2639748,11
2640376,19
2641004,34
2641624,35
2642252,22
2642872,14
2643496,13
2644124,12
2644744,12
2645372,16
2645996,18
2646616,13
2647248,10
2647864,11
2648492,10
2649120,15
2649736,14
2650368,11
2650992,11
2651620,11
2652248,10
2652872,13
2653500,12
2654124,12
2654744,14
2655376,11
2655992,12
2656624,13
2657244,10
2657868,15
2658500,25
2659120,33
2659748,31
2660380,16
2661000,15
2661628,46
2662252,58
2662884,31
2663512,21
2664128,16
2664756,10
2665380,11
2666000,13
2666628,30
2667248,35
2667876,15
2668496,12
2669120,14
2669748,26
2670368,31
2670996,22
2671624,12
2672248,11
2672876,10
2673500,10
2674128,11
2674756,16
2675376,13
2676004,11
2676628,16
2677252,13
2677884,12
2678504,15
2679132,15
2679756,23
2680380,12
2681008,12
2681624,14
2682256,15
2682876,10
2683504,20
2684132,20
2684756,11
2685388,21
2686016,47
2686636,37
2687264,19
2687888,19
2688520,13
2689148,11
2689768,12
2690396,12
2691020,11
2691640,11
2692272,16
2692888,11
2693516,13
2694140,15
2694768,20
2695396,17
2696020,20
2696648,41
2697276,26
2697896,12
2698524,10
2699148,12
2699780,19
2700408,30
2701028,33
2701656,27
2702280,15
2702904,13
2703532,28
2704152,37
2704780,19
2705404,18
2706024,17
2706656,11
2707276,17
2707908,17
2708536,23
2709152,47
2709784,47
2710408,35
2711036,15
2711668,52
2712288,81
2712916,75
2713544,41
2714168,37
2714796,16
2715416,16
2716044,10
2716668,10
2717296,11
2717924,11
2718548,12
2719180,18
2719808,13
2720432,13
2721060,13
2721684,15
2722308,11
2722936,19
2723560,15
2724188,10
2724812,14
2725432,17
2726064,13
2726680,10
2727312,13
2727932,12
2728560,13
2729188,17
2729812,14
2730440,11
2731068,10
2731688,11
2732316,10
2732940,12
2733572,14
2734200,20
2734816,16
2735448,11
2736072,12
2736692,19
2737324,18
2737944,13
2738572,11
2739196,11
2739824,14
2740452,14
2741076,10
2741708,12
2742336,24
2742960,23
2743588,12
2744216,14
2744840,27
2745468,18
2746088,12
2746716,17
2747340,11
2747964,12
2748596,14
2749216,12
2749844,17
2750476,18
2751096,22
2751724,32
2752352,27
2752980,11
2753608,26
2754232,29
2754860,13
2755484,13
2756108,11
2756736,48
2757360,56
2757988,19
2758612,11
2759236,12
2759868,20
2760488,24
2761116,18
2761748,18
2762368,14
2762996,17
2763620,25
2764252,10
2764884,15
2765500,10
2766132,10
2766756,12
2767376,17
2768008,23
2768624,26
2769252,14
2769876,12
2770500,13
2771128,16
2771752,17
2772380,13
2773012,10
2773632,13
2774264,19
2774888,14
2775516,11
2776148,12
2776768,15
2777396,13
2778024,12
2778648,12
2779276,12
2779896,12
2780528,11
2781148,11
2781776,12
2782404,25
2783024,29
2783656,32
2784284,34
2784904,28
2785532,15
2786156,20
2786788,16
2787416,18
2788032,32
2788664,25
2789288,13
2789908,16
2790540,23
2791160,25
2791788,17
2792412,11
2793036,14
2793664,20
2794288,19
2794916,36
2795548,46
2796168,41
2796796,13
2797420,23
2798052,24
2798684,16
2799304,11
2799936,11
2800560,13
2801184,16
2801812,10
2802432,12
2803060,12
2803684,19
2804308,28
2804940,35
2805560,21
2806188,21
2806820,34
2807440,55
2808068,48
2808692,23
2809320,11
2809952,11
2810568,13
2811196,11
2811820,13
2812448,16
2813076,12
2813696,12
2814324,13
2814952,11
2815576,11
2816208,10
2816824,11
2817452,11
2818080,11
2818696,13
2819324,17
2819948,12
2820576,12
2821204,11
2821824,14
2822452,22
2823076,16
2823700,12
2824328,11
2824944,13
2825572,11
2826196,11
2826820,13
2827452,12
2828072,12
2828700,12
2829332,12
2829952,24
2830580,21
2831204,16
2831836,10
2832464,16
2833084,19
2833712,15
2834336,11
2834960,13
2835588,22
2836208,18
2836836,15
2837460,13
2838084,11
2838712,10
2839336,11
2839964,11
2840596,10
2841216,12
2841844,11
2842468,11
2843100,11
2843728,11
2844348,17
2844976,14
2845600,15
2846224,21
2846852,14
2847472,36
2848100,44
2848724,53
2849348,46
2849976,14
2850596,47
2851224,93
2851852,64
2852472,17
2853100,13
2853728,33
2854356,40
2854988,26
2855608,25
2856236,17
2856860,10
2857488,11
2858116,12
2858736,14
2859364,13
2859992,12
2860616,13
2861248,16
2861864,22
2862496,15
2863124,32
2863744,19
2864376,21
2865000,35
2865628,36
2866260,15
2866880,21
2867512,29
2868132,27
2868756,21
2869384,13
2870008,26
2870636,33
2871260,27
2871884,16
2872512,23
2873136,33
2873764,31
2874396,28
2875016,14
2875644,20
2876268,15
2876900,14
2877528,40
2878152,45
2878780,24
2879404,12
2880028,15
2880656,15
2881276,11
2881908,10
2882528,10
2883152,12
2883784,13
2884400,11
2885028,11
2885656,12
2886280,12
2886908,14
2887532,15
2888160,12
2888788,14
2889408,15
2890036,16
2890660,15
2891284,17
2891912,17
2892532,14
2893160,17
2893784,33
2894404,31
2895036,30
2895656,25
2896284,19
2896916,16
2897536,12
2898164,15
2898788,20
2899416,16
2900048,18
2900664,17
2901292,15
2901916,13
2902540,19
2903172,26
2903792,17
2904420,19
2905044,33
2905668,39
2906300,34
2906920,20
2907548,17
2908180,25
2908800,40
2909428,40
2910052,58
2910680,47
2911312,21
2911932,12
2912560,12
2913184,11
2913808,13
2914440,13
2915056,14
2915684,11
2916308,30
2916936,34
2917564,11
2918184,13
2918816,13
2919444,14
2920064,23
2920692,18
2921316,13
2921944,11
2922576,10
2923192,11
2923824,12
2924448,11
2925072,11
2925700,11
2926320,12
2926948,14
2927572,15
2928200,13
2928828,10
2929448,12
2930076,11
2930708,14
2931328,22
2931956,19
2932580,19
2933212,10
2933840,18
2934464,31
2935092,26
2935716,13
2936344,12
2936972,11
2937592,13
2938224,13
2938848,15
2939472,13
2940104,10
2940720,12
2941352,12
2941980,12
2942600,17
2943232,29
2943856,35
2944488,40
2945116,51
2945736,38
2946364,17
2946988,36
2947616,57
2948244,76
2948864,59
2949492,47
2950116,30
2950740,17
2951368,10
2951992,11
2952620,17
2953252,16
2953872,13
2954500,12
2955124,11
2955756,14
2956384,27
2957008,30
2957636,18
2958260,12
2958884,18
2959516,22
2960136,17
2960764,12
2961388,12
2962012,11
2962640,25
2963256,26
2963888,11
2964516,12
2965136,11
2965764,11
2966388,10
2967020,14
2967648,11
2968272,14
2968900,27
2969524,47
2970152,32
2970780,16
2971400,28
2972028,21
2972652,21
2973276,13
2973904,22
2974528,28
2975156,14
2975788,14
2976408,11
2977036,14
2977660,32
2978288,41
2978920,28
2979536,15
2980164,11
2980788,11
2981412,11
2982044,12
2982664,11
2983292,10
2983916,12
2984540,10
2985172,10
2985796,11
2986424,12
2987052,12
2987672,13
2988300,11
2988928,13
2989556,11
2990188,10
2990808,16
2991436,21
2992060,20
2992684,15
2993312,12
2993936,25
2994564,26
2995188,27
2995816,24
2996444,11
2997068,15
2997700,23
2998328,29
2998948,19
2999576,13
3000204,22
3000832,23
3001460,34
3002080,30
3002708,22
3003332,13
3003960,16
3004588,14
3005208,16
3005836,25
3006464,20
3007088,18
3007720,12
3008344,11
3008972,12
3009604,12
3010224,14
3010852,18
3011480,19
3012104,13
3012732,17
3013352,22
3013984,12
3014608,22
3015232,19
3015860,13
3016480,19
3017108,37
3017740,58
3018360,35
3018992,27
3019616,23
3020244,13
3020876,14
3021496,11
3022124,17
3022748,27
3023372,40
3024004,37
3024624,33
3025252,21
3025880,23
3026504,50
3027136,48
3027752,43
3028384,22
3029016,11
3029632,19
3030264,13
3030888,33
3031520,35
3032148,13
3032768,10
3033400,11
3034024,12
3034648,11
3035276,11
3035896,13
3036528,12
3037152,17
3037776,13
3038408,17
3039024,18
3039656,18
3040288,15
3040904,12
3041532,20
3042156,12
3042788,11
3043420,12
3044040,19
3044668,19
3045292,15
3045920,15
3046548,12
3047168,11
3047796,11
3048424,11
3049048,18
3049676,11
3050296,19
3050928,13
3051556,19
3052176,21
3052804,20
3053428,15
3054060,19
3054692,16
3055312,11
3055944,16
3056568,19
3057192,28
3057824,26
3058440,26
3059072,19
3059696,13
3060320,37
3060952,45
3061576,24
3062208,13
3062836,12
3063456,11
3064088,11
3064712,15
3065344,12
3065972,11
3066592,11
3067224,12
3067848,11
3068472,27
3069104,35
3069724,36
3070356,12
3070988,40
3071608,39
3072244,19
3072864,13
3073492,30
3074120,31
3074744,13
3075372,11
3075996,13
3076620,11
3077248,12
3077872,13
3078500,17
3079124,19
3079748,12
3080376,10
3081000,16
3081628,15
3082256,10
3082880,10
3083508,11
3084132,14
3084764,15
3085392,12
3086012,13
3086640,20
3087264,19
3087888,16
3088516,14
3089136,13
3089764,21
3090388,26
3091012,19
3091644,14
3092264,13
3092892,16
3093524,30
3094144,25
3094772,13
3095400,27
3096028,17
3096660,10
3097280,11
3097908,10
3098532,11
3099156,11
3099788,13
3100408,13
3101036,11
3101664,11
3102288,11
3102916,14
3103536,18
3104168,16
3104796,14
3105416,11
3106044,14
3106672,18
3107300,21
3107932,18
3108552,12
3109184,12
3109808,12
3110432,15
3111060,17
3111680,16
3112308,12
3112936,11
3113560,24
3114192,39
3114808,42
3115436,28
3116068,10
3116688,18
3117320,38
3117944,32
3118572,18
3119204,11
3119824,12
3120456,17
3121080,29
3121704,34
3122332,39
3122952,38
3123584,15
3124204,41
3124828,42
3125460,38
3126084,35
3126712,14
3127340,47
3127960,45
3128592,21
3129216,12
3129844,16
3130476,20
3131096,15
3131728,10
3132352,28
3132976,37
3133608,35
3134224,19
3134856,13
3135480,12
3136104,23
3136732,17
3137356,23
3137988,39
3138616,26
3139236,10
3139864,10
3140488,13
3141116,10
3141748,10
3142368,11
3143000,12
3143624,13
3144248,11
3144876,12
3145496,12
3146128,13
3146756,11
3147376,11
3148008,12
3148632,11
3149264,11
3149892,12
3150512,15
3151144,12
3151768,11
3152392,12
3153024,12
3153640,12
3154272,13
3154896,10
3155520,11
3156148,11
3156768,12
3157400,11
3158028,11
3158648,12
3159280,11
3159904,10
3160536,15
3161164,13
3161784,12
3162412,11
3163036,11
3163664,13
3164296,15
3164912,12
3165540,12
3166168,11
3166792,20
3167424,21
3168040,19
3168672,20
3169304,11
3169920,17
3170548,17
3171176,15
3171808,20
3172440,32
3173056,30
3173688,15
3174312,15
3174940,14
3175568,13
3176188,11
3176816,11
3177440,13
3178068,11
3178696,13
3179316,11
3179948,10
3180580,10
3181200,12
3181828,11
3182456,13
3183084,24
3183716,16
3184336,19
3184968,19
3185592,16
3186216,12
3186848,12
3187464,13
3188096,19
3188720,14
3189344,12
3189976,14
3190600,13
3191232,17
3191864,23
3192484,12
3193112,17
3193736,22
3194368,26
3195000,34
3195624,29
3196256,13
3196880,31
3197504,62
3198136,39
3198756,16
3199384,15
3200020,18
3200636,26
3201264,21
3201888,11
3202516,31
3203144,55
3203768,45
3204396,19
3205020,10
3205644,10
3206272,10
3206888,10
3207520,11
3208144,13
3208764,11
3209396,14
3210016,23
3210644,18
3211272,12
3211896,15
3212524,18
3213148,13
3213780,11
3214408,13
3215024,21
3215656,26
3216280,17
3216900,12
3217532,18
3218152,17
3218780,28
3219404,34
3220028,23
3220656,12
3221280,13
3221908,19
3222540,24
3223160,13
3223788,18
3224412,19
3225044,15
3225676,12
3226296,11
3226924,12
3227548,11
3228172,12
3228800,12
3229416,14
3230044,24
3230668,25
3231296,19
3231924,13
3232544,11
3233172,12
3233804,14
3234424,12
3235052,11
3235676,11
3236308,16
3236936,18
3237560,12
3238188,15
3238812,15
3239436,11
3240068,10
3240688,11
3241316,11
3241940,12
3242564,14
3243192,15
3243816,12
3244444,12
3245076,24
3245696,39
3246324,41
3246948,40
3247580,13
3248208,20
3248832,35
3249460,37
3250084,43
3250708,38
3251340,18
3251960,20
3252588,36
3253212,35
3253836,47
3254468,32
3255088,12
3255716,11
3256348,14
3256968,14
3257596,11
3258224,12
3258852,13
3259484,18
3260104,18
3260736,13
3261360,15
3261984,20
3262616,21
3263232,23
3263864,15
3264488,12
3265112,24
3265740,22
3266360,13
3266992,14
3267620,12
3268240,13
3268868,13
3269492,25
3270124,19
3270756,18
3271376,15
3272008,13
3272632,13
3273256,13
3273888,22
3274504,15
3275136,13
3275760,12
3276388,17
3277020,19
3277640,15
3278268,13
3278896,11
3279512,11
3280140,13
3280764,13
3281392,11
3282020,10
3282636,13
3283264,11
3283888,15
3284508,23
3285136,19
3285752,14
3286380,12
3287004,25
3287628,21
3288256,12
3288872,12
3289500,21
3290128,24
3290752,15
3291380,17
3292000,16
3292632,15
3293260,26
3293880,15
3294508,15
3295132,16
3295756,23
3296384,19
3297000,11
3297628,12
3298252,28
3298876,39
3299504,31
3300120,21
3300752,13
3301372,10
3302000,15
3302628,15
3303252,13
3303880,15
3304508,20
3305128,18
3305756,15
3306380,13
3307008,15
3307636,13
3308256,23
3308884,21
3309504,12
3310128,29
3310756,33
3311376,26
3312004,32
3312628,13
3313252,27
3313880,18
3314504,14
3315136,24
3315764,34
3316384,40
3317012,16
3317636,11
3318268,14
3318896,11
3319516,29
3320144,18
3320768,11
3321392,29
3322020,32
3322640,13
3323268,13
3323892,11
3324516,11
3325144,21
3325768,32
3326396,27
3327028,16
3327648,17
3328280,35
3328900,33
3329528,13
3330156,11
3330776,12
3331404,10
3332024,12
3332648,10
3333276,16
3333896,15
3334524,13
3335148,22
3335768,16
3336400,11
3337016,14
3337644,29
3338272,37
3338896,34
3339524,17
3340144,12
3340776,13
3341404,13
3342024,11
3342652,15
3343276,13
3343900,12
3344528,11
3345152,14
3345780,13
3346404,14
3347028,15
3347656,15
3348276,19
3348904,23
3349532,24
3350152,22
3350780,16
3351404,23
3352036,40
3352664,41
3353284,31
3353912,18
3354536,12
3355160,15
3355788,21
3356408,17
3357036,11
3357660,18
3358284,20
3358916,21
3359536,11
3360164,12
3360792,13
3361408,13
3362036,16
3362660,26
3363288,18
3363916,10
3364536,37
3365164,40
3365788,21
3366408,20
3367036,16
3367656,19
3368284,16
3368908,11
3369532,12
3370160,12
3370776,37
3371404,48
3372028,16
3372656,17
3373284,32
3373908,34
3374540,31
3375168,14
3375788,11
3376416,11
3377040,13
3377668,11
3378296,11
3378920,18
3379548,21
3380172,16
3380796,10
3381424,12
3382040,22
3382672,15
3383292,10
3383920,12
3384548,16
3385172,19
3385800,16
3386428,11
3387048,14
3387676,13
3388300,12
3388928,11
3389560,16
3390176,18
3390804,11
3391428,13
3392052,11
3392680,11
3393304,12
3393932,11
3394556,12
3395180,12
3395808,12
3396432,11
3397060,10
3397692,10
3398312,11
3398944,11
3399564,11
3400196,12
3400824,11
3401448,15
3402076,15
3402700,11
3403324,11
3403952,11
3404572,11
3405200,11
3405824,12
3406448,13
3407076,12
3407700,20
3408328,29
3408956,19
3409576,18
3410204,20
3410828,13
3411456,12
3412088,11
3412704,13
3413332,26
3413956,21
3414580,11
3415212,10
3415832,11
3416464,11
3417084,10
3417712,12
3418340,12
3418964,13
3419596,12
3420224,15
3420848,21
3421476,25
3422100,17
3422728,11
3423356,12
3423976,22
3424608,27
3425232,27
3425856,25
3426484,10
3427104,21
3427736,26
3428364,16
3428984,18
3429612,26
3430240,12
3430868,15
3431500,22
3432120,18
3432748,12
3433372,30
3433996,37
3434628,28
3435248,19
3435876,20
3436500,16
3437124,17
3437756,14
3438376,11
3439008,11
3439636,12
3440256,14
3440884,11
3441508,17
3442136,19
3442768,27
3443384,30
3444012,24
3444636,14
3445260,29
3445888,36
3446504,22
3447136,14
3447760,12
3448384,15
3449012,18
3449632,23
3450260,19
3450892,10
3451512,15
3452140,14
3452764,11
3453396,12
3454028,10
3454648,11
3455276,11
3455904,11
3456528,11
3457156,14
3457776,14
3458404,16
3459028,12
3459652,11
3460280,12
3460904,12
3461532,12
3462164,14
3462784,17
3463412,11
3464036,34
3464664,48
3465296,30
3465912,25
3466540,17
3467164,21
3467788,20
3468420,12
3469040,37
3469668,39
3470292,31
3470916,20
3471548,10
3472168,17
3472796,27
3473428,14
3474048,12
3474676,18
3475300,33
3475932,33
3476564,22
3477184,13
3477812,15
3478440,21
3479064,19
3479692,21
3480312,29
3480944,24
3481568,13
3482192,44
3482820,46
3483440,17
3484068,13
3484696,26
3485320,27
3485948,17
3486572,13
3487204,16
3487832,31
3488448,23
3489080,20
3489700,32
3490324,36
3490956,10
3491576,30
3492204,38
3492828,20
3493452,12
3494080,24
3494704,33
3495332,26
3495964,11
3496584,13
3497212,13
3497836,12
3498468,15
3499096,12
3499720,11
3500348,11
3500972,11
3501596,12
3502228,17
3502848,24
3503476,15
3504100,25
3504724,18
3505356,19
3505976,21
3506604,27
3507236,14
3507856,13
3508484,15
3509108,18
3509740,18
3510368,20
3510992,23
3511624,23
3512248,16
3512872,14
3513500,11
3514120,11
3514748,11
3515376,13
3516000,11
3516628,15
3517256,19
3517888,22
3518516,22
3519136,17
3519768,27
3520392,45
3521020,22
3521652,10
3522272,13
3522900,12
3523524,12
3524148,12
3524776,12
3525392,28
3526024,38
3526648,29
3527272,13
3527900,13
3528524,13
3529152,12
3529784,11
3530400,11
3531032,15
3531656,17
3532284,17
3532916,12
3533536,11
3534164,12
3534788,12
3535412,13
3536040,18
3536664,25
3537292,21
3537916,11
3538544,13
3539172,26
3539800,45
3540428,49
3541060,24
3541680,12
3542308,47
3542936,63
3543560,47
3544188,16
3544808,16
3545436,28
3546060,16
3546684,14
3547316,22
3547936,26
3548568,13
3549196,16
3549816,20
3550444,16
3551068,11
3551700,12
3552332,10
3552952,13
3553584,19
3554208,28
3554832,32
3555460,13
3556080,24
3556708,71
3557336,72
3557960,35
3558592,30
3559208,19
3559836,12
3560468,12
3561088,19
3561716,19
3562340,13
3562972,11
3563604,10
3564224,11
3564852,11
3565476,14
3566100,13
3566732,14
3567352,12
3567984,13
3568608,24
3569232,23
3569864,18
3570480,12
3571112,29
3571744,35
3572360,39
3572992,27
3573616,24
3574248,18
3574876,18
3575496,36
3576128,37
3576752,28
3577376,17
3578008,12
3578624,16
3579256,42
3579880,40
3580504,19
3581136,10
3581752,10
3582384,11
3583016,10
3583640,14
3584276,14
3584896,13
3585524,12
3586152,11
3586776,12
3587404,12
3588028,15
3588652,13
3589280,14
3589900,16
3590528,15
3591152,19
3591776,20
3592404,24
3593028,33
3593660,13
3594288,26
3594912,44
3595540,43
3596164,41
3596796,40
3597428,26
3598048,15
3598676,10
3599304,15
3599928,20
3600560,11
3601176,17
3601804,21
3602428,12
3603056,14
3603684,24
3604308,33
3604940,25
3605568,29
3606188,33
3606816,19
3607440,15
3608068,34
3608696,55
3609316,62
3609944,40
3610568,13
3611188,28
3611820,18
3612440,13
3613068,11
3613692,10
3614320,11
3614948,11
3615572,20
3616204,31
3616832,39
3617448,17
3618076,17
3618700,17
3619328,12
3619960,14
3620576,14
3621208,11
3621832,21
3622456,19
3623084,10
3623704,11
3624332,20
3624956,30
3625584,29
3626212,46
3626836,33
3627468,15
3628096,15
3628720,29
3629348,41
3629972,62
3630600,24
3631228,10
3631848,11
3632480,25
3633100,39
3633728,17
3634356,12
3634976,14
3635608,12
3636236,14
3636856,21
3637484,19
3638108,17
3638740,25
3639368,20
3639988,11
3640616,27
3641240,30
3641864,34
3642496,27
3643112,18
3643744,12
3644368,12
3644992,15
3645620,17
3646240,12
3646868,11
3647500,14
3648120,14
3648748,12
3649372,16
3650000,13
3650628,10
3651248,11
3651876,11
3652500,13
3653128,13
3653756,27
3654376,36
3655008,44
3655632,29
3656256,13
3656884,11
3657504,16
3658136,18
3658764,16
3659384,12
3660012,18
3660640,31
3661268,14
3661900,24
3662520,45
3663148,43
3663776,23
3664400,11
3665028,12
3665648,13
3666276,14
3666900,16
3667524,15
3668156,20
3668776,24
3669404,17
3670036,23
3670656,35
3671288,21
3671912,24
3672540,18
3673172,11
3673792,32
3674424,35
3675048,35
3675672,37
3676304,21
3676920,12
3677552,16
3678176,12
3678800,15
3679428,15
3680048,11
3680676,11
3681308,16
3681928,33
3682556,22
3683184,23
3683812,38
3684444,43
3685064,29
3685696,14
3686320,12
3686944,16
3687572,15
3688192,11
3688820,11
3689444,11
3690064,10
3690696,10
3691312,12
3691940,11
3692572,14
3693192,13
3693820,12
3694444,19
3695076,27
3695704,29
3696324,21
3696952,15
3697576,11
3698200,11
3698828,12
3699448,21
3700076,15
3700700,11
3701324,11
3701956,11
3702576,13
3703204,13
3703836,18
3704456,24
3705084,26
3705708,19
3706340,10
3706972,20
3707592,17
3708220,13
3708844,23
3709468,43
3710100,36
3710720,13
3711348,13
3711976,14
3712600,15
3713232,11
3713848,22
3714476,16
3715108,14
3715728,38
3716356,11
3716984,19
3717612,14
3718244,10
3718864,20
3719492,42
3720120,40
3720740,17
3721372,21
3721992,25
3722624,28
3723244,20
3723868,16
3724500,15
3725124,21
3725756,17
3726384,12
3727008,11
3727640,14
3728264,15
3728892,14
3729520,21
3730140,28
3730768,18
3731392,13
3732016,10
3732648,11
3733264,10
3733896,15
3734520,15
3735144,11
3735776,12
3736400,15
3737028,14
3737660,16
3738280,13
3738908,11
3739532,16
3740164,11
3740792,11
3741412,12
3742040,15
3742668,10
3743292,15
3743924,18
3744544,17
3745172,12
3745804,12
3746424,11
3747052,26
3747680,20
3748308,11
3748940,10
3749560,11
3750192,14
3750816,11
3751440,15
3752072,12
3752688,12
3753316,12
3753944,12
3754568,12
3755200,12
3755816,11
3756448,11
3757076,10
3757696,13
3758328,21
3758952,21
3759584,12
3760216,15
3760832,23
3761460,23
3762088,15
3762712,11
3763344,11
3763960,15
3764588,10
3765216,11
3765840,11
3766468,16
3767088,23
3767720,21
3768348,12
3768968,19
3769596,19
3770220,18
3770852,15
3771484,11
3772104,11
3772736,11
3773360,14
3773984,15
3774616,11
3775232,11
3775864,14
3776488,32
3777112,40
3777740,32
3778360,17
3778992,15
3779620,10
3780240,13
3780868,13
3781492,13
3782124,13
3782756,10
3783376,11
3784008,12
3784628,12
3785256,26
3785888,48
3786504,56
3787136,43
3787760,20
3788384,14
3789016,35
3789640,17
3790268,32
3790900,38
3791520,33
3792152,29
3792772,16
3793404,19
3794036,25
3794656,44
3795284,36
3795912,18
3796536,12
3797164,10
3797784,18
3798416,19
3799040,28
3799664,32
3800296,18
3800920,21
3801552,19
3802180,11
3802800,12
3803432,12
3804056,13
3804680,12
3805312,12
3805928,11
3806560,13
3807184,20
3807808,23
3808440,21
3809060,15
3809688,19
3810320,17
3810936,12
3811568,13
3812192,13
3812824,12
3813452,14
3814072,11
3814704,11
3815328,11
3815952,11
3816584,11
3817200,11
3817832,11
3818456,12
3819080,12
3819712,13
3820328,12
3820960,13
3821588,25
3822208,32
3822840,31
3823464,20
3824096,11
3824724,32
3825344,33
3825976,19
3826600,13
3827224,12
3827852,12
3828472,14
3829104,25
3829728,24
3830352,13
3830984,10
3831608,10
3832240,11
3832872,11
3833488,13
3834120,10
3834748,30
3835380,34
3836012,22
3836632,12
3837264,15
3837888,10
3838516,11
3839148,12
3839772,14
3840404,13
3841032,12
3841648,15
3842280,11
3842900,13
3843532,11
3844160,13
3844776,20
3845408,39
3846032,31
3846660,11
3847292,10
3847912,13
3848540,14
3849164,12
3849788,13
3850420,10
3851040,11
3851668,12
3852296,12
3852920,12
3853548,13
3854172,21
3854804,15
3855432,11
3856052,10
3856680,14
3857304,22
3857928,18
3858556,12
3859176,13
3859808,19
3860432,20
3861056,21
3861684,20
3862304,15
3862936,27
3863564,42
3864184,31
3864812,16
3865436,11
3866068,11
3866700,24
3867320,47
3867948,28
3868576,14
3869200,15
3869828,19
3870448,51
3871080,70
3871704,45
3872328,15
3872956,10
3873576,11
3874204,11
3874836,18
3875456,23
3876084,15
3876708,12
3877340,12
3877972,24
3878592,27
3879220,16
3879848,15
3880472,12
3881100,14
3881720,19
3882348,14
3882972,11
3883600,10
3884228,10
3884848,13
3885476,11
3886108,10
3886728,12
3887356,11
3887984,11
3888616,11
3889248,11
3889864,17
3890496,13
3891120,12
3891744,11
3892376,12
3892992,12
3893620,12
3894244,12
3894868,12
3895500,12
3896120,11
3896748,11
3897380,10
3898000,11
3898628,12
3899252,11
3899884,11
3900516,12
3901136,14
3901768,13
3902392,11
3903016,12
3903648,11
3904264,10
3904896,11
3905520,12
3906144,11
3906776,11
3907400,11
3908028,12
3908660,16
3909280,23
3909908,23
3910536,16
3911164,12
3911796,16
3912416,40
3913044,53
3913668,59
3914296,41
3914924,16
3915544,32
3916176,51
3916804,11
3917424,15
3918052,12
3918680,31
3919312,33
3919940,46
3920560,55
3921192,43
3921816,19
3922440,11
3923068,13
3923688,13
3924316,13
3924944,11
3925568,15
3926200,12
3926816,12
3927448,15
3928076,19
3928696,13
3929328,15
3929952,40
3930584,67
3931212,41
3931832,22
3932464,11
3933088,19
3933712,21
3934340,14
3934960,13
3935588,11
3936216,14
3936836,20
3937468,18
3938088,13
3938716,18
3939348,30
3939968,16
3940596,11
3941224,13
3941852,14
3942484,12
3943104,12
3943732,12
3944356,14
3944980,15
3945608,15
3946224,11
3946856,13
3947480,15
3948104,11
3948732,10
3949352,11
3949984,11
3950612,10
3951232,12
3951864,13
3952488,12
3953116,11
3953748,10
3954368,12
3954996,12
3955624,12
3956248,11
3956876,10
3957496,12
3958128,19
3958752,23
3959376,19
3960004,11
3960624,12
3961256,13
3961884,14
3962504,14
3963136,12
3963760,11
3964388,10
3965020,14
3965640,13
3966268,19
3966896,20
3967520,21
3968152,28
3968768,32
3969396,15
3970020,13
3970644,14
3971276,10
3971896,21
3972524,13
3973156,18
3973776,36
3974404,47
3975028,59
3975660,46
3976288,27
3976912,13
3977540,15
3978168,17
3978792,22
3979420,23
3980040,27
3980668,16
3981296,18
3981920,39
3982548,28
3983172,18
3983804,22
3984436,26
3985056,18
3985684,13
3986308,13
3986940,11
3987572,13
3988192,17
3988824,12
3989444,14
3990072,11
3990700,13
3991320,11
3991952,17
3992584,12
3993204,20
3993832,13
3994460,11
3995088,12
3995716,13
3996336,28
3996964,25
3997588,13
3998216,11
3998848,23
3999464,32
4000096,31
4000716,28
4001340,16
4001968,27
4002584,52
4003216,43
4003840,20
4004464,11
4005092,10
4005716,12
4006348,12
4006976,11
4007596,11
4008224,11
4008848,11
4009476,11
4010108,12
4010728,13
4011356,12
4011984,15
4012608,17
4013236,24
4013856,21
4014488,11
4015116,11
4015736,11
4016364,19
4016988,22
4017620,26
4018248,13
4018864,25
4019492,46
4020116,46
4020740,20
4021372,11
4021992,12
4022620,12
4023244,12
4023868,11
4024500,10
4025120,12
4025748,11
4026380,12
4027000,22
4027628,43
4028252,37
4028884,15
4029512,13
4030132,14
4030760,38
4031384,40
4032012,20
4032640,12
4033256,17
4033884,16
4034508,11
4035136,11
4035764,16
4036384,22
4037012,13
4037644,10
4038264,15
4038892,30
4039516,28
4040148,11
4040780,12
4041400,15
4042028,18
4042656,13
4043280,17
4043908,19
4044528,16
4045160,15
4045780,11
4046404,16
4047036,11
4047656,15
4048284,19
4048916,12
4049536,12
4050168,12
4050792,13
4051420,12
4052052,12
4052672,13
4053300,14
4053928,15
4054552,21
4055180,30
4055800,19
4056428,11
4057052,15
4057676,21
4058308,11
4058928,13
4059556,12
4060188,14
4060808,13
4061436,16
4062060,12
4062692,17
4063324,22
4063944,19
4064576,12
4065200,11
4065824,24
4066452,31
4067072,25
4067704,31
4068328,20
4068952,13
4069584,17
4070200,18
4070832,13
4071464,14
4072084,25
4072712,27
4073336,13
4073968,12
4074596,10
4075216,12
4075848,12
4076472,13
4077096,13
4077728,12
4078344,14
4078976,15
4079600,14
4080224,13
4080852,13
4081476,13
4082108,11
4082740,10
4083360,12
4083988,20
4084616,21
4085244,13
4085876,22
4086496,33
4087124,31
4087752,29
4088376,15
4089004,28
4089624,42
4090252,28
4090880,22
4091504,31
4092136,25
4092760,12
4093392,13
4094024,12
4094644,12
4095276,14
4095900,13
4096528,16
4097156,22
4097772,30
4098400,20
4099024,20
4099644,26
4100272,18
4100896,12
4101524,16
4102152,21
4102768,20
4103396,14
4104020,15
4104648,25
4105276,27
4105896,13
4106524,15
4107144,36
4107776,31
4108404,22
4109024,16
4109652,14
4110272,26
4110896,15
4111524,14
4112144,14
4112772,16
4113396,23
4114016,17
4114648,13
4115268,13
4115900,11
4116528,11
4117144,11
4117772,12
4118396,12
4119024,11
4119652,11
4120272,13
4120900,12
4121524,15
4122148,26
4122776,26
4123392,17
4124024,13
4124644,11
4125268,24
4125896,33
4126520,29
4127148,18
4127780,12
4128400,15
4129028,17
4129652,25
4130280,32
4130908,20
4131528,31
4132156,46
4132780,34
4133404,26
4134032,29
4134656,17
4135284,12
4135908,17
4136532,22
4137160,26
4137784,41
4138412,46
4139040,21
4139656,11
4140288,16
4140912,18
4141540,15
4142168,10
4142792,13
4143420,15
4144044,22
4144668,19
4145296,12
4145916,11
4146544,13
4147168,13
4147792,24
4148420,26
4149040,16
4149668,10
4150296,17
4150920,36
4151548,35
4152172,15
4152804,13
4153432,16
4154052,23
4154680,26
4155304,16
4155928,21
4156556,34
4157176,34
4157808,16
4158428,12
4159052,14
4159684,18
4160304,18
4160932,15
4161560,12
4162176,16
4162808,21
4163428,11
4164060,10
4164688,10
4165304,11
4165932,10
4166556,21
4167180,27
4167808,23
4168424,22
4169056,12
4169676,13
4170300,14
4170928,24
4171552,28
4172180,25
4172812,12
4173428,16
4174060,39
4174684,45
4175312,29
4175940,11
4176560,13
4177188,26
4177812,26
4178440,17
4179068,10
4179688,18
4180316,20
4180940,11
4181560,20
4182192,17
4182808,11
4183440,11
4184060,25
4184688,36
4185316,20
4185940,13
4186568,18
4187196,15
4187816,13
4188444,18
4189068,21
4189700,25
4190328,15
4190948,14
4191576,20
4192200,13
4192824,11
4193452,12
4194072,14
4194700,15
4195324,28
4195952,28
4196580,21
4197204,11
4197836,24
4198464,20
4199084,25
4199716,30
4200336,17
4200964,11
4201592,15
4202216,17
4202844,13
4203468,12
4204092,11
4204720,10
4205344,12
4205972,13
4206604,24
4207224,32
4207852,28
4208476,19
4209108,15
4209736,11
4210356,15
4210984,12
4211608,14
4212232,21
4212860,50
4213480,51
4214108,12
4214732,17
4215356,18
4215988,18
4216608,24
4217236,22
4217868,22
4218488,15
4219116,19
4219740,25
4220372,16
4221000,19
4221624,35
4222252,38
4222876,22
4223500,11
4224132,12
4224752,14
4225380,14
4226000,15
4226624,13
4227252,14
4227872,12
4228500,13
4229128,18
4229752,31
4230380,22
4231004,15
4231636,13
4232264,10
4232888,21
4233516,27
4234140,15
4234764,11
4235396,12
4236016,13
4236644,12
4237268,11
4237892,11
4238524,10
4239144,11
4239776,22
4240404,32
4241024,42
4241652,36
4242276,19
4242904,19
4243532,47
4244152,59
4244780,46
4245404,28
4246028,21
4246660,21
4247280,19
4247908,13
4248532,11
4249156,11
4249788,12
4250408,11
4251036,13
4251664,14
4252288,15
4252916,13
4253540,13
4254172,10
4254800,21
4255424,19
4256052,13
4256676,13
4257300,18
4257928,21
4258552,17
4259180,11
4259808,16
4260432,15
4261060,25
4261680,39
4262308,35
4262940,28
4263560,20
4264188,21
4264812,11
4265440,13
4266068,17
4266688,33
4267316,48
4267940,45
4268564,22
4269192,18
4269816,18
4270444,20
4271068,21
4271692,11
4272324,20
4272944,22
4273572,29
4274204,35
4274824,29
4275452,12
4276076,16
4276708,12
4277336,30
4277956,33
4278584,18
4279208,11
4279832,13
4280460,10
4281080,18
4281708,24
4282332,17
4282956,10
4283588,14
4284208,16
4284836,13
4285468,12
4286088,12
4286716,12
4287340,11
4287972,11
4288604,10
4289224,11
4289852,11
4290476,14
4291100,21
4291732,24
4292352,23
4292980,33
4293604,27
4294228,13
4294860,14
4295480,21
4296108,43
4296740,48
4297360,31
4297992,20
4298616,17
4299244,13
4299876,10
4300496,14
4301128,11
4301748,11
4302372,11
4303004,12
4303624,11
4304252,12
4304876,12
4305500,13
4306128,10
4306752,18
4307380,23
4308012,16
4308632,15
4309260,14
4309884,13
4310516,12
4311144,23
4311768,18
4312396,11
4313020,15
4313648,17
4314276,14
4314896,11
4315524,18
4316148,24
4316776,16
4317404,37
4318028,43
4318660,25
4319292,16
4319912,47
4320544,67
4321168,54
4321796,43
4322428,24
4323048,13
4323676,13
4324300,13
4324924,15
4325556,12
4326176,13
4326804,11
4327436,22
4328056,16
4328684,18
4329308,23
4329936,21
4330568,14
4331184,10
4331816,18
4332440,40
4333064,25
4333692,12
4334312,31
4334944,33
4335568,39
4336192,27
4336820,22
4337440,13
4338068,22
4338700,32
4339320,29
4339948,23
4340572,25
4341204,23
4341836,16
4342456,13
4343084,13
4343708,12
4344332,13
4344960,12
4345584,11
4346216,11
4346840,21
4347464,17
4348092,11
4348712,19
4349344,21
4349972,20
4350592,17
4351224,12
4351848,13
4352480,13
4353108,12
4353728,19
4354356,11
4354980,23
4355604,24
4356232,34
4356856,32
4357484,16
4358108,15
4358732,29
4359360,15
4359984,13
4360612,15
4361244,17
4361864,27
4362492,34
4363116,27
4363748,14
4364376,10
4364996,19
4365624,15
4366248,12
4366872,11
4367500,12
4368120,12
4368748,14
4369372,20
4369996,14
4370628,30
4371248,37
4371876,11
4372508,18
4373128,19
4373756,11
4374384,21
4375012,36
4375644,30
4376264,16
4376892,21
4377520,38
4378144,46
4378772,29
4379392,12
4380024,21
4380648,45
4381272,43
4381900,16
4382520,11
4383152,11
4383780,11
4384400,12
4385028,16
4385652,27
4386280,12
4386912,21
4387532,13
4388160,13
4388784,12
4389408,15
4390036,10
4390656,27
4391288,41
4391912,45
4392536,30
4393168,12
4393784,22
4394412,40
4395044,53
4395664,38
4396296,28
4396920,28
4397548,23
4398180,15
4398800,11
4399428,11
4400056,11
4400680,15
4401308,13
4401928,11
4402556,18
4403184,14
4403808,12
4404440,18
4405064,15
4405692,13
4406324,22
4406944,14
4407572,12
4408200,12
4408828,12
4409456,12
4410080,12
4410708,19
4411336,16
4411960,15
4412588,17
4413208,16
4413836,11
4414464,13
4415088,11
4415720,11
4416344,21
4416972,37
4417604,38
4418224,22
4418852,12
4419476,12
4420104,12
4420732,10
4421352,13
4421984,20
4422608,16
4423232,13
4423864,11
4424480,11
4425108,13
4425740,12
4426360,13
4426988,12
4427612,11
4428244,18
4428872,19
4429496,14
4430124,10
4430748,18
4431372,39
4432000,27
4432624,14
4433252,17
4433876,36
4434504,76
4435132,66
4435752,41
4436380,23
4437012,11
4437632,36
4438264,50
4438888,42
4439516,31
4440148,16
4440768,31
4441400,24
4442024,17
4442648,18
4443276,18
4443896,12
4444528,17
4445152,25
4445776,35
4446404,22
4447024,19
4447656,11
4448284,10
4448904,12
4449532,12
4450160,11
4450788,12
4451420,12
4452040,19
4452668,14
4453296,13
4453920,13
4454548,27
4455168,20
4455796,12
4456424,17
4457048,34
4457676,42
4458296,37
4458924,12
4459556,40
4460176,72
4460808,77
4461428,33
4462060,12
4462692,27
4463312,37
4463944,20
4464568,13
4465192,27
4465824,48
4466440,11
4467068,37
4467696,35
4468320,20
4468948,32
4469572,38
4470204,24
4470836,13
4471456,15
4472088,15
4472712,11
4473344,29
4473972,30
4474592,20
4475224,24
4475848,22
4476472,12
4477104,23
4477724,22
4478352,12
4478984,11
4479608,10
4480240,10
4480864,13
4481492,11
4482120,10
4482744,11
4483372,10
4483996,10
4484620,12
4485252,11
4485872,15
4486500,13
4487124,11
4487748,13
4488376,13
4489000,15
4489628,11
4490260,24
4490880,28
4491508,27
4492132,16
4492764,12
4493396,20
4494016,36
4494648,33
4495272,29
4495896,15
4496524,10
4497144,11
4497772,11
4498400,17
4499024,29
4499652,27
4500272,27
4500904,20
4501532,14
4502152,16
4502784,17
4503408,18
4504040,26
4504668,28
4505288,35
4505920,37
4506540,25
4507164,13
4507796,28
4508416,25
4509044,13
4509668,31
4510292,24
4510924,12
4511544,20
4512172,18
4512804,14
4513424,15
4514052,10
4514676,16
4515308,24
4515936,23
4516556,18
4517184,14
4517808,13
4518432,15
4519060,38
4519680,17
4520308,16
4520932,11
4521556,11
4522188,22
4522808,25
4523436,18
4524068,11
4524688,21
4525320,35
4525944,27
4526572,25
4527204,20
4527824,16
4528456,15
4529080,11
4529704,20
4530332,11
4530952,17
4531584,15
4532208,23
4532832,22
4533460,23
4534084,22
4534716,24
4535344,54
4535968,36
4536600,26
4537224,19
4537852,11
4538484,10
4539104,11
4539736,13
4540360,17
4540984,13
4541612,12
4542232,13
4542864,27
4543492,30
4544112,23
4544744,13
4545368,33
4545996,46
4546628,30
4547248,20
4547876,13
4548500,22
4549128,28
4549756,20
4550376,19
4551008,15
4551632,18
4552256,31
4552888,26
4553504,12
4554136,11
4554764,13
4555384,16
4556016,13
4556640,18
4557272,21
4557900,51
4558520,28
4559148,12
4559776,14
4560400,17
4561028,11
4561648,12
4562276,11
4562900,11
4563528,11
4564156,11
4564776,11
4565408,13
4566036,12
4566656,18
4567288,15
4567908,24
4568540,33
4569172,21
4569792,29
4570420,35
4571044,45
4571668,34
4572300,16
4572920,35
4573552,35
4574176,48
4574800,43
4575432,26
4576048,39
4576680,38
4577312,21
4577928,39
4578556,25
4579184,22
4579816,47
4580444,22
4581064,27
4581696,18
4582320,12
4582944,18
4583576,25
4584196,30
4584824,26
4585452,18
4586076,14
4586708,12
4587332,33
4587964,53
4588596,44
4589216,24
4589844,12
4590468,15
4591100,12
4591728,10
4592352,11
4592980,13
4593604,18
4594228,18
4594860,13
4595480,11
4596108,11
4596732,10
4597360,19
4597992,28
4598616,24
4599244,16
4599876,18
4600496,35
4601124,43
4601748,13
4602376,13
4603004,18
4603624,32
4604256,38
4604880,35
4605504,27
4606132,14
4606752,29
4607384,44
4608016,36
4608628,47
4609260,31
4609880,13
4610512,12
4611140,12
4611760,13
4612388,19
4613012,18
4613640,11
4614268,24
4614888,26
4615516,21
4616140,19
4616764,14
4617396,24
4618016,13
4618644,11
4619276,16
4619896,12
4620524,23
4621148,21
4621780,35
4622408,20
4623032,15
4623660,36
4624288,66
4624908,74
4625540,58
4626160,25
4626788,15
4627412,71
4628040,96
4628668,64
4629288,33
4629916,11
4630548,15
4631168,11
4631796,19
4632424,15
4633052,11
4633684,10
4634304,12
4634932,12
4635556,12
4636180,11
4636812,19
4637432,25
4638064,21
4638688,21
4639312,12
4639944,35
4640560,58
4641192,54
4641820,15
4642440,17
4643068,17
4643692,14
4644324,13
4644952,12
4645572,10
4646200,9
4646772,20
4647404,21
4648036,10
4648656,12
4649284,11
4649908,11
4650532,22
4651164,15
4651784,14
4652412,12
4653040,13
4653664,11
4654292,22
4654916,33
4655548,52
4656180,58
4656800,47
4657428,18
4658052,19
4658684,24
4659316,76
4659936,61
4660564,50
4661188,70
4661812,85
4662444,66
4663064,15
4663692,28
4664316,42
4664944,52
4665576,47
4666200,26
4666828,11
4667460,25
4668080,36
4668712,37
4669336,21
4669960,14
4670588,26
4671208,30
4671836,30
4672464,19
4673088,13
4673716,20
4674336,40
4674964,40
4675596,20
4676216,14
4676844,12
4677468,11
4678100,11
4678732,11
4679352,16
4679984,11
4680608,11
4681232,11
4681860,11
4682480,11
4683108,10
4683736,11
4684360,13
4684988,11
4685608,26
4686236,43
4686868,38
4687488,24
4688116,13
4688740,17
4689372,11
4690004,10
4690624,38
4691252,57
4691876,50
4692500,41
4693132,27
4693752,16
4694384,29
4695008,32
4695632,24
4696264,10
4696880,21
4697512,35
4698144,24
4698760,11
4699392,12
4700016,15
4700648,15
4701276,11
4701896,12
4702528,28
4703152,31
4703776,11
4704408,13
4705028,13
4705660,16
4706284,35
4706908,38
4707540,35
4708164,16
4708796,11
4709428,22
4710048,14
4710680,12
4711304,16
4711936,25
4712568,32
4713184,28
4713816,18
4714440,11
4715064,11
4715692,13
4716312,25
4716944,11
4717568,12
4718192,15
4718824,35
4719448,48
4720076,35
4720708,42
4721328,35
4721956,19
4722580,11
4723208,11
4723836,10
4724456,11
4725088,11
4725712,13
4726336,16
4726968,17
4727584,14
4728216,11
4728848,11
4729464,10
4730096,11
4730720,16
4731352,21
4731984,30
4732600,34
4733232,17
4733856,17
4734480,45
4735112,35
4735732,17
4736364,17
4736988,23
4737608,22
4738240,11
4738856,10
4739488,14
4740120,12
4740736,14
4741368,13
4741992,12
4742624,17
4743252,20
4743872,13
4744504,12
4745128,11
4745752,11
4746384,13
4747000,22
4747632,23
4748256,28
4748880,42
4749508,40
4750128,28
4750760,16
4751388,13
4752008,51
4752636,95
4753260,81
4753892,33
4754524,18
4755144,29
4755776,29
4756400,24
4757024,18
4757656,12
4758272,12
4758904,12
4759528,14
4760152,17
4760784,27
4761400,20
4762032,11
4762664,21
4763280,11
4763912,20
4764536,32
4765168,25
4765796,12
4766416,22
4767044,12
4767672,22
4768296,32
4768924,15
4769544,15
4770176,15
4770800,13
4771424,20
4772056,14
4772680,11
4773308,12
4773940,15
4774560,12
4775188,11
4775816,12
4776444,13
4777076,29
4777696,25
4778324,29
4778952,39
4779576,40
4780208,15
4780824,37
4781452,61
4782084,47
4782704,29
4783336,11
4783960,35
4784592,57
4785224,44
4785844,21
4786472,11
4787100,10
4787724,16
4788356,23
4788976,37
4789608,36
4790232,12
4790856,25
4791488,20
4792112,15
4792744,18
4793376,20
4793996,28
4794628,20
4795252,19
4795884,29
4796516,32
4797136,38
4797768,36
4798396,11
4799020,23
4799652,24
4800276,46
4800904,52
4801528,34
4802152,25
4802780,17
4803404,12
4804036,10
4804664,10
4805280,11
4805912,11
4806536,13
4807164,12
4807796,14
4808416,17
4809044,18
4809668,18
4810292,12
4810924,14
4811544,36
4812176,32
4812804,15
4813424,13
4814052,16
4814676,23
4815308,14
4815936,11
4816556,13
4817184,18
4817808,21
4818440,12
4819068,15
4819688,13
4820316,11
4820940,11
4821564,11
4822196,13
4822816,14
4823448,37
4824076,16
4824696,13
4825324,12
4825952,13
4826580,27
4827212,37
4827832,23
4828464,15
4829088,13
4829712,38
4830344,26
4830960,11
4831592,11
4832216,10
4832840,12
4833472,12
4834088,16
4834720,14
4835348,29
4835968,39
4836596,19
4837220,15
4837852,25
4838484,28
4839104,39
4839732,29
4840356,17
4840980,11
4841612,11
4842232,28
4842860,40
4843488,48
4844112,22
4844744,11
4845360,10
4845992,13
4846624,11
4847240,11
4847872,13
4848496,13
4849124,18
4849756,20
4850376,22
4851008,22
4851632,17
4852256,21
4852888,61
4853504,38
4854136,15
4854760,25
4855384,16
4856016,15
4856632,27
4857264,43
4857892,26
4858512,13
4859144,36
4859768,79
4860400,66
4861028,17
4861648,17
4862280,11
4862904,13
4863528,10
4864160,23
4864776,29
4865404,27
4866028,23
4866652,11
4867284,14
4867908,11
4868536,26
4869168,47
4869784,51
4870416,21
4871040,17
4871668,33
4872300,45
4872920,46
4873552,13
4874176,23
4874800,13
4875428,11
4876048,16
4876676,39
4877304,65
4877928,56
4878556,34
4879184,11
4879816,22
4880444,24
4881064,22
4881692,30
4882320,24
4882948,24
4883580,18
4884200,19
4884828,15
4885452,12
4886076,40
4886708,51
4887328,39
4887960,19
4888588,10
4889208,13
4889840,11
4890464,13
4891092,12
4891724,10
4892344,13
4892976,12
4893600,13
4894224,22
4894856,15
4895472,16
4896104,10
4896728,10
4897352,13
4897980,10
4898600,11
4899228,18
4899860,30
4900480,40
4901108,29
4901736,13
4902368,13
4903000,31
4903620,68
4904248,91
4904876,37
4905500,29
4906132,94
4906752,95
4907384,86
4908008,45
4908632,36
4909264,30
4909884,31
4910516,37
4911148,12
4911768,18
4912404,22
4913028,18
4913660,14
4914292,10
4914912,15
4915548,17
4916168,11
4916792,11
4917420,10
4918040,17
4918668,29
4919292,23
4919920,15
4920548,15
4921172,12
4921804,22
4922432,13
4923048,17
4923680,25
4924304,12
4924932,15
4925564,20
4926184,24
4926812,24
4927436,12
4928060,33
4928692,40
4929312,12
4929940,44
4930568,36
4931192,35
4931820,29
4932444,57
4933076,87
4933704,34
4934328,11
4934960,35
4935584,75
4936208,105
4936888,71
4937504,16
4938132,11
4938764,16
4939384,27
4940012,11
4940636,15
4941268,51
4941900,43
4942520,29
4943148,52
4943776,49
4944400,43
4945028,36
4945648,12
4946276,15
4946900,13
4947524,20
4948156,26
4948776,15
4949408,83
4950036,38
4950656,70
4951288,85
4951912,26
4952544,161
4953224,131
4953892,40
4954520,53
4955148,101
4955820,16
4956448,56
4957072,20
4957700,42
4958332,38
4958952,18
4959584,49
4960208,119
4960884,106
4961560,60
4962184,17
4962812,38
4963444,155
4964116,118
4964792,16
4965424,56
4966040,65
4966672,53
4967296,21
4967924,31
4968556,46
4969176,64
4969804,61
4970428,36
4971052,13
4971684,22
4972304,35
4972936,43
4973556,109
4974236,154
4974916,58
4975536,17
4976160,27
4976788,55
4977408,205
4978088,157
4978768,73
4979392,20
4980020,17
4980644,11
4981268,11
4981900,10
4982520,25
4983148,70
4983776,124
4984452,98
4985080,44
4985704,47
4986332,92
4986964,119
4987636,130
4988316,38
4988944,15
4989560,15
4990192,11
4990816,11
4991448,11
4992080,27
4992696,113
4993376,146
4994044,109
4994724,52
4995348,39
4995976,109
4996656,183
4997332,75
4997952,28
4998580,11
4999212,12
4999832,11
5000464,11
5001084,14
5001716,15
5002348,20
5002968,36
5003596,74
5004224,103
5004900,112
5005576,87
5006200,19
5006828,88
5007460,146
5008132,98
5008756,66
5009380,89
5010008,43
5010636,50
5011256,51
5011888,21
5012516,10
5013136,11
5013768,12
5014392,25
5015024,12
5015656,14
5016272,12
5016904,13
5017532,20
5018156,21
5018788,18
5019408,43
5020036,54
5020664,80
5021288,57
5021916,25
5022540,67
5023172,73
5023804,47
5024424,30
5025052,72
5025680,71
5026308,17
5026940,37
5027560,63
5028192,49
5028816,35
5029440,128
5030120,15
5030736,14
5031364,17
5031996,32
5032616,97
5033248,123
5033924,117
5034596,37
5035224,63
5035848,88
5036480,82
5037108,130
5037780,100
5038460,55
5039080,33
5039704,16
5040336,15
5040952,20
5041584,15
5042212,16
5042832,12
5043464,28
5044088,83
5044716,47
5045348,11
5045968,15
5046600,23
5047224,15
5047848,14
5048480,30
5049096,89
5049728,65
5050352,95
5050976,29
5051608,92
5052232,56
5052864,53
5053492,119
5054164,116
5054844,72
5055464,34
5056092,56
5056720,138
5057392,54
5058016,40
5058644,17
5059264,70
5059896,38
5060520,47
5061144,41
5061776,61
5062392,74
5063028,55
5063652,132
5064328,82
5064960,41
5065584,26
5066216,89
5066848,188
5067520,123
5068196,22
5068824,12
5069440,11
5070068,11
5070696,13
5071328,19
5071960,18
5072580,14
5073212,42
5073836,14
5074460,18
5075092,14
5075712,26
5076344,12
5076972,13
5077596,20
5078228,29
5078856,28
5079488,13
5080116,12
5080736,22
5081368,39
5081992,49
5082624,76
5083252,66
5083872,41
5084504,114
5085180,51
5085808,51
5086440,25
5087064,38
5087696,43
5088328,38
5088944,20
5089576,36
5090200,31
5090824,12
5091456,29
5092072,69
5092704,101
5093388,76
5094008,17
5094640,13
5095264,13
5095896,14
5096528,17
5097144,17
5097776,12
5098400,11
5099024,12
5099656,11
5100276,17
5100904,11
5101532,16
5102156,19
5102788,14
5103408,11
5104040,20
5104672,12
5105288,16
5105920,17
5106544,13
5107176,22
5107808,24
5108428,29
5109060,30
5109684,11
5110312,32
5110944,44
5111564,63
5112196,67
5112824,36
5113448,14
5114080,15
5114704,29
5115340,29
5115972,24
5116596,20
5117228,11
5117856,19
5118480,20
5119112,14
5119732,22
5120368,33
5120988,35
5121612,13
5122240,10
5122856,11
5123484,12
5124112,22
5124736,29
5125364,50
5125988,42
5126616,17
5127244,31
5127864,14
5128492,46
5129116,62
5129740,16
5130368,71
5130984,49
5131612,54
5132236,45
5132860,19
5133488,55
5134108,110
5134788,70
5135412,28
5136032,11
5136660,19
5137284,19
5137912,15
5138540,10
5139160,16
5139792,21
5140416,24
5141040,25
5141668,50
5142288,68
5142916,48
5143540,19
5144164,37
5144796,77
5145420,73
5146052,43
5146680,10
5147296,15
5147924,11
5148548,34
5149180,49
5149808,37
5150432,47
5151060,15
5151684,76
5152312,98
5152940,18
5153560,45
5154188,46
5154812,29
5155440,11
5156068,31
5156692,44
5157324,80
5157956,69
5158576,46
5159204,25
5159828,84
5160456,75
5161084,42
5161704,20
5162332,31
5162956,11
5163580,10
5164208,16
5164832,66
5165460,40
5166092,12
5166712,20
5167340,16
5167964,45
5168596,72
5169228,59
5169848,16
5170476,47
5171104,101
5171780,50
5172404,110
5173076,82
5173700,36
5174332,46
5174952,140
5175636,140
5176308,23
5176928,30
5177556,34
5178184,29
5178812,13
5179444,42
5180064,51
5180696,27
5181320,44
5181948,41
5182580,24
5183200,14
5183828,57
5184456,63
5185080,15
5185708,16
5186328,20
5186956,46
5187580,36
5188208,37
5188836,24
5189460,32
5190092,40
5190724,56
5191344,38
5191976,13
5192600,37
5193224,54
5193856,24
5194472,13
5195100,24
5195728,15
5196352,17
5196984,12
5197600,22
5198228,29
5198860,11
5199480,18
5200112,17
5200732,43
5201364,56
5201996,30
5202616,12
5203244,15
5203868,11
5204492,14
5205120,12
5205740,14
5206368,11
5206992,21
5207620,37
5208248,31
5208872,13
5209500,17
5210132,42
5210752,48
5211384,60
5212008,42
5212636,50
5213268,14
5213888,29
5214520,29
5215144,19
5215768,14
5216400,22
5217016,34
5217648,28
5218268,13
5218892,12
5219524,22
5220144,40
5220776,26
5221404,14
5222024,32
5222656,48
5223280,15
5223908,39
5224540,74
5225160,79
5225788,45
5226412,29
5227036,14
5227668,48
5228288,70
5228916,66
5229540,48
5230164,31
5230796,19
5231416,11
5232048,11
5232676,14
5233296,29
5233924,21
5234548,13
5235180,12
5235812,12
5236432,17
5237064,15
5237688,15
5238312,21
5238944,18
5239560,15
5240192,12
5240816,11
5241444,11
5242072,12
5242700,11
5243328,19
5243960,24
5244576,29
5245204,26
5245828,12
5246456,36
5247088,47
5247704,41
5248332,16
5248956,10
5249580,13
5250208,10
5250824,17
5251452,13
5252076,14
5252700,12
5253328,15
5253944,12
5254572,11
5255200,13
5255824,13
5256452,15
5257076,12
5257704,11
5258332,10
5258952,12
5259580,11
5260204,11
5260828,20
5261456,24
5262072,12
5262704,16
5263328,22
5263952,25
5264580,16
5265200,15
5265828,33
5266456,11
5267080,14
5267708,30
5268332,53
5268964,84
5269592,94
5270212,71
5270840,42
5271464,47
5272088,153
5272768,185
5273444,29
5274072,35
5274700,12
5275320,12
5275948,12
5276572,11
5277196,24
5277828,18
5278448,21
5279076,15
5279700,11
5280328,30
5280956,53
5281576,49
5282204,13
5282832,74
5283456,118
5284136,62
5284760,41
5285380,22
5286012,12
5286632,25
5287260,23
5287884,15
5288504,11
5289136,12
5289752,13
5290380,11
5291004,12
5291632,26
5292260,39
5292884,68
5293512,97
5294144,66
5294760,15
5295388,57
5296012,98
5296640,110
5297324,27
5297944,14
5298572,22
5299196,24
5299824,32
5300452,17
5301076,17
5301708,12
5302336,18
5302960,28
5303588,23
5304216,55
5304840,49
5305468,42
5306088,46
5306716,50
5307340,21
5307964,45
5308596,18
5309216,12
5309844,12
5310476,14
5311096,16
5311728,18
5312352,39
5312980,64
5313612,62
5314232,52
5314864,33
5315488,21
5316112,90
5316740,72
5317360,17
5317988,11
5318616,15
5319236,13
5319868,66
5320488,67
5321116,12
5321748,21
5322368,15
5322996,30
5323624,52
5324252,31
5324884,11
5325500,16
5326132,16
5326752,14
5327376,17
5328004,20
5328620,12
5329252,14
5329876,11
5330496,10
5331128,10
5331744,14
5332372,13
5333004,16
5333624,18
5334252,13
5334876,13
5335508,12
5336136,27
5336756,23
5337384,15
5338008,13
5338632,29
5339260,27
5339880,16
5340508,11
5341132,25
5341756,13
5342388,42
5343008,38
5343636,21
5344268,11
5344888,11
5345516,11
5346140,10
5346768,12
5347400,17
5348016,13
5348648,11
5349272,13
5349896,16
5350524,55
5351144,77
5351772,48
5352396,23
5353020,13
5353652,25
5354272,75
5354900,71
5355532,56
5356152,32
5356780,12
5357408,31
5358036,24
5358668,12
5359288,13
5359920,23
5360544,27
5361168,16
5361796,12
5362416,13
5363044,12
5363668,13
5364292,11
5364924,10
5365544,11
5366176,11
5366804,11
5367424,15
5368052,20
5368676,14
5369308,19
5369936,24
5370556,15
5371184,38
5371808,49
5372436,61
5373064,52
5373688,32
5374316,38
5374944,85
5375568,87
5376200,84
5376816,58
5377444,27
5378072,13
5378688,17
5379320,21
5379940,28
5380572,27
5381200,20
5381824,12
5382452,10
5383076,14
5383700,23
5384328,13
5384944,23
5385576,22
5386200,14
5386824,29
5387452,16
5388072,12
5388700,11
5389332,12
5389952,23
5390580,20
5391204,11
5391836,27
5392468,31
5393088,24
5393716,20
5394344,13
5394968,15
5395596,10
5396216,13
5396844,18
5397468,37
5398092,34
5398724,12
5399344,34
5399976,33
5400604,16
5401224,13
5401856,15
5402476,15
5403108,21
5403740,21
5404360,11
5404988,11
5405612,15
5406236,28
5406868,16
5407488,13
5408116,15
5408740,12
5409364,17
5409992,27
5410608,12
5411240,13
5411868,14
5412488,17
5413116,15
5413740,12
5414372,11
5415004,10
5415624,12
5416252,11
5416876,11
5417500,11
5418132,11
5418752,15
5419384,19
5420008,18
5420632,19
5421260,19
5421880,13
5422508,23
5423140,22
5423760,26
5424392,11
5425016,20
5425644,22
5426276,36
5426896,50
5427528,37
5428148,36
5428772,26
5429404,10
5430024,66
5430652,101
5431336,80
5431952,54
5432584,23
5433208,27
5433836,19
5434468,11
5435088,12
5435716,12
5436344,12
5436968,19
5437596,30
5438216,15
5438848,20
5439472,31
5440096,27
5440724,19
5441348,11
5441976,15
5442604,14
5443224,14
5443852,14
5444476,16
5445104,11
5445732,21
5446352,20
5446984,12
5447604,11
5448228,12
5448860,12
5449480,17
5450108,11
5450732,16
5451356,12
5451988,13
5452612,26
5453240,15
5453872,11
5454488,17
5455116,29
5455740,15
5456372,18
5457000,16
5457616,11
5458248,15
5458872,32
5459496,21
5460124,11
5460744,13
5461372,13
5461996,23
5462624,23
5463252,17
5463876,11
5464508,10
5465136,10
5465756,10
5466384,17
5467008,24
5467636,14
5468268,14
5468888,16
5469516,13
5470140,46
5470764,34
5471396,12
5472016,24
5472644,15
5473268,12
5473892,16
5474524,12
5475148,34
5475780,25
5476412,12
5477032,12
5477664,13
5478288,11
5478920,21
5479548,30
5480168,24
5480796,15
5481420,19
5482044,27
5482676,11
5483296,13
5483924,15
5484556,12
5485176,19
5485804,21
5486432,32
5487060,31
5487692,17
5488312,11
5488944,11
5489568,13
5490192,18
5490820,12
5491440,17
5492068,19
5492692,13
5493316,12
5493948,12
5494568,16
5495196,11
5495828,18
5496448,27
5497076,34
5497704,27
5498332,17
5498964,14
5499584,37
5500216,47
5500840,29
5501464,11
5502092,12
5502712,12
5503344,13
5503968,12
5504592,22
5505224,19
5505840,12
5506472,11
5507100,19
5507720,31
5508352,31
5508976,21
5509604,12
5510236,12
5510856,25
5511484,30
5512112,19
5512736,22
5513364,26
5513984,14
5514616,11
5515240,11
5515864,15
5516492,10
5517112,16
5517744,24
5518372,23
5518992,12
5519624,13
5520248,11
5520876,16
5521508,10
5522128,11
5522756,14
5523384,27
5524008,42
5524636,22
5525256,33
5525888,19
5526512,12
5527136,23
5527768,60
5528392,103
5529076,66
5529704,18
5530320,15
5530948,16
5531572,30
5532196,45
5532828,38
5533448,29
5534076,21
5534700,19
5535328,56
5535956,50
5536584,15
5537212,19
5537844,24
5538464,13
5539092,19
5539720,11
5540348,11
5540980,12
5541600,12
5542228,17
5542856,50
5543480,66
5544108,16
5544728,34
5545360,29
5545984,10
5546608,11
5547240,10
5547864,17
5548492,16
5549124,14
5549744,10
5550376,12
5551000,13
5551624,13
5552256,18
5552872,22
5553504,13
5554128,11
5554752,14
5555384,29
5556000,36
5556628,23
5557260,10
5557880,17
5558512,29
5559136,33
5559768,21
5560400,15
5561016,23
5561648,22
5562268,14
5562896,28
5563524,40
5564144,31
5564776,28
5565400,14
5566024,48
5566656,80
5567276,49
5567904,16
5568540,11
5569160,23
5569792,18
5570416,29
5571048,32
5571676,11
5572296,31
5572924,39
5573552,25
5574176,19
5574804,15
5575424,11
5576056,17
5576680,17
5577304,11
5577932,20
5578552,20
5579184,11
5579812,21
5580432,37
5581064,20
5581688,17
5582316,11
5582948,18
5583568,18
5584196,14
5584824,13
5585444,27
5586076,28
5586696,54
5587328,45
5587952,24
5588576,17
5589204,12
5589828,13
5590460,14
5591092,14
5591712,13
5592344,12
5592968,12
5593596,11
5594228,12
5594848,15
5595480,18
5596104,16
5596728,14
5597360,10
5597976,10
5598608,12
5599240,10
5599856,15
5600492,29
5601112,34
5601744,33
5602372,20
5602992,12
5603620,31
5604248,51
5604872,38
5605500,25
5606120,22
5606752,14
5607376,11
5608000,13
5608628,12
5609248,14
5609876,16
5610508,10
5611128,13
5611760,10
5612384,11
5613012,10
5613644,18
5614264,22
5614892,15
5615520,12
5616144,13
5616772,14
5617392,15
5618024,16
5618648,37
5619272,29
5619900,11
5620520,45
5621148,75
5621780,66
5622400,17
5623028,17
5623652,14
5624284,11
5624916,10
5625536,14
5626168,18
5626792,22
5627416,23
5628048,11
5628664,15
5629296,14
5629920,13
5630544,16
5631176,14
5631796,13
5632428,12
5633056,11
5633672,19
5634304,32
5634928,21
5635556,15
5636188,16
5636808,13
5637436,24
5638060,24
5638684,11
5639312,11
5639936,13
5640564,27
5641188,25
5641812,18
5642444,11
5643064,17
5643692,12
5644324,14
5644944,21
5645572,28
5646196,49
5646828,54
5647456,46
5648080,25
5648708,23
5649332,50
5649956,84
5650588,62
5651208,43
5651836,33
5652464,23
5653088,13
5653716,20
5654340,17
5654972,15
5655604,24
5656224,18
5656852,19
5657476,18
5658108,11
5658740,14
5659360,28
5659988,21
5660616,13
5661240,17
5661868,13
5662488,14
5663116,19
5663744,16
5664368,21
5664996,19
5665620,12
5666252,11
5666880,15
5667496,13
5668128,16
5668752,18
5669384,13
5670012,10
5670632,12
5671260,13
5671888,11
5672512,11
5673144,11
5673760,11
5674388,13
5675020,16
5675640,27
5676268,41
5676896,35
5677524,13
5678156,23
5678776,30
5679408,26
5680032,23
5680656,38
5681284,42
5681904,24
5682536,15
5683160,12
5683784,13
5684412,16
5685032,13
5685660,11
5686292,10
5686912,12
5687540,11
5688168,11
5688796,12
5689428,12
5690048,12
5690676,16
5691304,16
5691928,16
5692560,20
5693176,19
5693808,15
5694432,12
5695056,9
5695636,10
5696260,10
5696888,12
5697512,11
5698136,16
5698768,18
5699384,11
5700016,18
5700644,19
5701264,33
5701896,33
5702520,19
5703148,14
5703780,26
5704400,29
5705028,21
5705652,17
5706276,29
5706908,18
5707528,15
5708160,42
5708784,52
5709408,37
5710040,20
5710664,13
5711292,13
5711924,11
5712544,10
5713176,11
5713800,11
5714432,11
5715060,10
5715680,10
5716312,14
5716936,13
5717560,12
5718192,13
5718812,15
5719444,19
5720072,12
5720696,21
5721328,33
5721952,17
5722584,11
5723212,14
5723832,14
5724464,17
5725088,16
5725712,12
5726344,17
5726964,26
5727596,22
5728220,11
5728844,11
5729476,12
5730096,24
5730728,15
5731356,26
5731976,23
5732608,12
5733236,31
5733868,46
5734500,50
5735120,35
5735748,24
5736372,11
5736996,11
5737624,10
5738248,13
5738876,11
5739500,23
5740124,38
5740756,33
5741380,17
5742012,12
5742640,11
5743264,29
5743896,38
5744520,16
5745148,11
5745780,10
5746400,12
5747028,10
5747656,18
5748280,16
5748908,10
5749528,11
5750160,14
5750788,10
5751408,13
5752040,11
5752664,12
5753292,11
5753924,11
5754544,11
5755176,17
5755800,13
5756424,11
5757056,11
5757672,11
5758304,23
5758928,21
5759552,12
5760184,11
5760800,12
5761428,22
5762056,31
5762672,23
5763304,23
5763928,32
5764556,25
5765184,10
5765808,23
5766436,22
5767060,19
5767684,11
5768316,18
5768936,31
5769564,27
5770188,20
5770816,23
5771444,14
5772064,11
5772692,25
5773324,28
5773944,20
5774572,16
5775200,12
5775828,25
5776460,21
5777080,13
5777708,35
5778332,13
5778956,19
5779588,12
5780208,12
5780836,10
5781460,14
5782084,11
5782712,19
5783336,34
5783968,19
5784596,12
5785216,19
5785848,14
5786468,29
5787100,20
5787728,33
5788348,56
5788976,45
5789600,28
5790224,16
5790852,37
5791472,84
5792104,97
5792724,56
5793348,19
5793980,14
5794600,20
5795228,15
5795860,12
5796480,13
5797108,11
5797732,15
5798364,21
5798996,16
5799616,11
5800244,11
5800868,16
5801492,21
5802124,27
5802744,22
5803376,12
5804000,11
5804624,32
5805252,31
5805872,17
5806504,12
5807132,10
5807752,12
5808384,13
5809008,15
5809636,11
5810268,14
5810888,12
5811520,15
5812140,13
5812768,13
5813396,14
5814016,20
5814648,12
5815272,14
5815896,17
5816528,12
5817144,12
5817772,11
5818404,11
5819024,13
5819652,10
5820280,12
5820908,15
5821540,15
5822160,20
5822792,29
5823416,35
5824040,33
5824668,22
5825288,24
5825916,49
5826544,59
5827168,33
5827800,13
5828424,13
5829052,12
5829684,19
5830304,26
5830936,11
5831560,21
5832192,24
5832820,11
5833440,11
5834072,13
5834696,27
5835320,43
5835952,31
5836572,21
5837204,12
5837832,15
5838452,18
5839080,20
5839704,21
5840332,11
5840964,12
5841584,13
5842212,18
5842836,13
5843464,15
5844092,20
5844712,13
5845340,13
5845968,18
5846592,25
5847220,33
5847840,13
5848468,61
5849100,74
5849720,33
5850348,12
5850972,12
5851604,20
5852236,18
5852856,13
5853484,12
5854112,12
5854736,13
5855364,10
5855984,15
5856616,26
5857240,15
5857864,15
5858492,30
5859112,38
5859744,19
5860372,11
5860992,14
5861624,11
5862248,10
5862876,11
5863508,11
5864128,14
5864756,20
5865384,17
5866008,12
5866636,10
5867256,12
5867888,21
5868512,15
5869136,17
5869768,37
5870384,33
5871016,15
5871648,17
5872264,22
5872896,15
5873520,13
5874152,12
5874784,12
5875400,12
5876032,13
5876656,13
5877280,15
5877912,12
5878532,10
5879160,12
5879788,22
5880412,20
5881044,10
5881668,18
5882300,28
5882928,20
5883552,13
5884184,13
5884808,14
5885436,17
5886072,20
5886688,19
5887320,21
5887948,11
5888576,14
5889204,28
5889824,17
5890452,13
5891084,12
5891704,25
5892336,40
5892960,25
5893588,12
5894220,24
5894840,40
5895472,32
5896096,16
5896720,15
5897352,37
5897968,49
5898600,22
5899224,12
5899848,13
5900476,11
5901096,13
5901724,16
5902356,16
5902976,11
5903608,12
5904232,10
5904860,11
5905488,10
5906112,11
5906740,14
5907368,21
5907992,19
5908620,16
5909240,15
5909868,12
5910496,17
5911120,19
5911748,23
5912368,10
5912996,11
5913628,33
5914248,29
5914876,23
5915504,57
5916132,45
5916764,30
5917384,22
5918016,15
5918640,11
5919264,13
5919896,12
5920512,19
5921144,16
5921768,18
5922392,17
5923020,19
5923640,36
5924268,27
5924900,12
5925520,28
5926148,26
5926776,24
5927404,17
5928036,14
5928656,20
5929284,10
5929908,31
5930536,32
5931164,16
5931784,15
5932416,34
5933040,30
5933664,32
5934296,22
5934920,12
5935548,12
5936180,14
5936800,19
5937428,13
5938056,15
5938684,31
5939316,34
5939936,22
5940564,11
5941188,31
5941812,38
5942440,32
5943064,16
5943692,12
5944316,12
5944944,11
5945572,15
5946200,21
5946828,12
5947460,14
5948080,18
5948708,16
5949336,11
5949960,12
5950592,17
5951208,15
5951840,12
5952464,13
5953088,11
5953716,25
5954336,33
5954968,26
5955596,22
5956216,13
5956844,19
5957472,42
5958100,25
5958732,14
5959352,32
5959984,29
5960608,14
5961232,18
5961864,29
5962480,36
5963108,17
5963736,16
5964360,21
5964992,19
5965608,15
5966236,25
5966868,42
5967488,44
5968116,27
5968740,12
5969372,25
5970004,48
5970624,37
5971256,46
5971880,35
5972504,21
5973132,10
5973752,12
5974384,14
5975008,12
5975636,12
5976268,12
5976888,15
5977520,18
5978152,18
5978768,11
5979400,14
5980028,15
5980656,12
5981288,11
5981908,11
5982536,12
5983164,11
5983788,12
5984420,10
5985040,12
5985668,12
5986292,11
5986920,11
5987548,11
5988172,13
5988804,13
5989436,12
5990056,12
5990688,15
5991312,24
5991944,29
5992576,20
5993192,13
5993824,29
5994448,29
5995072,14
5995704,13
5996320,30
5996952,20
5997584,14
5998204,17
5998832,17
5999460,13
6000092,11
6000720,17
6001340,15
6001968,11
6002592,19
6003216,13
6003844,11
6004464,20
6005096,23
6005720,17
6006344,13
6006976,10
6007592,11
6008224,11
6008856,12
6009476,12
6010108,12
6010732,15
6011364,20
6011992,13
6012616,13
6013248,11
6013872,11
6014496,12
6015128,10
6015748,10
6016380,12
6017004,16
6017628,14
6018256,23
6018876,24
6019504,19
6020136,12
6020756,15
6021388,43
6022012,35
6022644,17
6023272,10
6023892,11
6024520,11
6025144,13
6025772,17
6026400,12
6027024,12
6027656,12
6028280,12
6028904,13
6029532,15
6030160,15
6030788,11
6031420,21
6032040,20
6032668,14
6033292,12
6033924,12
6034556,10
6035176,11
6035808,11
6036436,11
6037060,10
6037692,10
6038312,11
6038944,10
6039576,11
6040196,13
6040828,12
6041452,11
6042084,29
6042716,44
6043336,48
6043968,46
6044592,34
6045216,17
6045848,23
6046464,29
6047096,37
6047720,61
6048344,89
6048972,63
6049592,32
6050224,17
6050852,12
6051472,12
6052104,21
6052732,34
6053360,34
6053992,44
6054612,50
6055244,29
6055868,43
6056492,42
6057124,25
6057744,50
6058376,47
6059000,17
6059624,13
6060256,17
6060880,22
6061512,19
6062144,16
6062760,11
6063392,15
6064016,19
6064644,15
6065276,11
6065896,10
6066528,11
6067152,13
6067776,12
6068408,11
6069028,13
6069656,14
6070288,10
6070908,14
6071540,13
6072164,11
6072796,13
6073428,11
6074048,10
6074680,15
6075304,16
6075928,20
6076560,17
6077180,25
6077812,19
6078436,15
6079060,13
6079692,10
6080312,11
6080944,13
6081572,12
6082192,12
6082824,11
6083448,11
6084076,11
6084708,12
6085328,12
6085956,12
6086584,11
6087208,12
6087836,10
6088456,10
6089084,11
6089712,11
6090336,13
6090968,18
6091592,23
6092224,18
6092852,14
6093472,13
6094100,12
6094724,11
6095356,10
6095988,16
6096608,25
6097240,24
6097864,18
6098488,17
6099116,12
6099736,37
6100368,33
6101000,15
6101620,12
6102252,16
6102876,27
6103508,41
6104140,42
6104760,28
6105392,13
6106016,11
6106640,12
6107272,11
6107888,19
6108520,14
6109144,13
6109768,34
6110400,70
6111016,83
6111648,58
6112280,34
6112904,27
6113536,23
6114160,12
6114792,32
6115424,22
6116040,15
6116672,19
6117296,27
6117924,19
6118556,18
6119176,31
6119808,31
6120432,21
6121056,18
6121688,47
6122312,41
6122944,23
6123576,12
6124192,10
6124824,12
6125448,13
6126080,12
6126708,11
6127328,18
6127960,13
6128588,11
6129216,11
6129844,11
6130464,19
6131096,19
6131728,11
6132348,14
6132980,11
6133604,11
6134236,17
6134868,31
6135488,30
6136120,14
6136748,18
6137372,28
6138004,13
6138624,13
6139256,16
6139884,12
6140508,11
6141140,15
6141768,17
6142400,14
6143032,12
6143652,13
6144288,15
6144908,14
6145540,14
6146168,15
6146784,10
6147416,19
6148040,33
6148664,31
6149292,22
6149912,13
6150540,21
6151164,46
6151792,64
6152420,39
6153044,17
6153676,13
6154304,18
6154928,29
6155556,33
6156184,32
6156808,24
6157436,24
6158056,12
6158688,21
6159312,27
6159936,24
6160568,38
6161184,41
6161812,24
6162444,12
6163064,16
6163696,22
6164320,20
6164948,18
6165580,12
6166200,35
6166828,50
6167456,27
6168080,13
6168708,16
6169328,28
6169960,26
6170580,17
6171204,18
6171836,12
6172456,11
6173084,13
6173716,10
6174336,12
6174968,13
6175592,21
6176224,24
6176852,12
6177472,46
6178100,58
6178728,40
6179352,27
6179980,11
6180600,11
6181228,11
6181856,17
6182480,18
6183108,15
6183728,12
6184360,13
6184988,14
6185608,23
6186236,21
6186860,23
6187492,24
6188124,11
6188744,19
6189376,23
6190000,35
6190624,30
6191256,15
6191872,12
6192504,13
6193132,14
6193756,13
6194388,11
6195012,10
6195644,11
6196276,14
6196896,21
6197524,24
6198152,19
6198780,15
6199412,10
6200032,19
6200664,37
6201288,51
6201912,33
6202544,11
6203160,13
6203792,13
6204424,11
6205040,10
6205672,11
6206296,16
6206928,25
6207556,45
6208176,47
6208808,39
6209432,17
6210056,21
6210688,54
6211304,66
6211936,61
6212560,47
6213184,21
6213816,12
6214432,13
6215064,11
6215696,10
6216312,11
6216944,20
6217568,27
6218200,23
6218832,18
6219452,17
6220080,11
6220708,12
6221332,19
6221964,15
6222584,11
6223216,11
6223840,14
6224464,17
6225096,16
6225712,12
6226344,14
6226976,12
6227596,15
6228224,28
6228848,40
6229476,26
6230108,12
6230728,34
6231360,40
6231984,32
6232608,19
6233240,14
6233856,33
6234488,51
6235112,29
6235736,16
6236368,14
6236988,12
6237616,11
6238248,15
6238868,15
6239500,14
6240124,11
6240756,11
6241384,12
6242004,16
6242632,15
6243256,15
6243880,13
6244508,11
6245128,11
6245756,12
6246384,12
6247008,22
6247640,31
6248264,13
6248892,11
6249524,10
6250144,13
6250772,15
6251400,12
6252028,19
6252660,29
6253280,39
6253908,36
6254536,33
6255160,19
6255792,24
6256408,38
6257040,50
6257668,56
6258288,51
6258920,29
6259544,17
6260172,13
6260804,26
6261424,11
6262056,15
