tempo_arduino_micro_s,valor_ADC
500,11
1004,11
1504,11
2000,14
2508,15
3000,14
3508,15
4000,16
4508,16
5000,13
5500,15
6000,16
6500,16
7004,16
7500,16
8000,18
8500,13
9000,11
9500,10
10000,11
10516,14
11036,14
11564,14
12084,14
12612,15
13132,11
13660,10
14180,10
14708,9
15168,10
15708,11
16228,10
16756,10
17276,11
17804,10
18324,11
18844,16
19364,16
19884,15
20404,19
20924,19
21444,18
21964,16
22484,14
23004,12
23524,11
24044,10
24564,10
25084,10
25612,11
26132,11
26660,11
27180,15
27708,15
28228,16
28756,17
29276,16
29804,14
30324,13
30852,12
31372,10
31900,11
32420,11
32948,11
33468,12
33996,14
34516,17
35044,16
35564,19
36092,18
36612,16
37140,15
37660,15
38188,11
38708,10
39236,11
39756,11
40284,12
40804,11
41332,10
41852,10
42380,10
42900,10
43420,10
43940,13
44460,16
44980,15
45500,15
46020,15
46540,11
47060,14
47580,15
48100,16
48620,14
49140,12
49660,10
50188,11
50708,11
51236,13
51756,11
52284,15
52804,15
53332,16
53852,16
54380,15
54900,12
55428,11
55948,14
56476,14
56996,12
57524,14
58044,14
58572,10
59092,10
59620,10
60140,12
60668,14
61188,14
61716,14
62236,14
62764,14
63284,11
63812,13
64336,11
64860,10
65380,11
65908,12
66428,11
66956,10
67476,10
67996,11
68516,16
69036,16
69556,15
70076,14
70600,14
71116,15
71640,12
72160,11
72676,12
73196,13
73720,13
74236,13
74764,12
75284,10
75812,10
76336,10
76860,13
77380,14
77908,14
78428,15
78956,15
79480,15
80004,10
80524,10
81052,11
81572,10
82100,11
82620,11
83148,12
83668,13
84196,12
84716,11
85244,14
85764,14
86292,15
86812,15
87340,16
87860,19
88388,16
88908,17
89436,14
89960,14
90484,11
91004,10
91532,10
92052,10
92572,10
93092,10
93612,15
94132,15
94652,15
95172,14
95696,15
96216,12
96732,10
97252,10
97776,10
98292,10
98812,10
99340,10
99860,11
100388,10
100952,11
101536,11
102108,15
102688,15
103256,16
103832,15
104400,17
104976,13
105552,15
106120,13
106696,12
107264,12
107848,13
108416,13
108992,11
109560,9
110076,12
110656,14
111224,16
111808,15
112380,16
112960,11
113528,11
114104,12
114672,11
115248,11
115832,11
116400,13
116984,12
117552,11
118136,13
118704,19
119280,18
119864,16
120436,15
121016,15
121584,11
122168,11
122736,15
123320,14
123888,15
124464,18
125048,14
125616,11
126200,11
126768,13
127352,14
127924,14
128500,16
129080,15
129648,11
130224,11
130792,11
131368,10
131936,11
132512,12
133080,11
133656,11
134240,12
134808,13
135392,15
135960,15
136544,15
137112,17
137688,21
138272,22
138840,20
139416,19
139988,14
140568,12
141136,11
141720,10
142288,10
142864,12
143448,16
144016,16
144600,15
145168,16
145752,17
146320,13
146896,11
147480,13
148048,14
148632,11
149200,11
149784,11
150352,11
150936,11
151516,10
152092,16
152672,16
153244,18
153824,19
154392,18
154976,15
155544,15
156120,16
156704,13
157276,11
157856,11
158428,11
159008,11
159580,10
160160,13
160728,13
161296,15
161880,16
162448,16
163032,11
163604,11
164184,10
164752,10
165328,11
165904,11
166472,12
167056,11
167624,11
168200,11
168768,15
169344,15
169912,16
170488,18
171072,17
171640,15
172224,16
172792,15
173376,12
173944,11
174528,11
175096,11
175672,11
176256,10
176824,14
177408,15
177976,17
178560,15
179128,15
179708,11
180288,12
180856,12
181440,12
182008,11
182592,10
183160,11
183744,11
184312,11
184892,12
185472,18
186044,16
186624,15
187192,16
187776,15
188344,16
188920,16
189504,15
190072,14
190656,11
191228,11
191808,10
192380,11
192960,10
193528,14
194104,16
194688,15
195256,16
195840,15
196408,11
196992,9
197512,10
198088,9
198608,10
199176,11
199760,14
200328,14
200912,12
201484,11
202064,15
202636,18
203216,16
203792,17
204364,24
204944,24
205512,20
206088,17
206656,13
207232,12
207800,11
208376,11
208960,11
209528,10
210104,15
210672,15
211248,14
211816,15
212392,15
212960,11
213536,10
214120,10
214688,10
215272,10
215840,11
216424,11
216992,11
217568,11
218152,12
218720,15
219304,15
219872,15
220456,15
221024,16
221608,13
222176,15
222756,15
223336,16
223908,11
224488,10
225064,11
225648,10
226216,9
226732,13
227304,15
227880,16
228464,16
229032,15
229616,11
230184,11
230768,12
231336,11
231912,10
232496,10
233064,11
233648,11
234216,11
234800,12
235372,18
235952,16
236524,16
237100,16
237680,16
238248,14
238832,15
239404,17
239984,15
240556,14
241132,14
241712,11
242280,11
242864,11
243436,15
244016,15
244584,14
245168,15
245740,15
246316,11
246896,11
247464,10
248048,11
248616,11
249200,11
249768,17
250344,21
250928,17
251496,11
252080,16
252648,17
253232,17
253804,17
254384,17
254956,14
255532,11
256112,13
256684,17
257264,15
257832,14
258416,10
258984,11
259560,11
260144,14
260712,15
261296,15
261864,13
262440,15
263008,11
263584,11
264156,11
264728,11
265312,11
265880,15
266464,15
267032,13
267608,12
268176,11
268752,15
269336,16
269904,16
270488,16
271056,15
271640,16
272208,17
272792,16
273360,14
273936,13
274520,11
275092,11
275672,11
276244,11
276824,16
277392,15
277972,15
278552,14
279124,16
279704,13
280276,11
280856,11
281424,11
282008,11
282576,11
283152,13
283736,12
284308,11
284888,12
285456,16
286040,16
286612,15
287188,15
287768,14
288336,14
288920,18
289488,19
290072,21
290644,19
291224,15
291792,12
292372,11
292952,11
293524,15
294104,15
294676,14
295256,13
295828,15
296404,11
296984,11
297552,11
298136,11
298708,10
299288,11
299860,11
300440,12
301012,11
301588,12
302168,14
302740,15
303320,13
303892,15
304472,11
305052,13
305628,14
306208,14
306780,16
307360,15
307932,13
308512,12
309080,11
309664,12
310236,15
310812,15
311392,15
311964,15
312544,15
313124,11
313704,9
314224,11
314800,11
315372,11
315948,10
316528,12
317100,11
317680,11
318260,13
318840,13
319412,16
319988,16
320572,16
321140,15
321720,17
322288,14
322872,11
323440,10
324024,11
324592,11
325172,11
325752,11
326324,11
326904,13
327476,14
328056,15
328624,15
329192,16
329776,13
330344,11
330920,11
331488,10
332072,11
332644,11
333224,13
333792,13
334360,12
334944,15
335512,14
336096,15
336664,15
337240,15
337808,15
338384,15
338968,15
339536,18
340120,16
340688,18
341272,17
341844,15
342424,13
342992,14
343572,17
344152,16
344720,16
345304,16
345876,16
346456,11
347024,11
347604,10
348184,11
348752,12
349336,11
349908,11
350488,11
351060,11
351640,14
352212,14
352784,16
353368,15
353936,16
354520,13
355092,15
355672,16
356244,15
356816,15
357400,14
357972,11
358552,10
359124,11
359704,11
360272,15
360856,13
361424,14
362004,15
362584,15
363152,11
363736,10
364308,10
364888,9
365404,10
365984,11
366556,13
367132,14
367712,12
368284,14
368864,15
369432,16
370016,16
370584,16
371164,13
371744,12
372316,14
372896,15
373464,16
374048,13
374620,12
375200,12
375768,11
376348,13
376928,15
377500,15
378080,15
378660,15
379240,15
379808,11
380388,11
380968,10
381540,11
382120,15
382692,15
383272,18
383852,15
384432,15
385008,16
385584,16
386168,18
386736,22
387320,25
387892,23
388472,16
389044,11
389620,11
390200,11
390772,10
391352,11
391924,10
392504,11
393076,11
393656,13
394224,15
394804,15
395384,15
395956,13
396536,11
397116,10
397696,12
398268,15
398844,11
399424,10
399996,13
400576,13
401148,12
401728,15
402300,16
402880,17
403452,19
404028,18
404608,14
405176,14
405760,13
406332,14
406912,11
407492,10
408068,11
408648,10
409220,12
409800,15
410372,17
410952,15
411520,15
412104,15
412680,12
413248,11
413832,11
414400,10
414984,10
415552,11
416136,13
416704,13
417272,12
417856,11
418424,15
419008,17
419576,16
420160,16
420728,19
421304,19
421872,18
422448,16
423032,14
423600,11
424184,9
424700,10
425280,10
425848,11
426432,10
427000,15
427580,14
428160,15
428728,15
429312,12
429884,10
430464,11
431032,11
431612,11
432192,11
432760,11
433344,11
433916,11
434496,11
435068,15
435648,16
436232,15
436804,15
437384,16
437956,13
438536,13
439108,14
439688,15
440260,16
440836,15
441416,11
441988,11
442568,11
443136,14
443720,15
444292,14
444872,15
445448,15
446016,12
446600,11
447172,10
447752,11
448332,13
448912,12
449484,14
450056,16
450640,14
451208,12
451792,15
452364,16
452944,15
453516,17
454096,17
454672,12
455244,11
455824,10
456396,12
456976,13
457544,15
458128,13
458700,13
459276,13
459856,16
460428,16
461008,15
461576,16
462160,16
462728,12
463312,12
463888,11
464460,11
465040,11
465608,12
466192,11
466764,11
467344,11
467916,11
468492,14
469072,17
469644,18
470224,17
470796,16
471376,14
471956,12
472532,10
473112,10
473684,10
474264,10
474832,11
475416,9
475936,10
476512,14
477092,15
477668,15
478248,16
478820,15
479400,11
479972,11
480556,13
481132,12
481712,11
482280,11
482856,11
483440,11
484008,10
484592,11
485164,14
485744,15
486316,17
486892,15
487472,16
488044,10
488624,11
489196,11
489776,12
490344,12
490928,12
491500,10
492076,10
492656,11
493224,17
493808,16
494376,15
494960,15
495532,15
496108,11
496688,11
497256,11
497840,11
498408,11
498992,12
499564,12
500144,11
500716,12
501292,12
501872,15
502444,14
503024,15
503596,17
504176,18
504756,15
505332,15
505912,14
506484,15
507064,13
507636,11
508216,11
508796,11
509376,11
509960,16
510532,14
511112,14
511688,15
512264,15
512840,9
513364,12
513936,12
514512,13
515088,11
515656,11
516240,11
516808,12
517392,11
517960,12
518544,15
519112,17
519692,16
520272,15
520840,13
521424,11
521996,15
522576,17
523144,18
523728,17
524304,17
524876,12
525456,14
526024,13
526608,15
527176,15
527760,15
528332,14
528904,15
529488,11
530056,11
530640,11
531212,11
531792,10
532364,11
532944,11
533520,11
534092,11
534672,11
535244,15
535824,15
536396,15
536976,15
537548,12
538124,11
538704,11
539276,14
539856,12
540428,11
541008,12
541580,13
542160,13
542736,12
543304,15
543888,15
544460,15
545040,15
545612,15
546192,11
546764,14
547340,10
547920,11
548492,11
549072,13
549644,14
550224,13
550796,13
551376,13
551952,14
552524,15
553104,19
553676,17
554256,17
554828,15
555408,13
555980,12
556556,12
557136,12
557708,11
558288,11
558868,11
559448,11
560020,14
560592,15
561176,15
561748,14
562328,14
562900,10
563480,13
564056,11
564640,10
565208,11
565788,12
566368,10
566940,11
567520,11
568092,14
568672,15
569244,17
569820,14
570400,16
570972,12
571552,11
572124,12
572704,13
573284,13
573864,11
574444,11
575020,10
575600,10
576172,11
576752,13
577320,14
577904,15
578476,22
579052,26
579632,22
580204,14
580784,13
581356,13
581936,12
582508,10
583088,11
583660,11
584236,11
584816,14
585388,15
585968,15
586540,16
587120,16
587692,11
588268,12
588848,15
589420,20
590000,13
590572,10
591152,13
591724,14
592304,15
592884,12
593460,15
594040,20
594612,21
595192,17
595764,13
596344,10
596916,11
597492,12
598072,12
598644,11
599224,11
599796,10
600376,12
600956,14
601536,15
602120,15
602692,15
603272,15
603844,17
604424,14
605004,17
605584,17
606156,15
606732,15
607312,14
607884,12
608464,11
609044,11
609624,12
610196,15
610772,14
611352,15
611928,16
612504,12
613076,10
613660,16
614236,13
614820,11
615392,11
615972,13
616552,12
617124,11
617704,11
618276,16
618856,15
619428,17
620004,21
620584,25
621156,25
621736,20
622308,15
622888,13
623460,11
624040,11
624620,12
625196,10
625776,11
626348,13
626928,15
627508,14
628088,16
628668,15
629244,12
629824,12
630396,13
630980,15
631552,14
632128,11
632708,11
633288,11
633872,11
634448,10
635024,14
635596,15
636176,18
636756,18
637340,16
637916,19
638492,15
639072,16
639648,13
640228,14
640800,12
641384,9
641900,11
642480,12
643048,15
643628,15
644208,15
644776,16
645360,15
645928,11
646512,10
647080,11
647656,12
648240,11
648808,11
649392,19
649964,17
650544,13
651116,11
651696,16
652276,15
652852,15
653432,16
654004,15
654584,15
655156,14
655736,11
656312,11
656888,14
657472,14
658040,15
658624,17
659192,19
659776,16
660348,14
660928,16
661496,15
662076,15
662656,13
663224,13
663808,10
664380,11
664960,11
665528,11
666108,11
666688,11
667256,13
667840,12
668408,14
668992,15
669560,15
670144,15
670716,13
671292,13
671872,18
672444,17
673024,13
673592,10
674176,12
674748,13
675324,12
675904,15
676472,16
677056,18
677628,18
678208,15
678780,15
679360,12
679928,11
680508,12
681088,11
681656,11
682240,11
682808,11
683392,11
683964,16
684540,14
685120,15
685688,19
686272,20
686844,18
687424,12
687996,11
688576,14
689160,17
689732,17
690312,18
690884,14
691464,9
691984,10
692560,10
693128,15
693712,15
694288,15
694860,15
695440,15
696012,13
696592,9
697112,12
697688,13
698256,11
698832,11
699416,11
699988,11
700568,20
701140,18
701720,15
702292,15
702872,15
703452,15
704028,14
704608,18
705180,23
705760,23
706332,19
706912,12
707492,11
708068,14
708648,16
709220,13
709800,15
710372,14
710952,15
711532,15
712112,15
712692,11
713268,11
713848,11
714420,11
715000,11
715572,11
716152,12
716732,11
717308,11
717888,13
718460,16
719040,16
719612,15
720192,16
720760,16
721344,20
721916,18
722492,16
723072,12
723644,11
724224,12
724796,11
725376,12
725948,15
726524,15
727104,14
727676,14
728256,15
728828,15
729408,11
729980,13
730560,10
731132,12
731708,11
732288,11
732860,13
733440,13
734012,14
734592,15
735172,15
735748,15
736328,15
736900,17
737480,17
738048,17
738632,20
739204,21
739784,16
740360,13
740932,11
741512,11
742084,10
742664,11
743236,14
743816,17
744388,15
744964,15
745544,15
746116,11
746696,11
747268,11
747848,11
748420,11
749000,11
749576,11
750148,11
750728,12
751300,14
751880,15
752460,15
753040,16
753620,15
754196,15
754776,15
755348,16
755928,17
756500,17
757080,17
757652,14
758228,11
758808,11
759380,11
759960,13
760532,15
761112,15
761684,14
762264,13
762836,11
763412,12
763992,12
764568,11
765144,12
765724,10
766304,11
766884,11
767460,12
768044,15
768612,15
769192,16
769764,15
770344,15
770916,12
771496,13
772068,17
772644,23
773224,22
773796,16
774376,13
774948,10
775528,11
776100,11
776676,15
777256,15
777828,16
778408,15
778980,12
779560,13
780132,11
780712,11
781292,9
781816,10
782392,11
782964,11
783544,12
784116,12
784696,15
785268,14
785848,15
786420,17
786996,20
787576,20
788148,17
788728,16
789308,16
789888,13
790460,12
791036,10
791620,10
792192,11
792768,12
793344,14
793924,15
794500,15
795080,15
795664,11
796236,10
796816,11
797388,11
797968,11
798548,10
799128,11
799708,10
800284,11
800864,11
801432,16
802016,15
802584,15
803168,16
803740,15
804316,14
804896,14
805468,14
806048,15
806620,11
807200,10
807772,11
808352,9
808872,11
809444,12
810024,15
810596,15
811176,16
811748,15
812328,13
812908,11
813488,10
814060,12
814636,13
815216,12
815788,10
816368,11
816948,11
817528,11
818108,15
818684,15
819264,16
819836,18
820416,17
820984,14
821568,15
822136,15
822720,13
823288,11
823864,12
824448,14
825016,12
825592,9
826112,13
826688,15
827256,15
827840,15
828408,15
828984,11
829568,11
830136,11
830720,12
831288,14
831872,12
832444,11
833016,11
833600,11
834168,12
834744,15
835312,15
835896,15
836464,15
837048,15
837620,13
838192,12
838776,15
839348,18
839928,17
840496,14
841080,11
841648,11
842224,11
842808,16
843376,18
843960,15
844532,15
845112,16
845680,14
846264,12
846832,11
847412,11
847992,14
848564,15
849144,13
849716,11
850296,11
850868,11
851444,15
852024,15
852592,14
853176,14
853748,15
854328,12
854908,15
855488,16
856060,14
856636,10
857216,10
857788,11
858368,9
858888,10
859464,13
860036,14
860616,15
861200,14
861768,15
862352,14
862924,13
863504,10
864076,10
864656,12
865224,12
865804,12
866384,11
866956,11
867536,11
868108,15
868688,16
869260,14
869840,16
870416,16
870984,15
871568,15
872140,16
872720,13
873292,14
873872,12
874444,11
875020,11
875600,10
876168,14
876752,14
877324,15
877904,13
878476,15
879056,12
879632,10
880204,10
880784,11
881352,10
881936,10
882504,10
883088,11
883660,12
884236,10
884816,15
885384,15
885968,15
886540,15
887120,14
887692,14
888272,13
888848,15
889420,12
890000,12
890572,11
891152,11
891724,15
892304,19
892876,20
893452,15
894032,15
894604,14
895184,15
895764,12
896348,11
896920,12
897496,14
898080,17
898648,13
899232,14
899800,14
900384,13
900956,11
901536,21
902116,25
902692,26
903272,26
903844,23
904424,20
904996,14
905576,9
906096,11
906672,9
907192,11
907764,11
908344,12
908916,11
909496,15
910068,15
910648,15
911228,15
911808,16
912392,11
912964,10
913544,11
914116,11
914696,11
915268,12
915848,12
916420,11
916996,11
917576,11
918152,14
918728,15
919300,15
919880,19
920460,17
921040,16
921616,14
922188,13
922768,11
923340,10
923920,9
924440,10
925016,10
925588,10
926164,14
926744,14
927316,15
927896,15
928472,14
929048,10
929620,11
930200,11
930772,10
931348,11
931928,11
932500,11
933080,14
933652,27
934232,24
934812,14
935388,18
935968,20
936540,18
937120,19
937692,23
938272,21
938844,18
939424,17
940004,18
940580,18
941160,12
941736,10
942312,11
942892,15
943472,17
944044,15
944620,16
945200,15
945772,12
946352,13
946924,12
947504,11
948084,12
948664,10
949236,11
949812,10
950392,11
950964,13
951544,16
952124,16
952704,15
953284,15
953860,14
954440,13
955012,12
955592,11
956168,10
956744,14
957324,15
957908,11
958492,12
959064,12
959640,14
960216,14
960792,14
961364,15
961944,15
962516,10
963092,11
963672,12
964244,11
964824,11
965392,11
965976,11
966548,11
967124,11
967704,15
968276,18
968856,20
969428,18
970008,18
970588,14
971168,13
971740,12
972316,13
972900,13
973468,12
974048,11
974620,11
975200,11
975772,12
976348,14
976928,15
977500,15
978080,15
978652,15
979232,11
979804,11
980384,11
980964,10
981540,10
982124,11
982696,11
983272,11
983852,11
984432,15
985000,14
985580,15
986160,15
986732,17
987312,14
987884,15
988464,17
989036,15
989616,12
990188,13
990764,11
991344,10
991916,10
992500,13
993076,17
993656,15
994236,15
994812,20
995392,20
995964,16
996544,12
997116,14
997696,19
998276,13
998856,11
999440,11
1000012,11
1000636,12
1001256,21
1001884,23
1002512,24
1003136,23
1003764,17
1004388,13
1005016,18
1005644,18
1006264,19
1006892,16
1007516,13
1008140,11
1008768,13
1009384,16
1010012,15
1010636,15
1011260,15
1011888,14
1012504,12
1013136,12
1013764,10
1014384,11
1015012,11
1015636,12
1016268,11
1016896,11
1017512,11
1018144,13
1018768,16
1019396,16
1020028,16
1020648,13
1021276,13
1021900,13
1022528,13
1023156,11
1023776,11
1024408,10
1025032,11
1025652,11
1026280,15
1026900,15
1027528,15
1028156,15
1028772,12
1029404,11
1030024,11
1030652,10
1031280,11
1031896,11
1032524,11
1033148,11
1033768,11
1034396,14
1035016,16
1035644,16
1036264,16
1036888,15
1037516,12
1038136,13
1038764,13
1039392,12
1040008,12
1040636,11
1041256,10
1041888,11
1042516,12
1043136,15
1043764,15
1044388,15
1045008,15
1045640,11
1046256,11
1046884,11
1047504,10
1048128,11
1048756,10
1049376,13
1050004,13
1050632,11
1051248,15
1051876,17
1052500,17
1053128,18
1053756,16
1054376,16
1055004,14
1055628,13
1056256,13
1056884,10
1057500,10
1058132,10
1058752,10
1059376,15
1060004,15
1060620,16
1061252,15
1061872,16
1062496,15
1063124,12
1063748,11
1064376,15
1065004,11
1065620,12
1066248,13
1066872,12
1067500,11
1068132,14
1068752,15
1069380,16
1070004,18
1070628,24
1071256,28
1071872,28
1072500,24
1073124,17
1073748,13
1074376,10
1074996,11
1075624,12
1076252,12
1076872,15
1077500,15
1078120,15
1078752,11
1079380,12
1080000,11
1080628,10
1081248,12
1081872,11
1082500,11
1083120,11
1083748,12
1084372,15
1084996,15
1085624,15
1086240,16
1086868,15
1087496,12
1088120,13
1088748,13
1089368,11
1089996,19
1090628,22
1091248,15
1091876,10
1092496,12
1093124,15
1093752,14
1094376,16
1095004,15
1095628,11
1096252,11
1096880,10
1097504,11
1098132,11
1098764,10
1099384,11
1100012,11
1100636,11
1101268,15
1101896,16
1102512,15
1103144,17
1103768,14
1104392,15
1105020,11
1105640,11
1106268,11
1106892,11
1107516,11
1108144,11
1108760,11
1109388,15
1110012,14
1110640,16
1111268,15
1111892,14
1112524,10
1113152,11
1113772,11
1114400,11
1115024,13
1115652,13
1116284,11
1116904,15
1117532,15
1118156,15
1118780,17
1119412,15
1120032,17
1120660,13
1121288,11
1121904,10
1122536,11
1123160,11
1123788,12
1124420,12
1125040,12
1125668,13
1126292,17
1126920,14
1127548,14
1128168,16
1128796,13
1129420,13
1130040,12
1130672,10
1131288,11
1131916,11
1132540,12
1133168,12
1133796,11
1134420,15
1135048,15
1135680,15
1136296,17
1136924,17
1137548,17
1138176,11
1138808,11
1139424,10
1140056,11
1140680,12
1141300,13
1141932,14
1142552,17
1143180,15
1143804,14
1144432,16
1145060,15
1145684,11
1146316,11
1146944,12
1147560,11
1148192,14
1148812,13
1149444,14
1150072,11
1150688,14
1151320,19
1151944,17
1152568,18
1153196,16
1153816,17
1154444,15
1155068,14
1155688,12
1156320,11
1156940,11
1157572,12
1158200,11
1158816,13
1159448,16
1160068,15
1160700,15
1161328,14
1161944,13
1162572,11
1163196,11
1163820,11
1164448,11
1165072,11
1165700,11
1166324,11
1166948,11
1167576,14
1168200,15
1168828,15
1169456,16
1170072,17
1170704,17
1171328,16
1171956,14
1172588,10
1173208,11
1173836,11
1174460,11
1175084,10
1175712,11
1176332,14
1176960,15
1177584,15
1178208,15
1178836,11
1179460,10
1180088,10
1180720,10
1181336,11
1181964,12
1182588,14
1183220,13
1183848,12
1184468,15
1185096,16
1185720,18
1186344,17
1186972,14
1187592,16
1188220,17
1188844,16
1189468,13
1190096,13
1190716,12
1191344,12
1191972,10
1192592,16
1193220,15
1193844,15
1194476,15
1195104,15
1195724,13
1196352,15
1196976,12
1197600,12
1198228,10
1198848,16
1199476,15
1200100,11
1200724,11
1201352,16
1201976,18
1202604,17
1203236,18
1203856,13
1204484,12
1205104,12
1205736,11
1206364,11
1206984,12
1207612,11
1208236,12
1208864,11
1209492,14
1210112,15
1210740,15
1211364,15
1211988,12
1212620,14
1213240,13
1213868,11
1214500,10
1215120,13
1215752,11
1216376,13
1217004,11
1217632,14
1218256,19
1218884,23
1219508,24
1220132,22
1220760,18
1221384,21
1222012,19
1222636,18
1223260,13
1223892,10
1224516,11
1225148,11
1225776,14
1226396,15
1227024,15
1227648,18
1228276,14
1228908,10
1229524,10
1230156,10
1230776,11
1231400,14
1232028,14
1232644,12
1233276,11
1233896,12
1234520,17
1235148,18
1235768,18
1236396,17
1237028,14
1237648,13
1238276,15
1238900,15
1239532,12
1240160,11
1240776,11
1241404,12
1242028,13
1242652,17
1243280,17
1243896,15
1244528,15
1245152,14
1245776,11
1246404,12
1247024,13
1247652,11
1248284,10
1248904,13
1249532,11
1250156,12
1250784,14
1251416,15
1252032,16
1252660,15
1253284,15
1253908,11
1254540,11
1255160,15
1255788,14
1256412,13
1257036,13
1257664,11
1258284,10
1258912,11
1259540,14
1260160,15
1260788,15
1261412,15
1262044,11
1262672,10
1263292,10
1263920,11
1264544,11
1265168,11
1265796,11
1266416,11
1267044,11
1267672,15
1268292,16
1268924,16
1269544,15
1270176,16
1270804,20
1271424,19
1272052,15
1272676,13
1273308,16
1273936,11
1274560,11
1275188,14
1275816,15
1276440,15
1277068,14
1277688,17
1278316,16
1278944,11
1279568,11
1280200,10
1280816,11
1281440,10
1282068,11
1282684,17
1283312,13
1283936,13
1284564,13
1285192,15
1285808,16
1286436,15
1287056,11
1287684,13
1288312,15
1288928,17
1289560,14
1290180,12
1290804,12
1291432,12
1292056,12
1292684,16
1293308,15
1293928,15
1294560,16
1295180,13
1295812,11
1296440,11
1297056,11
1297684,11
1298308,11
1298936,13
1299564,10
1300184,11
1300812,15
1301436,15
1302056,17
1302688,19
1303304,17
1303936,15
1304560,14
1305180,11
1305812,11
1306436,11
1307064,10
1307692,10
1308312,11
1308940,11
1309564,17
1310196,18
1310824,16
1311440,15
1312068,10
1312688,11
1313312,11
1313940,10
1314556,11
1315188,11
1315812,12
1316432,12
1317060,10
1317680,16
1318308,15
1318936,16
1319552,17
1320184,16
1320804,16
1321432,16
1322060,14
1322680,15
1323308,13
1323932,10
1324552,10
1325184,11
1325800,16
1326428,15
1327052,15
1327672,17
1328304,17
1328920,12
1329548,11
1330172,13
1330800,13
1331428,10
1332052,13
1332680,17
1333308,15
1333928,12
1334556,18
1335176,16
1335808,17
1336436,16
1337052,17
1337684,16
1338304,15
1338928,15
1339556,12
1340176,13
1340804,14
1341424,12
1342048,12
1342680,15
1343300,15
1343932,15
1344560,14
1345180,12
1345812,11
1346432,11
1347064,10
1347692,10
1348312,11
1348940,11
1349564,11
1350188,12
1350816,14
1351432,15
1352060,16
1352684,17
1353304,17
1353936,16
1354552,16
1355180,16
1355812,12
1356432,12
1357060,11
1357684,11
1358312,11
1358940,11
1359560,15
1360188,15
1360812,15
1361432,15
1362060,10
1362676,11
1363308,10
1363928,11
1364548,14
1365180,12
1365800,13
1366428,11
1367056,12
1367672,17
1368300,19
1368924,19
1369552,20
1370184,20
1370800,19
1371428,21
1372052,17
1372676,17
1373308,14
1373928,11
1374556,11
1375180,10
1375804,15
1376432,14
1377056,14
1377684,15
1378312,16
1378928,11
1379560,11
1380180,11
1380812,10
1381440,11
1382056,12
1382688,13
1383308,11
1383940,13
1384568,16
1385184,18
1385812,15
1386436,18
1387060,16
1387688,18
1388312,17
1388940,11
1389564,10
1390192,12
1390820,12
1391444,12
1392076,13
1392704,14
1393320,15
1393948,15
1394572,16
1395200,11
1395832,11
1396448,11
1397076,11
1397700,11
1398324,11
1398952,10
1399576,11
1400204,11
1400828,15
1401456,16
1402084,17
1402708,16
1403336,14
1403968,12
1404584,14
1405212,14
1405836,13
1406468,11
1407096,10
1407716,10
1408344,10
1408968,14
1409588,15
1410220,14
1410840,16
1411468,15
1412092,11
1412720,15
1413348,12
1413972,10
1414600,15
1415228,18
1415848,15
1416476,11
1417100,11
1417728,13
1418356,14
1418976,16
1419604,16
1420228,18
1420852,21
1421480,19
1422096,19
1422724,18
1423348,15
1423972,11
1424604,11
1425228,11
1425856,15
1426484,14
1427104,15
1427732,16
1428356,13
1428988,10
1429616,10
1430236,11
1430864,11
1431488,11
1432112,12
1432740,11
1433360,13
1433992,15
1434612,16
1435236,16
1435864,16
1436488,18
1437116,13
1437744,11
1438368,12
1438996,11
1439620,11
1440252,12
1440880,11
1441496,11
1442124,12
1442748,15
1443368,15
1444000,14
1444616,15
1445244,11
1445864,10
1446488,11
1447116,12
1447736,14
1448364,12
1448992,11
1449608,12
1450236,11
1450860,15
1451488,15
1452120,16
1452736,15
1453364,12
1453988,13
1454612,18
1455244,20
1455864,18
1456492,15
1457116,13
1457740,11
1458368,14
1458992,16
1459620,15
1460252,14
1460872,18
1461500,16
1462124,11
1462752,10
1463384,10
1464000,11
1464628,11
1465252,11
1465876,11
1466504,11
1467120,11
1467752,14
1468376,16
1469000,19
1469628,18
1470248,14
1470876,11
1471508,10
1472128,11
1472756,11
1473380,11
1474008,11
1474640,12
1475256,17
1475884,16
1476508,16
1477128,16
1477756,15
1478376,13
1479004,10
1479628,10
1480252,11
1480884,11
1481504,11
1482132,12
1482764,10
1483384,11
1484012,14
1484636,15
1485268,16
1485896,15
1486512,15
1487140,13
1487764,13
1488388,13
1489020,10
1489640,11
1490268,11
1490892,11
1491512,12
1492144,14
1492760,15
1493388,15
1494012,14
1494640,15
1495268,11
1495892,10
1496520,10
1497152,10
1497768,11
1498396,13
1499020,13
1499652,13
1500280,10
1500904,13
1501532,16
1502156,17
1502780,15
1503412,12
1504032,12
1504660,10
1505292,10
1505912,9
1506488,10
1507112,15
1507740,15
1508372,10
1508992,15
1509620,17
1510244,17
1510876,17
1511508,14
1512128,12
1512756,11
1513380,11
1514008,11
1514636,10
1515256,13
1515888,11
1516508,11
1517132,12
1517764,15
1518384,17
1519012,17
1519644,17
1520264,17
1520892,15
1521516,12
1522148,10
1522776,10
1523400,11
1524028,10
1524652,10
1525276,12
1525908,14
1526528,15
1527156,15
1527780,15
1528404,11
1529036,10
1529656,12
1530284,11
1530916,10
1531536,11
1532164,11
1532788,11
1533420,11
1534052,14
1534672,15
1535304,17
1535928,17
1536552,14
1537180,15
1537800,18
1538428,16
1539052,15
1539672,11
1540304,10
1540920,11
1541548,10
1542180,13
1542800,15
1543428,15
1544052,15
1544680,15
1545308,10
1545928,11
1546556,11
1547180,11
1547804,11
1548432,10
1549056,12
1549684,11
1550308,12
1550932,15
1551564,14
1552184,15
1552812,16
1553440,12
1554064,13
1554692,13
1555316,12
1555948,10
1556576,13
1557200,13
1557828,14
1558452,13
1559076,14
1559704,15
1560320,15
1560952,15
1561576,13
1562200,11
1562828,11
1563448,11
1564076,11
1564708,12
1565328,12
1565956,11
1566580,11
1567212,16
1567840,17
1568464,17
1569092,15
1569716,16
1570340,11
1570968,10
1571592,11
1572220,13
1572844,19
1573468,18
1574100,15
1574724,13
1575352,13
1575980,15
1576600,15
1577228,15
1577852,15
1578484,11
1579112,10
1579732,11
1580360,11
1580984,13
1581608,13
1582236,14
1582856,11
1583484,11
1584108,17
1584732,16
1585364,17
1585988,16
1586620,13
1587248,13
1587872,15
1588500,15
1589124,11
1589752,12
1590384,10
1591000,10
1591632,11
1592256,15
1592880,15
1593508,15
1594128,15
1594756,15
1595384,11
1596008,11
1596636,11
1597264,11
1597896,11
1598524,10
1599144,11
1599776,11
1600400,13
1601028,14
1601656,16
1602272,16
1602900,16
1603524,13
1604144,15
1604772,15
1605392,15
1606020,11
1606644,11
1607268,10
1607896,11
1608520,11
1609148,14
1609776,15
1610392,15
1611020,16
1611644,12
1612276,12
1612904,11
1613520,11
1614148,10
1614772,11
1615396,13
1616024,11
1616640,11
1617268,17
1617892,17
1618516,17
1619144,16
1619768,17
1620396,11
1621028,10
1621648,11
1622276,11
1622900,11
1623532,11
1624160,13
1624776,13
1625408,14
1626032,17
1626656,15
1627284,16
1627904,15
1628532,13
1629156,12
1629780,10
1630412,10
1631032,11
1631664,12
1632292,10
1632912,11
1633540,13
1634164,17
1634796,15
1635424,14
1636048,16
1636676,11
1637300,11
1637924,11
1638556,11
1639172,13
1639800,15
1640424,13
1641044,11
1641672,11
1642288,15
1642916,15
1643544,15
1644160,16
1644788,14
1645408,11
1646036,11
1646664,10
1647284,11
1647916,14
1648536,14
1649160,12
1649788,10
1650404,14
1651032,14
1651656,15
1652280,18
1652908,18
1653524,17
1654156,18
1654776,20
1655400,15
1656028,12
1656652,10
1657280,11
1657908,12
1658528,15
1659156,14
1659780,15
1660408,16
1661036,14
1661656,13
1662284,11
1662908,10
1663528,11
1664160,12
1664776,13
1665400,13
1666024,12
1666644,11
1667272,16
1667892,16
1668524,15
1669152,16
1669768,15
1670396,12
1671016,12
1671648,13
1672276,12
1672896,12
1673524,10
1674148,10
1674768,11
1675400,13
1676016,15
1676644,15
1677268,15
1677888,14
1678520,11
1679136,11
1679764,11
1680396,13
1681012,13
1681644,11
1682264,11
1682892,12
1683520,10
1684136,16
1684764,15
1685388,15
1686016,15
1686644,10
1687260,12
1687892,13
1688512,13
1689136,15
1689764,12
1690380,11
1691008,11
1691632,11
1692252,15
1692884,16
1693504,16
1694132,15
1694760,14
1695384,11
1696012,11
1696632,11
1697260,11
1697888,11
1698512,11
1699140,13
1699764,14
1700388,13
1701016,14
1701632,16
1702260,15
1702884,15
1703504,16
1704136,18
1704752,19
1705380,16
1706012,11
1706632,11
1707260,10
1707884,11
1708512,12
1709140,14
1709760,15
1710388,15
1711012,15
1711636,11
1712264,11
1712888,15
1713516,14
1714140,12
1714764,10
1715392,12
1716016,13
1716644,11
1717272,15
1717888,15
1718520,16
1719144,16
1719772,16
1720404,14
1721020,15
1721652,15
1722272,14
1722896,14
1723524,14
1724144,11
1724772,11
1725396,15
1726020,15
1726648,16
1727272,15
1727900,15
1728532,10
1729152,11
1729780,10
1730404,10
1731032,11
1731660,11
1732280,11
1732908,11
1733532,11
1734156,14
1734784,14
1735400,15
1736032,16
1736652,13
1737276,12
1737908,11
1738528,15
1739156,13
1739788,12
1740408,11
1741036,11
1741660,13
1742288,15
1742916,14
1743536,15
1744164,15
1744788,12
1745412,11
1746044,10
1746664,11
1747292,12
1747916,13
1748536,14
1749168,10
1749784,11
1750412,15
1751036,16
1751664,17
1752292,15
1752916,16
1753548,13
1754176,10
1754800,9
1755376,11
1756008,11
1756636,11
1757268,10
1757888,18
1758516,19
1759140,17
1759768,15
1760396,16
1761016,19
1761644,12
1762268,10
1762888,10
1763516,10
1764136,11
1764764,11
1765392,12
1766016,12
1766644,11
1767268,17
1767896,20
1768524,16
1769144,17
1769772,14
1770396,15
1771020,21
1771648,16
1772264,11
1772896,11
1773516,11
1774140,11
1774772,10
1775392,15
1776020,15
1776652,15
1777272,15
1777900,15
1778524,13
1779156,11
1779784,11
1780408,11
1781036,11
1781660,11
1782284,13
1782916,12
1783536,12
1784164,18
1784788,21
1785412,19
1786044,15
1786664,12
1787292,13
1787924,16
1788544,19
1789172,15
1789800,13
1790428,11
1791060,10
1791680,12
1792312,15
1792932,15
1793556,15
1794184,15
1794804,12
1795432,12
1796056,12
1796676,12
1797308,10
1797928,12
1798556,11
1799184,11
1799808,13
1800436,15
1801060,15
1801688,15
1802320,14
1802936,15
1803564,12
1804188,14
1804808,18
1805436,14
1806056,12
1806684,11
1807308,10
1807932,11
1808560,14
1809184,16
1809812,15
1810440,15
1811056,15
1811688,12
1812312,11
1812940,11
1813568,10
1814192,11
1814820,11
1815444,12
1816068,14
1816700,11
1817320,15
1817948,16
1818572,14
1819196,15
1819824,13
1820448,12
1821076,10
1821708,12
1822328,13
1822956,17
1823580,17
1824212,15
1824840,13
1825456,15
1826084,14
1826708,15
1827332,15
1827964,14
1828584,11
1829212,10
1829836,11
1830460,10
1831088,13
1831704,16
1832336,13
1832964,11
1833584,13
1834212,14
1834836,15
1835468,15
1836096,15
1836720,17
1837348,22
1837976,24
1838600,18
1839228,15
1839848,14
1840476,13
1841100,11
1841724,11
1842356,14
1842976,15
1843604,15
1844232,14
1844856,12
1845484,11
1846104,10
1846732,12
1847364,11
1847984,11
1848612,12
1849236,13
1849860,12
1850492,15
1851112,17
1851740,16
1852364,16
1852988,13
1853616,13
1854240,18
1854868,16
1855496,16
1856120,14
1856748,11
1857372,11
1858000,11
1858628,15
1859248,15
1859876,15
1860500,15
1861124,14
1861756,10
1862376,13
1863004,13
1863628,13
1864252,13
1864884,18
1865504,18
1866132,11
1866764,14
1867384,19
1868012,19
1868636,19
1869268,18
1869896,16
1870516,22
1871144,24
1871768,22
1872392,16
1873020,11
1873640,11
1874268,11
1874892,11
1875516,14
1876148,14
1876768,16
1877396,15
1878028,12
1878648,12
1879276,11
1879900,12
1880532,12
1881160,11
1881784,13
1882412,11
1883036,11
1883660,15
1884292,15
1884912,15
1885540,15
1886164,15
1886788,13
1887416,15
1888040,17
1888668,14
1889296,13
1889912,12
1890544,12
1891168,11
1891800,11
1892428,15
1893048,16
1893676,15
1894300,16
1894928,11
1895556,10
1896176,11
1896804,11
1897428,13
1898052,14
1898680,10
1899304,12
1899932,13
1900564,14
1901184,17
1901812,16
1902436,16
1903068,11
1903700,12
1904320,13
1904948,12
1905572,12
1906196,11
1906828,14
1907448,15
1908076,13
1908700,14
1909324,15
1909956,14
1910576,16
1911204,15
1911836,12
1912456,15
1913084,12
1913712,11
1914340,11
1914972,11
1915592,17
1916224,13
1916848,15
1917472,14
1918100,15
1918720,16
1919352,17
1919976,13
1920600,12
1921232,10
1921848,11
1922476,10
1923104,10
1923728,10
1924356,11
1924980,13
1925612,16
1926240,17
1926856,19
1927484,17
1928108,11
1928732,10
1929360,11
1929976,12
1930604,12
1931228,12
1931852,11
1932480,10
1933104,11
1933732,15
1934364,16
1934984,16
1935612,17
1936236,19
1936868,23
1937496,19
1938112,15
1938744,13
1939368,14
1939992,12
1940620,11
1941240,12
1941868,15
1942492,15
1943116,15
1943748,14
1944368,15
1944996,11
1945628,10
1946244,11
1946876,12
1947500,12
1948128,12
1948756,11
1949376,12
1950004,11
1950628,14
1951252,15
1951884,16
1952504,15
1953132,12
1953756,15
1954380,18
1955012,14
1955632,14
1956260,13
1956892,10
1957512,12
1958140,11
1958764,15
1959396,14
1960024,15
1960648,15
1961276,13
1961900,10
1962524,11
1963156,10
1963776,11
1964404,11
1965028,11
1965652,11
1966284,10
1966904,16
1967532,15
1968160,14
1968776,15
1969408,17
1970028,15
1970660,15
1971288,17
1971904,14
1972532,15
1973156,14
1973780,11
1974408,10
1975024,11
1975652,14
1976276,15
1976900,15
1977532,14
1978152,12
1978780,11
1979412,10
1980032,12
1980660,11
1981284,11
1981916,11
1982544,12
1983168,11
1983800,15
1984424,15
1985048,15
1985676,16
1986296,14
1986924,13
1987548,14
1988172,15
1988800,14
1989416,13
1990048,11
1990676,10
1991296,11
1991924,15
1992548,16
1993180,16
1993808,16
1994432,19
1995060,13
1995684,9
1996256,13
1996892,12
1997512,12
1998140,11
1998764,11
1999388,11
2000016,12
2000636,15
2001268,16
2001892,18
2002516,19
2003144,18
2003764,17
2004392,16
2005020,13
2005640,11
2006268,11
2006892,10
2007524,10
2008152,11
2008768,14
2009400,16
2010024,19
2010644,17
2011276,11
2011896,11
2012524,12
2013148,11
2013772,11
2014400,10
2015024,11
2015652,10
2016284,11
2016904,18
2017532,18
2018156,17
2018784,16
2019416,15
2020032,13
2020664,15
2021288,13
2021912,11
2022540,11
2023160,11
2023788,10
2024412,11
2025036,14
2025664,15
2026288,15
2026916,15
2027548,15
2028168,11
2028796,11
2029420,11
2030052,11
2030684,12
2031304,14
2031936,11
2032560,13
2033184,12
2033812,15
2034432,17
2035060,22
2035688,19
2036312,16
2036940,17
2037560,16
2038192,11
2038820,10
2039440,11
2040068,11
2040692,12
2041324,10
2041956,14
2042576,15
2043204,15
2043828,15
2044456,14
2045084,10
2045704,11
2046336,11
2046960,12
2047584,11
2048216,13
2048836,11
2049464,13
2050092,14
2050708,14
2051336,15
2051960,15
2052588,16
2053216,15
2053832,15
2054460,18
2055080,15
2055704,16
2056332,14
2056948,11
2057580,10
2058200,11
2058824,14
2059452,14
2060072,15
2060700,15
2061328,12
2061944,12
2062576,12
2063196,10
2063828,12
2064456,13
2065072,11
2065700,11
2066324,11
2066948,15
2067576,15
2068200,15
2068828,17
2069448,18
2070072,19
2070700,16
2071320,15
2071948,11
2072572,10
2073200,11
2073828,11
2074452,11
2075080,13
2075708,14
2076328,15
2076956,15
2077580,15
2078208,11
2078836,11
2079456,13
2080084,12
2080704,10
2081328,11
2081956,10
2082576,11
2083204,11
2083824,15
2084448,15
2085076,15
2085700,16
2086328,15
2086956,14
2087576,15
2088204,13
2088828,11
2089456,11
2090084,10
2090700,11
2091332,11
2091956,15
2092580,15
2093208,15
2093824,15
2094452,13
2095076,11
2095700,10
2096328,10
2096944,11
2097572,11
2098204,12
2098824,11
2099452,11
2100076,14
2100704,15
2101332,16
2101952,19
2102580,19
2103204,17
2103824,18
2104456,16
2105072,13
2105700,12
2106324,12
2106948,11
2107576,10
2108192,11
2108824,15
2109452,15
2110072,16
2110700,17
2111324,13
2111956,11
2112584,13
2113208,14
2113836,13
2114460,11
2115084,12
2115712,11
2116328,12
2116956,19
2117580,24
2118204,25
2118836,18
2119456,15
2120084,13
2120712,10
2121336,12
2121964,13
2122588,14
2123216,12
2123848,13
2124464,14
2125092,17
2125716,15
2126340,15
2126972,14
2127592,15
2128220,12
2128844,12
2129468,11
2130096,10
2130716,11
2131348,11
2131976,10
2132592,11
2133224,11
2133844,13
2134476,15
2135104,15
2135720,16
2136352,13
2136976,11
2137604,11
2138232,11
2138848,10
2139480,12
2140104,12
2140728,11
2141356,12
2141976,15
2142604,15
2143228,14
2143856,15
2144484,12
2145108,11
2145740,11
2146368,10
2146984,10
2147616,11
2148240,12
2148868,11
2149500,11
2150120,15
2150748,15
2151372,16
2151996,17
2152624,16
2153248,15
2153876,16
2154504,14
2155128,12
2155756,10
2156380,10
2157012,11
2157640,11
2158256,13
2158888,17
2159512,16
2160136,16
2160764,14
2161384,11
2162012,11
2162636,12
2163260,11
2163888,11
2164504,12
2165132,11
2165756,11
2166384,12
2167012,14
2167636,15
2168268,15
2168896,14
2169520,12
2170148,12
2170776,12
2171400,13
2172028,11
2172648,13
2173276,15
2173900,17
2174524,15
2175156,14
2175776,15
2176408,15
2177036,14
2177656,14
2178284,14
2178908,14
2179536,14
2180164,10
2180784,11
2181412,13
2182036,12
2182660,13
2183292,12
2183912,15
2184540,18
2185164,21
2185788,20
2186416,16
2187040,16
2187668,11
2188300,10
2188920,12
2189548,12
2190172,10
2190804,10
2191432,11
2192048,14
2192680,16
2193300,16
2193924,15
2194556,10
2195176,11
2195808,11
2196432,11
2197056,11
2197684,11
2198304,13
2198936,11
2199564,11
2200184,15
2200812,15
2201436,16
2202068,17
2202696,17
2203320,18
2203948,14
2204572,12
2205196,11
2205828,10
2206448,15
2207076,12
2207700,11
2208324,17
2208956,16
2209576,16
2210204,15
2210836,14
2211456,11
2212084,10
2212708,11
2213340,11
2213968,11
2214584,11
2215216,11
2215840,12
2216460,11
2217092,14
2217712,19
2218340,23
2218964,19
2219588,16
2220216,16
2220840,17
2221468,13
2222100,13
2222720,13
2223348,11
2223972,11
2224604,12
2225236,14
2225856,15
2226484,15
2227108,15
2227736,12
2228364,10
2228984,11
2229612,11
2230236,11
2230864,11
2231492,10
2232112,12
2232744,11
2233372,14
2233992,15
2234620,15
2235244,16
2235876,16
2236508,13
2237128,14
2237760,14
2238384,12
2239008,11
2239640,10
2240260,10
2240888,11
2241508,13
2242132,15
2242764,14
2243384,16
2244012,14
2244640,11
2245264,11
2245892,12
2246516,11
2247144,12
2247776,11
2248392,11
2249024,11
2249648,13
2250272,15
2250900,16
2251520,17
2252148,15
2252776,14
2253400,15
2254028,14
2254648,12
2255276,11
2255904,11
2256528,10
2257156,10
2257780,11
2258408,14
2259040,14
2259656,16
2260284,15
2260908,14
2261532,11
2262160,11
2262784,11
2263412,11
2264036,13
2264660,11
2265288,11
2265912,17
2266540,16
2267172,14
2267792,17
2268420,15
2269044,14
2269676,10
2270304,12
2270928,18
2271556,18
2272184,15
2272804,14
2273436,16
2274056,22
2274684,27
2275308,21
2275932,17
2276564,15
2277188,14
2277816,11
2278444,11
2279064,11
2279692,11
2280316,10
2280944,11
2281576,11
2282192,11
2282824,11
2283448,16
2284072,15
2284700,15
2285320,16
2285948,16
2286572,16
2287196,14
2287828,13
2288452,12
2289084,11
2289712,11
2290336,11
2290968,11
2291592,14
2292220,15
2292852,14
2293472,15
2294104,15
2294724,11
2295348,11
2295980,10
2296600,12
2297228,11
2297852,11
2298480,10
2299108,11
2299732,11
2300364,15
2300992,15
2301616,17
2302244,15
2302868,13
2303496,13
2304124,13
2304740,12
2305372,11
2305992,11
2306616,11
2307244,10
2307864,11
2308492,14
2309116,15
2309740,16
2310368,15
2310992,13
2311620,12
2312252,10
2312872,11
2313500,10
2314124,11
2314756,11
2315384,11
2316008,14
2316636,15
2317260,15
2317884,16
2318516,17
2319136,18
2319768,16
2320396,15
2321016,13
2321644,10
2322268,11
2322896,13
2323528,13
2324144,14
2324772,15
2325396,18
2326020,17
2326652,16
2327272,20
2327900,11
2328524,13
2329148,22
2329780,23
2330400,18
2331028,14
2331660,10
2332280,13
2332908,12
2333532,16
2334164,23
2334796,22
2335416,22
2336044,18
2336668,19
2337292,21
2337920,19
2338536,13
2339164,11
2339788,11
2340416,11
2341044,12
2341664,15
2342292,15
2342924,16
2343544,15
2344172,14
2344796,11
2345428,11
2346060,12
2346680,11
2347308,11
2347936,14
2348560,13
2349188,11
2349808,15
2350436,17
2351064,17
2351688,17
2352316,16
2352936,14
2353568,13
2354196,14
2354816,14
2355448,13
2356068,13
2356700,10
2357328,10
2357952,12
2358580,15
2359204,15
2359828,15
2360460,14
2361080,11
2361708,10
2362332,11
2362956,11
2363588,10
2364208,11
2364836,11
2365468,10
2366088,11
2366716,16
2367344,16
2367972,15
2368604,16
2369224,16
2369852,14
2370476,11
2371100,12
2371732,10
2372352,12
2372984,13
2373608,11
2374232,11
2374860,14
2375480,15
2376112,15
2376740,14
2377360,16
2377988,12
2378612,11
2379244,12
2379872,13
2380496,16
2381124,13
2381748,13
2382372,11
2383004,14
2383624,23
2384252,22
2384876,19
2385500,15
2386132,13
2386756,13
2387388,12
2388016,13
2388632,15
2389264,15
2389888,15
2390520,11
2391148,11
2391768,17
2392400,18
2393024,15
2393648,16
2394276,14
2394896,13
2395524,11
2396152,10
2396776,11
2397408,11
2398032,12
2398664,11
2399292,11
2399912,15
2400544,15
2401168,17
2401796,17
2402428,16
2403048,13
2403676,13
2404300,13
2404924,12
2405556,14
2406176,13
2406808,12
2407436,10
2408056,13
2408684,15
2409308,14
2409936,15
2410568,14
2411184,11
2411816,11
2412440,9
2413012,10
2413644,10
2414264,11
2414892,11
2415516,11
2416144,11
2416772,15
2417392,17
2418020,16
2418644,17
2419268,14
2419896,14
2420520,15
2421148,13
2421780,10
2422400,12
2423028,11
2423652,11
2424284,11
2424916,16
2425536,18
2426168,19
2426792,16
2427416,14
2428044,12
2428664,11
2429292,11
2429920,12
2430544,11
2431172,12
2431792,11
2432424,11
2433056,15
2433672,15
2434300,19
2434924,19
2435556,17
2436184,10
2436808,11
2437436,11
2438060,10
2438684,10
2439316,10
2439936,11
2440568,12
2441192,13
2441816,16
2442444,14
2443064,16
2443692,16
2444324,11
2444944,11
2445572,11
2446196,10
2446828,11
2447460,10
2448080,11
2448708,11
2449332,12
2449956,15
2450588,16
2451208,16
2451836,17
2452464,19
2453088,20
2453720,19
2454344,15
2454976,11
2455608,10
2456224,10
2456856,11
2457480,13
2458112,17
2458740,16
2459360,15
2459988,15
2460612,14
2461236,10
2461864,10
2462480,10
2463112,11
2463736,11
2464360,11
2464988,11
2465612,11
2466240,12
2466868,14
2467488,15
2468116,15
2468740,17
2469368,15
2470000,16
2470616,18
2471248,17
2471868,11
2472492,10
2473124,10
2473744,11
2474372,12
2474996,15
2475620,15
2476252,15
2476876,15
2477504,12
2478132,10
2478752,12
2479380,10
2480004,11
2480632,11
2481264,13
2481880,13
2482512,13
2483136,15
2483760,17
2484388,18
2485008,18
2485636,17
2486260,13
2486884,14
2487512,15
2488140,14
2488768,17
2489396,14
2490016,12
2490644,10
2491268,13
2491900,15
2492528,14
2493152,15
2493780,16
2494408,12
2495028,11
2495660,10
2496280,11
2496908,12
2497532,12
2498160,12
2498788,11
2499412,11
2500044,15
2500672,16
2501288,16
2501920,18
2502544,18
2503172,21
2503804,18
2504424,15
2505052,15
2505676,15
2506300,13
2506932,10
2507552,11
2508180,15
2508812,14
2509432,15
2510060,15
2510684,14
2511316,11
2511948,10
2512568,11
2513196,11
2513824,14
2514448,14
2515076,10
2515696,11
2516324,15
2516952,18
2517576,17
2518208,16
2518824,17
2519456,14
2520084,14
2520704,15
2521332,12
2521960,12
2522588,11
2523220,10
2523840,13
2524468,14
2525096,17
2525720,15
2526348,14
2526968,15
2527600,12
2528224,15
2528848,15
2529476,12
2530096,12
2530724,11
2531356,13
2531976,13
2532608,15
2533232,18
2533860,15
2534492,15
2535112,15
2535744,13
2536368,11
2536992,12
2537620,14
2538240,14
2538868,13
2539496,11
2540120,10
2540752,10
2541372,14
2542000,15
2542628,15
2543248,15
2543880,15
2544504,11
2545132,11
2545764,10
2546384,10
2547016,11
2547640,11
2548264,12
2548892,11
2549512,11
2550144,17
2550768,16
2551392,15
2552024,16
2552648,14
2553276,18
2553908,17
2554528,17
2555160,14
2555784,13
2556416,11
2557048,10
2557664,12
2558296,15
2558920,14
2559544,15
2560176,14
2560792,12
2561420,11
2562040,12
2562664,12
2563292,10
2563912,10
2564544,12
2565172,12
2565792,12
2566420,16
2567040,17
2567668,19
2568296,19
2568920,19
2569548,19
2570172,20
2570796,15
2571424,12
2572040,10
2572672,12
2573296,12
2573916,10
2574548,13
2575172,16
2575800,17
2576428,15
2577048,17
2577676,10
2578300,12
2578928,13
2579556,12
2580176,13
2580804,12
2581428,11
2582052,11
2582680,12
2583296,17
2583924,18
2584548,17
2585172,15
2585800,12
2586424,12
2587052,11
2587680,11
2588296,13
2588924,14
2589548,13
2590176,12
2590804,10
2591424,15
2592052,15
2592676,15
2593300,15
2593928,14
2594544,11
2595172,11
2595796,11
2596420,12
2597052,10
2597672,12
2598300,11
2598932,10
2599552,13
2600180,16
2600804,15
2601436,14
2602064,15
2602680,11
2603312,12
2603936,17
2604560,19
2605188,16
2605808,16
2606436,11
2607060,11
2607684,11
2608316,14
2608936,17
2609564,16
2610196,14
2610816,13
2611444,12
2612068,11
2612700,11
2613328,11
2613944,10
2614576,11
2615200,11
2615824,13
2616452,14
2617072,16
2617700,16
2618324,16
2618948,16
2619580,22
2620200,24
2620828,17
2621460,14
2622076,15
2622708,13
2623332,10
2623960,11
2624588,14
2625204,14
2625836,15
2626456,15
2627076,15
2627708,10
2628328,11
2628956,10
2629576,11
2630200,14
2630828,13
2631448,14
2632076,11
2632700,12
2633320,15
2633952,17
2634572,20
2635204,21
2635832,21
2636448,19
2637080,18
2637700,16
2638332,11
2638960,10
2639576,11
2640208,11
2640828,11
2641452,14
2642080,14
2642696,15
2643324,16
2643948,14
2644568,10
2645196,10
2645816,11
2646444,11
2647072,11
2647688,11
2648316,11
2648940,11
2649572,14
2650200,16
2650824,19
2651452,19
2652076,19
2652700,16
2653328,14
2653952,15
2654580,12
2655204,10
2655828,12
2656456,12
2657080,12
2657708,11
2658336,14
2658960,17
2659588,16
2660212,15
2660840,10
2661472,10
2662088,11
2662716,11
2663340,11
2663964,11
2664592,10
2665208,12
2665836,12
2666460,16
2667080,15
2667708,18
2668328,19
2668956,16
2669584,10
2670200,11
2670832,13
2671452,13
2672084,10
2672712,10
2673328,11
2673956,10
2674580,13
2675204,15
2675832,14
2676456,15
2677084,15
2677708,11
2678332,11
2678960,11
2679584,12
2680212,11
2680844,11
2681464,11
2682092,12
2682716,12
2683344,13
2683976,15
2684592,15
2685220,17
2685844,17
2686468,19
2687100,18
2687720,15
2688348,14
2688972,12
2689592,10
2690224,11
2690840,11
2691468,14
2692092,14
2692720,15
2693348,15
2693972,11
2694600,11
2695228,10
2695848,11
2696476,11
2697100,12
2697728,13
2698360,12
2698976,12
2699604,16
2700228,21
2700852,18
2701480,17
2702096,15
2702728,12
2703352,10
2703976,12
2704604,11
2705228,11
2705856,11
2706488,12
2707104,14
2707732,14
2708356,15
2708988,14
2709616,15
2710232,16
2710864,13
2711488,13
2712112,11
2712740,10
2713360,13
2713988,11
2714612,11
2715236,11
2715864,12
2716488,16
2717120,17
2717748,16
2718368,17
2718996,14
2719620,13
2720252,13
2720880,11
2721496,13
2722124,16
2722748,14
2723372,10
2724000,11
2724616,16
2725244,16
2725868,15
2726492,15
2727120,15
2727736,13
2728364,11
2728992,10
2729616,11
2730244,10
2730864,11
2731496,12
2732124,11
2732744,14
2733372,16
2733996,15
2734620,15
2735252,14
2735872,14
2736500,21
2737124,25
2737748,21
2738380,14
2739000,13
2739632,11
2740260,10
2740880,12
2741508,15
2742132,15
2742764,15
2743392,15
2744012,11
2744640,13
2745264,11
2745888,11
2746516,10
2747136,12
2747764,11
2748388,11
2749012,11
2749644,14
2750264,16
2750892,16
2751524,16
2752144,15
2752772,11
2753396,13
2754028,15
2754656,11
2755272,10
2755900,11
2756524,13
2757148,14
2757776,16
2758400,17
2759028,15
2759652,16
2760276,15
2760908,10
2761528,11
2762156,11
2762788,10
2763408,11
2764036,12
2764660,12
2765292,11
2765920,11
2766544,14
2767172,14
2767796,15
2768420,15
2769048,11
2769664,13
2770296,19
2770920,21
2771544,15
2772172,14
2772792,11
2773420,11
2774052,14
2774672,19
2775300,17
2775924,15
2776556,14
2777188,13
2777808,11
2778436,11
2779060,11
2779684,13
2780316,12
2780936,13
2781564,11
2782188,12
2782816,15
2783444,14
2784068,15
2784700,16
2785328,17
2785944,18
2786576,19
2787196,17
2787828,11
2788460,10
2789080,11
2789708,12
2790332,11
2790960,12
2791588,14
2792208,15
2792836,15
2793460,15
2794084,16
2794716,12
2795340,10
2795968,10
2796596,10
2797216,11
2797844,11
2798468,11
2799100,12
2799728,16
2800352,17
2800980,19
2801604,16
2802228,13
2802856,16
2803480,16
2804108,15
2804732,12
2805360,12
2805988,13
2806612,11
2807244,10
2807872,14
2808488,15
2809120,16
2809744,15
2810372,15
2811004,10
2811624,11
2812252,11
2812876,12
2813500,11
2814132,11
2814752,12
2815384,11
2816012,16
2816628,20
2817260,19
2817880,18
2818512,17
2819140,11
2819760,11
2820388,14
2821012,21
2821636,16
2822268,10
2822888,11
2823516,10
2824140,11
2824764,13
2825396,14
2826016,17
2826644,15
2827276,10
2827896,12
2828524,11
2829148,11
2829776,10
2830408,10
2831024,13
2831652,14
2832276,15
2832900,15
2833532,16
2834152,16
2834780,17
2835404,17
2836028,17
2836660,15
2837280,13
2837908,11
2838540,10
2839160,14
2839788,13
2840416,15
2841044,15
2841676,16
2842296,15
2842924,15
2843548,15
2844172,11
2844800,10
2845416,11
2846048,11
2846672,12
2847296,12
2847924,11
2848544,11
2849172,11
2849804,14
2850424,15
2851052,15
2851676,17
2852308,14
2852936,13
2853560,17
2854192,17
2854816,16
2855440,13
2856068,12
2856688,11
2857316,11
2857940,15
2858564,16
2859196,15
2859816,15
2860448,15
2861076,12
2861696,13
2862324,11
2862952,11
2863580,10
2864212,14
2864832,13
2865460,11
2866088,15
2866712,15
2867344,15
2867960,16
2868588,15
2869212,11
2869832,15
2870464,15
2871080,13
2871708,13
2872340,10
2872960,11
2873588,11
2874212,11
2874844,15
2875472,14
2876092,15
2876720,15
2877344,11
2877968,11
2878596,10
2879216,12
2879844,12
2880472,11
2881092,12
2881720,14
2882344,13
2882972,15
2883600,16
2884216,18
2884844,17
2885468,15
2886096,19
2886724,22
2887344,18
2887972,14
2888596,13
2889220,11
2889852,10
2890472,11
2891100,15
2891724,15
2892348,15
2892976,15
2893596,15
2894228,12
2894856,11
2895480,12
2896108,11
2896732,11
2897360,13
2897988,15
2898608,15
2899236,11
2899860,16
2900484,19
2901116,21
2901736,21
2902368,17
2902992,22
2903616,17
2904244,12
2904864,11
2905492,11
2906124,11
2906744,12
2907372,15
2907996,15
2908628,14
2909260,14
2909880,15
2910508,11
2911132,12
2911760,13
2912388,13
2913008,12
2913636,11
2914260,11
2914884,11
2915512,10
2916136,17
2916764,15
2917396,16
2918016,17
2918648,16
2919268,15
2919900,14
2920528,14
2921152,14
2921780,12
2922404,11
2923028,10
2923656,10
2924280,13
2924908,15
2925532,15
2926156,15
2926788,14
2927408,11
2928036,11
2928668,10
2929288,11
2929916,11
2930540,12
2931172,12
2931804,11
2932424,11
2933052,15
2933676,16
2934304,16
2934932,16
2935552,13
2936184,12
2936808,15
2937432,17
2938060,13
2938680,13
2939312,11
2939940,10
2940560,11
2941188,15
2941816,16
2942444,15
2943076,15
2943696,15
2944328,13
2944952,11
2945576,11
2946204,10
2946824,11
2947452,11
2948076,11
2948700,11
2949332,15
2949956,15
2950584,15
2951212,14
2951832,18
2952460,17
2953084,18
2953712,14
2954344,12
2954960,12
2955588,11
2956212,11
2956836,13
2957464,12
2958088,15
2958716,16
2959340,15
2959968,15
2960596,11
2961220,11
2961848,10
2962480,10
2963096,12
2963724,13
2964348,12
2964980,11
2965608,11
2966228,15
2966856,15
2967480,15
2968104,16
2968732,13
2969352,15
2969984,13
2970604,10
2971228,11
2971856,10
2972480,11
2973108,11
2973736,14
2974360,20
2974988,17
2975612,15
2976244,15
2976872,14
2977488,12
2978120,15
2978744,12
2979368,10
2979996,12
2980616,18
2981244,13
2981868,11
2982492,11
2983120,16
2983744,16
2984376,17
2985004,19
2985624,21
2986252,21
2986876,17
2987508,15
2988136,14
2988760,14
2989392,13
2990016,11
2990640,14
2991268,13
2991888,15
2992520,15
2993144,15
2993768,11
2994396,10
2995020,11
2995652,11
2996284,10
2996904,11
2997532,12
2998160,12
2998788,12
2999420,14
3000040,15
3000668,16
3001292,16
3001916,15
3002548,14
3003168,14
3003800,13
3004428,12
3005048,15
3005680,14
3006304,11
3006932,11
3007564,14
3008184,14
3008812,15
3009436,15
3010060,15
3010692,10
3011312,11
3011940,11
3012564,11
3013188,11
3013820,10
3014440,11
3015068,11
3015700,11
3016320,16
3016948,15
3017576,16
3018204,18
3018836,16
3019456,13
3020088,11
3020712,11
3021336,13
3021968,14
3022588,13
3023216,11
3023840,11
3024464,14
3025092,15
3025712,15
3026344,16
3026972,12
3027592,11
3028224,11
3028848,11
3029476,13
3030108,11
3030728,12
3031360,11
3031984,11
3032608,16
3033236,15
3033856,19
3034488,17
3035112,15
3035736,13
3036368,13
3036984,15
3037612,15
3038244,10
3038864,13
3039496,12
3040120,10
3040748,12
3041380,14
3042000,15
3042628,16
3043252,17
3043876,11
3044508,10
3045128,10
3045756,12
3046384,13
3047008,13
3047636,13
3048264,13
3048892,11
3049524,16
3050144,18
3050776,19
3051400,17
3052032,15
3052660,14
3053280,15
3053908,13
3054536,12
3055160,9
3055740,10
3056364,11
3056996,12
3057620,16
3058244,16
3058876,16
3059496,14
3060128,15
3060760,10
3061376,12
3062008,13
3062632,11
3063264,11
3063892,12
3064512,13
3065144,13
3065768,14
3066392,15
3067024,15
3067644,16
3068272,17
3068900,16
3069524,15
3070156,16
3070776,21
3071408,17
3072044,12
3072660,11
3073288,10
3073912,11
3074540,13
3075172,14
3075792,16
3076420,15
3077044,11
3077668,10
3078300,10
3078920,11
3079548,10
3080172,11
3080796,12
3081428,11
3082052,12
3082680,17
3083308,16
3083928,17
3084556,16
3085180,13
3085812,11
3086440,12
3087060,13
3087688,15
3088312,14
3088936,13
3089564,11
3090184,11
3090812,13
3091440,14
3092064,15
3092692,15
3093316,15
3093948,11
3094576,12
3095196,11
3095824,11
3096448,11
3097076,13
3097708,11
3098328,11
3098956,11
3099580,18
3100204,17
3100836,16
3101456,17
3102084,17
3102712,15
3103336,15
3103968,13
3104592,10
3105220,11
3105852,10
3106472,11
3107104,11
3107728,16
3108360,15
3108988,15
3109608,16
3110236,16
3110864,13
3111488,11
3112120,10
3112736,10
3113368,11
3113996,11
3114616,11
3115244,11
3115872,16
3116500,17
3117132,16
3117752,17
3118384,16
3119008,11
3119632,11
3120264,11
3120880,13
3121508,12
3122132,14
3122756,13
3123388,10
3124008,12
3124636,15
3125264,16
3125888,16
3126516,15
3127140,10
3127772,11
3128400,11
3129024,13
3129652,12
3130276,13
3130900,12
3131532,10
3132152,12
3132784,17
3133408,16
3134032,17
3134664,17
3135280,15
3135912,21
3136544,23
3137160,19
3137788,13
3138412,10
3139044,11
3139672,11
3140296,12
3140924,15
3141552,15
3142176,15
3142808,15
3143424,14
3144056,13
3144676,13
3145304,13
3145932,10
3146552,12
3147184,13
3147812,14
3148432,13
3149064,13
3149688,16
3150316,17
3150948,16
3151568,18
3152200,14
3152824,14
3153448,15
3154080,14
3154696,13
3155328,11
3155952,11
3156576,12
3157204,11
3157828,13
3158460,14
3159092,14
3159712,15
3160344,12
3160968,11
3161596,12
3162228,11
3162848,11
3163480,11
3164104,16
3164728,18
3165360,13
3165976,15
3166608,18
3167240,16
3167856,17
3168488,14
3169112,12
3169744,12
3170372,13
3170992,12
3171624,11
3172248,11
3172872,11
3173504,11
3174124,16
3174756,16
3175380,16
3176004,15
3176632,15
3177256,11
3177888,11
3178516,10
3179136,10
3179768,12
3180392,15
3181024,14
3181652,14
3182272,12
3182904,16
3183528,17
3184152,17
3184784,19
3185400,16
3186032,16
3186656,15
3187280,13
3187908,11
3188528,12
3189160,12
3189788,11
3190408,11
3191036,14
3191664,15
3192296,16
3192928,15
3193548,11
3194180,11
3194804,11
3195432,10
3196060,11
3196680,11
3197312,12
3197936,11
3198560,11
3199192,15
3199816,15
3200452,16
3201080,16
3201696,15
3202324,13
3202948,11
3203576,12
3204204,10
3204824,12
3205452,14
3206076,12
3206696,11
3207328,12
3207944,15
3208572,15
3209196,16
3209820,15
3210448,10
3211072,10
3211700,10
3212332,10
3212952,11
3213580,11
3214204,13
3214836,12
3215464,11
3216080,15
3216708,16
3217332,17
3217956,15
3218584,11
3219208,11
3219836,10
3220460,11
3221084,11
3221712,12
3222336,13
3222964,17
3223596,18
3224216,23
3224844,19
3225468,17
3226100,15
3226728,14
3227352,11
3227980,11
3228604,10
3229228,11
3229860,10
3230480,12
3231108,11
3231732,11
3232360,13
3232988,15
3233612,15
3234240,15
3234868,16
3235488,15
3236116,15
3236740,13
3237372,10
3238000,10
3238624,11
3239252,10
3239876,11
3240500,11
3241128,14
3241752,16
3242380,15
3243004,15
3243632,11
3244260,11
3244884,11
3245516,11
3246144,11
3246768,11
3247396,11
3248020,11
3248644,13
3249276,18
3249896,17
3250528,16
3251152,16
3251776,13
3252404,16
3253024,17
3253652,14
3254284,12
3254904,14
3255536,11
3256160,9
3256736,11
3257372,14
3257992,14
3258620,15
3259248,15
3259876,14
3260508,10
3261128,11
3261760,11
3262384,11
3263008,11
3263640,11
3264256,12
3264888,12
3265512,11
3266136,13
3266764,16
3267384,16
3268012,16
3268644,11
3269264,12
3269892,13
3270520,13
3271148,12
3271780,14
3272400,13
3273028,13
3273656,13
3274280,15
3274908,15
3275528,15
3276160,15
3276784,13
3277408,12
3278036,11
3278660,11
3279288,12
3279916,11
3280536,12
3281164,11
3281784,11
3282412,15
3283040,14
3283664,16
3284292,15
3284912,15
3285532,11
3286164,12
3286784,15
3287412,17
3288032,15
3288656,13
3289284,10
3289904,11
3290532,11
3291160,14
3291776,15
3292404,16
3293028,15
3293656,14
3294284,14
3294904,11
3295532,11
3296156,12
3296780,13
3297408,11
3298024,11
3298652,11
3299276,15
3299896,17
3300524,15
3301144,15
3301772,12
3302396,12
3303020,12
3303648,13
3304272,12
3304900,11
3305528,12
3306152,11
3306780,12
3307404,17
3308032,16
3308664,16
3309280,15
3309908,14
3310532,11
3311156,13
3311788,12
3312408,11
3313036,11
3313660,12
3314288,13
3314916,12
3315540,12
3316172,14
3316800,15
3317416,16
3318044,15
3318668,12
3319300,13
3319928,13
3320548,11
3321176,11
3321800,13
3322424,11
3323052,10
3323672,15
3324300,17
3324924,16
3325552,18
3326180,19
3326804,14
3327436,11
3328064,10
3328684,11
3329312,11
3329932,12
3330564,13
3331192,13
3331808,12
3332436,15
3333060,16
3333684,18
3334312,16
3334932,15
3335560,13
3336184,12
3336808,15
3337436,14
3338060,12
3338688,13
3339316,10
3339936,11
3340564,12
3341188,14
3341816,15
3342444,14
3343064,15
3343692,11
3344316,11
3344940,10
3345568,10
3346184,11
3346816,11
3347440,11
3348064,11
3348692,13
3349316,15
3349944,16
3350572,15
3351192,16
3351820,13
3352444,13
3353076,14
3353704,12
3354328,11
3354956,13
3355580,10
3356204,11
3356832,10
3357456,16
3358084,17
3358708,15
3359332,15
3359964,13
3360588,11
3361216,11
3361844,10
3362460,13
3363092,13
3363716,12
3364344,11
3364972,11
3365592,15
3366220,15
3366844,16
3367468,16
3368096,16
3368712,18
3369340,20
3369964,19
3370588,13
3371216,10
3371832,10
3372460,11
3373092,12
3373712,13
3374340,15
3374964,14
3375596,15
3376224,15
3376848,11
3377476,13
3378100,11
3378724,10
3379352,10
3379976,11
3380604,11
3381224,11
3381848,11
3382476,14
3383096,15
3383724,15
3384352,15
3384976,16
3385604,18
3386224,20
3386856,17
3387484,11
3388104,11
3388732,10
3389356,10
3389980,10
3390612,14
3391232,14
3391860,15
3392488,14
3393108,15
3393740,10
3394360,11
3394988,10
3395620,12
3396240,13
3396868,12
3397492,11
3398120,11
3398752,12
3399368,14
3400000,16
3400620,17
3401244,17
3401872,15
3402496,17
3403124,13
3403748,11
3404372,12
3405000,12
3405624,11
3406252,11
3406880,12
3407496,15
3408128,14
3408748,15
3409380,15
3410008,12
3410624,12
3411256,14
3411876,11
3412500,10
3413132,10
3413752,16
3414384,15
3415008,11
3415632,17
3416260,16
3416880,17
3417508,18
3418140,16
3418760,17
3419388,15
3420012,11
3420644,10
3421272,10
3421896,14
3422524,16
3423148,16
3423776,13
3424404,14
3425024,16
3425652,15
3426276,15
3426900,11
3427528,10
3428152,11
3428780,11
3429412,10
3430032,11
3430664,11
3431284,11
3431916,10
3432544,15
3433168,15
3433796,16
3434420,15
3435044,12
3435676,14
3436296,21
3436924,20
3437548,15
3438176,13
3438804,11
3439428,11
3440060,10
3440688,14
3441312,15
3441940,14
3442564,16
3443192,15
3443824,11
3444440,10
3445068,11
3445692,11
3446316,12
3446948,12
3447568,11
3448196,11
3448820,17
3449444,19
3450076,17
3450700,16
3451328,15
3451956,10
3452576,11
3453204,13
3453828,13
3454460,12
3455092,10
3455712,11
3456344,11
3456964,11
3457588,13
3458220,14
3458840,15
3459468,15
3460092,10
3460720,12
3461348,11
3461972,11
3462604,10
3463232,10
3463848,12
3464476,11
3465100,11
3465732,16
3466360,17
3466976,17
3467608,19
3468232,18
3468856,16
3469484,11
3470104,14
3470732,12
3471356,12
3471984,11
3472616,11
3473240,11
3473868,15
3474500,14
3475120,17
3475752,16
3476376,16
3477000,11
3477628,10
3478248,11
3478876,11
3479504,14
3480128,15
3480756,12
3481376,10
3482008,13
3482636,16
3483256,17
3483884,17
3484508,16
3485136,15
3485764,13
3486384,12
3487012,10
3487636,12
3488264,13
3488892,11
3489512,12
3490140,15
3490764,15
3491388,15
3492020,14
3492640,15
3493268,13
3493896,11
3494520,13
3495148,13
3495772,11
3496404,11
3497032,10
3497648,11
3498280,12
3498904,15
3499528,16
3500156,16
3500776,19
3501408,20
3502032,18
3502656,15
3503284,11
3503904,10
3504536,11
3505164,10
3505784,11
3506412,11
3507040,12
3507668,15
3508300,14
3508920,15
3509548,15
3510176,12
3510800,13
3511428,12
3512048,13
3512676,13
3513300,11
3513928,12
3514556,10
3515176,12
3515808,16
3516440,16
3517056,15
3517688,15
3518312,12
3518944,13
3519572,14
3520192,14
3520824,12
3521444,11
3522068,10
3522700,10
3523320,11
3523948,14
3524572,15
3525196,15
3525824,15
3526440,13
3527072,11
3527700,12
3528320,14
3528948,11
3529572,11
3530204,12
3530832,13
3531452,12
3532080,14
3532704,16
3533332,17
3533960,16
3534576,17
3535208,13
3535832,13
3536456,16
3537084,18
3537704,18
3538332,11
3538964,10
3539584,11
3540212,11
3540836,15
3541468,14
3542096,15
3542720,15
3543348,11
3543972,11
3544600,10
3545228,10
3545848,11
3546476,11
3547100,11
3547724,12
3548356,10
3548976,16
3549604,15
3550236,16
3550856,18
3551484,17
3552112,18
3552740,17
3553372,14
3553992,13
3554620,13
3555244,11
3555868,10
3556500,12
3557120,15
3557748,15
3558376,16
3559000,15
3559628,14
3560248,11
3560876,11
3561508,10
3562128,11
3562760,11
3563384,13
3564016,12
3564644,11
3565264,12
3565892,15
3566520,16
3567140,15
3567772,16
3568392,13
3569024,13
3569648,14
3570272,16
3570900,16
3571524,13
3572156,12
3572788,11
3573408,13
3574040,14
3574664,15
3575292,15
3575924,14
3576544,11
3577176,11
3577800,12
3578424,11
3579056,10
3579672,11
3580304,13
3580936,11
3581552,13
3582184,15
3582812,15
3583440,19
3584072,20
3584692,20
3585324,15
3585944,14
3586568,16
3587200,13
3587816,12
3588444,10
3589068,10
3589692,11
3590324,12
3590944,15
3591572,15
3592204,16
3592824,16
3593452,11
3594076,11
3594708,11
3595340,10
3595960,10
3596592,11
3597216,11
3597840,11
3598468,11
3599088,15
3599720,16
3600344,18
3600964,19
3601596,18
3602216,18
3602844,15
3603476,12
3604096,12
3604724,12
3605348,11
3605976,10
3606608,10
3607224,15
3607852,15
3608476,15
3609100,15
3609728,13
3610352,11
3610980,11
3611604,11
3612224,11
3612856,10
3613472,14
3614100,14
3614732,15
3615352,16
3615980,14
3616604,17
3617236,20
3617864,18
3618488,16
3619116,13
3619740,13
3620364,16
3620996,14
3621616,12
3622244,12
3622868,11
3623492,13
3624124,14
3624744,15
3625372,15
3626004,14
3626624,11
3627252,11
3627876,11
3628508,11
3629136,12
3629756,12
3630384,12
3631008,11
3631632,12
3632264,17
3632880,17
3633508,15
3634132,16
3634756,15
3635388,16
3636008,15
3636636,13
3637268,13
3637888,15
3638516,13
3639140,12
3639772,12
3640404,14
3641024,16
3641652,14
3642276,15
3642900,16
3643528,10
3644152,11
3644784,11
3645408,11
3646032,11
3646660,15
3647280,15
3647908,13
3648540,10
3649160,14
3649788,16
3650412,16
3651040,16
3651672,13
3652288,14
3652920,16
3653544,16
3654168,14
3654796,12
3655416,11
3656044,11
3656668,12
3657292,14
3657924,14
3658544,15
3659172,15
3659804,12
3660424,11
3661056,11
3661676,11
3662308,11
3662940,12
3663560,14
3664188,11
3664812,11
3665436,17
3666068,18
3666688,21
3667316,16
3667940,15
3668564,15
3669196,14
3669816,15
3670448,11
3671076,10
3671696,13
3672328,11
3672952,10
3673580,12
3674212,15
3674832,15
3675464,15
3676088,16
3676712,13
3677344,11
3677960,11
3678592,11
3679216,11
3679840,11
3680472,12
3681096,13
3681724,12
3682356,14
3682976,15
3683604,15
3684232,16
3684860,15
3685492,14
3686112,14
3686744,15
3687364,14
3687988,13
3688616,14
3689240,11
3689868,10
3690492,15
3691112,15
3691744,16
3692368,16
3692996,13
3693624,10
3694248,10
3694876,11
3695500,11
3696132,11
3696760,13
3697376,11
3698008,11
3698632,14
3699256,14
3699884,14
3700504,17
3701132,17
3701756,16
3702384,18
3703016,19
3703640,15
3704268,11
3704900,12
3705520,11
3706152,11
3706776,11
3707400,16
3708028,15
3708648,17
3709276,16
3709904,16
3710528,13
3711156,11
3711776,10
3712408,11
3713036,10
3713656,11
3714284,11
3714908,11
3715540,15
3716168,15
3716788,16
3717416,16
3718040,16
3718664,15
3719296,12
3719912,12
3720544,12
3721168,11
3721792,12
3722420,10
3723040,11
3723668,15
3724300,14
3724920,15
3725548,15
3726172,15
3726804,11
3727436,11
3728056,11
3728684,11
3729308,11
3729932,11
3730560,11
3731184,11
3731816,11
3732440,16
3733064,17
3733692,18
3734312,17
3734944,15
3735572,11
3736192,12
3736824,13
3737448,12
3738076,12
3738708,12
3739328,11
3739956,11
3740584,14
3741208,16
3741836,14
3742456,15
3743084,11
3743712,12
3744336,12
3744964,10
3745584,13
3746212,11
3746844,11
3747464,14
3748096,13
3748716,15
3749348,17
3749980,16
3750600,17
3751228,16
3751852,14
3752480,16
3753108,17
3753728,19
3754356,14
3754984,12
3755608,10
3756240,10
3756856,13
3757484,16
3758116,16
3758736,17
3759368,16
3759992,12
3760624,13
3761252,11
3761872,11
3762504,12
3763128,14
3763752,14
3764384,13
3765000,11
3765628,17
3766256,19
3766880,18
3767512,16
3768136,13
3768768,12
3769396,18
3770016,17
3770644,15
3771268,12
3771900,11
3772532,12
3773152,11
3773784,13
3774408,15
3775032,15
3775664,15
3776280,13
3776912,11
3777540,11
3778160,11
3778788,11
3779412,10
3780044,12
3780672,11
3781296,13
3781924,15
3782552,17
3783176,17
3783804,16
3784424,16
3785052,16
3785680,15
3786304,15
3786932,11
3787552,11
3788184,12
3788812,10
3789432,11
3790060,14
3790684,18
3791316,14
3791948,14
3792568,15
3793196,11
3793824,11
3794448,11
3795076,11
3795696,12
3796324,11
3796952,11
3797576,12
3798208,11
3798824,17
3799456,18
3800084,16
3800704,16
3801336,17
3801960,15
3802588,11
3803220,10
3803840,13
3804472,16
3805096,17
3805720,14
3806352,11
3806968,14
3807600,15
3808224,15
3808848,15
3809476,14
3810096,11
3810724,10
3811356,10
3811976,11
3812608,13
3813232,15
3813864,13
3814492,11
3815112,15
3815744,15
3816368,16
3816992,15
3817620,18
3818240,16
3818868,12
3819496,11
3820120,12
3820752,11
3821368,11
3822000,10
3822632,11
3823248,12
3823880,15
3824504,16
3825136,15
3825768,15
3826384,12
3827016,11
3827640,11
3828268,10
3828896,10
3829520,12
3830152,12
3830776,11
3831400,12
3832032,16
3832656,17
3833288,17
3833916,19
3834536,18
3835168,16
3835796,13
3836424,15
3837056,11
3837676,11
3838308,10
3838932,11
3839560,11
3840192,14
3840808,20
3841436,19
3842064,15
3842688,16
3843316,11
3843940,14
3844568,14
3845200,11
3845816,11
3846444,11
3847068,11
3847692,11
3848320,11
3848944,17
3849572,17
3850200,20
3850824,19
3851452,14
3852072,15
3852700,11
3853332,10
3853952,10
3854580,10
3855204,10
3855836,11
3856464,14
3857088,18
3857716,15
3858340,14
3858964,15
3859596,12
3860216,11
3860844,11
3861468,11
3862092,11
3862724,10
3863344,11
3863972,11
3864604,11
3865224,17
3865856,15
3866476,15
3867108,16
3867736,14
3868360,14
3868988,15
3869612,16
3870236,13
3870868,11
3871488,11
3872116,10
3872740,11
3873364,13
3873996,14
3874616,15
3875244,15
3875876,16
3876496,11
3877124,12
3877748,11
3878380,11
3879012,11
3879632,11
3880264,12
3880888,15
3881512,13
3882144,15
3882760,15
3883392,16
3884016,17
3884640,17
3885272,17
3885896,16
3886524,12
3887156,10
3887776,11
3888408,13
3889032,11
3889664,11
3890292,14
3890912,15
3891544,16
3892168,16
3892788,15
3893420,10
3894040,11
3894668,11
3895292,10
3895920,11
3896552,12
3897176,14
3897804,13
3898436,14
3899056,15
3899684,17
3900308,19
3900936,19
3901564,15
3902184,13
3902816,14
3903440,11
3904064,11
3904692,10
3905312,11
3905940,11
3906572,10
3907192,14
3907824,15
3908448,16
3909076,17
3909708,12
3910328,12
3910960,11
3911584,14
3912208,11
3912836,12
3913456,15
3914088,15
3914712,16
3915336,17
3915968,18
3916588,18
3917216,19
3917848,15
3918468,14
3919096,11
3919724,11
3920356,11
3920984,10
3921604,10
3922232,10
3922856,10
3923484,14
3924112,15
3924732,14
3925364,14
3925988,15
3926612,11
3927244,11
3927864,11
3928496,11
3929124,11
3929744,11
3930376,11
3931000,12
3931632,11
3932264,15
3932880,16
3933508,15
3934132,15
3934756,14
3935384,14
3936008,17
3936636,15
3937260,13
3937884,11
3938516,10
3939140,11
3939768,11
3940400,14
3941020,15
3941648,15
3942272,16
3942904,13
3943532,10
3944152,11
3944780,11
3945404,10
3946028,11
3946660,11
3947280,12
3947908,13
3948532,15
3949156,15
3949788,16
3950412,16
3951044,19
3951672,17
3952292,13
3952924,12
3953548,12
3954176,11
3954808,13
3955428,11
3956056,11
3956680,12
3957304,16
3957932,15
3958552,15
3959184,15
3959812,10
3960432,10
3961060,11
3961688,12
3962316,15
3962948,12
3963568,12
3964196,11
3964824,12
3965448,15
3966076,16
3966696,19
3967328,18
3967952,15
3968576,12
3969208,12
3969824,11
3970456,11
3971084,12
3971704,14
3972332,13
3972960,12
3973588,14
3974220,14
3974840,15
3975468,15
3976092,14
3976716,11
3977348,10
3977968,11
3978596,11
3979220,11
3979848,12
3980476,10
3981096,11
3981724,15
3982356,14
3982976,15
3983608,16
3984232,17
3984860,14
3985492,15
3986112,16
3986740,11
3987368,11
3987992,11
3988624,11
3989240,13
3989872,14
3990496,16
3991120,16
3991752,15
3992372,16
3993000,12
3993632,11
3994248,11
3994880,11
3995504,11
3996132,10
3996764,10
3997384,11
3998016,11
3998640,16
3999264,18
3999896,16
4000512,15
4001144,13
4001768,14
4002392,14
4003020,10
4003640,10
4004268,10
4004900,10
4005520,11
4006148,11
4006772,15
4007404,14
4008032,15
4008648,15
4009276,15
4009900,11
4010524,11
4011156,11
4011776,11
4012404,11
4013032,11
4013656,11
4014284,12
4014904,12
4015532,18
4016164,17
4016784,19
4017412,17
4018036,13
4018664,15
4019296,15
4019912,14
4020540,11
4021164,10
4021788,10
4022416,10
4023032,12
4023664,14
4024288,15
4024912,15
4025540,15
4026160,14
4026788,13
4027420,10
4028040,11
4028668,10
4029292,11
4029924,12
4030556,12
4031176,13
4031808,16
4032432,15
4033056,15
4033684,16
4034304,15
4034932,11
4035556,15
4036180,17
4036812,14
4037432,17
4038060,19
4038692,12
4039312,12
4039944,12
4040568,15
4041196,15
4041828,14
4042448,16
4043076,11
4043700,10
4044328,12
4044956,10
4045576,12
4046204,15
4046828,13
4047452,11
4048084,11
4048704,15
4049336,15
4049964,15
4050584,16
4051212,12
4051836,12
4052468,14
4053100,16
4053720,18
4054352,17
4054976,15
4055600,11
4056228,10
4056848,15
4057476,14
4058104,15
4058728,15
4059356,13
4059980,11
4060612,10
4061244,12
4061864,16
4062492,12
4063120,11
4063748,11
4064380,10
4065000,16
4065628,15
4066252,16
4066876,16
4067508,16
4068128,11
4068756,11
4069388,14
4070008,18
4070640,21
4071264,17
4071892,12
4072524,10
4073144,11
4073776,15
4074400,15
4075024,15
4075656,15
4076272,11
4076904,11
4077528,11
4078152,11
4078784,10
4079400,10
4080032,11
4080660,12
4081280,13
4081908,18
4082536,17
4083164,15
4083796,14
4084416,13
4085048,11
4085672,17
4086296,21
4086928,16
4087544,14
4088176,11
4088800,11
4089424,11
4090056,14
4090672,15
4091304,15
4091936,15
4092552,15
4093184,11
4093812,11
4094444,10
4095076,10
4095696,11
4096332,11
4096952,13
4097572,14
4098200,12
4098820,15
4099448,16
4100072,17
4100692,16
4101320,13
4101940,15
4102572,15
4103200,18
4103816,15
4104444,13
4105068,13
4105696,13
4106324,10
4106940,15
4107572,16
4108192,18
4108816,17
4109444,12
4110060,11
4110692,11
4111316,11
4111940,11
4112568,11
4113184,13
4113812,12
4114444,10
4115064,15
4115692,15
4116316,16
4116944,17
4117576,17
4118192,17
4118820,15
4119444,15
4120068,14
4120700,14
4121320,13
4121948,12
4122572,14
4123192,14
4123824,14
4124440,15
4125072,17
4125692,18
4126320,13
4126948,11
4127572,11
4128204,11
4128832,12
4129448,11
4130076,11
4130700,11
4131328,12
4131956,16
4132576,17
4133204,17
4133828,18
4134452,15
4135080,13
4135696,13
4136328,13
4136952,14
4137576,12
4138204,11
4138828,11
4139456,11
4140088,14
4140704,15
4141332,16
4141956,15
4142588,14
4143216,11
4143840,13
4144468,13
4145092,11
4145716,11
4146348,11
4146968,13
4147596,11
4148220,14
4148848,15
4149476,15
4150100,16
4150728,18
4151356,16
4151976,16
4152608,16
4153228,20
4153860,19
4154488,14
4155112,11
4155740,11
4156368,11
4156992,14
4157620,14
4158240,15
4158868,15
4159500,12
4160120,12
4160748,11
4161372,11
4162000,12
4162628,12
4163248,13
4163876,11
4164496,11
4165124,15
4165752,15
4166376,17
4167004,17
4167628,18
4168252,18
4168880,15
4169504,13
4170132,11
4170764,10
4171384,11
4172012,11
4172636,11
4173268,15
4173896,15
4174516,15
4175144,15
4175768,15
4176392,14
4177020,13
4177640,12
4178268,11
4178892,10
4179512,11
4180144,11
4180760,11
4181388,11
4182012,16
4182640,19
4183268,18
4183892,16
4184520,14
4185152,13
4185768,14
4186396,11
4187020,12
4187652,10
4188280,13
4188896,11
4189524,14
4190148,17
4190772,15
4191400,14
4192024,16
4192652,13
4193276,10
4193904,12
4194532,11
4195156,11
4195788,11
4196420,11
4197040,11
4197668,11
4198296,17
4198920,20
4199548,16
4200168,17
4200796,18
4201420,16
4202044,13
4202672,11
4203288,11
4203916,11
4204540,10
4205168,11
4205796,10
4206420,13
4207048,18
4207680,17
4208296,17
4208924,16
4209548,11
4210180,10
4210808,11
4211424,11
4212056,11
4212680,11
4213304,11
4213932,10
4214552,12
4215180,15
4215804,14
4216432,17
4217060,15
4217684,13
4218316,13
4218944,16
4219568,14
4220196,11
4220820,10
4221444,11
4222076,10
4222696,11
4223328,15
4223952,15
4224576,14
4225204,14
4225824,15
4226452,11
4227080,10
4227704,11
4228332,11
4228956,11
4229588,11
4230216,11
4230836,11
4231464,14
4232088,16
4232712,15
4233340,15
4233960,17
4234588,13
4235212,15
4235836,18
4236468,16
4237088,15
4237716,13
4238348,10
4238968,11
4239596,11
4240220,16
4240852,17
4241480,15
4242096,14
4242728,12
4243348,15
4243972,14
4244604,10
4245224,11
4245852,10
4246476,13
4247100,13
4247732,10
4248352,16
4248980,16
4249612,14
4250228,15
4250860,15
4251484,15
4252112,15
4252744,13
4253360,12
4253992,12
4254616,11
4255240,10
4255868,10
4256488,14
4257116,15
4257740,17
4258364,16
4258996,14
4259616,12
4260244,13
4260876,10
4261496,11
4262124,11
4262748,11
4263376,11
4264004,11
4264620,11
4265252,14
4265876,16
4266500,18
4267132,18
4267752,13
4268380,11
4269004,12
4269628,12
4270256,13
4270880,15
4271508,11
4272140,10
4272760,11
4273388,14
4274012,16
4274644,15
4275272,16
4275888,12
4276520,11
4277144,11
4277768,11
4278396,10
4279016,11
4279648,11
4280272,11
4280896,12
4281524,14
4282144,18
4282772,18
4283404,16
4284024,15
4284652,11
4285276,11
4285908,11
4286536,10
4287160,13
4287792,16
4288416,16
4289040,13
4289668,11
4290288,15
4290916,15
4291540,15
4292164,16
4292796,10
4293416,12
4294044,13
4294676,12
4295296,13
4295924,11
4296552,11
4297180,11
4297812,10
4298432,15
4299060,17
4299688,17
4300312,15
4300940,12
4301560,13
4302188,12
4302812,11
4303436,12
4304064,14
4304680,14
4305312,13
4305940,13
4306560,15
4307188,16
4307812,15
4308444,15
4309072,15
4309692,11
4310320,11
4310944,12
4311568,12
4312196,10
4312816,12
4313444,11
4314068,12
4314692,14
4315324,14
4315944,17
4316576,16
4317204,16
4317824,11
4318452,11
4319080,13
4319708,15
4320340,14
4320960,19
4321588,15
4322212,13
4322836,14
4323464,14
4324088,15
4324716,15
4325340,15
4325964,11
4326596,10
4327216,11
4327844,11
4328476,10
4329096,11
4329724,12
4330348,11
4330980,13
4331608,14
4332232,16
4332860,15
4333484,15
4334108,14
4334740,12
4335360,15
4335988,14
4336616,13
4337240,15
4337868,11
4338488,10
4339116,11
4339748,13
4340368,16
4340996,15
4341624,15
4342252,15
4342884,10
4343504,10
4344132,11
4344756,11
4345384,11
4346012,11
4346632,12
4347260,12
4347884,11
4348508,15
4349140,15
4349764,15
4350396,17
4351028,12
4351648,12
4352280,11
4352904,11
4353532,10
4354164,10
4354784,11
4355412,10
4356036,11
4356660,15
4357288,15
4357912,16
4358540,15
4359164,12
4359792,11
4360420,12
4361044,11
4361676,10
4362304,10
4362920,11
4363552,13
4364176,12
4364804,15
4365432,15
4366052,16
4366680,16
4367304,17
4367928,14
4368556,14
4369176,15
4369804,12
4370428,12
4371056,14
4371688,13
4372312,15
4372940,15
4373572,14
4374192,15
4374824,16
4375448,15
4376072,11
4376700,10
4377320,11
4377952,12
4378576,12
4379200,11
4379828,10
4380448,11
4381076,13
4381708,16
4382328,15
4382960,17
4383584,17
4384212,18
4384844,18
4385464,19
4386092,19
4386716,19
4387340,18
4387972,14
4388592,11
4389220,10
4389844,15
4390472,14
4391100,14
4391720,15
4392348,15
4392980,10
4393600,12
4394228,10
4394852,11
4395484,12
4396116,14
4396736,14
4397368,12
4397992,14
4398616,18
4399248,18
4399868,17
4400500,15
4401124,11
4401748,10
4402380,13
4403000,13
4403632,13
4404260,10
4404880,11
4405508,11
4406132,11
4406764,14
4407392,15
4408012,15
4408640,16
4409264,12
4409888,14
4410516,10
4411136,11
4411768,12
4412392,12
4413016,12
4413648,13
4414264,14
4414892,15
4415524,15
4416144,15
4416772,17
4417396,15
4418028,17
4418656,17
4419272,17
4419904,13
4420528,11
4421152,11
4421780,10
4422400,12
4423028,13
4423652,16
4424280,17
4424908,15
4425528,15
4426156,12
4426788,10
4427408,12
4428036,12
4428660,12
4429292,13
4429920,13
4430544,13
4431172,12
4431800,17
4432424,17
4433052,18
4433672,17
4434300,13
4434928,13
4435552,14
4436180,16
4436804,15
4437432,14
4438064,12
4438688,12
4439316,13
4439944,14
4440572,17
4441204,19
4441824,17
4442452,13
4443076,14
4443704,12
4444332,11
4444952,11
4445580,10
4446208,10
4446832,11
4447460,10
4448088,15
4448716,15
4449348,14
4449968,16
4450596,15
4451220,14
4451848,15
4452476,12
4453096,11
4453728,12
4454352,14
4454976,12
4455608,13
4456224,15
4456856,17
4457484,16
4458104,18
4458732,15
4459360,12
4459988,11
4460620,10
4461240,12
4461872,11
4462496,11
4463120,12
4463752,11
4464372,11
4465000,15
4465624,16
4466248,16
4466880,16
4467496,14
4468128,13
4468756,14
4469376,15
4470008,13
4470632,11
4471260,10
4471892,10
4472512,11
4473144,15
4473768,15
4474392,15
4475024,15
4475640,14
4476272,11
4476896,11
4477520,11
4478152,10
4478768,10
4479400,11
4480032,11
4480656,12
4481284,13
4481904,15
4482536,18
4483164,17
4483784,18
4484412,13
4485036,13
4485660,12
4486292,10
4486912,11
4487540,10
4488164,10
4488788,10
4489420,12
4490040,15
4490668,15
4491300,14
4491920,15
4492552,12
4493176,11
4493804,11
4494436,10
4495056,11
4495688,11
4496308,11
4496932,11
4497564,11
4498184,15
4498812,15
4499440,16
4500064,16
4500692,17
4501316,18
4501948,18
4502580,14
4503200,12
4503832,11
4504456,11
4505088,11
4505716,12
4506336,17
4506964,16
4507588,14
4508212,15
4508840,16
4509456,13
4510088,15
4510712,13
4511336,12
4511964,11
4512592,12
4513220,12
4513852,12
4514472,11
4515100,15
4515728,17
4516356,17
4516988,18
4517608,20
4518236,15
4518864,13
4519488,11
4520116,10
4520736,12
4521364,12
4521996,10
4522616,12
4523244,13
4523868,14
4524500,15
4525128,14
4525752,13
4526384,11
4527008,11
4527632,11
4528260,11
4528880,11
4529508,12
4530132,11
4530756,12
4531388,14
4532008,15
4532636,14
4533268,16
4533888,16
4534516,12
4535140,11
4535772,16
4536404,16
4537024,18
4537652,14
4538276,12
4538904,11
4539532,12
4540152,15
4540784,15
4541408,15
4542032,18
4542664,12
4543280,10
4543912,11
4544544,10
4545160,10
4545792,12
4546416,11
4547044,13
4547676,14
4548296,16
4548924,15
4549548,15
4550176,17
4550804,19
4551424,21
4552056,20
4552680,17
4553304,15
4553932,13
4554552,11
4555184,11
4555816,10
4556432,14
4557064,16
4557688,16
4558320,16
4558948,13
4559568,11
4560200,13
4560820,14
4561444,13
4562076,12
4562696,11
4563324,11
4563948,11
4564576,14
4565204,15
4565828,14
4566460,15
4567088,14
4567712,11
4568340,15
4568964,15
4569596,12
4570228,10
4570848,11
4571480,11
4572104,11
4572728,14
4573360,18
4573976,17
4574608,15
4575236,15
4575856,11
4576488,11
4577112,10
4577744,11
4578372,10
4578992,11
4579624,12
4580248,12
4580872,12
4581504,15
4582120,15
4582752,15
4583380,15
4584004,12
4584632,11
4585252,13
4585884,16
4586512,20
4587136,18
4587768,13
4588392,11
4589020,10
4589652,14
4590272,15
4590900,15
4591528,17
4592152,15
4592780,10
4593400,11
4594028,11
4594656,12
4595280,11
4595908,11
4596528,12
4597156,12
4597788,11
4598408,15
4599036,16
4599664,18
4600292,18
4600924,12
4601544,11
4602176,11
4602800,11
4603424,10
4604056,12
4604672,11
4605304,11
4605928,16
4606552,22
4607184,23
4607804,18
4608436,15
4609064,14
4609680,13
4610308,13
4610932,11
4611560,11
4612188,10
4612808,12
4613436,12
4614060,12
4614684,19
4615312,20
4615932,17
4616560,17
4617184,17
4617808,14
4618436,12
4619056,13
4619684,13
4620316,14
4620936,14
4621564,11
4622188,10
4622820,13
4623448,14
4624068,14
4624696,16
4625320,15
4625944,11
4626572,12
4627192,15
4627824,11
4628448,11
4629072,11
4629700,11
4630320,11
4630948,13
4631580,14
4632200,17
4632828,18
4633452,18
4634084,14
4634716,12
4635336,14
4635964,10
4636592,11
4637216,11
4637844,11
4638464,11
4639092,13
4639720,18
4640344,15
4640972,14
4641592,16
4642220,13
4642852,11
4643472,12
4644100,11
4644724,10
4645356,11
4645984,12
4646608,16
4647236,11
4647860,17
4648484,19
4649116,18
4649736,17
4650364,16
4650988,11
4651612,11
4652244,11
4652868,12
4653496,15
4654124,16
4654744,13
4655372,11
4655996,12
4656628,15
4657260,15
4657880,15
4658512,15
4659136,12
4659760,14
4660388,11
4661008,11
4661636,11
4662260,11
4662888,15
4663516,19
4664140,14
4664772,16
4665404,14
4666024,16
4666652,17
4667280,17
4667908,18
4668540,18
4669160,18
4669792,16
4670416,15
4671040,12
4671668,10
4672288,12
4672916,14
4673548,14
4674168,17
4674796,19
4675420,17
4676052,11
4676680,10
4677304,10
4677932,11
4678556,12
4679184,12
4679812,10
4680432,12
4681060,12
4681684,15
4682308,16
4682940,15
4683560,19
4684188,20
4684820,18
4685440,17
4686068,15
4686692,15
4687324,12
4687952,10
4688576,11
4689204,11
4689832,16
4690456,17
4691084,15
4691704,17
4692332,11
4692960,11
4693584,11
4694212,11
4694832,12
4695464,11
4696092,11
4696712,13
4697344,11
4697968,18
4698596,16
4699228,18
4699848,15
4700480,15
4701104,11
4701728,11
4702360,13
4702976,14
4703608,12
4704236,11
4704860,10
4705488,10
4706112,15
4706744,15
4707372,14
4707992,15
4708624,16
4709248,13
4709880,13
4710512,11
4711128,11
4711756,10
4712384,11
4713008,11
4713636,12
4714256,14
4714884,14
4715508,15
4716136,17
4716768,17
4717392,17
4718024,13
4718652,12
4719272,13
4719904,15
4720528,14
4721156,13
4721788,14
4722408,12
4723036,14
4723664,15
4724288,15
4724916,16
4725536,13
4726168,11
4726796,10
4727416,11
4728048,11
4728672,11
4729300,12
4729932,10
4730552,12
4731184,15
4731808,16
4732432,17
4733064,15
4733680,16
4734312,15
4734936,19
4735564,15
4736196,11
4736816,12
4737444,13
4738076,12
4738696,15
4739324,13
4739948,15
4740580,15
4741212,15
4741832,17
4742464,11
4743088,11
4743712,11
4744340,11
4744960,12
4745588,15
4746216,17
4746840,13
4747472,11
4748088,17
4748720,21
4749352,20
4749972,21
4750600,20
4751228,19
4751860,19
4752488,16
4753112,14
4753744,11
4754368,10
4754992,11
4755624,11
4756240,15
4756872,16
4757496,16
4758120,16
4758752,14
4759376,12
4760008,11
4760636,12
4761256,13
4761888,12
4762512,11
4763140,11
4763772,10
4764392,15
4765024,15
4765648,16
4766272,15
4766900,18
4767520,18
4768152,16
4768780,13
4769400,11
4770028,10
4770656,10
4771284,11
4771916,10
4772536,13
4773168,17
4773792,16
4774416,17
4775044,15
4775664,11
4776296,11
4776920,11
4777544,11
4778176,11
4778792,11
4779424,10
4780056,10
4780676,12
4781308,17
4781932,17
4782564,16
4783196,16
4783816,13
4784448,11
4785072,13
4785700,13
4786332,10
4786952,11
4787584,11
4788212,11
4788836,10
4789464,15
4790092,15
4790720,14
4791352,16
4791976,14
4792612,10
4793236,11
4793864,12
4794496,10
4795112,11
4795744,12
4796368,11
4796996,11
4797628,11
4798248,15
4798880,17
4799512,15
4800132,16
4800760,13
4801384,13
4802012,14
4802644,10
4803264,10
4803892,11
4804516,11
4805140,11
4805768,10
4806392,15
4807024,15
4807648,17
4808272,18
4808900,11
4809520,13
4810152,17
4810780,14
4811400,11
4812032,10
4812656,12
4813288,11
4813916,10
4814536,15
4815164,16
4815792,17
4816416,16
4817044,14
4817664,15
4818292,13
4818916,13
4819540,12
4820172,10
4820792,12
4821424,12
4822052,10
4822672,15
4823304,15
4823928,15
4824556,15
4825188,15
4825808,12
4826436,10
4827060,10
4827684,11
4828316,11
4828936,11
4829564,11
4830192,11
4830816,12
4831444,15
4832072,16
4832700,17
4833332,18
4833952,15
4834580,17
4835204,18
4835836,15
4836464,11
4837088,11
4837720,11
4838344,12
4838968,11
4839596,13
4840216,15
4840844,18
4841468,17
4842096,13
4842724,12
4843352,11
4843980,11
4844612,12
4845232,11
4845860,12
4846488,11
4847112,12
4847740,16
4848360,18
4848988,16
4849612,17
4850236,16
4850868,10
4851488,13
4852116,13
4852748,11
4853368,11
4854000,11
4854624,11
4855252,11
4855884,11
4856504,15
4857132,14
4857760,15
4858384,16
4859016,11
4859632,14
4860264,13
4860888,11
4861512,11
4862144,11
4862760,11
4863392,12
4864024,14
4864648,15
4865276,16
4865900,16
4866528,16
4867160,14
4867780,16
4868408,18
4869032,14
4869656,12
4870288,11
4870908,11
4871536,11
4872164,10
4872788,15
4873420,16
4874040,16
4874672,15
4875300,14
4875920,11
4876552,11
4877176,11
4877804,11
4878436,10
4879056,12
4879688,11
4880312,12
4880936,13
4881564,15
4882184,16
4882812,15
4883440,15
4884060,12
4884692,11
4885316,11
4885948,11
4886576,12
4887200,15
4887828,15
4888456,16
4889084,16
4889716,14
4890336,16
4890964,16
4891592,16
4892216,11
4892844,10
4893464,11
4894096,11
4894724,10
4895344,11
4895976,11
4896600,12
4897228,11
4897860,14
4898480,16
4899112,17
4899736,21
4900360,15
4900992,14
4901608,14
4902240,15
4902864,12
4903488,11
4904120,11
4904736,11
4905368,11
4906000,14
4906616,15
4907248,15
4907872,15
4908504,16
4909136,11
4909752,10
4910384,10
4911012,11
4911640,11
4912272,11
4912888,12
4913520,11
4914144,14
4914772,19
4915404,16
4916024,18
4916652,16
4917280,14
4917896,13
4918528,15
4919152,15
4919780,14
4920412,10
4921032,11
4921660,10
4922284,10
4922908,14
4923536,15
4924152,15
4924784,15
4925408,13
4926032,11
4926660,10
4927280,12
4927908,12
4928540,10
4929160,12
4929788,11
4930412,11
4931040,17
4931672,18
4932288,18
4932920,18
4933544,15
4934168,13
4934796,13
4935416,13
4936048,11
4936668,11
4937292,12
4937924,11
4938544,12
4939172,12
4939804,14
4940424,16
4941052,15
4941676,15
4942308,11
4942936,10
4943560,11
4944188,11
4944812,12
4945436,12
4946068,10
4946688,12
4947316,11
4947940,15
4948564,15
4949196,15
4949816,15
4950448,13
4951076,15
4951696,19
4952328,19
4952952,19
4953580,13
4954212,10
4954832,11
4955464,10
4956088,15
4956712,15
4957344,15
4957960,15
4958592,15
4959216,9
4959788,10
4960424,10
4961040,11
4961668,11
4962292,11
4962916,11
4963548,12
4964172,12
4964800,15
4965428,14
4966048,15
4966680,17
4967300,15
4967932,14
4968560,18
4969184,17
4969812,14
4970436,11
4971060,11
4971692,11
4972312,12
4972944,14
4973568,14
4974192,15
4974824,15
4975448,11
4976076,11
4976708,10
4977328,11
4977956,11
4978580,11
4979208,11
4979836,11
4980456,12
4981084,15
4981712,16
4982336,17
4982968,18
4983584,18
4984216,17
4984844,14
4985464,11
4986096,11
4986720,15
4987352,14
4987980,12
4988600,11
4989232,14
4989856,15
4990480,17
4991112,16
4991732,15
4992364,11
4992988,11
4993612,11
4994240,10
4994860,11
4995488,11
4996120,12
4996736,14
4997368,14
4997992,15
4998620,16
4999252,14
4999872,17
5000500,14
5001124,15
5001748,15
5002380,14
5003000,13
5003632,17
5004256,12
5004880,12
5005508,11
5006128,16
5006756,16
5007388,16
5008008,15
5008636,12
5009260,11
5009892,11
5010524,10
5011144,10
5011776,12
5012400,15
5013024,15
5013656,14
5014272,15
5014904,15
5015528,16
5016152,18
5016784,19
5017404,15
5018036,16
5018664,13
5019280,13
5019912,11
5020536,11
5021164,11
5021796,10
5022416,12
5023048,16
5023672,15
5024296,16
5024924,15
5025544,11
5026176,11
5026800,11
5027424,11
5028056,11
5028680,12
5029308,11
5029940,10
5030560,12
5031188,16
5031816,18
5032448,15
5033076,15
5033696,14
5034324,13
5034952,15
5035576,15
5036208,12
5036824,13
5037456,11
5038088,11
5038704,11
5039336,15
5039960,15
5040592,15
5041224,15
5041840,14
5042472,11
5043096,11
5043720,11
5044348,10
5044968,11
5045596,11
5046224,12
5046848,11
5047480,14
5048096,18
5048728,17
5049356,18
5049976,16
5050608,12
5051232,11
5051864,14
5052492,14
5053112,13
5053744,12
5054368,10
5054992,11
5055624,12
5056244,15
5056876,15
5057500,15
5058124,15
5058756,12
5059376,12
5060008,11
5060636,10
5061256,11
5061888,11
5062512,13
5063144,13
5063776,12
5064392,16
5065024,15
5065648,15
5066272,20
5066904,21
5067524,18
5068152,18
5068780,19
5069404,16
5070036,11
5070664,11
5071292,11
5071924,11
5072544,15
5073176,15
5073800,15
5074432,15
5075064,15
5075684,14
5076312,15
5076940,12
5077564,10
5078196,10
5078816,11
5079448,11
5080080,11
5080700,14
5081328,17
5081956,17
5082584,16
5083216,15
5083836,12
5084464,16
5085092,17
5085716,13
5086348,14
5086968,14
5087600,11
5088224,12
5088848,13
5089480,14
5090096,15
5090728,15
5091356,14
5091976,11
5092608,11
5093232,12
5093864,12
5094496,10
5095112,10
5095744,12
5096368,11
5096992,12
5097624,15
5098240,16
5098872,19
5099496,20
5100124,17
5100756,12
5101380,12
5102012,16
5102644,11
5103264,10
5103896,12
5104524,12
5105156,14
5105788,18
5106408,18
5107040,17
5107664,17
5108292,16
5108924,10
5109544,11
5110176,10
5110808,10
5111432,10
5112064,15
5112692,17
5113324,14
5113956,12
5114576,14
5115212,16
5115836,17
5116464,17
5117096,14
5117716,16
5118348,17
5118984,14
5119604,11
5120236,11
5120860,11
5121488,11
5122116,12
5122736,16
5123364,16
5123984,16
5124612,15
5125244,11
5125864,11
5126492,12
5127112,11
5127736,10
5128368,11
5128984,14
5129612,12
5130236,10
5130864,15
5131492,16
5132116,17
5132748,17
5133376,18
5134000,20
5134628,17
5135252,15
5135880,13
5136508,10
5137128,11
5137756,11
5138380,10
5139004,12
5139636,15
5140256,16
5140884,15
5141516,14
5142136,11
5142764,11
5143388,11
5144020,11
5144648,10
5145268,11
5145896,12
5146520,13
5147144,11
5147772,15
5148392,17
5149020,15
5149644,15
5150268,12
5150900,12
5151520,13
5152148,16
5152780,16
5153400,16
5154028,12
5154652,11
5155284,11
5155912,14
5156532,14
5157160,14
5157784,15
5158408,14
5159040,10
5159656,10
5160288,11
5160912,11
5161536,11
5162164,10
5162784,12
5163412,11
5164044,12
5164664,14
5165292,15
5165916,15
5166548,16
5167180,14
5167800,14
5168428,13
5169052,12
5169676,12
5170308,12
5170928,14
5171560,13
5172180,12
5172804,14
5173432,14
5174056,15
5174684,16
5175316,12
5175936,11
5176568,11
5177188,12
5177820,11
5178452,10
5179072,11
5179704,12
5180328,13
5180952,15
5181580,15
5182200,16
5182828,16
5183452,16
5184080,16
5184708,17
5185328,14
5185956,12
5186588,14
5187208,15
5187836,11
5188460,10
5189092,14
5189724,14
5190344,15
5190976,17
5191600,18
5192224,12
5192852,10
5193472,11
5194104,13
5194728,12
5195352,12
5195984,13
5196600,14
5197232,15
5197860,16
5198480,15
5199108,15
5199736,16
5200364,12
5200996,11
5201616,13
5202244,13
5202868,15
5203492,15
5204124,11
5204744,11
5205372,11
5205996,14
5206624,15
5207252,15
5207876,15
5208508,12
5209136,10
5209756,11
5210384,11
5211008,11
5211636,11
5212268,11
5212888,12
5213516,11
5214144,15
5214768,15
5215396,14
5216016,18
5216644,17
5217268,18
5217892,16
5218524,13
5219148,11
5219780,11
5220412,10
5221032,11
5221664,12
5222288,13
5222920,15
5223548,14
5224168,17
5224796,15
5225420,11
5226044,10
5226676,10
5227296,11
5227924,11
5228556,13
5229176,12
5229804,11
5230432,13
5231060,16
5231692,14
5232312,16
5232944,19
5233568,19
5234192,16
5234824,16
5235440,13
5236072,10
5236696,11
5237320,11
5237952,11
5238568,11
5239196,15
5239828,15
5240448,14
5241080,14
5241704,13
5242332,11
5242964,14
5243584,15
5244212,12
5244836,10
5245456,11
5246088,12
5246704,11
5247332,13
5247956,14
5248584,15
5249212,14
5249832,15
5250460,11
5251088,11
5251704,14
5252336,16
5252956,19
5253588,17
5254216,11
5254836,12
5255464,12
5256088,15
5256708,15
5257336,15
5257960,15
5258588,11
5259212,11
5259836,11
5260464,11
5261084,10
5261712,11
5262340,11
5262960,13
5263588,11
5264212,16
5264840,15
5265472,17
5266088,16
5266716,13
5267340,12
5267968,15
5268600,14
5269216,13
5269844,13
5270468,13
5271092,11
5271724,10
5272344,15
5272972,15
5273596,14
5274224,16
5274856,15
5275480,15
5276108,15
5276740,12
5277360,11
5277988,14
5278612,16
5279240,13
5279868,11
5280488,11
5281116,14
5281740,15
5282364,15
5282992,18
5283612,17
5284240,21
5284860,18
5285488,15
5286116,11
5286740,12
5287368,11
5287996,10
5288616,13
5289244,16
5289868,15
5290496,16
5291128,16
5291744,14
5292372,11
5292996,11
5293620,11
5294248,10
5294872,11
5295500,11
5296124,12
5296752,11
5297380,15
5298004,15
5298632,15
5299264,15
5299880,15
5300508,16
5301132,16
5301760,16
5302392,15
5303008,13
5303640,12
5304264,11
5304888,11
5305516,11
5306136,15
5306764,15
5307388,15
5308016,15
5308644,11
5309268,11
5309900,11
5310532,10
5311152,13
5311784,13
5312408,13
5313032,12
5313660,16
5314280,16
5314908,17
5315532,19
5316156,23
5316788,22
5317408,21
5318036,17
5318668,12
5319288,11
5319916,12
5320544,15
5321172,16
5321804,16
5322424,16
5323052,15
5323676,17
5324304,17
5324936,15
5325552,11
5326180,11
5326804,12
5327424,11
5328052,10
5328668,11
5329300,11
5329928,11
5330544,14
5331172,16
5331796,17
5332428,15
5333056,14
5333680,15
5334308,16
5334932,15
5335560,13
5336188,12
5336808,15
5337436,11
5338060,12
5338684,12
5339312,14
5339936,15
5340564,15
5341196,14
5341816,12
5342444,11
5343068,11
5343700,11
5344328,11
5344952,12
5345580,13
5346204,12
5346828,11
5347456,16
5348080,19
5348708,16
5349332,16
5349956,15
5350588,12
5351208,13
5351836,13
5352468,11
5353088,11
5353716,11
5354340,13
5354972,14
5355600,14
5356224,15
5356852,15
5357476,15
5358100,15
5358732,10
5359352,11
5359984,11
5360608,11
5361232,13
5361860,13
5362480,13
5363108,11
5363740,10
5364360,15
5364988,18
5365612,19
5366244,17
5366872,13
5367496,15
5368124,15
5368748,13
5369372,11
5370004,10
5370624,11
5371252,12
5371876,11
5372504,13
5373132,16
5373752,17
5374384,17
5375012,13
5375632,10
5376264,11
5376888,12
5377516,11
5378144,10
5378768,12
5379396,11
5380020,11
5380644,14
5381272,15
5381888,15
5382520,19
5383144,19
5383768,15
5384396,14
5385016,15
5385644,13
5386276,12
5386896,12
5387524,11
5388148,11
5388776,11
5389408,15
5390028,16
5390656,15
5391280,15
5391904,12
5392536,10
5393152,11
5393780,11
5394404,11
5395028,11
5395660,10
5396280,11
5396908,11
5397540,15
5398160,17
5398788,16
5399416,17
5400044,17
5400676,15
5401296,17
5401924,12
5402548,10
5403172,11
5403804,10
5404424,11
5405052,12
5405680,15
5406304,15
5406932,15
5407556,15
5408188,15
5408816,14
5409432,15
5410060,14
5410684,13
5411316,10
5411944,12
5412564,11
5413192,11
5413816,15
5414440,15
5415068,16
5415688,15
5416316,15
5416940,11
5417564,13
5418196,15
5418820,15
5419452,16
5420080,14
5420704,14
5421336,13
5421960,9
5422536,13
5423172,15
5423792,16
5424424,16
5425048,11
5425672,11
5426300,11
5426920,10
5427552,11
5428172,11
5428796,11
5429428,10
5430048,11
5430676,15
5431308,14
5431928,16
5432560,20
5433180,19
5433812,17
5434444,14
5435064,16
5435692,15
5436320,13
5436944,11
5437572,10
5438192,11
5438824,13
5439448,15
5440072,15
5440700,16
5441320,15
5441948,11
5442576,11
5443192,11
5443824,12
5444448,11
5445076,11
5445708,10
5446328,12
5446956,11
5447580,14
5448208,15
5448836,15
5449456,17
5450084,14
5450708,20
5451332,19
5451960,16
5452584,14
5453212,14
5453844,13
5454464,11
5455092,11
5455716,13
5456348,15
5456976,14
5457592,16
5458224,13
5458848,11
5459472,11
5460100,11
5460720,11
5461348,11
5461972,11
5462596,11
5463228,10
5463848,15
5464476,14
5465108,16
5465728,19
5466356,19
5466980,19
5467612,21
5468240,19
5468864,18
5469492,12
5470116,10
5470740,11
5471372,10
5471992,11
5472624,15
5473248,17
5473872,16
5474500,15
5475120,13
5475752,13
5476380,11
5477000,11
5477632,11
5478256,12
5478888,11
5479516,13
5480136,14
5480764,19
5481388,18
5482012,16
5482644,16
5483264,15
5483892,14
5484520,15
5485144,17
5485772,14
5486392,13
5487024,11
5487652,11
5488272,11
5488900,14
5489524,15
5490156,15
5490784,14
5491408,15
5492036,11
5492660,12
5493284,11
5493916,10
5494536,13
5495164,13
5495792,13
5496416,13
5497044,11
5497668,15
5498300,15
5498932,14
5499552,17
5500184,16
5500808,13
5501436,11
5502068,12
5502688,13
5503320,13
5503944,13
5504568,15
5505200,13
5505816,15
5506448,15
5507076,14
5507696,15
5508324,12
5508952,10
5509580,11
5510212,10
5510832,11
5511460,11
5512088,11
5512708,11
5513340,10
5513960,15
5514592,16
5515216,19
5515840,19
5516472,16
5517088,15
5517720,13
5518352,10
5518972,10
5519600,11
5520224,11
5520856,12
5521484,11
5522104,15
5522732,15
5523360,16
5523984,15
5524616,16
5525232,15
5525864,15
5526488,13
5527112,12
5527744,11
5528360,10
5528992,11
5529624,11
5530240,14
5530868,17
5531492,17
5532124,18
5532752,16
5533376,15
5534004,14
5534632,14
5535256,15
5535884,16
5536504,19
5537132,15
5537756,11
5538380,11
5539012,14
5539632,15
5540264,15
5540892,15
5541512,13
5542144,12
5542768,11
5543396,11
5544028,10
5544648,11
5545276,13
5545900,13
5546528,11
5547156,14
5547776,16
5548408,17
5549032,16
5549656,17
5550288,16
5550904,15
5551536,15
5552164,16
5552784,18
5553416,13
5554040,11
5554668,11
5555300,11
5555920,13
5556552,15
5557176,15
5557800,15
5558428,11
5559048,12
5559680,13
5560304,12
5560928,11
5561560,11
5562184,15
5562816,14
5563444,13
5564064,16
5564696,16
5565320,15
5565952,16
5566584,13
5567200,13
5567832,14
5568460,17
5569084,16
5569716,14
5570336,12
5570968,11
5571596,10
5572216,16
5572844,15
5573468,14
5574100,15
5574728,14
5575352,12
5575984,13
5576608,11
5577232,11
5577864,13
5578480,17
5579108,13
5579736,12
5580360,15
5580992,16
5581608,17
5582236,18
5582868,18
5583488,15
5584116,15
5584740,11
5585372,11
5586004,11
5586624,14
5587252,13
5587876,13
5588504,15
5589132,18
5589752,16
5590384,16
5591008,15
5591636,11
5592268,12
5592888,12
5593520,11
5594148,10
5594768,11
5595400,11
5596024,11
5596656,11
5597284,14
5597904,15
5598536,16
5599160,17
5599784,14
5600416,12
5601032,16
5601660,15
5602284,13
5602908,15
5603540,13
5604164,10
5604792,12
5605424,18
5606044,19
5606672,17
5607296,15
5607928,15
5608556,14
5609176,17
5609804,19
5610428,19
5611052,13
5611684,11
5612304,12
5612932,13
5613556,12
5614180,14
5614812,16
5615436,15
5616068,16
5616696,15
5617316,15
5617944,17
5618568,16
5619196,11
5619828,10
5620448,11
5621076,11
5621704,12
5622328,16
5622960,14
5623576,16
5624208,15
5624836,12
5625456,13
5626088,11
5626712,11
5627344,11
5627972,10
5628592,11
5629224,11
5629848,11
5630472,15
5631104,14
5631724,15
5632356,15
5632980,15
5633600,13
5634228,16
5634848,15
5635476,14
5636108,10
5636728,12
5637356,13
5637980,13
5638612,14
5639240,16
5639860,16
5640488,15
5641112,16
5641736,15
5642364,11
5642984,11
5643612,11
5644236,12
5644860,13
5645492,11
5646112,12
5646740,11
5647372,15
5647992,17
5648624,20
5649248,19
5649876,17
5650508,16
5651128,16
5651760,14
5652384,13
5653008,11
5653636,10
5654256,12
5654884,11
5655508,15
5656136,16
5656764,14
5657384,15
5658016,14
5658644,10
5659264,11
5659892,11
5660516,11
5661148,11
5661776,11
5662400,12
5663028,11
5663656,15
5664280,15
5664908,14
5665528,16
5666156,16
5666780,15
5667404,17
5668036,15
5668656,17
5669284,16
5669916,12
5670536,12
5671164,15
5671792,12
5672420,15
5673052,14
5673672,16
5674300,15
5674924,12
5675548,13
5676180,10
5676800,10
5677428,11
5678056,11
5678680,12
5679308,11
5679928,12
5680560,14
5681192,15
5681812,17
5682440,17
5683068,14
5683696,13
5684328,14
5684944,15
5685572,15
5686200,14
5686824,13
5687452,10
5688072,11
5688700,13
5689328,14
5689952,15
5690580,15
5691204,15
5691836,10
5692468,12
5693088,15
5693720,13
5694344,13
5694972,13
5695604,11
5696224,11
5696852,12
5697476,18
5698100,17
5698732,16
5699352,17
5699980,13
5700608,13
5701232,16
5701864,13
5702488,11
5703116,10
5703748,10
5704368,11
5704996,11
5705624,13
5706248,16
5706876,14
5707496,15
5708128,12
5708752,13
5709376,11
5710008,11
5710628,13
5711256,13
5711888,10
5712512,11
5713144,12
5713768,19
5714400,17
5715028,16
5715648,14
5716280,15
5716904,13
5717528,16
5718160,19
5718780,17
5719412,15
5720036,14
5720660,12
5721292,10
5721912,13
5722544,15
5723176,14
5723796,15
5724428,15
5725052,11
5725680,10
5726312,10
5726936,11
5727568,11
5728196,11
5728820,11
5729452,10
5730072,11
5730704,15
5731336,15
5731956,16
5732584,16
5733212,16
5733844,16
5734476,14
5735096,15
5735724,13
5736348,13
5736972,13
5737600,11
5738216,11
5738848,15
5739472,15
5740096,15
5740724,15
5741344,13
5741972,12
5742604,11
5743224,13
5743852,11
5744480,12
5745108,13
5745740,12
5746360,13
5746988,16
5747616,15
5748240,15
5748868,16
5749488,18
5750116,18
5750744,18
5751368,16
5751996,15
5752616,13
5753248,13
5753880,10
5754496,11
5755128,12
5755752,15
5756384,15
5757012,15
5757632,15
5758264,12
5758888,11
5759512,11
5760144,10
5760760,12
5761388,11
5762012,13
5762636,13
5763264,12
5763880,15
5764512,17
5765140,16
5765760,17
5766388,13
5767012,11
5767640,11
5768272,11
5768888,10
5769520,11
5770144,12
5770768,15
5771396,16
5772016,16
5772644,15
5773268,15
5773892,15
5774524,14
5775144,11
5775776,11
5776404,10
5777024,11
5777652,11
5778276,11
5778904,14
5779536,12
5780152,13
5780784,15
5781408,15
5782032,17
5782660,16
5783280,17
5783908,15
5784536,14
5785160,11
5785788,10
5786408,10
5787036,13
5787664,12
5788288,13
5788916,15
5789540,15
5790172,15
5790800,15
5791424,13
5792052,11
5792676,11
5793300,11
5793932,10
5794552,11
5795184,12
5795808,11
5796432,13
5797060,15
5797680,16
5798308,15
5798940,16
5799560,17
5800192,17
5800816,17
5801444,15
5802076,14
5802696,17
5803328,15
5803952,12
5804576,11
5805208,14
5805824,15
5806456,15
5807080,15
5807704,15
5808332,10
5808952,11
5809580,11
5810212,10
5810832,10
5811464,12
5812088,11
5812716,11
5813348,11
5813968,15
5814600,17
5815224,16
5815848,16
5816480,12
5817096,15
5817724,16
5818348,12
5818972,11
5819604,10
5820228,10
5820860,10
5821488,10
5822108,14
5822740,16
5823364,17
5823992,17
5824624,14
5825248,11
5825876,11
5826504,11
5827128,13
5827756,14
5828376,14
5829004,13
5829632,10
5830256,16
5830888,15
5831512,15
5832144,17
5832772,16
5833392,13
5834024,13
5834648,14
5835272,14
5835904,18
5836524,14
5837152,12
5837776,12
5838400,12
5839032,15
5839652,15
5840280,16
5840908,15
5841528,11
5842156,11
5842780,11
5843412,13
5844044,14
5844664,14
5845292,11
5845916,11
5846544,12
5847172,14
5847792,15
5848424,16
5849044,17
5849668,15
5850300,14
5850920,13
5851548,13
5852180,12
5852800,12
5853428,11
5854056,13
5854684,13
5855316,16
5855936,14
5856568,14
5857196,15
5857820,14
5858448,10
5859072,13
5859704,12
5860328,11
5860952,11
5861584,11
5862200,10
5862832,11
5863464,13
5864080,13
5864712,16
5865336,17
5865968,17
5866596,14
5867216,18
5867848,16
5868472,14
5869096,12
5869728,10
5870344,10
5870976,10
5871600,11
5872224,14
5872856,15
5873480,17
5874108,17
5874740,12
5875360,11
5875992,11
5876616,12
5877248,14
5877876,12
5878496,12
5879128,12
5879752,13
5880376,15
5881008,15
5881628,15
5882256,15
5882888,17
5883508,17
5884140,13
5884764,11
5885396,12
5886028,16
5886648,15
5887280,11
5887904,10
5888532,15
5889160,14
5889784,15
5890412,16
5891036,16
5891664,14
5892292,11
5892912,11
5893544,11
5894172,12
5894792,14
5895424,12
5896048,13
5896676,12
5897308,14
5897928,15
5898560,16
5899180,17
5899808,15
5900436,14
5901056,15
5901684,12
5902308,13
5902932,17
5903564,18
5904184,17
5904812,17
5905444,14
5906064,15
5906692,15
5907320,15
5907948,12
5908580,10
5909200,11
5909828,11
5910452,11
5911080,12
5911708,12
5912328,14
5912956,15
5913584,15
5914208,15
5914836,15
5915464,17
5916092,17
5916724,14
5917344,18
5917976,18
5918600,16
5919232,13
5919860,11
5920480,11
5921108,11
5921732,13
5922356,15
5922988,14
5923608,17
5924236,15
5924860,10
5925488,12
5926116,14
5926744,12
5927372,11
5928004,12
5928624,13
5929252,11
5929876,11
5930504,15
5931132,16
5931752,19
5932384,21
5933008,20
5933632,19
5934264,17
5934880,13
5935512,13
5936144,12
5936760,10
5937392,11
5938016,11
5938648,15
5939276,14
5939896,17
5940524,15
5941148,12
5941772,10
5942400,10
5943024,11
5943652,11
5944276,11
5944904,12
5945532,12
5946152,12
5946780,15
5947412,15
5948032,17
5948664,18
5949288,17
5949916,13
5950548,15
5951168,17
5951800,15
5952424,15
5953048,14
5953676,11
5954296,10
5954928,11
5955552,15
5956176,17
5956804,18
5957424,17
5958056,11
5958684,10
5959304,11
5959936,12
5960560,12
5961188,12
5961820,10
5962440,11
5963068,11
5963696,15
5964320,17
5964948,20
5965568,19
5966196,15
5966824,10
5967448,11
5968076,10
5968696,11
5969324,14
5969956,14
5970576,13
5971204,13
5971828,17
5972460,15
5973092,14
5973712,15
5974344,16
5974968,10
5975592,11
5976224,11
5976840,10
5977472,11
5978096,13
5978720,13
5979352,13
5979980,13
5980612,18
5981240,16
5981864,16
5982496,16
5983120,13
5983752,15
5984380,13
5985000,12
5985628,11
5986256,11
5986880,11
5987508,10
5988128,12
5988760,15
5989388,16
5990008,15
5990640,17
5991264,12
5991892,13
5992524,18
5993144,13
5993776,11
5994400,11
5995024,11
5995656,12
5996272,12
5996904,17
5997528,18
5998152,21
5998784,19
5999404,17
6000032,17
6000664,18
6001280,16
6001912,12
6002536,11
6003168,11
6003796,10
6004416,13
6005048,13
6005672,15
6006296,16
6006928,16
6007544,16
6008176,11
6008800,11
6009424,13
6010056,10
6010672,10
6011304,11
6011936,11
6012556,12
6013188,11
6013812,17
6014444,20
6015076,20
6015696,17
6016328,12
6016952,11
6017580,12
6018208,10
6018828,10
6019460,10
6020084,10
6020708,10
6021340,12
6021964,15
6022592,15
6023224,15
6023844,14
6024472,13
6025096,12
6025728,10
6026356,10
6026976,11
6027608,13
6028232,13
6028856,12
6029484,10
6030104,15
6030736,16
6031364,16
6031984,18
6032616,16
6033240,14
6033872,13
6034500,11
6035120,12
6035752,12
6036376,11
6037000,11
6037632,12
6038252,12
6038884,15
6039508,14
6040136,15
6040764,15
6041384,11
6042016,10
6042648,9
6043212,10
6043844,11
6044464,12
6045096,12
6045724,12
6046344,11
6046976,19
6047600,18
6048232,17
6048860,17
6049480,15
6050108,13
6050736,12
6051360,12
6051992,11
6052608,12
6053240,14
6053864,11
6054488,10
6055116,14
6055736,15
6056368,15
6057000,15
6057616,16
6058248,14
6058872,13
6059504,12
6060136,10
6060756,11
6061388,12
6062012,11
6062640,11
6063268,11
6063888,15
6064520,18
6065144,17
6065768,15
6066400,13
6067024,13
6067656,18
6068284,18
6068904,16
6069532,11
6070160,11
6070788,11
6071420,10
6072040,15
6072672,15
6073296,14
6073920,15
6074552,12
6075168,11
6075800,10
6076432,11
6077052,11
6077684,11
6078308,14
6078940,13
6079572,15
6080192,16
6080824,16
6081448,16
6082072,19
6082700,21
6083320,21
6083948,17
6084572,16
6085196,14
6085828,12
6086448,12
6087076,11
6087708,10
6088328,14
6088956,15
6089584,15
6090212,16
6090844,15
6091464,14
6092096,13
6092720,12
6093344,11
6093976,10
6094596,12
6095224,11
6095852,10
6096476,12
6097104,17
6097732,17
6098360,17
6098992,16
6099616,19
6100248,21
6100872,16
6101504,13
6102136,12
6102752,12
6103384,10
6104008,11
6104632,11
6105264,16
6105884,17
6106516,15
6107144,15
6107768,11
6108400,12
6109024,13
6109656,12
6110284,11
6110904,10
6111536,12
6112160,10
6112784,11
6113416,16
6114040,16
6114672,17
6115296,17
6115920,15
6116552,12
6117172,12
6117804,11
6118432,10
6119056,11
6119688,11
6120312,11
6120944,11
6121576,12
6122196,15
6122828,15
6123452,15
6124076,15
6124708,11
6125328,12
6125960,11
6126584,10
6127212,10
6127844,11
6128468,13
6129100,14
6129732,12
6130352,14
6130984,15
6131612,16
6132236,17
6132868,14
6133488,15
6134120,18
6134744,17
6135372,16
6136004,14
6136624,12
6137256,13
6137888,12
6138508,14
6139140,14
6139764,15
6140400,15
6141032,13
6141652,10
6142284,10
6142908,10
6143536,11
6144168,10
6144788,11
6145420,11
6146044,12
6146668,15
6147296,16
6147920,16
6148548,17
6149176,15
6149800,14
6150428,14
6151052,14
6151680,10
6152312,10
6152932,10
6153560,11
6154184,11
6154808,13
6155436,16
6156056,15
6156684,15
6157316,15
6157936,11
6158568,11
6159192,10
6159820,11
6160452,10
6161072,11
6161700,11
6162324,11
6162952,11
6163580,15
6164200,17
6164828,16
6165452,16
6166076,12
6166708,11
6167328,15
6167956,12
6168588,10
6169208,11
6169836,11
6170460,11
6171092,15
6171724,20
6172344,19
6172972,15
6173596,15
6174224,15
6174852,11
6175472,14
6176104,13
6176724,11
6177352,11
6177980,11
6178600,12
6179228,13
6179860,14
6180480,15
6181108,17
6181736,20
6182368,21
6183000,20
6183616,17
6184248,13
6184872,13
6185496,12
6186124,11
6186744,11
6187376,11
6188000,11
6188624,14
6189252,14
6189872,15
6190504,15
6191132,11
6191752,13
6192384,12
6193008,11
6193640,11
6194268,10
6194888,11
6195520,11
6196144,12
6196768,18
6197396,16
6198016,17
6198648,17
6199272,16
6199896,17
6200528,13
6201144,10
6201776,11
6202404,12
6203024,13
6203656,11
6204280,10
6204912,13
6205540,14
6206160,15
6206792,15
6207416,16
6208040,11
6208668,10
6209288,11
6209916,11
6210544,12
6211168,11
6211800,12
6212424,11
6213056,11
6213684,15
6214304,16
6214936,18
6215560,17
6216192,17
6216820,21
6217440,19
6218072,12
6218696,12
6219320,12
6219952,11
6220572,11
6221204,12
6221832,14
6222456,15
6223088,16
6223712,15
6224344,13
6224976,12
6225592,13
6226224,12
6226848,10
6227476,11
6228104,12
6228724,12
6229352,11
6229980,14
6230604,16
6231236,18
6231856,17
6232488,16
6233116,14
6233736,16
6234368,15
6234992,13
6235624,11
6236252,10
6236872,12
6237500,11
6238128,12
6238752,15
6239384,15
6240004,14
6240632,16
6241256,11
6241880,14
6242508,15
6243128,14
6243760,12
6244388,12
6245008,12
6245640,11
6246264,11
6246896,16
6247524,15
6248144,19
6248772,20
6249396,19
6250020,18
6250652,14
6251272,12
6251904,12
6252528,12
6253152,11
6253780,11
6254408,11
6255036,15
6255668,16
6256288,18
6256920,16
6257544,14
6258172,11
6258804,11
6259424,11
6260052,11
6260680,11
6261304,12
6261932,10
6262552,11
