tempo_arduino_micro_s,valor_ADC
500,11
1004,11
1504,12
2000,12
2508,18
3000,16
3508,16
4000,15
4508,13
5000,14
5500,12
6000,12
6500,11
7004,15
7500,16
8000,15
8500,10
9000,10
9500,10
10000,13
10516,16
11036,16
11564,14
12084,13
12612,13
13132,14
13660,12
14180,13
14708,11
15228,10
15756,10
16276,11
16796,11
17316,11
17836,15
18356,14
18876,12
19396,17
19916,20
20436,21
20956,21
21476,22
21996,19
22516,20
23036,15
23564,12
24084,11
24612,14
25132,10
25660,10
26180,10
26708,10
27228,13
27756,15
28276,13
28804,15
29324,16
29852,16
30372,13
30900,12
31420,11
31948,10
32472,12
32996,10
33516,10
34044,12
34564,11
35092,11
35612,12
36140,13
36660,15
37188,20
37708,21
38236,17
38760,12
39284,10
39804,10
40332,10
40852,10
41372,10
41892,10
42412,12
42932,13
43452,13
43972,12
44492,14
45012,15
45532,14
46052,13
46572,14
47092,10
47612,10
48140,10
48660,10
49188,11
49708,12
50236,12
50756,13
51284,14
51804,11
52332,15
52852,26
53380,23
53900,17
54428,16
54948,15
55476,14
55996,13
56524,15
57044,16
57572,12
58096,11
58620,14
59140,14
59668,13
60188,16
60716,14
61240,13
61764,13
62284,14
62812,14
63332,14
63860,11
64384,11
64908,10
65428,11
65948,11
66468,11
66988,16
67508,13
68028,11
68548,12
69068,16
69588,19
70108,23
70628,23
71148,19
71668,17
72192,15
72716,15
73236,14
73764,11
74284,10
74812,11
75332,10
75860,11
76384,12
76908,11
77428,11
77956,13
78476,13
79004,13
79528,13
80052,15
80572,13
81100,10
81620,12
82148,12
82668,13
83196,11
83720,12
84244,13
84764,11
85292,12
85812,14
86340,12
86860,14
87388,14
87908,15
88436,14
88956,12
89484,13
90004,20
90524,21
91044,18
91564,13
92084,10
92604,10
93124,10
93644,13
94164,16
94684,14
95204,13
95724,14
96248,14
96764,13
97292,10
97812,10
98340,10
98860,10
99388,10
99908,14
100436,14
101000,11
101584,12
102156,14
102736,13
103304,13
103880,18
104456,18
105024,15
105600,17
106168,16
106744,13
107312,11
107896,13
108464,14
109040,11
109624,11
110192,11
110768,13
111336,14
111920,13
112492,13
113072,13
113640,19
114216,19
114792,13
115364,11
115944,12
116512,18
117096,19
117664,16
118240,14
118824,18
119392,27
119976,26
120548,18
121128,16
121696,16
122280,12
122848,11
123428,10
124008,11
124576,15
125160,15
125728,13
126312,10
126884,12
127456,13
128040,14
128608,15
129184,14
129752,13
130328,12
130896,11
131480,9
131996,10
132568,11
133152,11
133720,11
134304,11
134872,11
135456,13
136024,16
136608,15
137176,15
137752,16
138336,18
138904,16
139488,10
140056,11
140640,11
141208,10
141784,12
142368,15
142940,14
143520,12
144088,12
144672,15
145240,16
145824,13
146392,17
146972,15
147552,18
148120,17
148704,11
149272,10
149856,10
150424,10
151000,11
151584,10
152156,11
152736,16
153308,14
153888,15
154456,18
155040,19
155608,11
156184,12
156768,11
157340,11
157920,10
158488,11
159072,15
159644,17
160220,14
160800,12
161368,13
161944,18
162512,16
163096,13
163664,12
164248,12
164816,10
165384,11
165960,11
166528,13
167112,12
167680,11
168256,14
168824,18
169400,23
169968,24
170536,21
171112,18
171680,18
172264,16
172832,15
173416,10
173984,10
174564,10
175144,11
175712,11
176296,16
176864,16
177448,12
178016,18
178600,15
179168,15
179748,15
180328,13
180896,11
181480,10
182048,13
182632,14
183200,16
183776,19
184360,20
184928,15
185504,13
186072,15
186656,13
187224,15
187808,13
188376,15
188952,11
189536,11
190104,10
190688,10
191260,11
191840,10
192412,11
192984,11
193560,11
194128,11
194712,15
195280,19
195864,20
196432,17
197016,13
197588,11
198164,14
198744,15
199312,14
199896,12
200464,11
201048,11
201616,11
202192,14
202776,26
203348,28
203928,27
204500,26
205080,25
205648,18
206224,10
206792,11
207360,11
207944,11
208512,12
209096,14
209664,14
210248,13
210816,11
211392,13
211960,13
212536,14
213120,14
213688,12
214272,10
214840,11
215424,12
215992,13
216572,11
217152,22
217724,24
218304,19
218872,14
219456,13
220024,14
220608,13
221176,15
221752,19
222336,21
222908,16
223488,13
224060,12
224640,11
225208,10
225784,16
226368,16
226936,13
227520,13
228088,14
228672,16
229240,18
229824,15
230396,10
230972,12
231552,11
232124,11
232704,10
233276,11
233856,10
234424,11
235000,11
235584,13
236152,16
236736,15
237308,20
237888,25
238460,24
239040,20
239612,13
240188,11
240768,11
241336,12
241920,9
242436,10
243016,10
243588,12
244168,11
244744,13
245316,15
245896,15
246464,16
247048,11
247616,13
248200,12
248768,11
249344,12
249928,11
250496,11
251080,11
251648,12
252232,11
252804,14
253384,13
253960,20
254532,26
255112,19
255684,15
256264,15
256840,13
257416,10
257984,10
258560,10
259136,11
259704,11
260288,11
260856,12
261440,13
262008,13
262584,14
263152,13
263720,11
264304,12
264872,12
265456,11
266024,11
266608,10
267176,11
267756,14
268336,16
268904,18
269488,30
270056,26
270640,17
271208,15
271792,15
272364,11
272936,11
273520,11
274088,14
274672,12
275244,11
275824,13
276396,11
276972,11
277552,13
278124,17
278704,13
279276,16
279856,16
280428,12
281008,12
281576,12
282156,12
282736,14
283304,11
283888,11
284456,11
285040,11
285608,11
286184,16
286768,17
287336,22
287920,22
288492,20
289072,17
289640,14
290224,10
290796,10
291372,10
291952,13
292520,15
293104,16
293676,11
294256,11
294828,13
295400,14
295984,15
296556,14
297136,11
297704,11
298288,10
298856,13
299440,13
300012,13
300588,11
301168,11
301740,11
302320,13
302900,16
303480,16
304052,19
304628,18
305208,19
305780,18
306360,14
306932,11
307512,13
308092,14
308672,14
309240,13
309820,11
310400,11
310968,13
311552,13
312124,15
312704,13
313276,15
313852,12
314432,15
315004,10
315584,16
316156,15
316736,11
317316,11
317896,13
318480,14
319052,15
319632,18
320204,15
320784,15
321352,17
321936,17
322504,13
323084,10
323664,10
324232,13
324816,13
325384,10
325968,10
326540,10
327120,10
327696,13
328264,13
328840,15
329408,14
329984,14
330552,11
331136,13
331708,15
332280,11
332864,19
333432,23
334008,15
334576,16
335160,27
335728,30
336312,30
336880,26
337456,19
338032,16
338600,14
339184,11
339756,11
340336,11
340904,11
341480,11
342064,11
342636,11
343216,11
343784,12
344368,13
344936,15
345520,17
346092,15
346664,15
347248,11
347816,11
348400,11
348968,11
349552,11
350124,15
350700,14
351280,12
351852,12
352432,12
353004,17
353584,17
354156,14
354736,13
355308,12
355884,11
356464,10
357036,11
357616,10
358188,11
358768,11
359344,11
359924,13
360504,13
361072,16
361656,19
362224,16
362808,13
363380,14
363960,11
364532,12
365108,19
365688,16
366260,11
366840,11
367412,15
367992,17
368564,16
369140,14
369720,15
370288,15
370872,14
371444,14
372024,13
372592,12
373176,11
373748,13
374324,12
374904,10
375476,10
376056,11
376628,13
377208,11
377780,14
378356,13
378936,15
379508,14
380088,14
380660,11
381240,11
381812,12
382392,12
382964,11
383540,11
384120,13
384692,17
385272,17
385844,15
386424,15
386992,15
387572,15
388152,15
388724,12
389304,10
389872,11
390456,13
391024,15
391608,11
392180,12
392752,14
393336,10
393908,10
394488,14
395064,14
395648,14
396220,15
396796,14
397376,11
397948,10
398528,12
399100,14
399680,14
400260,14
400840,12
401416,11
401988,11
402568,11
403136,15
403720,16
404300,19
404880,20
405448,16
406028,15
406608,16
407180,12
407760,10
408340,10
408920,12
409492,12
410068,12
410648,11
411216,12
411792,14
412360,15
412944,14
413512,16
414096,13
414664,16
415244,15
415824,11
416396,13
416976,12
417544,11
418120,20
418688,26
419272,25
419848,24
420416,17
420992,17
421560,15
422144,12
422716,13
423296,12
423864,10
424440,13
425024,13
425592,11
426176,11
426748,11
427328,11
427900,13
428480,13
429048,15
429624,14
430208,14
430776,11
431360,11
431928,10
432512,10
433080,11
433656,11
434240,13
434808,14
435392,11
435960,11
436544,13
437112,16
437696,15
438268,21
438844,24
439424,18
439996,14
440576,12
441152,11
441736,10
442304,10
442884,15
443464,14
444036,11
444616,12
445188,15
445768,13
446336,16
446920,14
447496,10
448068,15
448648,15
449216,14
449800,11
450372,10
450952,13
451528,12
452104,12
452688,14
453256,16
453840,16
454408,18
454992,15
455564,14
456144,12
456720,11
457288,10
457872,11
458444,11
459024,16
459596,14
460176,12
460748,14
461324,14
461904,14
462476,14
463056,17
463628,22
464208,20
464776,12
465360,11
465936,11
466504,14
467088,17
467660,22
468240,24
468812,30
469392,31
469964,26
470540,20
471120,17
471692,16
472272,13
472844,11
473424,15
473996,17
474576,19
475152,18
475724,17
476304,14
476876,11
477456,14
478028,15
478608,15
479188,14
479764,14
480344,13
480916,11
481496,13
482064,15
482648,15
483216,11
483792,11
484376,11
484948,11
485528,11
486100,15
486680,20
487248,16
487832,13
488404,14
488976,13
489560,13
490132,11
490712,9
491232,12
491808,13
492380,11
492960,10
493528,11
494108,11
494688,15
495260,15
495840,13
496412,14
496992,13
497560,11
498140,10
498720,11
499292,11
499872,11
500444,13
501024,12
501596,11
502176,14
502756,18
503332,20
503912,22
504484,18
505064,14
505636,18
506216,25
506788,15
507364,10
507944,12
508516,13
509096,10
509668,11
510248,11
510828,11
511408,13
511988,15
512564,14
513144,15
513712,15
514296,13
514864,11
515448,10
516016,11
516592,14
517176,14
517744,11
518328,11
518900,15
519480,23
520052,21
520632,16
521204,15
521776,14
522360,10
522928,13
523512,13
524084,16
524664,12
525236,10
525808,11
526392,11
526964,12
527544,11
528116,14
528696,13
529264,13
529848,15
530416,14
530992,11
531576,11
532148,11
532728,12
533296,10
533880,10
534452,11
535024,14
535608,16
536180,24
536760,27
537332,29
537912,21
538484,18
539064,10
539636,11
540212,11
540792,11
541364,11
541944,9
542464,11
543040,11
543612,11
544192,11
544760,14
545336,16
545920,15
546488,14
547072,12
547644,13
548224,15
548796,16
549372,15
549952,12
550524,11
551104,11
551676,11
552256,14
552836,14
553416,16
553992,15
554564,18
555144,19
555716,17
556296,12
556868,12
557448,11
558020,11
558596,11
559176,14
559748,15
560328,13
560900,11
561480,13
562052,16
562632,14
563208,14
563780,11
564360,11
564932,13
565512,14
566084,11
566664,10
567236,10
567812,11
568392,12
568964,15
569544,19
570116,18
570696,13
571268,13
571848,13
572424,12
572996,12
573576,11
574148,10
574728,12
575300,11
575880,9
576400,10
576976,10
577552,12
578124,13
578704,13
579276,14
579856,14
580428,14
581008,11
581580,11
582156,11
582736,10
583308,11
583888,13
584468,11
585048,18
585620,18
586196,20
586776,20
587348,15
587928,14
588500,14
589080,11
589660,11
590240,11
590812,15
591388,15
591968,17
592540,13
593120,11
593700,10
594280,10
594860,13
595436,14
596016,14
596588,14
597168,12
597740,10
598320,13
598900,11
599480,11
600060,10
600636,11
601216,11
601788,11
602368,11
602940,18
603520,20
604100,19
604676,18
605256,15
605828,12
606408,11
606980,11
607560,11
608140,12
608720,12
609296,11
609868,11
610448,12
611020,13
611600,14
612180,14
612760,15
613340,15
613916,15
614500,15
615068,12
615648,11
616220,11
616800,12
617368,11
617948,11
618528,11
619100,13
619680,17
620252,17
620832,15
621404,14
621984,15
622564,10
623140,11
623720,12
624292,10
624872,9
625392,10
625968,11
626540,10
627120,12
627700,10
628276,13
628856,15
629428,15
630008,15
630588,10
631168,12
631748,11
632324,13
632904,12
633476,11
634060,11
634632,11
635208,11
635788,13
636368,18
636952,17
637524,16
638104,16
638676,15
639260,11
639836,12
640420,13
640992,9
641508,9
642032,10
642600,11
643184,10
643756,13
644336,13
644908,15
645488,15
646056,15
646636,14
647216,11
647788,11
648368,11
648936,11
649520,11
650092,10
650672,11
651244,10
651820,12
652400,15
652972,19
653552,18
654124,19
654704,19
655276,18
655852,16
656432,15
657000,13
657584,11
658156,12
658736,9
659256,11
659832,11
660404,10
660976,11
661560,13
662132,15
662712,14
663284,15
663864,12
664436,11
665016,11
665588,10
666164,11
666744,11
667312,11
667896,13
668464,13
669048,13
669616,18
670192,18
670776,19
671344,19
671928,19
672500,16
673080,13
673648,11
674232,11
674804,13
675376,14
675960,11
676528,11
677112,10
677684,11
678264,13
678836,16
679408,19
679992,15
680564,14
681144,13
681712,11
682296,11
682864,13
683448,11
684020,11
684592,15
685176,16
685748,14
686328,17
686896,14
687480,13
688052,14
688624,15
689208,14
689780,20
690360,22
690932,19
691512,11
692092,24
692672,31
693244,23
693820,10
694400,15
694968,15
695552,13
696124,14
696704,13
697276,13
697852,11
698432,11
699004,10
699584,11
700156,11
700736,11
701316,12
701896,18
702480,19
703052,19
703632,19
704204,17
704784,13
705356,14
705936,9
706456,10
707028,10
707608,11
708180,11
708760,10
709332,10
709912,9
710432,10
711008,11
711580,13
712156,14
712736,14
713308,13
713888,12
714460,11
715040,10
715612,10
716192,11
716772,12
717348,12
717928,11
718500,11
719080,15
719652,19
720232,17
720800,15
721376,16
721960,18
722528,15
723112,14
723684,10
724264,12
724836,11
725416,11
725988,12
726564,14
727144,14
727716,11
728296,13
728868,14
729448,13
730020,15
730596,12
731176,10
731748,11
732328,11
732900,11
733480,11
734052,11
734632,11
735212,11
735788,12
736368,18
736940,20
737520,19
738088,18
738672,16
739244,13
739816,13
740400,10
740972,11
741552,11
742124,11
742704,14
743284,13
743864,10
744436,12
745012,14
745592,14
746164,15
746744,15
747316,13
747896,13
748476,12
749052,11
749632,11
750204,10
750784,16
751356,20
751940,22
752516,30
753096,30
753680,20
754252,14
754832,14
755404,15
755984,9
756504,12
757080,10
757652,10
758228,10
758808,10
759380,11
759960,11
760532,14
761112,12
761684,13
762264,13
762836,18
763412,19
763992,11
764568,15
765144,20
765724,18
766304,15
766884,11
767460,14
768044,18
768612,19
769192,17
769764,18
770344,15
770916,14
771496,15
772068,15
772644,12
773224,11
773796,10
774376,11
774948,10
775528,13
776100,15
776676,16
777256,16
777828,14
778408,13
778980,13
779560,15
780132,18
780712,16
781292,13
781868,12
782448,14
783020,11
783600,11
784180,10
784760,11
785332,11
785908,12
786488,17
787060,18
787640,16
788212,15
788792,16
789372,12
789952,11
790536,12
791108,12
791688,10
792260,12
792840,11
793420,11
794004,11
794580,11
795156,14
795736,15
796312,19
796888,19
797468,13
798048,12
798628,11
799204,15
799784,17
800360,19
800936,18
801508,20
802088,19
802656,16
803240,13
803808,15
804388,15
804968,15
805540,15
806120,10
806692,12
807272,9
807792,11
808368,12
808940,11
809516,12
810096,10
810668,10
811248,18
811828,22
812408,16
812988,14
813564,15
814144,10
814716,10
815296,12
815868,12
816448,13
817028,11
817608,11
818192,10
818764,11
819344,11
819916,15
820496,19
821064,20
821640,21
822208,21
822784,18
823368,13
823936,11
824520,11
825088,12
825672,15
826240,16
826824,14
827400,13
827968,14
828552,13
829124,14
829704,15
830272,15
830856,10
831424,11
832004,11
832584,11
833152,10
833728,11
834296,12
834880,11
835448,11
836032,13
836600,15
837176,15
837760,14
838328,14
838912,12
839484,12
840064,13
840632,12
841200,10
841784,16
842352,13
842936,11
843504,10
844088,11
844656,13
845240,15
845808,15
846384,15
846968,16
847536,15
848120,16
848688,15
849272,10
849844,11
850420,11
851000,15
851572,13
852152,11
852724,17
853304,17
853876,16
854456,17
855024,19
855604,18
856184,19
856756,18
857336,15
857908,11
858488,9
859008,14
859584,13
860156,13
860732,15
861312,26
861884,23
862464,16
863036,15
863616,14
864196,15
864768,21
865352,17
865920,17
866504,18
867076,14
867656,11
868228,13
868808,14
869384,16
869956,15
870536,15
871108,17
871688,17
872256,15
872840,12
873408,11
873988,10
874568,11
875136,11
875720,13
876292,12
876872,10
877444,11
878024,13
878600,13
879172,14
879752,13
880328,14
880904,10
881472,12
882056,10
882628,11
883204,11
883784,12
884356,14
884936,11
885508,18
886088,21
886660,19
887240,13
887816,15
888388,19
888968,22
889540,24
890120,21
890700,18
891280,14
891860,10
892436,11
893016,14
893588,12
894168,14
894748,17
895328,15
895908,14
896484,14
897064,14
897632,11
898216,11
898788,11
899368,11
899940,11
900520,11
901092,11
901668,19
902248,19
902820,15
903400,17
903972,17
904552,15
905124,13
905700,11
906280,11
906852,10
907432,10
908004,10
908584,9
909104,10
909680,10
910252,11
910828,12
911408,15
911980,15
912560,13
913132,14
913712,15
914284,15
914864,15
915436,16
916012,14
916592,11
917164,11
917744,11
918316,11
918900,13
919476,12
920052,13
920632,14
921204,14
921784,15
922356,17
922936,19
923508,12
924088,10
924668,10
925244,10
925824,11
926396,11
926976,11
927556,12
928136,14
928712,15
929292,18
929872,15
930444,13
931024,11
931596,12
932176,11
932756,11
933332,12
933912,13
934484,12
935064,10
935636,11
936216,13
936796,14
937376,14
937956,13
938532,15
939112,15
939688,15
940264,17
940836,15
941416,11
941988,11
942564,15
943144,12
943716,11
944296,14
944868,14
945448,13
946020,17
946600,19
947180,16
947756,14
948336,10
948908,11
949488,12
950060,11
950640,11
951220,11
951796,12
952380,16
952952,19
953528,17
954104,15
954680,19
955260,22
955840,22
956424,17
956996,13
957576,10
958152,11
958732,15
959308,15
959892,13
960468,10
961044,11
961624,13
962196,14
962776,15
963356,14
963936,13
964508,13
965084,13
965664,11
966236,10
966816,11
967388,18
967968,20
968540,20
969120,21
969692,23
970268,17
970848,14
971420,14
972000,17
972580,14
973160,14
973740,11
974316,10
974896,11
975468,12
976048,13
976620,13
977200,12
977780,11
978360,14
978940,15
979516,14
980096,13
980668,12
981248,11
981820,11
982400,11
982980,11
983556,11
984136,12
984708,12
985288,13
985860,11
986440,13
987008,14
987592,13
988168,14
988736,18
989320,14
989892,11
990472,10
991052,10
991632,13
992212,12
992788,11
993368,11
993936,15
994520,11
995092,14
995672,15
996252,14
996828,15
997408,14
997980,11
998560,11
999132,12
999712,11
1000284,10
1000908,12
1001540,11
1002160,15
1002788,20
1003412,28
1004036,25
1004668,18
1005288,15
1005916,13
1006540,12
1007164,10
1007792,12
1008412,14
1009040,11
1009660,10
1010288,11
1010916,11
1011540,15
1012168,14
1012800,14
1013416,16
1014044,12
1014668,11
1015296,10
1015928,10
1016544,11
1017172,10
1017796,11
1018420,14
1019052,18
1019672,17
1020300,21
1020924,19
1021552,18
1022180,15
1022808,13
1023436,10
1024068,10
1024684,11
1025312,11
1025932,14
1026560,18
1027188,10
1027808,11
1028436,13
1029056,13
1029676,17
1030308,14
1030928,12
1031556,10
1032176,11
1032800,11
1033428,11
1034052,11
1034680,15
1035308,18
1035928,19
1036556,19
1037180,16
1037808,15
1038436,14
1039052,12
1039684,11
1040304,10
1040928,12
1041556,11
1042176,13
1042804,12
1043424,12
1044048,13
1044676,13
1045292,13
1045924,14
1046552,15
1047168,15
1047796,10
1048420,11
1049048,15
1049676,14
1050292,10
1050920,11
1051544,11
1052168,11
1052796,14
1053416,16
1054044,15
1054668,15
1055292,15
1055920,11
1056536,11
1057164,12
1057788,10
1058416,11
1059044,12
1059668,12
1060296,12
1060924,13
1061544,14
1062172,13
1062796,14
1063424,15
1064052,11
1064672,12
1065300,11
1065924,12
1066544,12
1067172,12
1067792,12
1068420,11
1069044,11
1069664,14
1070296,19
1070916,21
1071548,18
1072176,15
1072792,12
1073420,10
1074044,11
1074672,10
1075304,10
1075920,15
1076548,19
1077168,11
1077792,12
1078420,12
1079036,13
1079668,14
1080292,15
1080916,12
1081544,11
1082160,11
1082788,11
1083416,10
1084040,12
1084668,11
1085292,12
1085920,14
1086548,16
1087168,15
1087796,14
1088420,17
1089040,21
1089668,18
1090284,11
1090916,10
1091536,11
1092160,11
1092788,10
1093408,11
1094036,11
1094668,12
1095288,18
1095916,15
1096540,14
1097168,13
1097800,12
1098416,15
1099044,15
1099668,14
1100292,11
1100924,12
1101544,14
1102172,11
1102796,17
1103420,25
1104048,22
1104664,17
1105296,18
1105916,15
1106544,15
1107172,12
1107796,11
1108428,13
1109056,16
1109672,19
1110304,17
1110928,12
1111556,13
1112188,12
1112808,14
1113436,15
1114060,12
1114684,11
1115316,10
1115936,11
1116564,11
1117196,10
1117816,17
1118444,20
1119068,16
1119700,18
1120328,20
1120952,21
1121580,15
1122204,14
1122828,11
1123456,10
1124072,11
1124704,12
1125328,10
1125952,12
1126580,15
1127196,15
1127828,11
1128456,12
1129072,13
1129700,15
1130324,15
1130952,12
1131580,10
1132200,11
1132828,11
1133448,10
1134080,13
1134708,16
1135328,14
1135956,11
1136584,17
1137204,26
1137836,28
1138456,22
1139084,16
1139708,10
1140336,11
1140964,11
1141588,11
1142220,11
1142848,10
1143468,11
1144096,12
1144720,13
1145348,14
1145980,14
1146600,13
1147228,13
1147852,11
1148476,12
1149104,12
1149720,10
1150352,13
1150980,11
1151600,11
1152232,13
1152852,15
1153480,17
1154108,16
1154728,16
1155356,14
1155980,11
1156608,11
1157236,12
1157856,13
1158484,12
1159104,16
1159728,12
1160356,11
1160976,13
1161604,15
1162224,14
1162848,13
1163480,13
1164104,12
1164732,14
1165364,12
1165984,10
1166612,11
1167236,11
1167868,12
1168496,15
1169112,15
1169740,17
1170364,17
1170988,15
1171616,20
1172240,23
1172868,16
1173492,11
1174116,10
1174744,10
1175368,11
1176000,13
1176628,20
1177248,19
1177876,13
1178500,13
1179132,14
1179760,14
1180376,14
1181008,12
1181632,18
1182252,17
1182884,13
1183504,11
1184132,11
1184756,12
1185380,15
1186012,16
1186632,15
1187264,14
1187892,14
1188512,17
1189140,16
1189764,14
1190392,11
1191024,12
1191640,10
1192268,11
1192892,11
1193516,11
1194148,10
1194768,14
1195396,15
1196020,13
1196644,13
1197276,14
1197900,13
1198532,12
1199160,11
1199784,10
1200412,13
1201036,11
1201668,11
1202296,11
1202912,17
1203544,21
1204168,18
1204788,15
1205420,14
1206040,13
1206668,11
1207292,10
1207920,11
1208548,10
1209172,10
1209804,11
1210432,11
1211048,13
1211676,14
1212300,15
1212932,15
1213560,14
1214184,13
1214812,15
1215436,10
1216060,11
1216692,11
1217312,12
1217940,11
1218568,10
1219192,11
1219820,18
1220444,17
1221076,14
1221704,14
1222328,21
1222960,23
1223580,18
1224208,13
1224836,10
1225456,11
1226084,12
1226708,11
1227336,11
1227964,10
1228584,13
1229216,13
1229844,14
1230460,15
1231092,15
1231716,16
1232344,12
1232972,10
1233592,11
1234220,17
1234844,19
1235468,16
1236096,16
1236712,22
1237340,17
1237964,14
1238588,13
1239216,12
1239840,13
1240468,10
1241096,10
1241720,11
1242348,10
1242972,11
1243600,11
1244228,10
1244848,13
1245476,14
1246100,15
1246724,16
1247356,14
1247976,12
1248608,12
1249228,13
1249852,11
1250484,15
1251104,18
1251732,18
1252364,16
1252984,15
1253612,18
1254236,15
1254868,14
1255496,14
1256112,10
1256744,12
1257368,11
1257992,11
1258620,11
1259240,13
1259868,12
1260492,10
1261116,11
1261748,15
1262368,15
1262996,14
1263628,12
1264248,12
1264876,15
1265500,16
1266132,13
1266760,12
1267384,13
1268012,11
1268636,11
1269260,13
1269892,18
1270512,17
1271140,17
1271764,19
1272388,15
1273020,10
1273640,13
1274268,15
1274900,12
1275520,11
1276148,10
1276772,11
1277404,11
1278036,11
1278656,15
1279288,15
1279912,14
1280536,14
1281164,10
1281780,10
1282408,11
1283032,14
1283656,14
1284284,10
1284900,12
1285532,16
1286160,19
1286776,21
1287404,16
1288028,15
1288656,18
1289284,14
1289904,11
1290532,10
1291156,11
1291780,11
1292412,10
1293032,12
1293660,16
1294280,22
1294904,17
1295532,14
1296152,13
1296780,15
1297404,16
1298024,17
1298652,16
1299276,12
1299908,12
1300536,11
1301152,13
1301780,15
1302404,13
1303032,13
1303660,13
1304280,15
1304908,13
1305532,15
1306156,14
1306788,12
1307408,12
1308036,11
1308660,16
1309284,21
1309912,15
1310536,12
1311164,13
1311796,16
1312416,13
1313044,17
1313664,18
1314292,14
1314920,11
1315536,11
1316164,11
1316784,11
1317408,11
1318036,12
1318656,14
1319284,16
1319904,15
1320528,14
1321156,13
1321772,13
1322404,17
1323032,20
1323648,20
1324276,17
1324900,13
1325528,11
1326156,10
1326776,11
1327404,13
1328028,14
1328648,14
1329276,13
1329896,14
1330524,14
1331148,11
1331772,16
1332400,10
1333020,13
1333652,15
1334280,14
1334896,12
1335524,11
1336148,11
1336776,18
1337404,23
1338024,24
1338652,24
1339272,20
1339904,13
1340532,10
1341152,12
1341780,11
1342404,10
1343024,11
1343652,11
1344272,14
1344900,19
1345520,14
1346144,15
1346772,19
1347396,18
1348024,18
1348652,12
1349272,11
1349900,12
1350524,11
1351152,11
1351780,11
1352400,15
1353028,14
1353648,13
1354272,15
1354900,18
1355520,19
1356148,17
1356772,11
1357396,10
1358024,10
1358640,10
1359272,12
1359900,11
1360520,16
1361148,14
1361772,16
1362400,17
1363028,16
1363648,15
1364276,11
1364896,10
1365520,11
1366148,16
1366768,15
1367396,14
1368020,16
1368640,19
1369268,16
1369888,14
1370516,13
1371144,14
1371768,15
1372396,14
1373020,10
1373648,12
1374280,16
1374896,14
1375524,10
1376148,11
1376772,13
1377404,10
1378024,11
1378652,13
1379276,14
1379896,13
1380528,13
1381144,11
1381772,10
1382396,10
1383024,13
1383652,14
1384276,16
1384904,19
1385532,17
1386152,14
1386780,15
1387404,17
1388032,22
1388664,19
1389280,15
1389908,10
1390532,11
1391156,11
1391788,15
1392408,13
1393036,10
1393660,10
1394288,12
1394916,13
1395540,14
1396168,18
1396796,14
1397416,13
1398044,10
1398668,11
1399296,11
1399928,11
1400544,11
1401172,11
1401796,11
1402420,14
1403048,20
1403664,24
1404296,17
1404920,14
1405540,14
1406172,12
1406796,17
1407424,14
1408056,10
1408672,9
1409248,10
1409872,10
1410500,11
1411128,11
1411744,14
1412376,15
1413000,14
1413628,13
1414256,11
1414880,10
1415508,12
1416132,11
1416756,12
1417384,13
1418000,11
1418632,15
1419256,17
1419876,25
1420508,23
1421132,19
1421760,17
1422388,18
1423008,19
1423636,13
1424260,10
1424892,12
1425520,12
1426136,10
1426768,17
1427392,16
1428016,13
1428644,14
1429264,15
1429892,15
1430516,15
1431140,11
1431772,11
1432396,11
1433028,10
1433656,11
1434272,11
1434900,15
1435524,18
1436152,15
1436780,16
1437400,18
1438028,20
1438652,18
1439276,13
1439908,11
1440528,11
1441156,11
1441780,13
1442400,11
1443032,11
1443652,11
1444284,13
1444912,14
1445528,13
1446156,14
1446780,14
1447408,15
1448036,10
1448656,11
1449284,10
1449904,10
1450528,11
1451156,10
1451776,16
1452404,18
1453028,27
1453652,24
1454280,14
1454904,15
1455532,16
1456160,11
1456784,20
1457412,15
1458036,14
1458664,12
1459296,11
1459912,17
1460540,17
1461164,12
1461788,13
1462416,13
1463032,15
1463660,15
1464288,17
1464908,16
1465540,12
1466160,11
1466788,11
1467420,10
1468040,11
1468668,11
1469292,11
1469924,14
1470552,16
1471172,16
1471800,16
1472428,17
1473048,17
1473680,12
1474296,11
1474924,10
1475548,10
1476172,10
1476800,14
1477416,17
1478044,15
1478676,16
1479296,15
1479924,14
1480548,14
1481176,11
1481804,10
1482424,13
1483052,13
1483676,11
1484300,12
1484928,13
1485544,14
1486172,14
1486796,17
1487420,13
1488048,14
1488664,15
1489292,13
1489916,11
1490540,11
1491168,12
1491792,10
1492420,10
1493052,12
1493672,13
1494300,11
1494924,13
1495556,16
1496184,18
1496808,13
1497436,16
1498060,15
1498684,11
1499312,12
1499936,11
1500564,15
1501196,11
1501816,12
1502444,12
1503068,15
1503700,18
1504328,14
1504952,15
1505580,17
1506204,22
1506828,23
1507460,19
1508080,16
1508708,15
1509332,16
1509956,11
1510588,10
1511208,15
1511836,17
1512468,14
1513088,14
1513716,14
1514340,11
1514972,13
1515604,14
1516224,14
1516852,13
1517476,13
1518100,12
1518728,11
1519352,11
1519984,15
1520608,19
1521232,22
1521860,21
1522480,17
1523108,13
1523740,10
1524360,11
1524988,11
1525612,11
1526244,10
1526872,10
1527496,12
1528124,11
1528748,14
1529376,17
1530004,14
1530624,15
1531256,11
1531880,11
1532504,11
1533132,12
1533752,15
1534384,13
1535016,12
1535632,16
1536264,22
1536888,21
1537516,17
1538144,15
1538760,14
1539392,11
1540012,10
1540636,10
1541264,10
1541888,11
1542516,11
1543140,11
1543764,11
1544392,10
1545008,13
1545640,14
1546268,12
1546888,14
1547516,13
1548140,11
1548768,11
1549400,10
1550016,11
1550648,12
1551272,12
1551896,11
1552524,12
1553144,13
1553772,17
1554396,16
1555020,17
1555652,16
1556272,15
1556900,11
1557532,10
1558152,11
1558780,10
1559404,12
1560036,12
1560664,11
1561280,12
1561912,13
1562532,14
1563156,14
1563788,14
1564408,11
1565036,11
1565660,10
1566284,11
1566912,12
1567536,12
1568164,12
1568792,10
1569416,13
1570044,18
1570668,22
1571296,22
1571928,24
1572544,19
1573172,10
1573796,13
1574420,17
1575052,16
1575672,12
1576304,12
1576928,11
1577552,13
1578180,12
1578800,13
1579428,14
1580060,16
1580680,13
1581308,12
1581932,11
1582564,11
1583196,10
1583816,11
1584448,11
1585072,12
1585696,18
1586324,12
1586944,15
1587576,14
1588196,13
1588820,13
1589452,16
1590072,19
1590704,15
1591332,12
1591952,15
1592584,14
1593208,11
1593836,15
1594468,16
1595088,19
1595716,16
1596344,14
1596968,15
1597596,12
1598216,12
1598844,13
1599468,11
1600096,11
1600724,11
1601344,17
1601972,21
1602600,17
1603216,17
1603844,15
1604464,14
1605096,15
1605724,16
1606344,17
1606972,14
1607596,11
1608220,11
1608848,10
1609464,11
1610092,12
1610716,13
1611340,11
1611968,12
1612592,15
1613220,15
1613852,14
1614472,11
1615100,10
1615724,11
1616352,11
1616984,10
1617600,11
1618228,12
1618852,15
1619476,16
1620104,19
1620720,22
1621352,21
1621976,16
1622600,13
1623228,10
1623848,11
1624476,10
1625104,11
1625728,11
1626356,11
1626980,10
1627608,11
1628240,12
1628856,14
1629484,13
1630108,13
1630732,14
1631360,10
1631984,13
1632616,11
1633240,11
1633864,11
1634492,12
1635112,13
1635744,17
1636372,24
1636992,25
1637620,18
1638244,16
1638876,15
1639504,13
1640120,12
1640748,10
1641372,10
1641992,10
1642620,10
1643236,11
1643864,11
1644488,14
1645108,22
1645736,25
1646356,20
1646988,15
1647608,12
1648232,17
1648860,23
1649480,19
1650108,11
1650736,14
1651360,19
1651988,11
1652608,19
1653236,23
1653864,23
1654480,19
1655108,15
1655732,15
1656352,12
1656980,10
1657600,11
1658228,10
1658848,10
1659472,10
1660104,10
1660720,13
1661348,13
1661976,14
1662592,14
1663224,16
1663848,15
1664476,11
1665104,11
1665720,11
1666348,10
1666968,10
1667592,11
1668220,12
1668836,11
1669464,14
1670088,23
1670708,22
1671340,16
1671960,15
1672588,16
1673212,15
1673832,21
1674464,23
1675084,14
1675712,10
1676344,11
1676960,13
1677588,12
1678212,14
1678840,15
1679468,16
1680088,15
1680712,14
1681336,12
1681956,11
1682584,11
1683204,16
1683832,12
1684456,11
1685080,13
1685708,16
1686328,20
1686956,22
1687584,16
1688204,14
1688832,14
1689452,11
1690084,10
1690712,12
1691328,12
1691956,10
1692580,11
1693200,10
1693832,11
1694448,11
1695076,19
1695700,21
1696324,14
1696952,14
1697568,15
1698196,15
1698824,13
1699440,12
1700072,11
1700692,11
1701320,13
1701952,11
1702568,11
1703196,16
1703820,27
1704448,22
1705076,18
1705696,15
1706324,10
1706944,10
1707568,10
1708196,10
1708816,19
1709444,17
1710064,12
1710692,10
1711320,12
1711944,13
1712572,16
1713204,16
1713824,14
1714452,13
1715076,15
1715708,17
1716336,13
1716956,12
1717584,11
1718208,11
1718832,11
1719460,11
1720080,17
1720708,21
1721332,20
1721956,14
1722584,15
1723208,11
1723836,14
1724464,10
1725080,10
1725712,13
1726336,12
1726964,11
1727592,10
1728216,12
1728844,12
1729464,14
1730088,15
1730716,13
1731336,11
1731964,10
1732588,12
1733208,11
1733840,10
1734456,12
1735084,15
1735712,13
1736336,13
1736964,17
1737588,15
1738216,15
1738844,16
1739464,17
1740092,19
1740716,15
1741344,13
1741972,16
1742592,13
1743220,14
1743844,13
1744468,10
1745096,13
1745712,13
1746340,15
1746972,14
1747592,13
1748220,13
1748844,11
1749472,11
1750100,11
1750720,13
1751348,11
1751972,11
1752596,12
1753228,12
1753848,18
1754476,19
1755100,23
1755724,14
1756352,10
1756976,15
1757604,11
1758236,12
1758856,11
1759484,10
1760108,10
1760740,11
1761368,11
1761984,14
1762612,14
1763236,16
1763856,16
1764488,12
1765104,11
1765732,11
1766356,12
1766980,11
1767608,10
1768232,11
1768860,11
1769488,11
1770104,18
1770736,17
1771360,15
1771988,14
1772620,13
1773240,11
1773868,11
1774492,11
1775116,17
1775748,12
1776368,15
1776996,19
1777620,12
1778244,13
1778872,13
1779492,13
1780120,14
1780748,15
1781368,11
1781996,11
1782620,11
1783252,11
1783880,11
1784496,10
1785128,13
1785752,11
1786376,12
1787004,18
1787624,22
1788252,19
1788876,17
1789500,18
1790132,12
1790752,12
1791384,12
1792012,13
1792628,12
1793260,9
1793828,10
1794460,11
1795088,19
1795712,24
1796340,17
1796964,14
1797592,14
1798224,15
1798840,13
1799468,11
1800092,10
1800716,11
1801344,15
1801964,17
1802592,17
1803212,17
1803836,19
1804464,16
1805088,15
1805716,13
1806344,12
1806960,15
1807592,14
1808212,10
1808844,11
1809472,11
1810088,11
1810716,11
1811340,11
1811968,14
1812600,14
1813216,14
1813844,14
1814468,12
1815092,11
1815720,11
1816336,11
1816964,10
1817588,11
1818212,13
1818840,18
1819464,20
1820096,23
1820724,16
1821344,15
1821972,14
1822596,15
1823228,12
1823856,12
1824476,10
1825104,13
1825728,13
1826348,12
1826980,10
1827600,11
1828228,11
1828852,13
1829476,14
1830104,13
1830728,13
1831360,11
1831988,11
1832608,12
1833236,11
1833860,12
1834492,15
1835120,13
1835740,13
1836368,12
1836992,18
1837616,16
1838244,15
1838864,16
1839492,16
1840120,23
1840740,27
1841372,22
1841996,10
1842624,18
1843256,27
1843872,25
1844500,13
1845120,13
1845752,16
1846380,16
1847000,16
1847628,15
1848252,11
1848876,11
1849504,10
1850120,10
1850752,11
1851376,11
1851996,11
1852628,11
1853252,12
1853884,15
1854512,14
1855128,14
1855760,15
1856384,17
1857012,18
1857640,13
1858264,11
1858892,12
1859516,11
1860140,11
1860768,10
1861384,11
1862016,15
1862640,13
1863264,15
1863892,16
1864516,12
1865144,12
1865772,13
1866392,15
1867020,16
1867644,17
1868272,19
1868904,16
1869520,16
1870148,14
1870772,14
1871396,14
1872024,15
1872648,15
1873276,13
1873900,11
1874524,10
1875152,12
1875780,14
1876408,14
1877036,10
1877656,10
1878284,12
1878912,14
1879540,13
1880172,12
1880792,15
1881420,11
1882048,13
1882672,12
1883300,11
1883920,14
1884548,13
1885172,11
1885796,11
1886428,12
1887052,21
1887680,21
1888308,14
1888928,15
1889556,14
1890180,11
1890812,15
1891440,20
1892056,17
1892688,12
1893312,12
1893936,19
1894568,17
1895184,15
1895812,15
1896436,19
1897060,16
1897688,13
1898312,11
1898940,11
1899572,14
1900192,17
1900820,21
1901444,18
1902076,14
1902704,15
1903328,18
1903960,18
1904584,17
1905208,17
1905836,15
1906456,11
1907084,11
1907712,10
1908336,11
1908964,13
1909588,12
1910220,10
1910852,14
1911472,15
1912104,13
1912728,14
1913352,18
1913980,16
1914600,13
1915232,11
1915856,11
1916480,11
1917108,10
1917728,11
1918360,11
1918992,12
1919608,14
1920240,18
1920864,21
1921492,17
1922120,16
1922744,17
1923372,14
1923996,10
1924620,10
1925248,11
1925864,10
1926496,13
1927116,16
1927740,13
1928372,10
1928992,13
1929620,14
1930248,13
1930864,15
1931492,11
1932116,11
1932748,10
1933380,11
1934000,11
1934628,11
1935252,13
1935880,15
1936508,15
1937128,15
1937756,16
1938380,15
1939004,16
1939636,16
1940256,14
1940884,10
1941516,11
1942136,11
1942764,11
1943392,13
1944020,14
1944652,12
1945272,16
1945904,17
1946524,22
1947148,16
1947780,12
1948400,12
1949028,15
1949652,15
1950276,13
1950908,14
1951528,16
1952156,13
1952788,10
1953408,16
1954036,21
1954660,21
1955292,27
1955920,30
1956540,24
1957168,13
1957792,14
1958416,16
1959044,14
1959664,12
1960292,13
1960916,11
1961540,11
1962172,12
1962792,13
1963424,15
1964052,14
1964672,12
1965304,12
1965928,11
1966556,11
1967188,10
1967808,12
1968436,11
1969060,11
1969684,11
1970312,15
1970928,17
1971556,19
1972180,18
1972804,16
1973432,12
1974048,11
1974680,11
1975308,10
1975928,11
1976556,10
1977180,11
1977812,10
1978440,12
1979056,14
1979684,13
1980308,13
1980936,14
1981564,10
1982184,11
1982812,11
1983436,11
1984060,14
1984688,11
1985312,11
1985940,16
1986568,22
1987184,28
1987816,25
1988440,21
1989068,20
1989700,18
1990320,13
1990948,11
1991572,13
1992200,17
1992828,12
1993448,11
1994076,12
1994700,11
1995328,14
1995956,12
1996576,13
1997208,13
1997836,12
1998456,11
1999084,11
1999708,12
2000340,15
2000968,11
2001584,11
2002212,12
2002836,11
2003460,15
2004092,18
2004712,27
2005340,21
2005964,16
2006588,13
2007220,10
2007840,11
2008468,11
2009096,10
2009716,12
2010344,11
2010968,12
2011596,14
2012224,14
2012848,14
2013476,14
2014100,13
2014728,11
2015356,10
2015976,11
2016608,10
2017232,11
2017856,11
2018484,11
2019104,11
2019732,11
2020364,15
2020984,16
2021612,14
2022236,14
2022868,12
2023496,10
2024120,13
2024748,17
2025372,17
2025996,12
2026628,10
2027248,11
2027876,11
2028500,13
2029124,13
2029756,14
2030376,15
2031008,13
2031636,10
2032256,11
2032884,11
2033508,11
2034140,10
2034768,10
2035392,14
2036020,13
2036644,17
2037268,21
2037900,16
2038520,15
2039148,15
2039772,13
2040400,12
2041028,10
2041648,9
2042224,12
2042856,11
2043480,11
2044112,10
2044728,12
2045360,15
2045988,13
2046608,14
2047240,14
2047864,13
2048496,12
2049124,10
2049740,11
2050368,11
2050988,11
2051612,13
2052240,14
2052856,17
2053484,18
2054104,15
2054728,15
2055356,13
2055976,14
2056604,11
2057232,10
2057848,12
2058476,12
2059100,12
2059728,15
2060356,16
2060976,17
2061604,12
2062224,14
2062852,14
2063480,17
2064096,19
2064724,15
2065348,15
2065968,12
2066600,12
2067216,11
2067844,10
2068464,11
2069088,13
2069716,15
2070340,21
2070972,17
2071600,14
2072216,13
2072848,13
2073468,10
2074100,10
2074728,11
2075344,11
2075972,11
2076596,11
2077220,10
2077848,10
2078472,12
2079100,13
2079724,15
2080348,16
2080976,15
2081592,13
2082220,13
2082848,10
2083472,14
2084100,12
2084720,16
2085352,21
2085980,18
2086600,17
2087228,16
2087852,14
2088472,13
2089104,13
2089720,14
2090348,16
2090968,13
2091592,13
2092220,12
2092840,15
2093468,14
2094096,12
2094712,12
2095340,13
2095964,14
2096596,15
2097224,14
2097840,13
2098468,11
2099092,11
2099720,11
2100348,10
2100968,13
2101596,11
2102220,12
2102844,15
2103472,17
2104088,19
2104716,17
2105340,14
2105968,15
2106596,14
2107220,13
2107848,11
2108476,10
2109096,11
2109724,10
2110348,13
2110980,12
2111608,11
2112228,14
2112856,14
2113476,15
2114100,16
2114728,14
2115352,14
2115980,10
2116604,12
2117232,14
2117860,12
2118484,14
2119112,18
2119740,19
2120360,24
2120988,24
2121612,21
2122240,21
2122868,13
2123488,11
2124116,10
2124740,10
2125364,11
2125996,10
2126616,11
2127244,11
2127868,10
2128496,11
2129124,13
2129748,13
2130376,14
2131008,13
2131624,11
2132252,11
2132876,10
2133504,10
2134132,10
2134752,11
2135380,11
2136004,14
2136628,18
2137256,21
2137876,18
2138504,14
2139128,14
2139752,12
2140380,12
2141004,11
2141632,10
2142260,13
2142880,14
2143508,10
2144132,11
2144764,11
2145392,15
2146008,15
2146640,15
2147260,13
2147884,13
2148516,11
2149136,11
2149764,11
2150388,13
2151016,18
2151644,16
2152268,17
2152896,22
2153524,19
2154144,20
2154772,18
2155396,17
2156028,17
2156656,18
2157272,11
2157904,12
2158528,14
2159152,15
2159780,14
2160400,18
2161028,17
2161652,12
2162276,14
2162904,14
2163528,14
2164156,14
2164784,12
2165408,14
2166036,13
2166660,12
2167292,13
2167920,14
2168540,14
2169168,14
2169792,12
2170416,15
2171044,14
2171664,15
2172292,17
2172916,14
2173540,12
2174172,12
2174796,10
2175424,14
2176056,12
2176668,12
2177300,11
2177920,10
2178548,13
2179176,14
2179800,15
2180428,16
2181052,13
2181676,11
2182304,12
2182928,15
2183556,19
2184180,17
2184804,11
2185432,14
2186056,13
2186684,11
2187316,15
2187936,14
2188564,14
2189188,15
2189820,14
2190448,11
2191068,11
2191696,12
2192320,19
2192944,15
2193572,10
2194192,11
2194820,11
2195444,15
2196068,13
2196700,13
2197324,13
2197952,12
2198584,11
2199200,12
2199832,15
2200456,11
2201084,10
2201716,10
2202336,12
2202964,13
2203588,19
2204212,19
2204840,16
2205456,14
2206088,15
2206712,13
2207336,11
2207964,11
2208592,11
2209220,10
2209852,10
2210472,10
2211100,11
2211728,11
2212356,13
2212988,14
2213608,15
2214236,15
2214860,12
2215484,11
2216112,12
2216736,13
2217364,13
2217996,14
2218616,14
2219244,11
2219868,11
2220500,15
2221128,14
2221752,14
2222384,14
2223008,12
2223632,17
2224260,24
2224880,21
2225508,13
2226132,10
2226756,13
2227388,19
2228008,14
2228636,15
2229268,14
2229888,14
2230516,14
2231140,13
2231772,10
2232404,10
2233024,11
2233652,11
2234276,11
2234900,11
2235532,10
2236152,15
2236784,19
2237408,21
2238032,15
2238664,15
2239280,15
2239912,17
2240544,15
2241160,11
2241788,11
2242412,14
2243040,13
2243672,14
2244288,19
2244916,16
2245540,13
2246164,13
2246796,13
2247416,15
2248044,11
2248668,11
2249292,11
2249924,10
2250544,11
2251172,11
2251804,10
2252424,12
2253056,15
2253676,20
2254304,20
2254936,20
2255552,18
2256180,14
2256804,13
2257428,16
2258056,16
2258672,12
2259304,12
2259924,10
2260548,13
2261176,12
2261800,12
2262428,14
2263056,14
2263680,14
2264308,13
2264932,11
2265564,11
2266192,10
2266816,13
2267444,11
2268068,12
2268692,11
2269324,14
2269944,19
2270572,20
2271200,17
2271824,17
2272452,15
2273072,15
2273700,16
2274332,13
2274952,12
2275580,13
2276204,12
2276836,11
2277464,13
2278088,19
2278716,21
2279340,18
2279964,13
2280596,14
2281216,14
2281844,11
2282468,15
2283092,12
2283724,10
2284344,12
2284972,11
2285604,10
2286224,12
2286852,15
2287476,25
2288108,24
2288736,17
2289360,17
2289988,13
2290612,11
2291236,11
2291868,10
2292488,13
2293116,11
2293744,16
2294368,20
2294996,15
2295620,13
2296252,14
2296880,14
2297500,14
2298128,13
2298752,12
2299380,14
2300012,12
2300632,11
2301264,12
2301888,13
2302512,11
2303140,11
2303760,15
2304392,20
2305012,17
2305636,14
2306264,15
2306888,13
2307516,11
2308144,10
2308768,11
2309396,10
2310020,14
2310652,15
2311280,13
2311896,13
2312528,13
2313152,14
2313776,13
2314404,14
2315024,11
2315652,12
2316276,12
2316900,11
2317528,12
2318152,11
2318780,11
2319412,10
2320032,13
2320660,20
2321284,21
2321912,17
2322540,15
2323160,11
2323792,11
2324416,11
2325040,12
2325668,12
2326288,11
2326916,14
2327540,19
2328164,17
2328796,15
2329420,13
2330052,14
2330680,13
2331296,13
2331928,11
2332552,14
2333180,17
2333812,17
2334432,9
2335012,13
2335640,12
2336264,12
2336892,10
2337512,13
2338140,14
2338764,16
2339388,20
2340020,16
2340640,15
2341268,14
2341900,12
2342520,11
2343148,10
2343772,16
2344404,17
2345032,12
2345656,14
2346284,14
2346908,14
2347532,13
2348160,10
2348784,15
2349416,18
2350040,20
2350664,17
2351296,12
2351912,11
2352544,12
2353176,11
2353792,17
2354424,16
2355048,15
2355680,15
2356308,22
2356928,20
2357556,10
2358180,11
2358804,11
2359436,10
2360056,13
2360684,12
2361308,11
2361932,11
2362564,12
2363184,14
2363812,14
2364444,14
2365064,11
2365696,11
2366316,15
2366948,13
2367580,12
2368200,13
2368828,11
2369452,12
2370076,15
2370704,16
2371328,15
2371956,15
2372584,13
2373208,15
2373836,14
2374456,17
2375084,13
2375716,10
2376336,11
2376964,10
2377588,11
2378220,10
2378848,17
2379472,19
2380104,15
2380728,14
2381352,14
2381980,11
2382600,11
2383228,11
2383852,11
2384480,11
2385108,11
2385732,11
2386364,12
2386992,14
2387612,20
2388240,19
2388864,18
2389492,19
2390124,18
2390744,15
2391376,11
2392000,10
2392624,11
2393252,10
2393872,11
2394504,11
2395128,12
2395752,14
2396384,16
2397008,14
2397636,15
2398268,10
2398888,11
2399516,15
2400144,14
2400772,11
2401404,14
2402024,12
2402652,14
2403276,14
2403900,17
2404528,15
2405152,15
2405780,15
2406412,12
2407028,13
2407660,12
2408284,10
2408912,11
2409540,11
2410160,11
2410788,12
2411412,12
2412040,13
2412668,14
2413288,15
2413916,13
2414540,16
2415168,11
2415796,13
2416416,12
2417044,11
2417676,12
2418296,11
2418924,15
2419548,15
2420180,24
2420808,25
2421424,25
2422056,18
2422680,17
2423304,17
2423932,12
2424552,11
2425180,10
2425808,11
2426432,11
2427060,10
2427680,11
2428308,11
2428940,14
2429560,17
2430192,15
2430816,17
2431444,13
2432076,11
2432696,12
2433324,12
2433948,11
2434572,11
2435200,10
2435824,13
2436452,14
2437076,23
2437704,24
2438332,22
2438952,17
2439580,14
2440212,10
2440832,12
2441460,12
2442084,11
2442716,11
2443348,10
2443968,11
2444600,14
2445224,13
2445848,13
2446476,14
2447096,16
2447728,15
2448352,11
2448976,13
2449604,14
2450224,19
2450856,15
2451484,12
2452104,13
2452736,13
2453360,12
2453988,14
2454620,13
2455240,14
2455872,13
2456496,13
2457120,12
2457752,11
2458368,11
2458996,10
2459620,11
2460240,11
2460872,11
2461488,11
2462116,13
2462744,12
2463368,14
2463996,15
2464620,15
2465248,12
2465880,11
2466496,12
2467124,14
2467748,13
2468372,13
2469000,12
2469624,13
2470252,17
2470876,21
2471500,18
2472132,14
2472752,15
2473380,11
2474012,10
2474632,11
2475260,11
2475884,13
2476516,11
2477144,12
2477768,14
2478396,12
2479024,13
2479648,14
2480276,15
2480896,15
2481524,16
2482148,12
2482772,10
2483400,10
2484024,11
2484652,11
2485280,13
2485900,17
2486528,21
2487152,22
2487780,24
2488412,16
2489032,13
2489660,13
2490284,12
2490908,10
2491536,12
2492156,15
2492784,12
2493412,10
2494036,12
2494668,10
2495288,12
2495920,13
2496548,13
2497168,14
2497796,16
2498420,15
2499052,14
2499680,11
2500300,11
2500928,19
2501552,21
2502176,16
2502804,11
2503424,19
2504052,24
2504676,22
2505300,18
2505932,17
2506552,24
2507180,24
2507812,16
2508432,11
2509064,20
2509684,19
2510316,16
2510944,18
2511568,14
2512196,14
2512820,18
2513444,16
2514076,13
2514696,14
2515324,12
2515948,11
2516576,13
2517204,13
2517828,11
2518460,11
2519088,12
2519712,15
2520340,20
2520964,21
2521596,18
2522228,15
2522848,16
2523476,11
2524104,11
2524728,11
2525356,10
2525976,11
2526608,10
2527236,11
2527856,11
2528488,11
2529112,15
2529740,15
2530372,14
2530992,15
2531624,13
2532248,14
2532872,11
2533504,11
2534120,10
2534752,12
2535376,13
2536000,15
2536628,15
2537248,19
2537880,17
2538508,15
2539128,15
2539760,14
2540384,11
2541012,14
2541644,14
2542264,15
2542892,10
2543520,11
2544144,12
2544772,10
2545392,17
2546024,18
2546648,14
2547272,16
2547900,16
2548520,13
2549148,11
2549780,10
2550400,15
2551028,18
2551656,13
2552288,12
2552916,11
2553536,12
2554168,14
2554792,14
2555416,13
2556048,13
2556668,13
2557300,14
2557924,16
2558552,20
2559184,23
2559804,18
2560436,10
2561064,11
2561680,11
2562308,13
2562928,15
2563556,17
2564188,18
2564804,15
2565432,10
2566056,11
2566680,11
2567308,10
2567928,13
2568556,14
2569180,19
2569800,20
2570432,20
2571048,17
2571676,16
2572304,14
2572928,14
2573556,12
2574180,11
2574808,13
2575436,10
2576056,14
2576684,25
2577308,21
2577928,11
2578560,17
2579176,17
2579804,13
2580428,14
2581052,14
2581684,12
2582304,13
2582932,11
2583560,12
2584184,16
2584812,12
2585436,12
2586064,13
2586696,14
2587312,15
2587940,17
2588564,15
2589188,14
2589820,12
2590440,19
2591068,26
2591692,19
2592316,11
2592944,11
2593568,14
2594196,11
2594828,12
2595448,19
2596076,18
2596700,13
2597332,14
2597960,13
2598576,11
2599208,11
2599832,11
2600456,13
2601084,11
2601704,16
2602332,19
2602956,12
2603580,11
2604208,13
2604828,14
2605456,20
2606080,14
2606704,11
2607332,14
2607956,21
2608588,18
2609216,12
2609840,14
2610468,13
2611092,14
2611720,25
2612348,32
2612968,18
2613596,21
2614220,18
2614844,13
2615476,11
2616096,17
2616724,15
2617356,16
2617976,18
2618604,11
2619228,12
2619860,12
2620488,18
2621112,22
2621744,16
2622364,18
2622988,22
2623616,19
2624240,12
2624868,10
2625488,13
2626108,13
2626740,11
2627356,13
2627988,11
2628616,15
2629232,14
2629860,14
2630484,13
2631112,15
2631740,11
2632360,11
2632988,12
2633608,12
2634236,11
2634868,11
2635488,16
2636116,14
2636740,13
2637364,15
2637992,15
2638616,16
2639244,16
2639868,12
2640496,11
2641124,10
2641748,10
2642376,12
2643004,12
2643624,11
2644252,11
2644872,11
2645504,13
2646132,14
2646752,15
2647380,14
2648004,14
2648624,11
2649252,10
2649872,12
2650500,12
2651124,10
2651748,13
2652376,16
2653000,15
2653628,16
2654256,15
2654880,15
2655508,14
2656132,14
2656760,13
2657392,12
2658008,13
2658636,11
2659260,11
2659884,11
2660512,11
2661128,10
2661760,15
2662384,16
2663008,14
2663636,14
2664260,14
2664888,13
2665516,11
2666136,11
2666764,11
2667388,12
2668016,11
2668644,10
2669264,11
2669892,13
2670516,21
2671136,19
2671768,17
2672384,17
2673016,17
2673636,15
2674260,15
2674888,12
2675512,11
2676140,11
2676768,14
2677392,19
2678020,18
2678644,11
2679272,14
2679904,13
2680520,15
2681148,14
2681772,11
2682396,12
2683028,10
2683648,11
2684276,11
2684900,13
2685520,13
2686152,14
2686768,13
2687396,15
2688028,14
2688644,14
2689272,14
2689896,13
2690524,13
2691152,12
2691772,11
2692400,12
2693024,12
2693644,11
2694276,12
2694896,16
2695524,13
2696148,13
2696772,13
2697400,13
2698016,14
2698648,11
2699276,10
2699896,11
2700524,11
2701148,11
2701780,10
2702408,12
2703024,13
2703656,11
2704276,13
2704900,15
2705532,16
2706152,16
2706780,18
2707404,17
2708028,12
2708656,11
2709272,11
2709904,16
2710532,12
2711152,11
2711780,13
2712404,13
2713036,13
2713664,16
2714288,15
2714916,11
2715536,13
2716164,11
2716796,12
2717416,13
2718044,11
2718668,13
2719292,11
2719924,14
2720544,17
2721172,18
2721800,20
2722424,23
2723052,17
2723676,12
2724304,11
2724932,10
2725552,10
2726180,10
2726804,11
2727428,11
2728060,12
2728680,13
2729308,14
2729928,13
2730552,15
2731180,15
2731800,13
2732428,11
2733052,10
2733680,15
2734308,14
2734932,11
2735564,11
2736192,11
2736808,11
2737436,17
2738064,20
2738692,15
2739324,14
2739944,13
2740572,13
2741196,13
2741820,12
2742448,10
2743064,11
2743696,14
2744324,19
2744944,15
2745572,14
2746196,16
2746824,13
2747456,18
2748072,13
2748704,13
2749328,11
2749956,11
2750588,10
2751208,12
2751836,15
2752464,19
2753084,15
2753716,16
2754336,18
2754964,17
2755596,18
2756216,19
2756844,15
2757468,12
2758096,11
2758728,10
2759344,10
2759976,11
2760600,11
2761224,11
2761852,11
2762472,13
2763100,13
2763728,15
2764352,18
2764980,18
2765600,15
2766228,11
2766856,11
2767476,13
2768104,15
2768728,14
2769356,11
2769984,11
2770608,16
2771236,22
2771860,19
2772484,15
2773116,17
2773736,14
2774368,11
2774992,11
2775616,15
2776244,12
2776864,10
2777492,10
2778124,11
2778744,14
2779372,15
2779996,15
2780628,13
2781260,14
2781880,13
2782508,13
2783136,13
2783760,11
2784392,11
2785008,12
2785636,12
2786260,19
2786884,19
2787512,15
2788132,14
2788760,15
2789388,14
2790008,13
2790636,12
2791260,15
2791892,16
2792520,13
2793140,10
2793768,14
2794392,11
2795016,11
2795644,13
2796264,14
2796892,13
2797516,15
2798140,18
2798772,16
2799392,15
2800020,13
2800652,14
2801272,12
2801900,17
2802524,19
2803156,17
2803784,19
2804408,19
2805036,19
2805660,18
2806284,17
2806916,12
2807536,12
2808164,14
2808788,11
2809412,13
2810044,12
2810664,11
2811292,11
2811924,11
2812544,14
2813172,15
2813800,13
2814428,16
2815060,18
2815680,15
2816312,15
2816932,17
2817556,14
2818184,11
2818808,11
2819436,11
2820060,11
2820684,17
2821312,21
2821928,22
2822556,19
2823188,21
2823808,18
2824436,12
2825060,10
2825688,11
2826320,10
2826936,11
2827564,12
2828188,14
2828812,12
2829440,14
2830056,15
2830684,14
2831308,14
2831932,11
2832564,10
2833184,13
2833812,11
2834444,10
2835064,11
2835692,11
2836316,11
2836948,11
2837576,16
2838200,20
2838828,24
2839452,24
2840076,12
2840708,10
2841328,12
2841956,10
2842580,14
2843204,13
2843832,12
2844456,13
2845084,13
2845716,14
2846336,15
2846968,15
2847588,13
2848220,13
2848848,13
2849472,17
2850100,12
2850724,11
2851348,11
2851976,12
2852600,21
2853228,22
2853852,21
2854476,17
2855108,16
2855728,21
2856356,21
2856988,20
2857608,17
2858236,11
2858860,11
2859492,12
2860124,11
2860744,11
2861376,11
2862000,13
2862624,16
2863252,14
2863872,13
2864504,13
2865128,12
2865752,11
2866384,10
2867000,10
2867632,11
2868264,10
2868880,11
2869508,12
2870132,11
2870760,17
2871388,16
2872008,18
2872636,18
2873260,14
2873884,11
2874512,10
2875136,11
2875764,11
2876388,13
2877012,13
2877644,11
2878264,11
2878892,11
2879524,12
2880144,13
2880772,14
2881396,14
2882024,12
2882652,12
2883268,13
2883900,12
2884520,12
2885144,11
2885772,10
2886392,12
2887020,11
2887644,15
2888268,15
2888896,21
2889520,25
2890148,12
2890776,12
2891400,11
2892028,21
2892652,24
2893280,22
2893912,14
2894528,11
2895156,15
2895780,16
2896404,16
2897032,18
2897656,17
2898284,16
2898908,11
2899532,10
2900160,10
2900776,11
2901404,12
2902036,10
2902656,20
2903284,27
2903908,26
2904540,19
2905168,15
2905792,15
2906420,14
2907044,10
2907668,12
2908300,14
2908920,12
2909548,12
2910172,12
2910796,16
2911428,18
2912048,14
2912676,14
2913308,14
2913928,18
2914556,15
2915180,12
2915812,11
2916444,10
2917064,12
2917692,10
2918320,15
2918944,19
2919572,17
2920192,13
2920820,17
2921444,14
2922068,14
2922696,14
2923320,14
2923948,14
2924580,14
2925200,15
2925828,13
2926452,17
2927084,19
2927712,17
2928336,11
2928964,15
2929588,19
2930212,18
2930844,16
2931464,16
2932092,11
2932716,13
2933340,13
2933972,12
2934596,10
2935228,11
2935856,11
2936476,14
2937104,20
2937732,24
2938360,22
2938992,16
2939608,16
2940236,11
2940864,12
2941488,11
2942116,12
2942736,14
2943368,14
2943992,17
2944616,21
2945248,16
2945872,17
2946500,19
2947132,18
2947752,15
2948384,15
2949008,19
2949636,22
2950268,18
2950888,13
2951516,11
2952140,13
2952764,16
2953392,22
2954016,23
2954644,15
2955276,13
2955896,14
2956524,13
2957148,10
2957780,10
2958408,10
2959032,12
2959660,15
2960284,17
2960908,17
2961536,10
2962160,13
2962788,13
2963412,14
2964036,13
2964668,15
2965288,12
2965916,11
2966548,10
2967168,11
2967796,11
2968424,12
2969052,14
2969684,14
2970300,12
2970932,24
2971552,28
2972176,20
2972808,17
2973424,15
2974052,12
2974676,11
2975300,13
2975932,11
2976552,11
2977180,10
2977812,14
2978432,15
2979060,14
2979684,15
2980316,14
2980944,14
2981568,16
2982196,18
2982820,17
2983444,19
2984076,12
2984696,12
2985324,12
2985948,11
2986572,12
2987204,16
2987824,19
2988452,18
2989084,14
2989704,15
2990336,16
2990960,12
2991588,10
2992220,10
2992840,11
2993468,11
2994092,12
2994716,13
2995348,14
2995968,19
2996596,15
2997220,15
2997844,16
2998476,10
2999096,10
2999724,13
3000356,10
3000976,11
3001604,12
3002228,11
3002860,11
3003488,11
3004112,15
3004744,17
3005368,18
3005992,19
3006624,19
3007240,14
3007872,11
3008496,13
3009120,14
3009748,10
3010372,11
3011004,12
3011636,12
3012256,13
3012884,13
3013508,13
3014140,14
3014772,12
3015392,11
3016024,11
3016644,11
3017272,11
3017900,13
3018520,13
3019152,11
3019780,11
3020400,14
3021032,19
3021656,23
3022284,24
3022916,22
3023536,19
3024168,11
3024788,12
3025416,17
3026044,24
3026664,24
3027296,11
3027920,11
3028544,11
3029176,14
3029792,19
3030424,17
3031052,17
3031672,16
3032304,11
3032928,11
3033560,11
3034188,12
3034808,13
3035440,13
3036064,13
3036688,17
3037320,17
3037936,18
3038568,20
3039192,20
3039816,16
3040448,10
3041072,10
3041700,11
3042332,10
3042952,12
3043584,10
3044208,13
3044836,13
3045468,10
3046088,13
3046720,13
3047340,14
3047968,13
3048596,10
3049216,12
3049844,13
3050468,11
3051096,13
3051724,10
3052344,11
3052976,13
3053604,12
3054224,19
3054856,17
3055480,13
3056108,15
3056740,14
3057360,13
3057992,12
3058616,13
3059240,13
3059868,11
3060488,11
3061116,10
3061744,11
3062368,12
3063000,13
3063624,15
3064256,15
3064888,16
3065504,13
3066136,13
3066760,12
3067392,12
3068024,10
3068640,15
3069272,13
3069896,13
3070524,21
3071156,24
3071780,18
3072412,14
3073040,16
3073656,11
3074284,11
3074908,12
3075536,11
3076164,10
3076784,12
3077412,11
3078036,12
3078664,13
3079292,14
3079912,15
3080540,13
3081164,17
3081788,19
3082420,16
3083040,13
3083668,15
3084296,12
3084920,13
3085548,11
3086172,11
3086804,11
3087432,14
3088052,14
3088680,17
3089304,21
3089928,22
3090556,16
3091176,11
3091808,12
3092432,11
3093056,12
3093684,12
3094304,15
3094936,13
3095564,11
3096184,14
3096812,14
3097436,13
3098068,13
3098700,12
3099320,15
3099948,16
3100576,13
3101200,12
3101828,12
3102448,13
3103076,16
3103704,17
3104328,23
3104956,19
3105576,17
3106208,13
3106836,12
3107456,11
3108088,11
3108712,11
3109340,13
3109972,11
3110592,15
3111224,16
3111848,13
3112472,16
3113104,14
3113720,14
3114348,15
3114972,14
3115600,11
3116228,12
3116848,11
3117476,10
3118108,10
3118728,13
3119356,12
3119984,19
3120616,22
3121244,17
3121864,16
3122492,14
3123120,13
3123744,14
3124372,18
3124992,12
3125620,12
3126244,12
3126868,14
3127500,12
3128120,11
3128748,12
3129380,13
3130000,15
3130628,13
3131252,13
3131884,12
3132516,10
3133136,12
3133768,12
3134392,12
3135016,13
3135648,16
3136264,17
3136896,17
3137520,19
3138144,16
3138772,15
3139396,15
3140028,13
3140656,11
3141280,11
3141908,11
3142536,11
3143164,11
3143796,10
3144416,11
3145044,11
3145668,11
3146296,13
3146924,14
3147544,14
3148176,16
3148804,13
3149424,14
3150052,11
3150680,11
3151308,11
3151940,10
3152560,13
3153192,17
3153816,12
3154440,14
3155068,14
3155688,15
3156316,18
3156944,20
3157568,16
3158200,11
3158816,11
3159448,11
3160076,10
3160696,11
3161328,11
3161952,12
3162580,15
3163212,14
3163832,13
3164464,13
3165088,18
3165712,17
3166344,11
3166960,17
3167592,19
3168216,14
3168840,11
3169472,12
3170092,14
3170720,13
3171352,15
3171972,17
3172604,17
3173228,15
3173860,11
3174492,10
3175112,13
3175744,13
3176368,11
3176992,11
3177620,16
3178240,15
3178868,11
3179496,15
3180120,21
3180752,17
3181368,13
3182000,11
3182632,11
3183248,15
3183880,16
3184508,14
3185136,12
3185768,14
3186388,13
3187020,12
3187644,19
3188268,15
3188900,14
3189520,15
3190152,14
3190776,11
3191400,11
3192032,10
3192656,11
3193288,15
3193920,14
3194536,10
3195168,11
3195796,13
3196424,15
3197056,14
3197672,14
3198304,14
3198932,11
3199556,10
3200188,11
3200804,14
3201432,15
3202064,15
3202680,11
3203308,16
3203932,25
3204560,23
3205188,13
3205808,15
3206436,13
3207056,12
3207684,11
3208312,10
3208936,14
3209564,15
3210188,15
3210812,14
3211444,10
3212064,11
3212692,13
3213324,12
3213944,15
3214572,14
3215196,12
3215828,10
3216456,11
3217080,15
3217708,21
3218332,17
3218956,11
3219584,14
3220208,20
3220836,22
3221460,19
3222084,19
3222712,21
3223336,21
3223964,16
3224596,10
3225216,11
3225844,11
3226468,11
3227100,11
3227728,17
3228344,13
3228976,11
3229600,13
3230220,13
3230852,13
3231472,13
3232104,11
3232724,10
3233348,11
3233980,12
3234600,13
3235228,15
3235860,13
3236480,11
3237108,15
3237732,15
3238364,17
3238992,15
3239616,21
3240244,22
3240868,23
3241492,19
3242124,14
3242744,11
3243372,11
3243996,10
3244624,11
3245252,10
3245872,13
3246504,14
3247132,14
3247752,15
3248384,14
3249004,11
3249636,10
3250264,10
3250888,11
3251516,11
3252140,11
3252764,11
3253396,10
3254016,13
3254644,19
3255268,14
3255896,15
3256524,15
3257144,11
3257772,11
3258404,10
3259024,14
3259656,15
3260280,11
3260908,14
3261540,17
3262160,16
3262792,19
3263416,17
3264040,17
3264668,14
3265288,14
3265916,15
3266540,12
3267168,13
3267796,11
3268424,11
3269052,20
3269684,26
3270304,18
3270936,17
3271560,17
3272192,15
3272820,13
3273440,13
3274072,13
3274696,16
3275320,11
3275952,10
3276572,12
3277204,10
3277832,13
3278448,12
3279076,10
3279696,13
3280324,16
3280952,14
3281568,13
3282196,14
3282820,14
3283448,12
3284076,14
3284692,21
3285320,16
3285944,11
3286564,18
3287196,30
3287816,32
3288444,22
3289064,15
3289688,15
3290316,14
3290936,15
3291564,10
3292192,11
3292808,10
3293436,10
3294060,10
3294688,11
3295316,10
3295936,14
3296564,13
3297188,14
3297812,14
3298440,13
3299056,11
3299684,12
3300308,13
3300932,13
3301560,13
3302176,14
3302804,11
3303432,16
3304056,25
3304684,27
3305308,25
3305936,19
3306564,16
3307184,12
3307812,10
3308436,10
3309060,11
3309692,10
3310312,11
3310940,11
3311564,10
3312188,11
3312816,13
3313440,15
3314068,17
3314696,15
3315320,12
3315948,10
3316572,11
3317200,11
3317832,11
3318448,13
3319076,11
3319700,11
3320324,11
3320956,20
3321576,18
3322204,17
3322828,20
3323452,20
3324084,12
3324704,11
3325332,18
3325964,20
3326584,18
3327212,11
3327836,12
3328468,11
3329096,11
3329720,17
3330348,14
3330968,14
3331592,14
3332220,11
3332840,11
3333468,11
3334092,10
3334712,10
3335344,10
3335960,10
3336588,15
3337212,15
3337840,15
3338468,14
3339092,15
3339720,21
3340348,17
3340968,17
3341596,11
3342220,10
3342848,13
3343476,10
3344096,11
3344724,11
3345348,10
3345968,13
3346600,14
3347216,14
3347844,14
3348468,13
3349092,11
3349720,11
3350344,15
3350972,17
3351604,12
3352224,11
3352852,15
3353476,16
3354108,12
3354736,13
3355360,14
3355988,16
3356612,19
3357236,17
3357868,12
3358488,11
3359116,10
3359740,12
3360368,13
3360996,11
3361620,11
3362248,11
3362876,14
3363496,15
3364124,16
3364748,15
3365376,13
3366004,10
3366624,13
3367252,20
3367876,14
3368496,13
3369128,11
3369744,11
3370372,13
3370996,23
3371620,25
3372248,21
3372872,21
3373500,19
3374128,13
3374752,15
3375380,19
3376004,11
3376632,13
3377264,17
3377880,13
3378512,11
3379136,12
3379760,14
3380388,14
3381008,15
3381636,14
3382260,11
3382880,10
3383512,12
3384136,12
3384764,12
3385392,16
3386016,17
3386644,21
3387268,17
3387896,15
3388528,14
3389144,17
3389772,16
3390396,15
3391020,13
3391652,10
3392272,12
3392900,16
3393524,18
3394148,16
3394776,16
3395400,12
3396028,14
3396656,15
3397280,17
3397908,15
3398532,17
3399164,15
3399792,12
3400408,10
3401036,12
3401660,14
3402284,18
3402912,16
3403528,11
3404160,18
3404784,26
3405408,26
3406036,30
3406660,27
3407288,19
3407916,11
3408536,20
3409164,21
3409788,16
3410420,10
3411048,10
3411664,13
3412296,20
3412920,19
3413544,15
3414172,14
3414792,17
3415420,15
3416044,12
3416668,10
3417300,11
3417924,11
3418552,12
3419180,14
3419800,11
3420428,11
3421052,16
3421684,17
3422312,18
3422936,13
3423564,13
3424188,11
3424812,10
3425444,10
3426064,10
3426692,11
3427316,13
3427940,11
3428572,11
3429196,11
3429824,14
3430456,14
3431072,14
3431704,15
3432328,14
3432956,10
3433588,10
3434208,11
3434836,11
3435464,11
3436088,11
3436716,13
3437336,19
3437964,24
3438596,21
3439216,16
3439848,14
3440472,11
3441100,10
3441732,10
3442352,11
3442980,11
3443604,11
3444228,12
3444860,15
3445480,13
3446108,14
3446732,14
3447356,15
3447984,15
3448604,13
3449232,11
3449860,10
3450480,12
3451108,11
3451732,11
3452364,11
3452992,12
3453616,13
3454244,12
3454868,18
3455496,17
3456124,14
3456744,14
3457372,11
3457996,12
3458620,12
3459248,11
3459864,10
3460492,11
3461116,15
3461744,14
3462372,13
3462996,20
3463628,15
3464256,14
3464880,17
3465508,17
3466132,16
3466760,12
3467388,12
3468008,14
3468636,14
3469260,16
3469884,11
3470516,12
3471136,24
3471768,23
3472396,20
3473016,17
3473644,13
3474268,10
3474900,10
3475528,10
3476152,14
3476784,13
3477408,11
3478032,11
3478660,13
3479280,16
3479908,14
3480536,14
3481160,16
3481792,14
3482408,11
3483036,11
3483664,10
3484288,11
3484916,11
3485540,11
3486168,11
3486800,11
3487416,15
3488044,19
3488668,19
3489292,18
3489920,15
3490536,11
3491164,11
3491788,11
3492416,11
3493044,10
3493664,11
3494292,12
3494924,12
3495544,11
3496172,18
3496796,17
3497428,14
3498056,13
3498680,14
3499308,14
3499936,14
3500560,11
3501188,15
3501808,13
3502440,11
3503060,11
3503684,12
3504316,14
3504936,13
3505564,14
3506196,18
3506816,22
3507448,20
3508068,16
3508700,13
3509332,10
3509952,11
3510584,11
3511208,12
3511832,11
3512460,11
3513080,13
3513708,13
3514336,14
3514960,13
3515588,11
3516208,11
3516840,11
3517468,10
3518088,13
3518720,15
3519344,13
3519976,13
3520608,12
3521224,17
3521852,17
3522476,16
3523100,15
3523732,11
3524352,15
3524980,11
3525604,10
3526228,13
3526856,12
3527480,12
3528108,11
3528740,12
3529360,14
3529988,13
3530612,13
3531244,14
3531872,13
3532496,11
3533124,11
3533748,11
3534372,11
3535004,10
3535624,11
3536252,15
3536876,15
3537500,13
3538132,16
3538756,16
3539384,15
3540012,14
3540632,13
3541260,15
3541884,11
3542516,11
3543148,10
3543768,12
3544396,13
3545020,13
3545644,11
3546272,14
3546896,16
3547524,14
3548148,14
3548772,12
3549404,11
3550028,18
3550660,14
3551288,10
3551912,18
3552544,27
3553168,30
3553800,20
3554428,16
3555048,15
3555676,14
3556304,15
3556928,15
3557560,11
3558176,11
3558808,12
3559436,10
3560056,11
3560684,11
3561308,10
3561940,10
3562572,10
3563192,15
3563824,15
3564448,14
3565072,15
3565700,11
3566320,11
3566948,11
3567576,13
3568200,12
3568828,10
3569448,11
3570076,11
3570708,10
3571328,15
3571956,14
3572584,16
3573212,15
3573844,14
3574464,14
3575092,16
3575720,17
3576344,12
3576972,10
3577592,11
3578224,11
3578848,10
3579472,14
3580104,13
3580720,13
3581352,14
3581984,12
3582608,10
3583240,11
3583868,12
3584500,10
3585128,12
3585744,11
3586376,11
3587000,12
3587624,12
3588252,14
3588872,20
3589500,21
3590124,15
3590748,14
3591380,17
3592004,15
3592632,11
3593264,10
3593880,10
3594508,11
3595132,11
3595764,12
3596396,14
3597016,14
3597644,14
3598268,15
3598892,13
3599524,10
3600144,11
3600772,11
3601396,11
3602020,11
3602652,11
3603276,11
3603904,13
3604532,15
3605152,15
3605780,15
3606404,16
3607032,14
3607660,14
3608280,15
3608908,11
3609532,10
3610156,12
3610788,10
3611408,12
3612036,15
3612660,15
3613284,13
3613912,18
3614536,19
3615168,20
3615796,15
3616416,11
3617044,11
3617668,12
3618296,14
3618924,11
3619544,11
3620172,16
3620796,16
3621420,17
3622052,16
3622672,17
3623300,19
3623924,17
3624548,15
3625180,10
3625804,11
3626432,10
3627060,10
3627680,11
3628308,11
3628932,10
3629564,14
3630192,14
3630816,14
3631444,14
3632068,12
3632692,10
3633324,10
3633944,11
3634572,11
3635200,10
3635824,12
3636452,16
3637076,17
3637708,18
3638336,15
3638956,14
3639584,15
3640212,17
3640840,15
3641468,10
3642088,11
3642716,18
3643340,18
3643964,12
3644596,12
3645216,14
3645844,11
3646476,12
3647096,14
3647724,16
3648352,20
3648980,11
3649608,16
3650224,19
3650852,15
3651476,13
3652104,11
3652732,12
3653352,12
3653980,19
3654608,25
3655228,27
3655860,24
3656480,16
3657108,14
3657740,12
3658360,13
3658988,11
3659612,17
3660244,16
3660876,12
3661496,11
3662124,12
3662748,22
3663372,24
3664004,18
3664624,16
3665252,14
3665880,11
3666504,13
3667132,10
3667752,20
3668380,19
3669012,13
3669632,15
3670264,13
3670888,14
3671516,19
3672148,16
3672768,18
3673400,16
3674024,13
3674648,11
3675276,14
3675896,15
3676528,13
3677152,12
3677776,11
3678408,10
3679024,12
3679656,14
3680288,14
3680904,14
3681532,14
3682156,13
3682788,11
3683420,10
3684040,11
3684668,11
3685292,10
3685920,11
3686548,11
3687168,14
3687796,16
3688420,15
3689040,20
3689668,25
3690288,15
3690916,10
3691544,17
3692168,20
3692796,13
3693420,11
3694052,11
3694680,10
3695296,12
3695928,11
3696552,15
3697176,17
3697804,15
3698424,17
3699052,10
3699676,12
3700300,11
3700932,10
3701552,14
3702184,19
3702812,16
3703432,12
3704060,11
3704684,15
3705316,15
3705948,15
3706568,17
3707196,13
3707824,11
3708448,11
3709076,10
3709696,14
3710324,13
3710952,11
3711576,12
3712208,13
3712824,13
3713452,15
3714084,16
3714704,15
3715332,14
3715956,12
3716588,13
3717216,10
3717840,12
3718468,12
3719092,11
3719716,13
3720348,12
3720968,15
3721596,17
3722220,16
3722844,14
3723476,15
3724100,15
3724732,17
3725364,15
3725984,10
3726616,14
3727240,17
3727868,13
3728500,10
3729120,12
3729748,16
3730372,14
3731000,13
3731628,14
3732248,17
3732876,13
3733500,10
3734128,12
3734756,13
3735384,13
3736012,11
3736644,11
3737264,18
3737896,20
3738520,19
3739144,17
3739772,13
3740392,15
3741024,12
3741648,11
3742272,11
3742900,11
3743520,13
3744152,13
3744780,11
3745400,13
3746028,15
3746652,16
3747284,15
3747916,14
3748536,15
3749164,11
3749788,10
3750416,11
3751044,11
3751664,13
3752296,14
3752920,13
3753544,11
3754176,10
3754792,13
3755424,14
3756056,14
3756676,15
3757308,12
3757932,10
3758564,10
3759196,10
3759816,10
3760448,11
3761072,11
3761696,11
3762328,14
3762944,15
3763576,14
3764200,14
3764824,14
3765452,16
3766072,12
3766704,13
3767332,17
3767952,15
3768584,12
3769208,11
3769836,11
3770468,11
3771088,14
3771716,21
3772344,19
3772968,16
3773596,13
3774216,11
3774848,12
3775472,11
3776096,11
3776724,13
3777348,16
3777980,15
3778608,11
3779228,11
3779856,16
3780480,15
3781108,14
3781740,20
3782360,23
3782992,22
3783616,18
3784240,15
3784868,13
3785488,13
3786120,12
3786744,13
3787368,16
3788000,18
3788624,15
3789256,15
3789884,13
3790504,13
3791132,11
3791760,10
3792388,11
3793020,10
3793640,12
3794268,16
3794892,24
3795516,23
3796148,17
3796768,13
3797400,16
3798028,16
3798648,19
3799280,20
3799904,21
3800532,14
3801164,10
3801784,12
3802412,11
3803036,11
3803664,13
3804292,12
3804912,24
3805540,27
3806168,20
3806792,15
3807424,11
3808040,11
3808672,12
3809300,10
3809920,15
3810548,12
3811176,12
3811804,12
3812436,10
3813056,14
3813688,14
3814312,16
3814936,15
3815568,12
3816188,11
3816816,11
3817440,11
3818064,11
3818696,12
3819312,15
3819944,17
3820576,23
3821192,21
3821824,16
3822448,14
3823080,15
3823708,18
3824328,15
3824960,11
3825584,10
3826208,14
3826840,14
3827460,13
3828088,16
3828716,18
3829340,15
3829972,13
3830596,13
3831228,14
3831860,13
3832480,11
3833112,11
3833736,18
3834368,26
3835000,18
3835620,14
3836248,13
3836876,20
3837500,23
3838132,18
3838752,14
3839384,14
3840020,16
3840636,15
3841268,10
3841892,10
3842520,12
3843148,11
3843768,11
3844396,11
3845020,12
3845648,11
3846276,14
3846896,14
3847524,14
3848148,14
3848772,16
3849404,14
3850024,11
3850652,11
3851284,11
3851904,13
3852532,11
3853156,11
3853788,11
3854416,11
3855032,13
3855664,18
3856288,28
3856912,26
3857540,19
3858160,11
3858788,13
3859412,14
3860036,13
3860668,12
3861288,12
3861916,11
3862548,12
3863168,14
3863796,15
3864424,17
3865052,17
3865684,14
3866304,12
3866932,11
3867556,12
3868180,11
3868812,10
3869432,15
3870064,17
3870688,16
3871312,15
3871944,19
3872560,20
3873192,25
3873824,22
3874440,14
3875068,11
3875696,10
3876324,10
3876956,10
3877576,11
3878208,11
3878832,11
3879456,15
3880088,21
3880704,21
3881336,17
3881960,14
3882584,11
3883212,11
3883832,13
3884464,13
3885092,12
3885712,12
3886344,13
3886968,15
3887600,16
3888228,20
3888848,17
3889476,15
3890104,15
3890728,11
3891360,13
3891976,11
3892604,15
3893228,10
3893852,10
3894484,12
3895104,11
3895736,11
3896368,13
3896984,15
3897612,13
3898236,15
3898868,13
3899500,10
3900120,11
3900752,11
3901376,11
3902000,12
3902628,13
3903248,12
3903880,13
3904504,13
3905128,15
3905756,14
3906380,15
3907012,18
3907644,18
3908264,18
3908892,12
3909520,11
3910148,12
3910780,13
3911400,11
3912032,18
3912656,19
3913280,15
3913908,14
3914528,15
3915160,14
3915788,14
3916408,20
3917040,16
3917664,11
3918292,11
3918924,10
3919544,11
3920176,11
3920800,13
3921424,19
3922052,17
3922672,13
3923300,14
3923928,15
3924552,15
3925180,14
3925800,17
3926432,13
3927060,10
3927680,13
3928308,13
3928936,12
3929568,13
3930200,14
3930816,19
3931448,15
3932072,14
3932696,11
3933324,12
3933944,14
3934572,16
3935196,13
3935824,11
3936452,10
3937072,12
3937700,12
3938332,18
3938952,19
3939580,18
3940204,18
3940836,15
3941464,13
3942088,11
3942716,11
3943340,9
3943912,11
3944548,11
3945168,12
3945796,11
3946420,14
3947044,15
3947676,14
3948296,14
3948924,12
3949548,11
3950172,11
3950804,10
3951428,14
3952060,15
3952688,12
3953312,12
3953940,15
3954564,20
3955196,23
3955828,15
3956448,15
3957076,16
3957704,11
3958328,16
3958960,14
3959576,11
3960208,11
3960836,10
3961456,11
3962088,13
3962712,13
3963344,13
3963972,17
3964592,19
3965224,15
3965848,13
3966472,16
3967104,16
3967720,18
3968352,14
3968976,13
3969600,11
3970228,10
3970848,12
3971476,14
3972108,22
3972728,25
3973360,24
3973980,19
3974612,14
3975244,10
3975864,14
3976492,18
3977116,14
3977744,12
3978372,14
3978992,19
3979620,20
3980248,15
3980872,15
3981500,13
3982120,15
3982748,12
3983380,13
3984000,15
3984628,14
3985252,11
3985884,11
3986516,10
3987136,12
3987768,16
3988392,21
3989016,21
3989648,20
3990264,19
3990896,16
3991520,12
3992144,11
3992776,10
3993396,10
3994028,11
3994656,11
3995276,13
3995904,13
3996528,15
3997156,14
3997788,14
3998408,14
3999036,12
3999664,12
4000288,11
4000916,11
4001536,13
4002164,12
4002788,11
4003412,11
4004040,13
4004664,21
4005292,17
4005920,15
4006540,14
4007168,17
4007792,14
4008420,10
4009052,10
4009672,11
4010300,10
4010924,10
4011548,11
4012180,10
4012800,12
4013428,13
4014052,16
4014676,14
4015308,14
4015928,14
4016556,10
4017188,12
4017808,13
4018436,12
4019060,11
4019692,12
4020320,19
4020940,20
4021568,21
4022192,21
4022816,19
4023444,16
4024064,13
4024692,13
4025316,13
4025940,10
4026572,11
4027192,12
4027824,11
4028452,10
4029072,11
4029704,15
4030328,20
4030956,16
4031588,14
4032208,14
4032836,11
4033460,13
4034084,21
4034716,21
4035336,14
4035964,13
4036588,13
4037212,11
4037844,11
4038468,17
4039096,15
4039724,16
4040344,17
4040972,11
4041596,11
4042228,11
4042860,10
4043480,11
4044112,10
4044736,13
4045360,11
4045988,11
4046608,13
4047236,14
4047860,21
4048484,21
4049116,12
4049740,10
4050372,15
4051000,23
4051620,19
4052248,11
4052872,11
4053504,17
4054136,15
4054752,16
4055384,18
4056008,19
4056632,21
4057260,14
4057880,11
4058508,12
4059132,12
4059760,11
4060392,16
4061016,19
4061644,19
4062276,14
4062896,16
4063524,19
4064152,26
4064776,23
4065404,22
4066024,14
4066652,13
4067276,13
4067904,15
4068532,10
4069152,20
4069784,28
4070412,17
4071032,19
4071664,29
4072288,30
4072916,35
4073548,32
4074168,28
4074800,23
4075424,15
4076048,10
4076676,10
4077296,11
4077924,14
4078552,15
4079176,12
4079808,13
4080428,15
4081056,17
4081684,14
4082304,14
4082936,14
4083560,17
4084188,19
4084820,16
4085440,11
4086072,15
4086696,15
4087320,13
4087952,11
4088568,14
4089200,15
4089824,16
4090448,15
4091080,10
4091696,12
4092328,15
4092960,11
4093576,10
4094208,16
4094836,14
4095468,12
4096100,10
4096716,13
4097344,15
4097964,15
4098588,14
4099216,10
4099828,11
4100460,11
4101080,10
4101704,12
4102332,12
4102952,12
4103580,11
4104208,14
4104824,16
4105452,14
4106076,14
4106704,15
4107332,18
4107952,21
4108580,12
4109204,11
4109828,19
4110456,21
4111080,23
4111708,17
4112332,13
4112956,13
4113584,13
4114200,15
4114828,14
4115452,17
4116080,15
4116708,14
4117332,19
4117960,24
4118588,18
4119208,15
4119836,13
4120460,15
4121088,17
4121716,20
4122336,19
4122964,18
4123584,17
4124208,16
4124836,12
4125456,13
4126084,10
4126708,15
4127332,17
4127960,11
4128584,10
4129212,10
4129840,12
4130464,13
4131092,13
4131716,14
4132344,11
4132976,12
4133592,15
4134220,15
4134848,14
4135468,10
4136100,10
4136720,13
4137348,15
4137972,15
4138596,15
4139224,15
4139848,14
4140476,15
4141108,12
4141728,13
4142356,10
4142980,13
4143612,15
4144240,11
4144864,14
4145492,12
4146116,13
4146740,17
4147372,16
4147992,15
4148620,13
4149244,12
4149864,11
4150496,13
4151120,15
4151748,10
4152380,10
4153000,12
4153628,17
4154252,14
4154880,16
4155512,15
4156128,14
4156760,15
4157384,13
4158008,11
4158636,12
4159256,13
4159884,12
4160512,10
4161136,13
4161764,16
4162384,12
4163016,12
4163644,14
4164264,16
4164892,18
4165516,16
4166144,12
4166772,10
4167392,15
4168020,11
4168644,12
4169264,13
4169892,10
4170512,12
4171140,12
4171764,17
4172388,22
4173020,30
4173640,23
4174272,13
4174900,12
4175520,15
4176148,12
4176772,10
4177400,10
4178032,10
4178648,15
4179276,11
4179900,13
4180524,14
4181152,18
4181768,19
4182396,13
4183020,11
4183644,11
4184276,13
4184896,10
4185528,13
4186156,14
4186776,17
4187404,21
4188028,27
4188660,23
4189288,15
4189904,13
4190536,14
4191160,11
4191784,12
4192412,10
4193032,10
4193660,10
4194284,11
4194908,10
4195536,11
4196160,13
4196788,15
4197420,14
4198040,14
4198668,14
4199292,11
4199920,11
4200552,10
4201168,11
4201796,11
4202420,11
4203044,16
4203672,12
4204288,12
4204920,29
4205540,28
4206164,25
4206796,20
4207416,16
4208044,11
4208672,12
4209296,14
4209924,15
4210548,15
4211176,13
4211808,12
4212424,11
4213056,14
4213680,13
4214304,15
4214932,14
4215552,13
4216184,11
4216804,11
4217428,13
4218060,14
4218680,15
4219308,13
4219940,19
4220560,13
4221188,13
4221812,21
4222444,21
4223072,14
4223696,15
4224328,12
4224948,13
4225572,11
4226200,11
4226820,11
4227448,11
4228072,11
4228696,13
4229324,10
4229944,17
4230572,16
4231200,15
4231824,14
4232452,12
4233076,10
4233708,12
4234336,13
4234956,14
4235584,13
4236208,11
4236832,13
4237460,13
4238080,13
4238708,15
4239332,18
4239960,17
4240588,13
4241208,17
4241836,15
4242468,15
4243088,12
4243716,10
4244340,13
4244972,16
4245600,11
4246220,11
4246848,14
4247472,16
4248096,15
4248724,15
4249344,12
4249976,11
4250596,12
4251220,19
4251852,17
4252472,15
4253100,15
4253732,16
4254352,15
4254984,19
4255608,20
4256236,19
4256868,18
4257488,15
4258116,11
4258740,11
4259364,12
4259996,10
4260616,13
4261244,16
4261868,17
4262492,11
4263120,14
4263736,17
4264364,16
4264996,14
4265616,15
4266244,11
4266868,11
4267496,10
4268124,12
4268744,14
4269372,11
4269996,19
4270620,20
4271252,16
4271872,20
4272500,21
4273124,16
4273748,16
4274380,13
4275000,10
4275632,11
4276260,10
4276880,13
4277508,13
4278132,11
4278764,11
4279392,11
4280016,13
4280644,16
4281268,16
4281892,15
4282520,12
4283144,15
4283772,12
4284396,13
4285020,12
4285652,10
4286276,14
4286904,21
4287536,27
4288156,34
4288784,31
4289408,23
4290036,16
4290668,13
4291288,11
4291916,10
4292540,10
4293164,11
4293792,10
4294416,11
4295044,11
4295668,11
4296292,15
4296924,23
4297548,16
4298180,13
4298808,13
4299432,11
4300064,12
4300688,11
4301320,13
4301948,10
4302568,11
4303196,14
4303820,24
4304444,31
4305072,30
4305696,25
4306324,17
4306956,14
4307576,15
4308204,14
4308828,10
4309460,16
4310088,15
4310708,10
4311336,11
4311960,11
4312584,11
4313212,13
4313832,13
4314460,15
4315084,14
4315708,13
4316340,10
4316960,11
4317588,10
4318220,12
4318840,12
4319468,11
4320096,11
4320724,13
4321352,14
4321976,15
4322604,19
4323228,19
4323852,17
4324480,24
4325096,22
4325728,17
4326352,16
4326976,11
4327604,10
4328224,18
4328852,15
4329484,10
4330104,14
4330732,16
4331360,15
4331988,14
4332620,10
4333240,11
4333868,11
4334492,11
4335116,11
4335748,10
4336368,13
4336996,11
4337620,12
4338244,17
4338876,20
4339496,19
4340124,16
4340756,14
4341376,18
4342008,19
4342628,13
4343260,11
4343892,12
4344512,11
4345140,11
4345768,12
4346388,12
4347020,14
4347640,16
4348268,15
4348892,15
4349520,23
4350148,30
4350768,29
4351400,14
4352028,11
4352644,13
4353276,16
4353896,22
4354528,21
4355156,21
4355776,22
4356404,20
4357028,21
4357652,18
4358284,14
4358904,11
4359532,13
4360156,15
4360780,15
4361412,10
4362032,13
4362660,11
4363292,12
4363912,13
4364540,14
4365164,13
4365796,14
4366424,11
4367044,10
4367672,15
4368296,14
4368920,12
4369548,11
4370168,13
4370796,13
4371420,17
4372044,21
4372676,18
4373296,17
4373924,15
4374556,11
4375176,12
4375808,11
4376432,12
4377060,12
4377692,10
4378312,15
4378940,13
4379564,11
4380192,14
4380820,14
4381440,14
4382068,14
4382696,11
4383320,13
4383952,11
4384568,11
4385200,11
4385828,10
4386448,12
4387076,13
4387700,13
4388332,14
4388964,18
4389584,17
4390216,16
4390840,13
4391464,9
4392044,13
4392668,19
4393296,13
4393920,11
4394544,13
4395176,18
4395800,14
4396432,13
4397060,13
4397680,15
4398312,13
4398936,13
4399568,11
4400196,12
4400816,12
4401444,11
4402068,11
4402696,13
4403324,12
4403944,11
4404572,12
4405196,16
4405820,15
4406448,17
4407064,15
4407696,11
4408324,10
4408944,11
4409572,10
4410196,10
4410828,10
4411460,13
4412080,12
4412708,14
4413336,19
4413960,16
4414588,15
4415208,15
4415840,13
4416464,11
4417088,13
4417716,14
4418336,11
4418964,12
4419596,10
4420216,12
4420844,13
4421468,15
4422100,17
4422732,14
4423352,15
4423984,13
4424608,11
4425232,11
4425860,10
4426480,12
4427108,11
4427732,11
4428356,10
4428988,10
4429608,11
4430236,14
4430868,22
4431488,21
4432116,14
4432740,11
4433372,14
4434004,15
4434624,14
4435252,14
4435876,13
4436500,11
4437132,12
4437752,13
4438384,16
4439008,14
4439632,17
4440264,19
4440880,19
4441508,19
4442140,16
4442760,15
4443392,11
4444016,11
4444644,10
4445276,10
4445896,12
4446524,13
4447152,14
4447776,13
4448408,16
4449024,16
4449652,11
4450276,11
4450900,12
4451532,10
4452152,13
4452784,11
4453412,10
4454032,13
4454664,22
4455288,22
4455916,18
4456548,16
4457168,17
4457796,15
4458420,11
4459044,12
4459676,14
4460296,19
4460928,13
4461552,10
4462176,11
4462804,14
4463428,14
4464060,14
4464692,14
4465312,17
4465940,13
4466568,13
4467196,13
4467828,10
4468448,11
4469080,12
4469704,12
4470328,17
4470960,21
4471576,22
4472208,20
4472840,16
4473460,14
4474092,15
4474716,11
4475348,13
4475980,12
4476600,11
4477232,11
4477856,10
4478480,12
4479112,11
4479732,18
4480364,16
4480984,15
4481608,14
4482236,14
4482856,13
4483484,11
4484116,12
4484736,13
4485364,12
4485988,12
4486620,15
4487248,13
4487864,11
4488496,16
4489120,21
4489744,19
4490372,14
4490992,13
4491620,12
4492244,11
4492868,12
4493500,14
4494120,21
4494748,23
4495380,16
4496000,12
4496628,13
4497252,15
4497884,14
4498516,15
4499136,16
4499768,12
4500392,11
4501016,11
4501648,11
4502264,11
4502896,11
4503520,13
4504144,14
4504776,13
4505392,15
4506028,14
4506656,14
4507272,16
4507900,11
4508524,15
4509156,16
4509784,13
4510400,10
4511032,11
4511656,17
4512280,12
4512908,11
4513528,14
4514156,14
4514780,17
4515404,14
4516036,10
4516656,11
4517284,11
4517916,10
4518536,11
4519164,13
4519788,12
4520420,11
4521048,11
4521672,16
4522300,19
4522924,17
4523548,13
4524180,15
4524800,9
4525376,10
4526000,11
4526624,12
4527252,10
4527872,18
4528504,13
4529128,11
4529748,13
4530380,14
4531000,15
4531632,15
4532260,13
4532880,12
4533508,11
4534132,11
4534764,11
4535396,12
4536016,11
4536644,11
4537268,13
4537892,15
4538524,18
4539144,18
4539776,22
4540400,17
4541024,15
4541656,13
4542280,12
4542908,11
4543540,15
4544160,15
4544792,11
4545416,11
4546044,11
4546676,14
4547296,14
4547924,13
4548548,14
4549172,14
4549804,10
4550424,16
4551052,18
4551676,10
4552304,12
4552936,13
4553560,14
4554192,17
4554824,18
4555440,18
4556072,17
4556696,15
4557320,14
4557952,11
4558572,11
4559200,11
4559824,12
4560448,14
4561076,12
4561696,14
4562324,17
4562956,10
4563576,17
4564204,15
4564828,14
4565460,14
4566092,12
4566712,11
4567344,11
4567968,11
4568592,12
4569224,15
4569840,12
4570468,17
4571092,19
4571720,17
4572348,16
4572968,16
4573596,15
4574228,14
4574848,11
4575480,11
4576104,11
4576732,11
4577364,12
4577984,14
4578616,12
4579240,11
4579864,13
4580492,12
4581112,14
4581744,16
4582368,14
4582992,11
4583624,13
4584244,12
4584872,10
4585504,16
4586124,18
4586756,18
4587380,20
4588012,21
4588644,21
4589264,17
4589892,14
4590516,13
4591144,11
4591772,11
4592392,11
4593020,13
4593648,11
4594272,10
4594900,10
4595524,11
4596156,10
4596788,14
4597408,15
4598040,15
4598664,16
4599292,13
4599924,12
4600544,14
4601172,11
4601800,11
4602424,11
4603052,11
4603672,12
4604304,13
4604932,16
4605552,17
4606184,16
4606808,15
4607440,17
4608068,15
4608684,14
4609316,12
4609936,11
4610564,10
4611192,11
4611816,15
4612444,13
4613068,11
4613692,13
4614324,14
4614944,14
4615572,15
4616204,12
4616824,17
4617452,13
4618076,10
4618708,13
4619336,12
4619960,12
4620588,13
4621216,20
4621836,21
4622468,18
4623088,19
4623716,16
4624344,14
4624964,17
4625596,12
4626216,11
4626844,9
4627420,11
4628048,11
4628676,10
4629296,12
4629924,12
4630556,14
4631176,15
4631808,13
4632432,14
4633060,11
4633692,10
4634312,11
4634940,11
4635564,11
4636188,11
4636820,10
4637440,11
4638068,13
4638696,19
4639320,19
4639948,20
4640568,18
4641200,12
4641828,10
4642448,13
4643076,14
4643700,11
4644332,11
4644960,11
4645580,10
4646208,12
4646832,16
4647456,15
4648084,13
4648704,14
4649332,13
4649956,13
4650580,12
4651212,12
4651832,11
4652464,11
4653092,12
4653712,20
4654344,20
4654968,23
4655596,18
4656228,15
4656848,16
4657476,18
4658100,15
4658728,12
4659356,10
4659976,11
4660604,11
4661228,11
4661852,13
4662484,13
4663108,11
4663736,14
4664368,15
4664984,17
4665612,18
4666236,12
4666868,11
4667500,10
4668120,12
4668752,11
4669376,15
4670000,19
4670628,21
4671248,21
4671880,18
4672504,17
4673128,18
4673756,15
4674380,14
4675012,16
4675640,12
4676264,10
4676892,11
4677516,10
4678148,11
4678780,12
4679400,11
4680032,12
4680652,12
4681276,15
4681908,16
4682528,19
4683156,13
4683788,10
4684408,10
4685036,11
4685660,11
4686292,13
4686924,12
4687544,12
4688176,11
4688796,15
4689424,15
4690052,14
4690672,17
4691300,17
4691924,21
4692548,25
4693180,24
4693800,15
4694428,15
4695060,22
4695680,17
4696308,21
4696936,27
4697568,18
4698196,14
4698816,24
4699448,21
4700072,21
4700696,17
4701328,17
4701944,17
4702576,14
4703204,12
4703828,11
4704460,11
4705080,15
4705712,18
4706340,18
4706960,19
4707592,17
4708216,14
4708848,12
4709476,10
4710096,11
4710728,12
4711352,14
4711976,17
4712608,14
4713228,14
4713856,13
4714480,14
4715104,15
4715736,15
4716360,16
4716988,15
4717620,10
4718240,11
4718872,11
4719496,11
4720128,15
4720756,12
4721376,12
4722004,20
4722628,24
4723256,20
4723884,16
4724504,15
4725132,11
4725756,11
4726384,12
4727016,11
4727640,11
4728272,10
4728900,10
4729520,17
4730152,21
4730776,17
4731400,15
4732032,14
4732648,15
4733280,16
4733904,14
4734528,12
4735160,10
4735780,11
4736412,11
4737040,11
4737660,13
4738288,17
4738912,28
4739544,18
4740172,14
4740792,16
4741424,16
4742048,12
4742672,13
4743304,14
4743920,15
4744552,13
4745176,16
4745800,18
4746432,11
4747048,15
4747680,21
4748308,14
4748928,14
4749556,11
4750184,11
4750816,11
4751444,11
4752064,15
4752692,12
4753316,11
4753940,16
4754572,24
4755192,31
4755824,25
4756448,21
4757072,21
4757704,14
4758320,12
4758952,11
4759584,10
4760200,12
4760832,12
4761456,11
4762088,12
4762716,15
4763336,15
4763964,13
4764592,17
4765216,17
4765848,16
4766464,11
4767096,10
4767720,11
4768344,11
4768972,11
4769592,11
4770224,11
4770852,13
4771472,20
4772104,25
4772728,21
4773360,17
4773988,16
4774608,13
4775236,12
4775864,11
4776488,11
4777116,12
4777736,11
4778368,11
4778992,11
4779616,11
4780248,13
4780872,15
4781504,13
4782132,14
4782752,12
4783384,13
4784008,14
4784636,12
4785268,10
4785888,11
4786520,11
4787144,15
4787768,19
4788400,20
4789020,22
4789652,17
4790284,15
4790904,15
4791536,16
4792160,13
4792792,10
4793424,11
4794044,10
4794676,10
4795300,10
4795928,11
4796556,10
4797176,12
4797808,13
4798436,14
4799060,14
4799692,13
4800312,13
4800944,11
4801572,11
4802192,13
4802820,11
4803444,11
4804076,15
4804704,17
4805324,19
4805952,15
4806576,16
4807200,15
4807832,14
4808448,11
4809080,11
4809704,11
4810328,11
4810956,10
4811576,13
4812208,11
4812836,10
4813456,22
4814084,25
4814708,17
4815336,14
4815968,13
4816588,16
4817216,20
4817840,24
4818464,23
4819096,13
4819712,13
4820344,15
4820968,17
4821592,21
4822224,22
4822840,17
4823468,14
4824100,14
4824720,11
4825348,11
4825976,11
4826604,10
4827236,10
4827856,9
4828436,10
4829064,11
4829692,12
4830324,14
4830944,16
4831576,15
4832200,17
4832824,13
4833452,12
4834072,11
4834700,12
4835328,14
4835952,12
4836580,11
4837208,12
4837836,14
4838468,20
4839088,21
4839716,18
4840340,14
4840964,16
4841596,12
4842216,10
4842848,11
4843472,10
4844096,11
4844724,10
4845344,11
4845972,11
4846604,11
4847224,15
4847856,19
4848480,15
4849108,16
4849740,14
4850360,11
4850992,16
4851616,17
4852240,14
4852872,13
4853488,13
4854120,17
4854744,15
4855368,14
4856000,14
4856616,13
4857248,17
4857876,20
4858496,17
4859128,12
4859752,11
4860384,11
4861016,14
4861632,18
4862264,15
4862888,14
4863512,15
4864144,13
4864760,14
4865392,15
4866016,15
4866640,12
4867268,10
4867888,11
4868516,15
4869148,17
4869768,17
4870396,13
4871024,15
4871656,19
4872284,17
4872904,17
4873536,14
4874160,16
4874784,11
4875416,19
4876032,19
4876660,12
4877288,13
4877912,13
4878540,10
4879160,13
4879792,13
4880420,15
4881040,13
4881668,14
4882292,14
4882924,11
4883556,10
4884176,11
4884804,10
4885428,11
4886052,11
4886684,10
4887304,15
4887936,21
4888560,25
4889184,24
4889816,21
4890440,17
4891068,14
4891700,10
4892320,12
4892948,11
4893576,11
4894204,10
4894836,10
4895456,11
4896088,11
4896708,11
4897332,13
4897964,13
4898584,15
4899212,14
4899840,10
4900464,11
4901096,11
4901720,11
4902352,11
4902984,11
4903600,10
4904232,11
4904860,13
4905484,23
4906116,21
4906736,19
4907368,17
4907992,15
4908616,12
4909248,10
4909872,10
4910504,11
4911136,16
4911756,15
4912388,11
4913012,10
4913644,14
4914276,14
4914896,14
4915528,15
4916152,14
4916776,12
4917404,11
4918024,11
4918652,11
4919276,11
4919900,13
4920532,11
4921156,11
4921784,13
4922412,17
4923032,21
4923660,21
4924284,18
4924916,15
4925544,14
4926164,12
4926792,11
4927416,11
4928040,11
4928668,14
4929288,17
4929916,17
4930540,15
4931164,15
4931796,14
4932420,15
4933048,17
4933680,12
4934296,11
4934928,12
4935552,13
4936184,16
4936812,18
4937432,23
4938060,22
4938684,25
4939312,18
4939940,14
4940560,15
4941188,12
4941812,11
4942436,11
4943068,11
4943692,10
4944324,10
4944952,12
4945568,13
4946200,13
4946824,15
4947452,14
4948084,15
4948704,15
4949332,14
4949960,11
4950584,11
4951212,10
4951832,11
4952464,11
4953092,11
4953712,12
4954340,16
4954968,17
4955596,16
4956228,16
4956848,17
4957476,16
4958100,16
4958728,14
4959356,15
4959976,11
4960608,12
4961232,11
4961856,13
4962484,11
4963104,12
4963736,13
4964364,14
4964984,16
4965612,15
4966236,13
4966868,12
4967500,10
4968120,11
4968748,11
4969372,11
4969996,13
4970628,12
4971248,14
4971876,19
4972500,21
4973128,16
4973756,14
4974376,14
4975008,11
4975636,12
4976256,12
4976884,13
4977508,17
4978140,12
4978772,12
4979392,13
4980020,11
4980644,15
4981268,15
4981900,14
4982520,17
4983148,12
4983776,11
4984400,11
4985028,11
4985648,14
4986276,14
4986908,14
4987528,19
4988156,20
4988784,24
4989416,17
4990048,14
4990664,14
4991296,13
4991924,16
4992548,14
4993180,10
4993800,14
4994428,11
4995056,11
4995680,10
4996308,12
4996936,14
4997564,13
4998196,14
4998816,15
4999444,15
5000068,16
5000700,14
5001328,14
5001948,10
5002576,10
5003200,11
5003824,11
5004456,11
5005072,12
5005704,13
5006328,15
5006952,17
5007584,20
5008208,19
5008836,16
5009468,16
5010088,12
5010716,17
5011344,21
5011972,19
5012604,15
5013224,14
5013856,14
5014480,14
5015104,14
5015736,14
5016356,17
5016984,21
5017616,14
5018232,10
5018864,11
5019488,13
5020116,15
5020748,11
5021368,11
5022000,14
5022624,16
5023248,18
5023880,16
5024496,19
5025128,17
5025752,17
5026376,13
5027008,12
5027624,11
5028256,11
5028884,13
5029504,11
5030136,11
5030760,14
5031388,13
5032020,16
5032640,16
5033272,11
5033896,12
5034520,12
5035152,11
5035772,12
5036400,16
5037028,14
5037652,11
5038284,14
5038904,18
5039536,17
5040164,18
5040784,18
5041412,18
5042040,15
5042668,11
5043300,10
5043920,11
5044548,12
5045176,16
5045800,18
5046428,15
5047048,17
5047676,16
5048304,15
5048928,14
5049560,14
5050184,11
5050816,11
5051444,11
5052064,11
5052696,15
5053320,16
5053952,13
5054584,11
5055204,14
5055832,22
5056460,21
5057084,18
5057716,18
5058336,13
5058968,12
5059596,10
5060216,11
5060848,11
5061472,11
5062100,10
5062732,10
5063352,13
5063984,17
5064608,14
5065236,14
5065864,15
5066488,12
5067120,11
5067744,11
5068368,11
5069000,14
5069624,13
5070256,11
5070884,13
5071504,15
5072136,16
5072760,18
5073392,20
5074024,18
5074640,14
5075272,13
5075896,11
5076520,11
5077152,10
5077772,10
5078400,11
5079028,14
5079652,14
5080284,14
5080908,13
5081540,13
5082172,12
5082792,15
5083424,13
5084048,11
5084680,11
5085308,12
5085928,14
5086560,17
5087184,17
5087808,16
5088440,17
5089064,20
5089696,17
5090324,16
5090944,14
5091576,12
5092200,17
5092832,16
5093460,10
5094080,12
5094712,11
5095336,17
5095960,16
5096592,11
5097212,13
5097840,17
5098468,17
5099092,17
5099724,14
5100344,11
5100976,14
5101604,10
5102224,11
5102856,11
5103480,12
5104112,13
5104744,13
5105360,16
5105992,15
5106620,17
5107244,18
5107876,15
5108496,15
5109128,11
5109752,11
5110380,10
5111012,10
5111636,11
5112268,11
5112904,10
5113520,11
5114156,13
5114780,13
5115408,15
5116040,14
5116660,12
5117292,11
5117920,14
5118544,11
5119180,12
5119804,12
5120436,11
5121064,12
5121688,16
5122316,16
5122936,16
5123568,16
5124196,14
5124816,12
5125444,12
5126068,13
5126688,18
5127320,14
5127936,12
5128564,15
5129188,12
5129812,13
5130440,19
5131056,16
5131684,13
5132316,13
5132936,14
5133564,11
5134188,11
5134816,12
5135448,10
5136064,12
5136692,13
5137316,11
5137940,11
5138568,14
5139188,18
5139816,22
5140440,23
5141064,24
5141692,19
5142312,13
5142940,10
5143572,10
5144192,11
5144820,13
5145444,13
5146076,13
5146704,12
5147328,18
5147956,16
5148580,16
5149204,19
5149836,12
5150456,11
5151084,11
5151708,13
5152336,13
5152964,14
5153584,15
5154212,13
5154844,14
5155464,22
5156092,17
5156716,13
5157348,13
5157980,13
5158600,13
5159228,11
5159852,11
5160480,17
5161108,20
5161728,18
5162356,11
5162980,16
5163604,18
5164232,18
5164856,14
5165484,13
5166116,16
5166736,21
5167364,17
5167988,11
5168620,11
5169252,12
5169872,12
5170500,13
5171128,22
5171752,26
5172380,27
5173000,21
5173628,15
5174252,14
5174876,11
5175508,10
5176132,10
5176764,10
5177392,10
5178016,11
5178644,11
5179268,13
5179900,12
5180532,14
5181152,16
5181784,16
5182408,14
5183028,12
5183660,10
5184280,14
5184908,12
5185532,10
5186160,12
5186788,15
5187412,20
5188044,16
5188672,14
5189292,13
5189920,15
5190544,15
5191172,14
5191804,12
5192424,16
5193052,19
5193680,15
5194300,13
5194932,10
5195552,13
5196184,12
5196812,10
5197432,13
5198060,14
5198688,15
5199316,13
5199948,10
5200568,12
5201196,13
5201824,11
5202448,14
5203076,15
5203696,14
5204324,19
5204948,21
5205572,25
5206204,26
5206824,27
5207452,19
5208084,14
5208704,13
5209332,13
5209960,11
5210588,13
5211220,16
5211840,15
5212472,15
5213096,11
5213720,13
5214348,12
5214968,14
5215596,15
5216224,15
5216848,10
5217476,10
5218096,11
5218724,12
5219356,10
5219976,11
5220608,13
5221232,15
5221864,15
5222492,15
5223112,13
5223740,14
5224364,15
5224988,14
5225616,13
5226240,15
5226868,11
5227492,11
5228120,10
5228748,10
5229368,12
5229996,12
5230628,13
5231248,14
5231880,14
5232504,14
5233136,11
5233764,12
5234384,17
5235016,14
5235640,12
5236264,16
5236896,14
5237512,11
5238144,12
5238768,21
5239392,21
5240024,19
5240648,20
5241276,17
5241908,14
5242528,14
5243160,11
5243780,13
5244412,15
5245040,12
5245656,10
5246288,16
5246912,15
5247532,16
5248164,15
5248780,14
5249408,16
5250032,15
5250656,13
5251284,11
5251904,11
5252536,13
5253164,14
5253784,17
5254412,18
5255032,19
5255664,19
5256292,13
5256912,14
5257540,14
5258164,11
5258788,11
5259416,10
5260040,10
5260668,12
5261292,11
5261916,11
5262548,11
5263172,11
5263800,14
5264432,15
5265048,15
5265676,13
5266300,15
5266928,17
5267560,17
5268176,12
5268804,11
5269428,11
5270052,12
5270680,14
5271304,21
5271932,21
5272560,20
5273184,17
5273812,14
5274436,14
5275064,11
5275696,12
5276312,13
5276940,10
5277564,11
5278196,11
5278824,12
5279448,14
5280076,12
5280700,16
5281324,15
5281952,14
5282568,14
5283196,13
5283820,17
5284444,15
5285072,10
5285696,11
5286324,11
5286956,11
5287576,12
5288204,13
5288828,17
5289456,19
5290084,19
5290704,16
5291332,13
5291956,10
5292580,11
5293212,12
5293832,12
5294460,11
5295084,13
5295708,14
5296340,13
5296960,12
5297592,14
5298220,13
5298840,14
5299468,14
5300092,11
5300724,10
5301352,10
5301972,12
5302600,13
5303224,11
5303848,11
5304476,10
5305096,12
5305724,16
5306348,22
5306972,24
5307604,21
5308228,16
5308856,12
5309484,10
5310104,11
5310732,11
5311360,11
5311988,17
5312620,14
5313240,11
5313868,15
5314492,14
5315120,15
5315748,15
5316368,17
5316996,13
5317624,12
5318248,11
5318876,11
5319500,11
5320132,11
5320764,11
5321384,16
5322016,17
5322640,20
5323268,17
5323900,18
5324520,18
5325152,15
5325772,16
5326396,11
5327024,10
5327648,11
5328276,10
5328904,10
5329528,11
5330156,11
5330780,13
5331408,14
5332036,14
5332656,15
5333284,14
5333908,12
5334536,12
5335164,10
5335784,11
5336412,14
5337036,12
5337660,12
5338288,12
5338912,18
5339540,16
5340172,15
5340792,16
5341420,17
5342044,17
5342676,10
5343308,10
5343928,10
5344560,11
5345184,12
5345808,13
5346436,10
5347056,12
5347684,13
5348308,14
5348932,14
5349564,14
5350184,11
5350816,13
5351444,13
5352064,11
5352692,11
5353316,11
5353948,13
5354576,14
5355196,13
5355824,14
5356452,14
5357076,13
5357704,14
5358324,13
5358952,14
5359580,13
5360204,10
5360832,9
5361400,10
5362028,9
5362600,11
5363232,11
5363860,14
5364480,13
5365108,17
5365732,15
5366360,13
5366988,14
5367608,22
5368236,22
5368868,12
5369488,13
5370116,17
5370740,13
5371372,11
5372004,10
5372624,18
5373256,18
5373880,15
5374504,15
5375136,10
5375752,14
5376384,17
5377008,15
5377632,13
5378260,11
5378884,10
5379512,11
5380140,14
5380760,16
5381388,13
5382012,14
5382644,16
5383272,11
5383888,14
5384520,15
5385144,12
5385768,16
5386396,12
5387016,11
5387644,17
5388268,18
5388892,18
5389520,17
5390144,17
5390772,15
5391404,12
5392024,11
5392652,13
5393276,12
5393908,12
5394536,10
5395156,17
5395788,27
5396412,26
5397036,14
5397664,12
5398288,14
5398916,15
5399544,16
5400168,13
5400796,15
5401424,15
5402052,15
5402684,16
5403304,18
5403932,13
5404560,12
5405188,11
5405820,12
5406440,16
5407068,14
5407692,15
5408316,11
5408948,10
5409568,11
5410196,10
5410828,10
5411448,15
5412076,12
5412700,11
5413332,11
5413960,14
5414584,15
5415212,13
5415836,13
5416460,13
5417092,10
5417712,12
5418340,10
5418964,11
5419588,12
5420220,10
5420840,15
5421468,21
5422100,20
5422720,17
5423348,17
5423976,14
5424608,14
5425236,10
5425856,13
5426488,13
5427112,11
5427736,11
5428364,10
5428984,11
5429612,11
5430236,11
5430860,15
5431492,16
5432112,19
5432740,16
5433372,10
5433992,11
5434620,12
5435244,15
5435876,14
5436508,11
5437128,12
5437760,11
5438380,11
5439008,17
5439636,14
5440256,14
5440884,15
5441508,15
5442132,19
5442760,15
5443376,12
5444004,12
5444632,17
5445256,25
5445884,22
5446508,12
5447140,18
5447768,21
5448384,19
5449012,15
5449636,13
5450260,11
5450888,10
5451504,11
5452132,10
5452760,11
5453384,11
5454012,10
5454632,12
5455260,14
5455892,18
5456512,15
5457140,16
5457764,18
5458396,20
5459024,15
5459644,10
5460272,11
5460896,16
5461520,19
5462148,14
5462768,12
5463396,11
5464020,13
5464644,14
5465276,13
5465896,14
5466524,12
5467156,10
5467776,12
5468408,11
5469028,10
5469660,11
5470288,11
5470912,23
5471540,29
5472168,31
5472792,26
5473420,16
5474040,17
5474668,17
5475292,14
5475916,10
5476548,10
5477168,12
5477800,11
5478428,10
5479048,13
5479676,11
5480300,11
5480932,13
5481560,13
5482184,15
5482812,16
5483440,12
5484064,11
5484692,11
5485312,12
5485944,13
5486568,16
5487192,13
5487824,11
5488440,11
5489072,17
5489700,15
5490320,15
5490948,15
5491572,14
5492204,13
5492832,11
5493456,12
5494084,10
5494708,12
5495336,14
5495964,12
5496584,11
5497212,13
5497840,14
5498464,15
5499092,14
5499720,17
5500348,12
5500980,12
5501600,11
5502228,13
5502856,13
5503488,11
5504120,11
5504736,13
5505364,17
5505988,20
5506612,18
5507244,16
5507864,22
5508492,14
5509116,10
5509744,12
5510376,11
5511000,12
5511632,11
5512260,11
5512880,15
5513508,13
5514136,15
5514760,14
5515392,14
5516008,14
5516640,13
5517264,15
5517888,15
5518520,10
5519136,11
5519768,11
5520400,11
5521016,11
5521644,14
5522272,20
5522900,20
5523532,18
5524152,15
5524784,15
5525408,11
5526032,12
5526664,12
5527280,11
5527912,12
5528536,11
5529164,11
5529792,10
5530416,11
5531044,13
5531672,12
5532296,15
5532924,16
5533548,14
5534180,10
5534812,11
5535432,12
5536064,11
5536684,12
5537308,13
5537940,16
5538560,14
5539188,13
5539816,14
5540440,15
5541068,15
5541688,17
5542316,25
5542948,26
5543568,18
5544200,11
5544824,11
5545452,12
5546084,18
5546704,15
5547336,14
5547960,14
5548584,14
5549216,13
5549832,13
5550464,11
5551088,11
5551712,11
5552344,11
5552968,11
5553596,11
5554228,10
5554848,15
5555480,22
5556104,21
5556732,15
5557364,14
5557984,14
5558616,11
5559240,11
5559864,11
5560496,10
5561112,11
5561744,15
5562372,17
5562992,17
5563624,11
5564248,16
5564880,16
5565508,14
5566128,15
5566760,11
5567384,11
5568008,11
5568636,10
5569256,13
5569888,12
5570512,12
5571136,11
5571764,13
5572384,19
5573012,18
5573644,20
5574264,22
5574896,20
5575520,17
5576148,11
5576780,16
5577400,18
5578032,13
5578656,12
5579280,11
5579908,14
5580528,16
5581160,15
5581784,15
5582408,14
5583036,14
5583656,11
5584288,11
5584916,10
5585536,12
5586168,11
5586792,11
5587420,13
5588052,14
5588672,14
5589300,16
5589928,16
5590552,18
5591184,19
5591800,15
5592432,11
5593056,13
5593680,16
5594308,16
5594928,15
5595560,11
5596188,10
5596808,12
5597436,13
5598064,15
5598696,15
5599328,13
5599944,12
5600576,11
5601200,12
5601824,13
5602456,10
5603072,12
5603700,14
5604328,16
5604948,15
5605580,20
5606200,23
5606832,20
5607460,16
5608080,14
5608708,11
5609332,11
5609964,10
5610592,12
5611216,17
5611844,21
5612468,16
5613096,12
5613724,10
5614344,14
5614972,14
5615600,13
5616224,13
5616852,11
5617476,11
5618108,10
5618736,10
5619360,12
5619988,12
5620612,11
5621244,15
5621876,18
5622496,25
5623124,25
5623748,22
5624376,19
5625004,14
5625624,12
5626252,11
5626880,10
5627504,15
5628136,17
5628760,14
5629392,14
5630024,15
5630644,16
5631272,14
5631900,14
5632528,18
5633156,14
5633776,12
5634404,11
5635028,13
5635652,15
5636280,15
5636904,15
5637532,15
5638164,18
5638784,21
5639412,19
5640036,19
5640668,22
5641296,20
5641912,13
5642544,11
5643168,12
5643792,14
5644420,16
5645040,12
5645668,11
5646292,11
5646916,11
5647548,12
5648168,14
5648796,14
5649428,12
5650048,12
5650676,11
5651300,13
5651932,13
5652564,11
5653184,11
5653812,12
5654436,11
5655060,11
5655688,14
5656312,16
5656940,19
5657568,23
5658192,22
5658820,17
5659440,14
5660068,12
5660700,11
5661320,13
5661948,11
5662576,11
5663204,12
5663836,11
5664456,14
5665084,13
5665708,15
5666332,15
5666964,12
5667584,11
5668216,10
5668840,11
5669460,11
5670092,10
5670712,12
5671344,13
5671972,16
5672592,13
5673224,15
5673848,17
5674476,19
5675108,16
5675728,17
5676360,18
5676984,15
5677608,11
5678236,10
5678856,10
5679488,13
5680112,11
5680736,13
5681364,15
5681988,15
5682620,14
5683252,14
5683872,12
5684500,12
5685124,11
5685756,10
5686384,10
5687008,11
5687640,16
5688264,21
5688888,18
5689516,16
5690136,15
5690768,18
5691396,16
5692016,20
5692648,25
5693272,17
5693904,11
5694532,15
5695152,15
5695784,15
5696408,15
5697032,14
5697660,16
5698280,15
5698908,14
5699532,14
5700156,11
5700788,11
5701408,11
5702040,10
5702668,10
5703288,13
5703920,13
5704544,11
5705172,11
5705804,14
5706424,18
5707052,15
5707680,15
5708304,14
5708936,17
5709552,17
5710184,12
5710808,11
5711432,11
5712064,10
5712680,10
5713308,12
5713940,14
5714560,15
5715188,15
5715816,15
5716448,15
5717080,10
5717696,14
5718328,13
5718952,11
5719576,11
5720208,12
5720832,15
5721464,13
5722088,13
5722712,24
5723344,25
5723964,22
5724596,18
5725224,12
5725848,11
5726480,15
5727104,12
5727736,11
5728368,13
5728984,14
5729616,11
5730240,17
5730864,19
5731496,14
5732116,13
5732748,16
5733372,12
5734000,11
5734632,10
5735256,11
5735888,12
5736516,10
5737136,15
5737764,15
5738388,11
5739016,14
5739644,16
5740264,16
5740892,14
5741516,15
5742140,17
5742772,15
5743392,11
5744024,13
5744652,12
5745272,15
5745900,11
5746528,11
5747156,12
5747788,16
5748408,17
5749036,15
5749664,14
5750288,13
5750916,10
5751536,13
5752168,15
5752792,14
5753416,13
5754048,12
5754664,12
5755296,14
5755924,13
5756544,15
5757176,16
5757800,15
5758432,15
5759060,15
5759680,11
5760312,10
5760932,11
5761556,12
5762188,14
5762808,13
5763436,11
5764060,13
5764684,13
5765312,14
5765932,14
5766560,17
5767188,14
5767808,14
5768436,11
5769060,17
5769688,18
5770320,18
5770936,19
5771564,21
5772188,26
5772812,22
5773444,18
5774064,18
5774692,14
5775320,10
5775944,11
5776572,10
5777192,11
5777820,11
5778452,10
5779072,13
5779700,16
5780324,15
5780956,13
5781584,13
5782208,15
5782836,14
5783460,16
5784088,14
5784716,11
5785336,15
5785968,13
5786588,14
5787212,14
5787844,22
5788464,24
5789092,22
5789724,16
5790344,15
5790976,15
5791600,14
5792228,11
5792860,10
5793480,11
5794108,13
5794732,14
5795356,11
5795988,10
5796608,12
5797236,11
5797860,13
5798484,14
5799116,14
5799736,16
5800364,12
5800996,11
5801616,11
5802244,10
5802868,10
5803500,11
5804132,14
5804752,19
5805384,20
5806008,18
5806632,16
5807260,18
5807880,14
5808512,11
5809136,11
5809760,12
5810388,11
5811016,11
5811648,11
5812276,10
5812896,11
5813524,11
5814152,14
5814780,13
5815412,14
5816032,13
5816664,15
5817288,11
5817912,15
5818540,16
5819160,13
5819792,11
5820420,11
5821040,15
5821668,19
5822296,22
5822924,23
5823556,18
5824176,18
5824808,16
5825428,13
5826056,11
5826684,12
5827304,11
5827932,13
5828556,13
5829184,11
5829812,10
5830432,11
5831060,15
5831692,15
5832312,15
5832944,13
5833568,11
5834200,13
5834832,11
5835448,14
5836080,16
5836708,17
5837332,11
5837964,12
5838584,17
5839212,18
5839840,17
5840464,15
5841092,14
5841712,15
5842340,13
5842972,10
5843592,12
5844220,12
5844844,13
5845476,10
5846108,12
5846728,13
5847356,13
5847984,14
5848608,14
5849236,14
5849856,15
5850484,15
5851108,18
5851736,12
5852368,12
5852984,12
5853612,11
5854244,11
5854864,11
5855496,14
5856120,18
5856748,17
5857380,14
5858000,21
5858628,25
5859252,18
5859876,14
5860508,14
5861128,19
5861756,15
5862384,11
5863008,12
5863636,15
5864264,15
5864892,14
5865524,14
5866144,14
5866776,13
5867400,13
5868032,11
5868660,10
5869280,11
5869908,11
5870536,11
5871160,12
5871792,14
5872412,16
5873040,15
5873672,15
5874292,17
5874924,16
5875548,13
5876180,11
5876808,11
5877432,15
5878064,13
5878688,12
5879312,12
5879944,11
5880564,14
5881192,13
5881816,14
5882440,15
5883072,14
5883692,13
5884324,11
5884952,10
5885576,10
5886208,11
5886832,14
5887464,13
5888096,11
5888712,18
5889340,21
5889964,19
5890588,18
5891220,18
5891840,15
5892468,12
5893096,11
5893720,11
5894352,11
5894972,11
5895600,12
5896232,12
5896848,12
5897480,15
5898104,15
5898736,14
5899364,14
5899984,14
5900612,11
5901240,13
5901864,11
5902492,10
5903112,13
5903744,11
5904368,12
5904992,15
5905620,18
5906244,24
5906876,17
5907504,14
5908128,14
5908760,11
5909384,11
5910012,14
5910644,18
5911264,12
5911896,11
5912520,17
5913144,16
5913776,12
5914392,14
5915024,13
5915652,14
5916272,15
5916904,13
5917528,11
5918156,11
5918788,13
5919408,11
5920040,13
5920660,14
5921284,12
5921916,12
5922536,20
5923168,17
5923792,18
5924416,17
5925044,15
5925664,17
5926296,16
5926924,10
5927544,11
5928176,11
5928800,11
5929428,11
5930060,10
5930680,13
5931312,16
5931936,17
5932560,17
5933192,15
5933808,11
5934440,12
5935064,11
5935688,11
5936320,12
5936936,12
5937568,11
5938196,13
5938816,15
5939448,25
5940072,23
5940700,16
5941332,16
5941952,16
5942580,14
5943204,11
5943828,11
5944460,10
5945080,11
5945708,10
5946332,11
5946956,13
5947588,16
5948208,15
5948836,14
5949468,15
5950088,18
5950716,13
5951344,11
5951976,13
5952608,14
5953224,15
5953852,13
5954480,13
5955104,13
5955732,14
5956352,16
5956984,15
5957608,15
5958232,15
5958864,13
5959480,21
5960112,26
5960740,18
5961360,11
5961988,10
5962616,11
5963244,13
5963876,17
5964496,21
5965128,17
5965748,17
5966376,17
5967004,14
5967624,11
5968256,11
5968880,13
5969500,15
5970132,16
5970756,17
5971388,21
5972020,22
5972640,20
5973268,18
5973896,21
5974528,16
5975156,12
5975776,12
5976408,13
5977032,14
5977656,11
5978284,10
5978904,11
5979536,12
5980164,13
5980784,17
5981416,19
5982040,15
5982672,14
5983300,14
5983920,12
5984552,13
5985176,11
5985800,11
5986428,10
5987048,14
5987680,18
5988304,19
5988928,21
5989560,22
5990180,17
5990808,14
5991440,14
5992060,12
5992688,10
5993312,11
5993944,11
5994572,10
5995192,12
5995824,17
5996448,22
5997072,19
5997704,14
5998320,13
5998952,15
5999580,15
6000204,16
6000836,14
6001456,13
6002084,11
6002716,16
6003336,15
6003964,11
6004588,17
6005220,22
6005852,24
6006472,24
6007100,19
6007728,15
6008352,14
6008980,11
6009600,13
6010228,11
6010856,10
6011480,11
6012112,11
6012728,12
6013360,11
6013992,10
6014616,14
6015248,16
6015876,19
6016508,25
6017136,14
6017760,11
6018388,13
6019016,16
6019640,13
6020272,11
6020888,11
6021516,14
6022144,16
6022768,19
6023396,19
6024024,17
6024652,15
6025284,14
6025904,13
6026536,11
6027160,11
6027784,13
6028416,13
6029032,12
6029664,11
6030288,12
6030912,14
6031544,14
6032164,14
6032792,15
6033424,13
6034040,10
6034672,11
6035296,11
6035928,14
6036556,10
6037176,12
6037808,11
6038432,19
6039056,25
6039688,27
6040308,22
6040936,16
6041564,13
6042188,10
6042820,10
6043440,11
6044068,11
6044700,10
6045320,11
6045952,11
6046576,11
6047208,11
6047836,13
6048456,17
6049088,18
6049712,15
6050336,13
6050968,12
6051584,15
6052216,16
6052840,12
6053464,11
6054096,12
6054716,11
6055344,13
6055976,19
6056596,20
6057228,20
6057852,19
6058484,19
6059116,13
6059736,10
6060368,10
6060996,10
6061620,11
6062252,10
6062872,11
6063504,11
6064132,14
6064752,17
6065384,15
6066008,14
6066636,17
6067268,16
6067888,12
6068516,11
6069144,12
6069768,11
6070396,10
6071016,11
6071648,12
6072276,16
6072900,21
6073532,16
6074152,18
6074784,16
6075416,13
6076036,14
6076668,10
6077292,14
6077924,12
6078556,12
6079176,14
6079808,18
6080436,19
6081060,14
6081692,13
6082312,16
6082944,18
6083568,14
6084192,13
6084820,12
6085444,14
6086076,13
6086704,10
6087328,11
6087960,16
6088584,19
6089212,22
6089844,17
6090464,15
6091096,15
6091720,14
6092344,11
6092976,11
6093592,11
6094224,13
6094852,11
6095472,11
6096104,11
6096728,11
6097356,11
6097988,12
6098608,14
6099236,14
6099864,15
6100488,11
6101116,11
6101736,12
6102368,11
6102996,11
6103620,11
6104252,11
6104872,12
6105504,15
6106136,17
6106752,17
6107384,17
6108008,14
6108640,11
6109268,11
6109888,10
6110520,11
6111144,14
6111768,13
6112400,14
6113024,13
6113656,11
6114280,13
6114904,14
6115536,13
6116156,13
6116788,13
6117420,11
6118040,14
6118672,11
6119300,11
6119932,14
6120564,12
6121184,20
6121816,22
6122440,22
6123064,17
6123696,14
6124316,14
6124944,14
6125576,12
6126196,11
6126828,10
6127452,11
6128084,12
6128716,13
6129336,11
6129968,11
6130592,13
6131216,17
6131848,21
6132468,18
6133100,14
6133724,13
6134352,15
6134984,16
6135604,17
6136236,13
6136868,11
6137488,11
6138120,13
6138748,13
6139380,18
6140012,16
6140632,16
6141268,16
6141892,16
6142520,13
6143152,11
6143772,11
6144408,11
6145036,12
6145656,12
6146284,10
6146908,11
6147536,13
6148164,12
6148784,15
6149412,16
6150036,16
6150664,11
6151292,14
6151912,17
6152544,15
6153168,13
6153792,13
6154420,12
6155040,13
6155668,11
6156300,12
6156920,14
6157548,15
6158172,17
6158804,13
6159436,12
6160056,14
6160684,11
6161308,12
6161932,17
6162560,18
6163184,13
6163816,11
6164440,13
6165064,14
6165692,14
6166312,13
6166944,13
6167572,16
6168192,17
6168820,11
6169444,12
6170076,11
6170708,14
6171328,11
6171956,11
6172584,15
6173208,18
6173836,21
6174456,19
6175088,15
6175712,11
6176336,12
6176964,10
6177584,13
6178212,11
6178844,11
6179464,12
6180096,12
6180720,12
6181348,13
6181980,14
6182600,14
6183228,13
6183856,12
6184480,15
6185108,22
6185728,25
6186356,14
6186984,12
6187608,13
6188236,10
6188856,11
6189484,13
6190116,14
6190736,14
6191368,15
6191992,17
6192624,16
6193256,12
6193872,10
6194504,11
6195128,11
6195752,13
6196384,16
6197004,18
6197632,16
6198256,14
6198884,15
6199512,15
6200140,14
6200768,11
6201400,11
6202020,10
6202648,11
6203276,11
6203904,11
6204536,16
6205160,21
6205792,18
6206416,17
6207040,16
6207672,14
6208292,14
6208920,12
6209548,10
6210168,11
6210800,10
6211424,10
6212052,11
6212684,10
6213304,11
6213936,11
6214560,14
6215184,13
6215816,14
6216436,14
6217064,11
6217688,11
6218312,12
6218944,11
6219560,13
6220192,13
6220824,13
6221440,19
6222068,17
6222696,22
6223328,20
6223960,21
6224580,18
6225212,15
6225836,13
6226460,10
6227092,10
6227712,11
6228344,12
6228968,12
6229592,13
6230224,11
6230840,11
6231472,17
6232104,15
6232720,13
6233352,14
6233976,12
6234608,11
6235240,10
6235856,11
6236488,12
6237112,12
6237736,12
6238368,13
6238988,17
6239616,23
6240244,19
6240868,19
6241496,18
6242120,15
6242748,11
6243380,12
6244000,11
6244628,11
6245256,11
6245884,11
6246516,10
6247136,11
6247764,13
6248388,14
6249012,14
6249644,14
6250264,15
6250892,12
6251516,12
6252144,10
6252776,11
6253400,11
6254032,14
6254660,19
6255280,16
6255912,12
6256536,16
6257160,17
6257792,14
6258408,16
6259036,17
6259664,15
6260288,11
6260920,10
6261536,15
6262168,13
6262796,10
