tempo_arduino_micro_s,valor_ADC
500,10
1004,12
1504,14
2000,17
2508,15
3000,14
3508,11
4000,13
4508,13
5000,14
5500,14
6000,14
6500,14
7004,15
7500,13
8000,13
8500,16
9000,15
9500,16
10000,16
10516,13
11036,12
11564,12
12084,13
12612,16
13132,14
13660,14
14180,14
14708,14
15228,10
15756,10
16276,11
16796,11
17316,10
17836,10
18356,11
18876,14
19396,15
19916,11
20436,11
20956,14
21476,14
21996,14
22516,16
23036,14
23564,12
24084,16
24612,17
25132,22
25660,23
26180,20
26708,15
27228,11
27756,10
28276,12
28804,11
29324,14
29852,15
30372,14
30900,15
31420,15
31948,12
32472,12
32996,12
33516,11
34044,10
34564,12
35092,14
35612,14
36140,14
36660,14
37188,14
37708,14
38236,14
38760,13
39284,14
39804,14
40332,15
40852,16
41372,16
41892,17
42412,19
42932,18
43452,11
43972,10
44492,10
45012,11
45532,13
46052,13
46572,14
47092,14
47612,14
48140,13
48660,10
49188,10
49708,11
50236,11
50756,10
51284,11
51804,11
52332,11
52852,11
53380,11
53900,13
54428,14
54948,13
55476,15
55996,17
56524,17
57044,17
57572,15
58096,16
58620,16
59140,14
59668,13
60188,13
60716,11
61240,11
61764,11
62284,14
62812,13
63332,14
63860,14
64384,14
64908,13
65428,10
65948,11
66468,10
66988,11
67508,12
68028,15
68548,17
69068,14
69588,12
70108,11
70628,14
71148,15
71668,14
72192,16
72716,18
73236,20
73764,20
74284,17
74812,14
75332,11
75860,12
76384,13
76908,15
77428,12
77956,10
78476,10
79004,14
79528,12
80052,14
80572,14
81100,13
81620,13
82148,10
82668,11
83196,10
83720,10
84244,11
84764,11
85292,12
85812,10
86340,10
86860,11
87388,15
87908,15
88436,15
88956,15
89484,14
90004,14
90524,14
91044,15
91564,14
92084,15
92604,14
93124,16
93644,14
94164,11
94684,10
95204,10
95724,14
96248,13
96764,14
97292,14
97812,14
98340,12
98860,10
99388,10
99908,12
100436,12
101000,11
101584,11
102156,14
102736,13
103304,12
103880,13
104456,14
105024,13
105600,15
106168,14
106744,11
107312,14
107896,14
108464,14
109040,14
109624,15
110192,16
110768,16
111336,18
111920,16
112492,15
113072,15
113640,14
114216,14
114792,14
115364,11
115944,12
116512,11
117096,10
117664,10
118240,11
118824,11
119392,11
119976,15
120548,21
121128,16
121696,16
122280,15
122848,15
123428,13
124008,15
124576,18
125160,16
125728,14
126312,12
126884,11
127456,11
128040,11
128608,12
129184,14
129752,13
130328,14
130896,15
131480,14
132048,11
132624,14
133200,19
133768,19
134344,15
134912,11
135496,13
136064,14
136648,12
137224,15
137792,16
138376,18
138944,20
139528,17
140096,15
140680,17
141252,18
141824,15
142408,14
142976,15
143560,13
144128,10
144712,10
145280,11
145864,13
146440,14
147008,14
147592,14
148160,14
148744,10
149312,11
149896,10
150464,11
151040,14
151624,15
152196,15
152776,14
153348,14
153928,13
154496,15
155080,13
155656,14
156224,19
156808,22
157376,21
157952,23
158524,22
159104,15
159676,11
160252,10
160832,11
161400,11
161976,11
162544,14
163128,13
163700,13
164280,13
164848,13
165416,10
165992,11
166560,12
167144,10
167712,11
168296,11
168864,10
169432,11
170008,11
170576,13
171152,14
171724,14
172304,15
172872,18
173456,19
174024,19
174600,17
175184,16
175756,14
176336,11
176904,11
177488,11
178056,11
178640,10
179216,14
179784,13
180360,14
180928,15
181512,12
182084,11
182664,11
183232,11
183808,11
184392,15
184960,19
185544,19
186112,14
186696,11
187264,15
187848,14
188424,16
188992,15
189576,16
190144,15
190728,15
191296,18
191880,21
192452,19
193024,18
193608,16
194176,13
194752,13
195320,14
195904,13
196472,14
197056,13
197628,13
198200,11
198784,11
199356,13
199936,12
200508,14
201088,13
201656,13
202232,14
202816,13
203388,16
203968,15
204540,14
205120,14
205688,14
206264,17
206832,20
207400,24
207976,26
208544,22
209128,15
209696,14
210280,12
210848,11
211416,11
212000,12
212568,14
213144,14
213712,14
214296,14
214864,13
215448,11
216016,11
216592,10
217176,11
217748,12
218328,16
218896,16
219480,12
220048,11
220624,15
221208,14
221776,16
222360,15
222932,16
223512,21
224084,27
224664,25
225232,20
225812,14
226392,11
226960,13
227544,11
228112,11
228696,12
229264,13
229840,14
230424,14
230992,13
231568,12
232140,11
232720,11
233288,12
233872,12
234444,11
235016,14
235600,12
236168,14
236752,11
237324,14
237904,13
238476,15
239056,16
239632,16
240204,15
240784,19
241352,22
241936,21
242504,18
243088,13
243660,11
244232,11
244816,10
245384,14
245968,13
246536,15
247120,13
247688,15
248272,13
248848,14
249416,12
250000,10
250568,10
251152,14
251724,14
252304,12
252876,13
253448,13
254032,14
254604,14
255184,13
255756,14
256336,16
256912,16
257488,17
258064,18
258632,17
259208,19
259776,19
260352,17
260920,14
261504,10
262072,15
262648,13
263232,14
263800,15
264384,14
264952,11
265536,11
266108,13
266688,12
267256,11
267832,11
268416,11
268984,11
269568,14
270136,14
270720,13
271288,15
271868,18
272448,18
273016,16
273600,18
274168,18
274752,16
275324,16
275904,11
276476,13
277052,12
277632,11
278204,11
278784,13
279356,14
279936,13
280508,14
281080,15
281664,12
282232,12
282816,11
283384,10
283968,9
284488,10
285064,11
285636,11
286212,11
286792,11
287360,14
287944,15
288516,15
289096,15
289664,16
290248,17
290824,17
291392,16
291976,15
292548,14
293128,13
293696,13
294280,12
294852,11
295424,15
296008,14
296576,13
297160,14
297728,14
298312,13
298884,13
299464,11
300040,11
300612,10
301192,10
301764,11
302344,11
302916,11
303496,11
304068,14
304644,14
305224,14
305796,15
306376,15
306948,16
307528,18
308104,17
308688,15
309264,16
309832,14
310416,11
310984,10
311568,10
312140,14
312720,13
313292,14
313868,15
314448,15
315020,11
315600,10
316180,11
316760,9
317280,11
317856,11
318428,16
319004,16
319584,16
320156,11
320736,15
321304,16
321888,15
322456,16
323032,16
323616,18
324184,20
324768,21
325340,19
325920,13
326488,11
327072,11
327644,11
328220,11
328800,14
329368,13
329944,13
330512,15
331096,14
331664,14
332240,14
332824,11
333392,11
333968,11
334536,14
335120,17
335688,16
336272,13
336840,13
337416,15
338000,16
338568,21
339144,24
339716,28
340296,26
340864,25
341448,22
342024,21
342592,18
343176,15
343748,11
344328,12
344896,12
345480,14
346052,14
346624,14
347208,14
347776,14
348360,10
348928,11
349512,11
350084,11
350664,13
351240,14
351812,16
352392,17
352960,15
353544,12
354116,14
354696,13
355268,14
355844,14
356424,13
356996,14
357576,18
358148,23
358728,25
359304,26
359888,24
360464,24
361032,22
361616,14
362184,15
362768,15
363340,15
363920,13
364492,14
365064,13
365648,12
366220,11
366800,11
367368,11
367952,11
368524,13
369104,13
369680,14
370248,14
370832,15
371404,14
371984,13
372556,15
373136,13
373708,13
374284,16
374864,18
375436,17
376016,17
376584,17
377168,13
377740,15
378320,12
378896,13
379464,15
380048,14
380620,15
381200,15
381772,11
382352,10
382924,11
383500,11
384084,11
384652,10
385232,13
385804,12
386384,13
386956,15
387536,14
388112,15
388684,14
389264,14
389832,14
390416,14
390984,18
391568,16
392140,15
392716,13
393296,13
393868,12
394448,12
395016,13
395600,14
396172,14
396752,13
397328,14
397900,14
398480,11
399052,11
399632,11
400212,11
400792,11
401364,11
401940,15
402520,15
403092,15
403672,16
404252,14
404832,14
405400,16
405980,18
406560,21
407132,24
407712,27
408284,22
408864,13
409436,13
410016,12
410592,10
411160,11
411736,11
412304,14
412888,13
413456,13
414032,13
414600,13
415184,11
415760,11
416328,11
416912,11
417480,12
418064,15
418632,17
419216,15
419784,12
420364,15
420944,18
421512,16
422096,15
422664,14
423248,16
423816,18
424400,13
424976,15
425544,13
426120,16
426688,19
427272,14
427840,11
428424,13
428996,16
429568,16
430152,14
430720,15
431304,14
431876,12
432456,12
433024,12
433608,13
434184,11
434756,11
435336,18
435904,18
436488,14
437056,15
437640,13
438212,14
438788,16
439368,19
439936,18
440520,21
441092,21
441672,19
442240,14
442824,12
443400,13
443968,11
444552,12
445124,14
445704,13
446276,14
446856,16
447428,16
448004,11
448584,11
449152,14
449736,13
450308,12
450888,11
451456,16
452040,14
452616,15
453188,14
453768,15
454336,14
454920,13
455488,14
456072,15
456640,18
457216,18
457800,18
458372,18
458952,17
459524,14
460104,13
460676,11
461256,11
461840,14
462408,15
462992,14
463564,14
464144,13
464712,11
465296,11
465864,11
466444,12
467024,14
467596,14
468176,15
468748,11
469328,11
469900,11
470480,14
471064,14
471636,15
472216,16
472788,15
473368,17
473940,16
474520,16
475092,15
475668,13
476248,11
476820,10
477400,11
477972,10
478552,15
479132,12
479708,14
480288,14
480860,15
481440,14
482008,11
482592,11
483160,12
483744,9
484264,10
484832,13
485416,11
485988,11
486568,11
487140,15
487720,16
488292,19
488872,17
489444,23
490020,24
490600,22
491172,18
491752,16
492332,11
492912,11
493480,11
494056,11
494640,11
495208,15
495792,14
496364,14
496944,14
497512,14
498096,11
498664,11
499244,11
499824,11
500396,11
500976,12
501548,14
502128,12
502708,11
503284,11
503864,14
504436,14
505016,15
505588,15
506168,16
506748,19
507328,18
507912,14
508484,13
509064,14
509636,13
510216,11
510788,11
511368,11
511948,14
512524,13
513104,15
513672,15
514256,14
514824,11
515408,10
515976,10
516560,9
517076,11
517652,11
518232,13
518804,11
519384,11
519952,11
520536,13
521104,14
521684,15
522264,15
522832,16
523416,15
523988,18
524568,17
525140,15
525720,15
526288,15
526864,14
527448,11
528016,10
528600,13
529168,14
529752,13
530324,14
530900,14
531480,10
532052,11
532632,11
533204,11
533784,12
534352,13
534936,13
535508,13
536084,14
536664,13
537236,14
537816,14
538392,15
538976,13
539544,14
540124,14
540704,15
541276,15
541856,14
542428,13
543008,13
543580,14
544160,13
544728,12
545304,14
545888,14
546460,13
547040,13
547612,14
548192,12
548764,10
549340,11
549920,12
550492,10
551072,11
551644,11
552224,13
552804,12
553384,13
553956,15
554532,16
555112,17
555684,16
556264,16
556836,14
557416,13
557988,14
558564,11
559144,11
559716,11
560296,10
560868,11
561448,12
562020,14
562600,13
563172,14
563748,15
564328,15
564896,10
565480,11
566052,11
566632,10
567204,10
567780,11
568360,15
568928,15
569512,12
570084,14
570664,14
571236,15
571816,15
572388,14
572964,13
573544,14
574116,19
574696,17
575268,18
575848,17
576420,14
576992,13
577576,11
578148,13
578728,14
579296,14
579880,13
580448,13
581032,13
581604,10
582180,11
582760,11
583332,11
583912,13
584492,12
585072,13
585644,12
586220,13
586800,14
587372,13
587952,13
588524,15
589104,18
589684,18
590264,20
590836,19
591412,17
591992,17
592568,14
593144,16
593716,14
594296,13
594876,13
595452,14
596032,13
596604,13
597184,14
597756,14
598336,13
598916,13
599496,14
600080,13
600652,15
601232,15
601804,13
602384,12
602956,11
603536,15
604108,14
604684,14
605264,15
605836,14
606416,19
606996,23
607576,22
608156,19
608732,14
609312,11
609884,10
610464,10
611036,11
611620,11
612196,13
612776,14
613356,13
613932,14
614516,11
615084,10
615664,10
616236,11
616816,12
617388,12
617964,11
618544,11
619116,12
619696,15
620268,15
620848,13
621416,18
622000,17
622572,15
623148,15
623728,21
624300,24
624880,25
625456,22
626040,15
626612,13
627188,11
627772,10
628344,13
628920,14
629492,14
630072,15
630652,15
631232,13
631816,11
632388,10
632968,11
633540,10
634124,11
634700,11
635280,13
635860,13
636436,12
637016,13
637588,14
638168,15
638748,15
639328,16
639908,14
640484,15
641064,18
641632,22
642216,27
642788,23
643368,12
643936,11
644520,9
645040,14
645612,14
646192,14
646764,14
647344,14
647916,11
648496,10
649064,11
649648,10
650216,11
650796,12
651376,14
651948,14
652528,11
653108,11
653688,13
654260,14
654836,15
655416,15
655984,17
656568,15
657136,17
657720,18
658288,19
658872,15
659440,14
660016,12
660600,11
661168,11
661752,13
662324,16
662904,14
663476,13
664052,14
664632,11
665204,11
665784,11
666352,12
666928,12
667496,13
668080,13
668648,11
669224,11
669808,11
670376,13
670960,13
671532,15
672112,14
672680,16
673256,16
673840,16
674408,19
674992,18
675564,15
676144,16
676712,11
677296,11
677864,11
678444,14
679024,14
679596,14
680176,13
680744,14
681328,11
681896,11
682472,11
683056,11
683628,10
684208,11
684776,11
685360,11
685940,12
686520,12
687092,14
687668,15
688248,14
688816,15
689400,13
689972,12
690552,15
691124,15
691700,15
692280,17
692852,15
693432,14
694004,11
694584,11
695156,15
695736,13
696308,13
696884,15
697464,15
698036,12
698616,11
699188,11
699768,11
700340,10
700916,11
701496,14
702068,13
702648,11
703220,13
703800,16
704380,15
704960,16
705528,18
706108,17
706688,15
707256,15
707840,13
708408,13
708992,13
709564,17
710140,11
710720,12
711292,12
711872,14
712444,15
713024,14
713596,14
714180,15
714760,11
715332,10
715912,11
716488,12
717064,13
717644,13
718224,12
718796,11
719372,13
719952,15
720524,15
721104,13
721676,14
722256,16
722824,19
723408,17
723984,21
724556,20
725136,17
725708,12
726288,13
726868,11
727448,13
728020,13
728592,14
729176,14
729748,14
730328,13
730900,14
731480,12
732052,11
732628,10
733208,10
733780,11
734360,11
734932,13
735512,14
736092,11
736672,15
737244,14
737820,17
738400,18
738972,17
739552,16
740124,15
740704,17
741276,15
741852,13
742432,11
743000,11
743584,10
744156,11
744736,11
745308,13
745888,14
746460,14
747036,14
747616,13
748188,10
748768,11
749340,10
749920,11
750500,10
751076,10
751656,11
752232,11
752808,11
753380,15
753960,15
754540,14
755120,15
755700,14
756276,15
756856,14
757428,15
758008,14
758588,11
759168,11
759740,11
760316,10
760896,11
761468,11
762048,14
762620,14
763200,14
763780,14
764360,13
764944,11
765516,15
766096,17
766672,15
767252,14
767828,14
768412,14
768984,14
769560,11
770144,18
770716,31
771296,20
771864,19
772448,38
773020,32
773596,15
774176,12
774748,13
775328,18
775900,17
776480,10
777060,16
777640,17
778212,15
778788,14
779368,15
779940,14
780520,14
781100,10
781680,11
782252,14
782828,11
783408,10
783980,11
784560,13
785132,14
785712,15
786284,13
786864,13
787436,14
788012,14
788592,15
789164,17
789744,16
790316,14
790900,13
791476,11
792052,11
792632,10
793208,11
793784,13
794356,15
794936,15
795516,13
796096,14
796680,14
797252,15
797832,17
798408,27
798984,37
799564,22
800144,12
800720,11
801296,12
801880,14
802448,13
803032,11
803604,15
804184,17
804756,18
805332,17
805912,16
806484,12
807064,11
807636,10
808216,11
808796,11
809376,10
809956,10
810532,10
811112,11
811684,15
812264,17
812836,15
813416,17
813988,14
814564,18
815144,11
815716,15
816296,11
816868,11
817448,11
818020,12
818600,11
819172,11
819748,13
820328,17
820896,16
821472,16
822040,17
822624,16
823192,20
823772,25
824352,21
824920,15
825504,11
826076,11
826656,10
827224,11
827808,11
828380,14
828956,14
829536,15
830104,15
830688,13
831260,11
831840,11
832412,10
832984,11
833568,15
834140,13
834720,14
835288,12
835872,12
836440,14
837024,13
837596,15
838172,16
838752,18
839324,19
839904,19
840476,19
841056,17
841624,16
842200,15
842784,12
843356,10
843936,11
844508,11
845088,13
845656,14
846240,14
846808,14
847384,14
847968,11
848540,11
849120,11
849688,11
850272,12
850844,11
851420,11
852000,11
852568,11
853152,14
853724,15
854304,13
854876,14
855456,16
856028,15
856600,14
857184,15
857756,17
858336,13
858908,10
859488,9
860008,9
860532,11
861108,11
861684,14
862264,15
862836,15
863416,14
863988,15
864568,11
865148,10
865728,9
866248,10
866816,11
867400,11
867972,11
868552,11
869124,14
869704,12
870276,16
870856,16
871440,14
872012,14
872592,11
873164,11
873744,11
874316,12
874896,12
875468,12
876044,11
876624,13
877196,15
877776,17
878348,18
878928,15
879508,15
880084,14
880664,14
881232,12
881816,10
882388,11
882968,11
883540,11
884120,11
884692,11
885268,11
885848,13
886416,15
887000,13
887572,14
888152,16
888732,17
889308,16
889888,15
890460,19
891040,13
891612,14
892192,14
892764,13
893344,11
893924,11
894500,11
895080,14
895652,13
896236,14
896808,14
897392,15
897964,12
898540,14
899120,12
899692,12
900272,11
900844,13
901424,13
901996,15
902576,15
903144,15
903724,14
904304,14
904876,18
905456,17
906028,23
906608,27
907176,28
907756,22
908336,16
908908,15
909488,14
910060,12
910640,11
911220,12
911800,14
912380,14
912956,14
913536,13
914108,13
914688,10
915260,10
915840,9
916360,10
916936,13
917520,12
918092,14
918672,13
919244,12
919824,14
920404,15
920984,15
921556,15
922132,15
922712,18
923284,18
923864,15
924436,16
925016,13
925588,11
926164,11
926744,11
927316,11
927896,11
928468,13
929048,14
929620,14
930200,15
930772,13
931348,11
931928,13
932500,13
933080,12
933652,11
934232,10
934812,13
935388,16
935968,12
936540,13
937120,14
937692,16
938272,15
938844,17
939424,21
940004,20
940580,18
941160,15
941732,12
942312,12
942892,11
943472,10
944044,10
944620,14
945200,16
945772,14
946352,13
946924,13
947504,12
948084,10
948664,10
949236,10
949812,10
950392,13
950964,14
951544,13
952124,14
952704,13
953284,14
953860,14
954440,14
955012,14
955592,15
956168,15
956744,18
957324,21
957904,19
958492,16
959064,15
959644,14
960216,12
960792,11
961364,15
961944,13
962516,14
963092,14
963672,14
964244,11
964824,12
965396,15
965976,16
966548,15
967124,15
967704,14
968276,12
968856,12
969428,11
970008,15
970588,15
971168,17
971748,19
972324,21
972904,23
973476,25
974056,25
974628,18
975208,10
975780,11
976356,12
976936,11
977508,11
978088,14
978660,14
979240,15
979812,15
980392,15
980972,11
981548,11
982132,11
982704,10
983280,10
983856,11
984440,15
985012,15
985588,15
986168,14
986740,13
987320,14
987892,16
988472,20
989052,21
989632,20
990204,20
990780,20
991360,15
991932,14
992516,12
993092,10
993672,11
994252,11
994828,15
995408,14
995980,14
996560,15
997140,14
997720,9
998240,10
998816,10
999396,11
999972,11
1000552,11
1001168,20
1001800,18
1002420,15
1003044,15
1003672,14
1004288,14
1004920,15
1005540,14
1006164,15
1006792,16
1007408,19
1008040,21
1008668,22
1009284,25
1009916,20
1010540,11
1011168,12
1011800,12
1012416,13
1013044,15
1013668,14
1014292,11
1014924,10
1015544,13
1016172,13
1016796,12
1017420,10
1018052,10
1018672,12
1019300,11
1019932,13
1020552,15
1021180,15
1021808,18
1022436,19
1023068,18
1023688,23
1024320,19
1024940,11
1025560,12
1026188,12
1026804,11
1027432,11
1028052,13
1028676,14
1029304,14
1029920,15
1030548,15
1031176,11
1031792,11
1032420,11
1033044,11
1033672,11
1034300,12
1034916,13
1035548,14
1036168,13
1036796,13
1037424,13
1038048,14
1038676,16
1039300,14
1039924,17
1040552,18
1041168,22
1041796,21
1042420,19
1043040,13
1043668,11
1044292,11
1044920,14
1045548,12
1046168,14
1046796,14
1047420,12
1048048,11
1048676,12
1049296,13
1049924,13
1050544,13
1051164,15
1051796,13
1052416,12
1053044,14
1053668,15
1054288,16
1054920,15
1055536,16
1056164,18
1056792,17
1057408,21
1058036,19
1058660,15
1059288,11
1059916,10
1060536,11
1061164,12
1061784,14
1062408,16
1063036,14
1063656,16
1064284,14
1064908,13
1065532,13
1066160,13
1066776,15
1067404,12
1068028,12
1068656,17
1069284,15
1069904,14
1070536,15
1071164,16
1071784,17
1072412,16
1073036,20
1073664,26
1074292,22
1074912,19
1075540,16
1076164,12
1076784,11
1077416,10
1078032,15
1078660,14
1079284,14
1079904,15
1080536,15
1081156,11
1081788,11
1082416,10
1083032,12
1083660,12
1084284,12
1084912,14
1085544,12
1086160,13
1086788,14
1087412,14
1088032,15
1088660,16
1089276,17
1089908,17
1090528,13
1091152,12
1091780,11
1092400,14
1093028,11
1093656,11
1094280,13
1094908,15
1095532,14
1096160,14
1096792,15
1097408,12
1098036,11
1098660,10
1099284,11
1099912,12
1100532,12
1101160,12
1101784,11
1102408,12
1103036,14
1103656,15
1104284,15
1104916,14
1105536,17
1106164,14
1106788,16
1107416,14
1108048,15
1108664,16
1109292,12
1109916,10
1110540,10
1111168,14
1111788,14
1112416,15
1113040,14
1113664,14
1114292,10
1114912,12
1115540,11
1116172,10
1116792,12
1117420,13
1118044,13
1118676,11
1119308,10
1119928,15
1120560,15
1121180,16
1121804,16
1122432,17
1123056,17
1123684,17
1124308,15
1124932,11
1125560,10
1126184,9
1126764,12
1127388,11
1128012,15
1128640,13
1129256,15
1129884,14
1130512,13
1131136,11
1131764,11
1132388,13
1133016,19
1133648,16
1134264,12
1134892,14
1135516,13
1136140,15
1136768,14
1137392,14
1138020,14
1138644,14
1139268,14
1139896,17
1140512,16
1141140,14
1141772,14
1142392,16
1143020,13
1143644,12
1144276,11
1144908,12
1145528,14
1146156,15
1146784,16
1147408,17
1148036,12
1148656,11
1149284,11
1149908,11
1150532,11
1151160,15
1151784,17
1152416,17
1153044,14
1153660,18
1154292,17
1154912,15
1155544,19
1156172,22
1156792,25
1157420,25
1158044,25
1158668,19
1159296,10
1159912,10
1160540,11
1161164,13
1161788,13
1162416,14
1163032,13
1163660,15
1164284,10
1164912,11
1165540,11
1166164,11
1166792,13
1167420,11
1168040,13
1168668,12
1169288,11
1169920,15
1170548,16
1171168,17
1171796,19
1172420,15
1173044,13
1173676,14
1174296,15
1174924,13
1175548,12
1176176,10
1176804,11
1177428,11
1178060,14
1178688,14
1179308,14
1179936,15
1180560,13
1181188,13
1181820,11
1182440,11
1183068,11
1183692,12
1184316,11
1184948,11
1185568,11
1186196,14
1186828,14
1187448,16
1188076,17
1188700,17
1189328,16
1189960,16
1190576,17
1191204,16
1191828,13
1192456,13
1193084,11
1193704,11
1194332,11
1194956,13
1195580,13
1196212,14
1196832,15
1197460,11
1198092,10
1198712,12
1199340,11
1199968,11
1200596,11
1201228,12
1201848,14
1202476,13
1203100,15
1203724,14
1204356,14
1204976,15
1205604,15
1206228,16
1206852,15
1207480,16
1208104,15
1208732,13
1209364,12
1209984,11
1210612,13
1211236,15
1211868,13
1212496,14
1213112,15
1213744,15
1214368,12
1214992,12
1215624,11
1216240,10
1216868,11
1217492,11
1218116,11
1218744,10
1219368,13
1219996,14
1220628,14
1221248,15
1221876,15
1222500,13
1223132,13
1223760,17
1224380,19
1225008,17
1225632,19
1226256,16
1226884,14
1227504,13
1228136,13
1228760,15
1229384,15
1230012,15
1230632,12
1231260,10
1231888,10
1232512,11
1233140,11
1233764,13
1234392,14
1235020,11
1235640,11
1236268,14
1236892,16
1237516,14
1238144,15
1238760,15
1239392,14
1240016,18
1240636,16
1241268,14
1241888,16
1242516,14
1243144,12
1243768,13
1244396,14
1245020,15
1245648,15
1246280,14
1246896,14
1247524,12
1248148,14
1248772,12
1249404,11
1250024,12
1250652,12
1251276,11
1251900,11
1252528,13
1253144,16
1253776,16
1254404,14
1255020,14
1255652,12
1256276,17
1256904,19
1257536,15
1258152,15
1258784,17
1259408,21
1260036,27
1260668,26
1261288,15
1261916,14
1262540,13
1263164,14
1263796,12
1264416,11
1265044,11
1265676,10
1266296,11
1266924,11
1267548,11
1268180,10
1268808,12
1269432,15
1270064,14
1270688,15
1271308,16
1271940,16
1272560,13
1273188,14
1273812,15
1274436,13
1275068,11
1275688,12
1276316,11
1276948,10
1277568,11
1278200,14
1278824,15
1279452,14
1280084,14
1280700,11
1281328,11
1281948,11
1282572,11
1283200,10
1283812,11
1284444,13
1285064,13
1285688,11
1286316,14
1286936,15
1287564,16
1288188,15
1288808,12
1289436,14
1290060,19
1290688,17
1291320,14
1291936,15
1292564,16
1293188,11
1293816,12
1294444,14
1295064,15
1295692,14
1296316,14
1296936,14
1297568,10
1298184,11
1298812,10
1299436,10
1300060,11
1300688,12
1301304,10
1301936,11
1302564,10
1303184,14
1303812,14
1304436,14
1305064,15
1305696,15
1306312,17
1306940,16
1307564,13
1308188,13
1308816,16
1309432,15
1310060,15
1310684,14
1311312,15
1311940,14
1312560,15
1313188,15
1313816,12
1314432,11
1315060,10
1315684,11
1316312,13
1316940,12
1317560,14
1318188,11
1318812,11
1319432,15
1320060,15
1320676,15
1321308,16
1321928,15
1322548,15
1323180,16
1323800,17
1324428,15
1325052,12
1325672,11
1326304,11
1326924,13
1327552,13
1328184,14
1328800,15
1329428,14
1330052,15
1330680,11
1331308,10
1331924,11
1332552,11
1333176,12
1333796,11
1334428,12
1335044,14
1335676,13
1336296,14
1336920,15
1337548,14
1338168,20
1338796,26
1339424,22
1340048,17
1340676,17
1341300,12
1341928,13
1342556,14
1343176,12
1343804,11
1344428,15
1345052,14
1345680,14
1346296,14
1346924,14
1347548,10
1348168,10
1348796,12
1349416,11
1350044,11
1350676,13
1351296,14
1351924,13
1352548,12
1353176,15
1353804,14
1354424,18
1355052,18
1355676,17
1356296,17
1356928,15
1357544,13
1358172,14
1358796,13
1359416,13
1360048,11
1360664,11
1361292,13
1361912,14
1362536,14
1363168,14
1363788,13
1364420,11
1365048,10
1365664,11
1366292,11
1366916,11
1367544,11
1368176,11
1368792,12
1369420,17
1370044,17
1370668,16
1371296,15
1371912,16
1372544,16
1373168,19
1373788,19
1374420,18
1375040,14
1375672,12
1376300,10
1376920,11
1377548,12
1378172,13
1378800,15
1379428,13
1380048,14
1380676,11
1381300,11
1381924,12
1382552,11
1383168,12
1383800,13
1384420,12
1385044,12
1385672,12
1386288,13
1386920,14
1387548,16
1388168,16
1388796,14
1389420,14
1390048,20
1390680,21
1391296,19
1391928,17
1392552,13
1393176,12
1393804,10
1394424,14
1395052,14
1395676,14
1396300,14
1396928,14
1397544,11
1398172,11
1398804,11
1399424,13
1400052,10
1400676,13
1401304,13
1401932,12
1402552,15
1403180,13
1403804,14
1404428,14
1405056,14
1405680,15
1406308,15
1406932,15
1407556,15
1408188,12
1408804,13
1409432,15
1410064,16
1410680,14
1411308,13
1411932,14
1412560,15
1413188,15
1413808,12
1414436,10
1415056,11
1415684,13
1416312,12
1416936,12
1417564,12
1418188,15
1418812,15
1419440,14
1420064,14
1420692,13
1421324,14
1421944,15
1422572,14
1423196,20
1423828,20
1424456,20
1425080,17
1425708,13
1426332,12
1426956,14
1427588,15
1428208,15
1428836,13
1429460,14
1430084,14
1430712,11
1431336,13
1431964,11
1432596,10
1433216,13
1433848,13
1434468,14
1435096,12
1435724,11
1436344,14
1436972,15
1437596,15
1438220,14
1438848,13
1439464,14
1440096,18
1440716,16
1441340,12
1441968,11
1442584,12
1443212,11
1443836,11
1444460,14
1445088,13
1445712,14
1446340,14
1446968,13
1447592,11
1448220,11
1448844,11
1449472,11
1450100,11
1450720,11
1451348,13
1451972,13
1452596,15
1453224,13
1453848,15
1454476,15
1455100,16
1455728,16
1456356,16
1456980,18
1457608,15
1458236,12
1458856,13
1459484,12
1460108,11
1460736,11
1461368,14
1461984,14
1462612,14
1463236,13
1463860,11
1464488,10
1465112,11
1465740,11
1466364,10
1466992,12
1467620,14
1468244,13
1468872,12
1469504,14
1470120,14
1470748,14
1471372,17
1472004,15
1472632,14
1473248,17
1473880,20
1474504,18
1475128,16
1475756,12
1476376,11
1477004,11
1477628,14
1478256,14
1478884,13
1479508,14
1480136,14
1480764,11
1481384,13
1482012,13
1482636,12
1483264,11
1483892,12
1484512,13
1485140,13
1485764,12
1486388,15
1487016,15
1487632,17
1488264,21
1488884,21
1489508,24
1490136,23
1490760,18
1491388,14
1492020,12
1492640,11
1493268,10
1493892,11
1494520,14
1495152,13
1495768,15
1496396,15
1497020,12
1497644,12
1498272,13
1498888,11
1499520,11
1500140,11
1500764,11
1501396,11
1502020,11
1502652,15
1503280,15
1503900,15
1504528,17
1505152,15
1505784,15
1506412,14
1507032,15
1507660,15
1508284,13
1508908,12
1509540,10
1510160,11
1510792,13
1511416,13
1512040,13
1512668,15
1513292,15
1513920,11
1514552,11
1515168,10
1515800,11
1516424,12
1517052,13
1517684,14
1518304,12
1518932,12
1519560,13
1520184,15
1520812,14
1521432,15
1522060,14
1522684,16
1523312,20
1523940,20
1524564,17
1525196,14
1525824,12
1526448,11
1527076,10
1527700,13
1528328,13
1528956,14
1529576,14
1530208,13
1530832,12
1531456,11
1532084,10
1532704,11
1533336,11
1533964,12
1534584,13
1535216,14
1535840,15
1536472,14
1537100,14
1537720,14
1538348,14
1538972,11
1539592,14
1540224,24
1540840,26
1541468,16
1542092,11
1542716,12
1543344,11
1543960,12
1544592,13
1545220,14
1545840,16
1546468,15
1547092,12
1547720,10
1548352,11
1548968,11
1549600,11
1550220,11
1550852,11
1551480,10
1552104,13
1552732,15
1553356,15
1553980,13
1554612,14
1555232,17
1555860,18
1556492,20
1557112,21
1557740,17
1558364,13
1558996,10
1559624,10
1560240,11
1560872,14
1561496,15
1562120,14
1562748,14
1563368,14
1563996,10
1564620,11
1565244,12
1565876,13
1566496,16
1567124,19
1567756,16
1568376,16
1569004,13
1569628,15
1570256,17
1570884,19
1571504,18
1572132,18
1572756,21
1573384,29
1574012,28
1574632,17
1575260,13
1575884,12
1576508,10
1577140,10
1577760,15
1578388,14
1579020,13
1579640,15
1580268,13
1580892,13
1581524,12
1582152,11
1582772,12
1583400,13
1584024,13
1584648,12
1585276,10
1585896,14
1586528,15
1587152,15
1587776,16
1588404,17
1589024,17
1589652,19
1590284,18
1590904,17
1591532,15
1592160,13
1592788,11
1593420,10
1594040,12
1594668,15
1595296,14
1595920,13
1596548,14
1597168,11
1597800,11
1598424,11
1599048,12
1599676,15
1600296,15
1600924,13
1601552,14
1602168,11
1602796,16
1603420,15
1604048,14
1604676,14
1605296,18
1605924,20
1606548,20
1607172,18
1607804,12
1608424,12
1609052,10
1609672,10
1610296,11
1610924,14
1611544,15
1612172,13
1612796,14
1613424,14
1614052,13
1614676,11
1615308,11
1615936,10
1616556,11
1617184,13
1617808,11
1618436,11
1619064,13
1619688,16
1620316,19
1620940,17
1621564,18
1622192,17
1622816,19
1623444,18
1624076,12
1624696,11
1625324,11
1625948,11
1626576,13
1627208,12
1627824,13
1628452,14
1629076,13
1629700,13
1630332,10
1630952,10
1631580,11
1632208,11
1632828,11
1633460,12
1634080,13
1634708,13
1635340,10
1635960,13
1636588,15
1637212,14
1637844,14
1638476,13
1639092,15
1639720,19
1640340,17
1640964,15
1641592,13
1642208,16
1642836,12
1643456,11
1644080,15
1644708,14
1645328,14
1645956,13
1646576,14
1647200,13
1647828,11
1648452,11
1649080,12
1649708,10
1650324,11
1650956,11
1651576,12
1652204,11
1652832,14
1653448,15
1654076,17
1654700,15
1655320,12
1655952,15
1656568,19
1657196,17
1657820,15
1658440,12
1659072,10
1659688,11
1660316,11
1660944,14
1661560,13
1662188,13
1662812,15
1663444,13
1664072,11
1664688,11
1665312,11
1665936,11
1666564,13
1667192,13
1667808,13
1668436,11
1669060,16
1669680,19
1670308,16
1670928,14
1671556,15
1672180,15
1672800,23
1673428,24
1674052,22
1674680,21
1675308,14
1675928,11
1676556,11
1677180,14
1677808,14
1678436,14
1679056,14
1679684,14
1680304,11
1680928,10
1681556,10
1682176,11
1682804,11
1683424,14
1684044,17
1684672,16
1685292,15
1685924,15
1686552,14
1687168,19
1687796,23
1688420,21
1689048,18
1689676,12
1690292,12
1690920,11
1691544,13
1692164,14
1692792,12
1693416,12
1694044,14
1694668,15
1695292,14
1695920,14
1696536,15
1697164,11
1697788,11
1698408,12
1699036,13
1699660,15
1700292,13
1700920,11
1701536,12
1702164,12
1702788,14
1703416,19
1704044,17
1704660,17
1705292,19
1705912,17
1706536,17
1707164,16
1707784,17
1708412,16
1709036,11
1709660,10
1710288,11
1710904,13
1711536,14
1712164,14
1712784,14
1713412,14
1714036,12
1714664,11
1715296,10
1715912,10
1716540,11
1717164,11
1717788,13
1718416,13
1719032,13
1719664,14
1720288,15
1720912,16
1721540,16
1722160,18
1722788,19
1723416,17
1724040,17
1724668,15
1725292,16
1725920,14
1726548,11
1727168,11
1727796,13
1728420,13
1729044,14
1729672,14
1730288,10
1730920,10
1731540,12
1732164,12
1732792,12
1733412,12
1734040,13
1734668,11
1735288,12
1735916,14
1736540,14
1737168,15
1737800,15
1738416,17
1739044,16
1739668,17
1740296,17
1740924,14
1741540,13
1742172,12
1742792,11
1743416,11
1744044,12
1744660,14
1745292,13
1745912,14
1746536,16
1747164,11
1747788,11
1748416,12
1749048,12
1749664,11
1750292,15
1750916,15
1751548,15
1752176,13
1752800,15
1753428,15
1754052,18
1754676,18
1755304,20
1755928,22
1756556,17
1757180,14
1757808,13
1758436,11
1759060,13
1759692,12
1760320,12
1760944,15
1761572,14
1762196,13
1762820,15
1763452,12
1764072,12
1764700,12
1765324,11
1765944,11
1766576,12
1767192,12
1767820,12
1768444,14
1769072,15
1769700,14
1770320,14
1770952,15
1771580,14
1772200,15
1772828,19
1773452,22
1774080,20
1774708,14
1775328,16
1775956,13
1776584,12
1777204,13
1777836,12
1778456,15
1779084,15
1779708,14
1780336,11
1780964,11
1781588,12
1782220,14
1782848,13
1783468,12
1784096,17
1784720,15
1785348,12
1785980,18
1786600,23
1787228,22
1787852,19
1788476,18
1789108,18
1789728,19
1790356,17
1790988,14
1791608,14
1792240,12
1792860,11
1793488,11
1794120,14
1794736,15
1795364,14
1795988,13
1796612,14
1797244,10
1797864,10
1798492,11
1799116,11
1799740,11
1800368,16
1800984,15
1801616,16
1802236,14
1802864,13
1803492,16
1804116,18
1804744,18
1805372,15
1805992,17
1806620,18
1807244,13
1807872,11
1808500,10
1809120,11
1809748,14
1810372,14
1810992,13
1811624,14
1812240,14
1812868,14
1813492,11
1814116,11
1814744,11
1815368,11
1815996,11
1816628,10
1817248,11
1817876,11
1818500,12
1819128,14
1819760,14
1820376,15
1821004,14
1821628,12
1822252,14
1822880,19
1823504,20
1824132,19
1824756,17
1825380,13
1826008,11
1826632,11
1827260,15
1827888,14
1828504,13
1829136,16
1829760,15
1830388,10
1831020,10
1831640,11
1832268,11
1832892,11
1833516,13
1834148,12
1834768,14
1835396,12
1836024,13
1836644,14
1837276,15
1837900,14
1838532,14
1839160,16
1839784,21
1840416,21
1841036,18
1841668,13
1842296,10
1842920,11
1843548,11
1844172,14
1844796,14
1845424,13
1846040,14
1846668,12
1847292,10
1847920,11
1848548,11
1849172,11
1849800,13
1850428,14
1851048,14
1851676,13
1852300,15
1852928,14
1853560,14
1854176,15
1854804,15
1855428,14
1856052,15
1856680,18
1857296,18
1857924,15
1858548,13
1859172,11
1859800,11
1860424,12
1861052,14
1861680,13
1862304,15
1862932,15
1863556,11
1864188,11
1864816,10
1865440,11
1866068,11
1866692,11
1867316,11
1867944,11
1868564,11
1869192,15
1869816,14
1870440,15
1871068,16
1871692,14
1872320,13
1872952,16
1873568,17
1874196,14
1874820,11
1875452,11
1876080,10
1876704,11
1877332,14
1877956,14
1878580,13
1879212,14
1879832,13
1880464,12
1881084,11
1881712,12
1882340,13
1882964,13
1883596,13
1884224,11
1884848,14
1885476,14
1886100,14
1886724,15
1887356,16
1887976,17
1888608,19
1889228,22
1889852,19
1890484,19
1891104,18
1891732,18
1892364,14
1892984,12
1893612,11
1894236,13
1894868,15
1895496,14
1896120,14
1896748,12
1897372,11
1897996,11
1898628,10
1899248,11
1899876,11
1900500,11
1901124,14
1901756,12
1902376,15
1903008,15
1903636,16
1904256,18
1904884,16
1905508,16
1906140,17
1906768,15
1907392,13
1908020,13
1908644,13
1909268,12
1909900,10
1910520,15
1911148,15
1911776,14
1912400,15
1913028,14
1913648,11
1914276,11
1914908,10
1915528,11
1916156,11
1916784,13
1917416,11
1918044,11
1918664,11
1919296,14
1919920,14
1920544,15
1921176,16
1921792,15
1922420,16
1923044,16
1923668,18
1924296,16
1924916,15
1925544,13
1926172,10
1926792,9
1927368,14
1927992,15
1928620,14
1929248,13
1929872,13
1930500,11
1931124,11
1931752,10
1932384,11
1933004,10
1933632,12
1934256,13
1934880,13
1935508,13
1936128,15
1936756,15
1937380,16
1938004,17
1938632,15
1939256,19
1939884,17
1940516,12
1941136,12
1941764,12
1942388,11
1943020,11
1943652,12
1944272,16
1944904,15
1945528,14
1946152,16
1946780,14
1947400,12
1948028,11
1948652,10
1949276,11
1949904,10
1950528,11
1951156,11
1951788,10
1952408,15
1953036,17
1953660,18
1954288,18
1954920,16
1955536,14
1956168,15
1956792,13
1957416,12
1958044,11
1958664,11
1959292,11
1959916,11
1960540,14
1961172,14
1961796,14
1962424,14
1963052,14
1963672,13
1964300,11
1964928,11
1965556,11
1966188,12
1966808,14
1967436,11
1968060,11
1968680,12
1969308,13
1969928,16
1970556,16
1971180,17
1971804,16
1972432,18
1973056,16
1973684,13
1974312,11
1974936,13
1975564,11
1976188,11
1976820,10
1977448,13
1978064,13
1978692,13
1979316,14
1979940,12
1980572,10
1981192,11
1981820,11
1982444,11
1983068,14
1983700,16
1984324,15
1984952,13
1985580,15
1986200,15
1986828,14
1987452,15
1988080,15
1988712,15
1989328,17
1989956,21
1990580,19
1991204,17
1991832,18
1992456,12
1993084,10
1993708,13
1994332,13
1994964,14
1995588,14
1996216,14
1996844,10
1997464,11
1998092,12
1998716,13
1999344,11
1999976,11
2000592,15
2001220,13
2001844,11
2002468,13
2003096,14
2003716,15
2004344,16
2004968,19
2005588,18
2006220,18
2006840,21
2007468,16
2008100,14
2008720,12
2009348,12
2009972,11
2010600,14
2011228,13
2011848,14
2012476,14
2013100,13
2013724,12
2014352,11
2014976,11
2015604,12
2016228,13
2016852,14
2017480,14
2018104,13
2018732,14
2019360,14
2019984,14
2020612,15
2021236,17
2021868,17
2022496,18
2023112,22
2023744,19
2024368,16
2024992,14
2025620,11
2026240,11
2026868,11
2027492,13
2028116,13
2028748,14
2029368,17
2029996,14
2030628,11
2031248,11
2031876,11
2032504,13
2033132,11
2033764,14
2034384,16
2035016,12
2035640,18
2036264,16
2036892,16
2037512,15
2038144,14
2038768,15
2039392,15
2040020,16
2040644,16
2041276,17
2041908,15
2042528,13
2043160,11
2043784,14
2044412,13
2045044,14
2045664,15
2046296,14
2046920,11
2047544,11
2048176,10
2048788,11
2049416,11
2050040,15
2050660,15
2051288,14
2051908,12
2052536,13
2053164,14
2053780,14
2054408,14
2055032,15
2055660,17
2056288,20
2056908,19
2057540,17
2058160,17
2058784,14
2059412,12
2060032,13
2060660,15
2061280,13
2061904,14
2062532,14
2063152,12
2063780,12
2064408,10
2065024,11
2065652,11
2066276,11
2066904,13
2067532,14
2068152,12
2068780,16
2069404,15
2070024,14
2070656,14
2071272,16
2071900,17
2072524,15
2073148,15
2073776,14
2074396,13
2075028,11
2075656,11
2076272,11
2076904,13
2077524,15
2078156,14
2078784,14
2079400,14
2080032,11
2080652,11
2081280,13
2081908,16
2082528,12
2083156,11
2083780,12
2084404,13
2085032,13
2085648,14
2086276,14
2086900,14
2087520,15
2088152,15
2088776,13
2089404,16
2090032,19
2090648,18
2091276,13
2091900,11
2092528,10
2093156,10
2093776,14
2094404,14
2095024,15
2095648,15
2096280,12
2096896,11
2097524,10
2098148,11
2098772,12
2099400,11
2100016,12
2100644,11
2101272,11
2101888,12
2102520,14
2103140,14
2103772,14
2104400,15
2105016,16
2105644,15
2106268,15
2106892,14
2107520,13
2108136,12
2108764,11
2109388,11
2110016,11
2110644,13
2111264,16
2111892,15
2112524,13
2113144,11
2113772,13
2114396,12
2115024,13
2115652,12
2116272,12
2116900,11
2117524,11
2118148,11
2118780,14
2119400,15
2120028,15
2120652,16
2121276,14
2121904,13
2122520,12
2123152,13
2123780,13
2124400,13
2125028,14
2125652,11
2126280,10
2126912,13
2127528,14
2128156,14
2128780,14
2129408,14
2130040,11
2130656,10
2131284,10
2131908,10
2132528,10
2133160,12
2133776,15
2134404,15
2135028,15
2135652,14
2136280,15
2136904,16
2137532,14
2138164,12
2138784,16
2139412,19
2140036,20
2140668,17
2141296,14
2141912,10
2142544,12
2143168,13
2143792,15
2144420,14
2145040,13
2145668,14
2146292,13
2146912,10
2147544,11
2148168,11
2148796,11
2149428,12
2150048,16
2150676,13
2151300,13
2151928,14
2152560,14
2153176,17
2153804,17
2154428,17
2155052,17
2155680,20
2156304,20
2156932,23
2157556,19
2158180,16
2158808,11
2159432,11
2160060,12
2160692,12
2161312,14
2161940,13
2162564,14
2163192,11
2163824,11
2164440,11
2165068,11
2165692,11
2166316,14
2166948,16
2167568,19
2168196,15
2168820,14
2169444,15
2170072,19
2170700,17
2171328,17
2171960,16
2172576,20
2173204,17
2173828,13
2174460,12
2175088,12
2175712,12
2176344,11
2176964,13
2177588,14
2178216,14
2178832,13
2179464,15
2180084,11
2180708,10
2181340,10
2181960,10
2182592,11
2183220,12
2183840,15
2184468,15
2185092,13
2185720,15
2186352,18
2186968,20
2187596,19
2188220,15
2188844,15
2189472,14
2190096,13
2190724,13
2191348,13
2191972,12
2192604,12
2193228,12
2193856,13
2194488,14
2195104,15
2195736,15
2196360,12
2196988,10
2197620,10
2198240,11
2198868,10
2199492,11
2200120,11
2200748,10
2201368,11
2201996,15
2202620,14
2203248,15
2203876,15
2204500,15
2205128,14
2205760,17
2206376,18
2207008,17
2207632,14
2208264,13
2208892,10
2209512,11
2210140,13
2210764,13
2211388,14
2212020,14
2212640,14
2213268,10
2213896,10
2214520,11
2215148,11
2215772,11
2216400,11
2217032,11
2217648,12
2218276,11
2218900,14
2219528,15
2220156,16
2220776,17
2221408,18
2222032,17
2222656,14
2223284,14
2223904,13
2224536,12
2225164,10
2225784,11
2226412,11
2227036,13
2227668,13
2228300,14
2228920,14
2229548,13
2230172,11
2230796,11
2231428,12
2232048,11
2232676,11
2233300,15
2233924,15
2234556,13
2235176,15
2235808,15
2236436,17
2237056,17
2237688,17
2238312,15
2238940,16
2239572,15
2240192,15
2240820,16
2241444,15
2242064,11
2242696,10
2243312,11
2243944,14
2244568,16
2245188,14
2245820,14
2246440,12
2247068,11
2247700,10
2248320,11
2248948,11
2249572,11
2250204,11
2250836,10
2251456,12
2252088,15
2252712,15
2253336,17
2253964,14
2254584,16
2255212,17
2255836,16
2256460,16
2257088,14
2257704,14
2258336,13
2258964,10
2259584,11
2260212,14
2260836,13
2261464,15
2262092,15
2262712,16
2263340,11
2263964,11
2264588,10
2265220,10
2265840,12
2266468,11
2267092,11
2267716,12
2268344,13
2268968,15
2269596,15
2270228,14
2270848,16
2271476,14
2272104,15
2272732,16
2273360,15
2273984,13
2274612,11
2275236,11
2275860,10
2276488,11
2277112,13
2277740,14
2278368,14
2278992,14
2279620,11
2280240,11
2280868,12
2281500,10
2282120,11
2282748,11
2283372,12
2284004,12
2284632,12
2285256,15
2285884,13
2286508,15
2287132,14
2287764,14
2288384,13
2289012,15
2289636,17
2290260,19
2290892,16
2291512,19
2292144,15
2292772,16
2293392,17
2294024,15
2294648,14
2295276,14
2295904,14
2296528,12
2297156,11
2297780,11
2298404,11
2299032,10
2299656,12
2300284,13
2300908,15
2301532,12
2302164,15
2302788,15
2303420,15
2304048,18
2304668,18
2305296,15
2305920,15
2306548,13
2307176,13
2307800,12
2308428,11
2309052,11
2309676,12
2310304,14
2310928,14
2311556,14
2312180,15
2312804,15
2313432,12
2314060,11
2314688,13
2315316,10
2315936,11
2316564,11
2317188,11
2317820,11
2318448,14
2319064,14
2319696,14
2320320,15
2320940,16
2321572,16
2322192,21
2322820,21
2323444,17
2324068,15
2324700,16
2325320,12
2325952,12
2326580,11
2327200,14
2327828,14
2328452,14
2329084,15
2329712,14
2330336,17
2330964,11
2331588,11
2332212,11
2332844,10
2333464,11
2334092,11
2334716,10
2335344,15
2335972,16
2336600,17
2337228,17
2337856,18
2338480,22
2339108,16
2339732,13
2340360,13
2340988,16
2341608,17
2342236,12
2342860,11
2343484,15
2344116,14
2344736,15
2345364,14
2345996,14
2346616,10
2347244,11
2347868,11
2348500,11
2349132,10
2349752,12
2350384,12
2351008,15
2351632,16
2352264,14
2352880,14
2353508,15
2354136,15
2354760,15
2355392,17
2356008,17
2356636,17
2357268,14
2357888,14
2358516,15
2359140,16
2359772,17
2360404,14
2361024,15
2361652,16
2362276,13
2362900,11
2363528,10
2364152,12
2364784,11
2365408,12
2366032,13
2366664,13
2367280,13
2367908,13
2368540,14
2369160,15
2369788,15
2370412,17
2371044,18
2371672,16
2372296,17
2372924,18
2373552,16
2374176,16
2374804,13
2375424,11
2376056,11
2376676,13
2377300,13
2377932,14
2378552,15
2379180,15
2379812,11
2380432,11
2381064,11
2381684,11
2382316,11
2382944,12
2383568,12
2384196,11
2384820,11
2385444,13
2386076,14
2386696,15
2387324,15
2387948,17
2388572,18
2389204,16
2389828,16
2390460,15
2391088,14
2391708,14
2392336,11
2392960,11
2393592,14
2394224,13
2394844,13
2395472,14
2396100,12
2396724,11
2397356,12
2397976,13
2398608,13
2399236,11
2399856,11
2400488,11
2401108,11
2401740,14
2402368,14
2402992,15
2403620,15
2404244,15
2404868,14
2405500,14
2406120,17
2406748,19
2407372,19
2407996,17
2408628,14
2409248,13
2409876,11
2410508,13
2411128,15
2411760,14
2412384,14
2413012,12
2413644,10
2414264,11
2414892,11
2415516,10
2416144,11
2416772,12
2417392,13
2418020,12
2418644,15
2419268,15
2419900,14
2420520,15
2421148,13
2421780,14
2422400,16
2423028,17
2423652,15
2424284,16
2424916,12
2425536,11
2426168,11
2426792,15
2427416,16
2428044,15
2428664,16
2429292,14
2429920,13
2430544,13
2431172,12
2431792,11
2432424,11
2433056,13
2433672,13
2434300,13
2434924,13
2435556,13
2436184,16
2436808,18
2437436,18
2438060,17
2438684,17
2439316,16
2439936,15
2440564,15
2441188,14
2441812,11
2442444,11
2443064,11
2443692,13
2444324,12
2444944,14
2445572,14
2446200,12
2446828,11
2447460,10
2448080,11
2448708,12
2449332,13
2449956,14
2450588,12
2451208,13
2451836,15
2452464,15
2453088,16
2453720,15
2454344,15
2454976,15
2455608,16
2456224,19
2456856,19
2457480,21
2458112,19
2458740,11
2459360,11
2459988,13
2460612,13
2461236,13
2461864,14
2462480,14
2463112,11
2463736,11
2464360,11
2464988,11
2465612,11
2466240,13
2466868,12
2467488,14
2468116,12
2468740,13
2469368,15
2470000,15
2470616,16
2471248,16
2471868,15
2472492,17
2473124,18
2473744,16
2474372,13
2474996,15
2475620,15
2476252,13
2476876,15
2477504,14
2478132,13
2478752,15
2479380,12
2480004,11
2480632,12
2481264,11
2481880,12
2482512,12
2483136,13
2483760,15
2484388,11
2485008,15
2485636,16
2486260,17
2486884,15
2487512,15
2488140,12
2488768,13
2489396,13
2490016,13
2490644,12
2491268,12
2491900,11
2492528,10
2493152,13
2493780,17
2494408,13
2495028,14
2495660,14
2496280,11
2496908,11
2497532,12
2498160,13
2498788,12
2499412,13
2500044,14
2500672,14
2501288,11
2501920,15
2502544,16
2503172,15
2503804,17
2504424,22
2505052,23
2505676,20
2506300,19
2506932,12
2507552,11
2508180,12
2508812,11
2509432,12
2510060,14
2510684,13
2511316,14
2511948,16
2512568,15
2513196,11
2513824,12
2514448,11
2515076,10
2515696,11
2516324,12
2516952,12
2517576,13
2518208,13
2518824,14
2519456,14
2520084,13
2520704,15
2521332,14
2521960,13
2522588,12
2523220,14
2523840,16
2524468,13
2525096,11
2525720,12
2526348,13
2526968,15
2527600,14
2528224,16
2528848,15
2529476,10
2530096,11
2530724,10
2531356,10
2531976,12
2532608,11
2533232,12
2533860,12
2534492,11
2535112,15
2535744,14
2536368,15
2536992,17
2537620,17
2538240,19
2538868,14
2539496,15
2540120,15
2540752,13
2541372,13
2542000,11
2542628,10
2543248,14
2543880,15
2544504,13
2545132,14
2545764,14
2546384,12
2547016,11
2547640,11
2548264,11
2548892,11
2549512,11
2550144,12
2550768,14
2551392,12
2552024,14
2552648,15
2553276,15
2553908,16
2554528,18
2555160,13
2555784,13
2556416,15
2557048,14
2557664,17
2558296,14
2558920,11
2559544,14
2560176,18
2560792,17
2561420,16
2562040,14
2562664,12
2563292,11
2563912,11
2564544,12
2565172,10
2565792,11
2566420,11
2567040,11
2567668,11
2568296,14
2568920,14
2569548,14
2570172,14
2570796,14
2571424,12
2572040,15
2572672,18
2573296,16
2573916,13
2574548,13
2575172,11
2575800,10
2576428,11
2577048,15
2577676,14
2578300,13
2578928,15
2579556,10
2580176,11
2580804,11
2581428,11
2582052,12
2582680,11
2583296,13
2583924,13
2584548,13
2585172,14
2585800,14
2586424,16
2587052,14
2587680,13
2588296,15
2588924,17
2589548,19
2590176,18
2590804,16
2591424,16
2592052,13
2592676,11
2593300,14
2593928,15
2594544,15
2595172,15
2595796,14
2596420,11
2597052,10
2597672,11
2598300,11
2598932,10
2599552,13
2600180,11
2600804,11
2601436,13
2602064,15
2602680,15
2603312,17
2603936,17
2604560,16
2605188,16
2605808,17
2606436,14
2607060,13
2607684,11
2608316,11
2608936,11
2609564,11
2610196,12
2610816,14
2611444,13
2612068,14
2612700,10
2613328,10
2613944,11
2614576,11
2615200,11
2615824,11
2616452,11
2617072,11
2617700,11
2618324,14
2618948,14
2619580,14
2620200,15
2620828,13
2621460,10
2622076,11
2622708,13
2623332,11
2623960,13
2624588,16
2625204,13
2625836,10
2626456,14
2627076,15
2627708,12
2628328,14
2628956,15
2629576,10
2630200,11
2630828,11
2631448,11
2632076,11
2632700,12
2633320,12
2633952,12
2634572,14
2635204,16
2635832,14
2636448,14
2637080,15
2637700,13
2638332,16
2638960,21
2639576,21
2640208,20
2640828,16
2641452,11
2642080,10
2642696,12
2643324,14
2643948,13
2644568,14
2645196,14
2645816,15
2646444,12
2647072,11
2647688,11
2648316,11
2648940,12
2649572,15
2650200,14
2650824,15
2651452,14
2652076,14
2652700,14
2653328,14
2653952,16
2654580,14
2655204,18
2655828,21
2656456,20
2657080,16
2657708,17
2658336,14
2658960,13
2659588,12
2660212,13
2660840,14
2661472,14
2662088,15
2662716,13
2663340,11
2663964,10
2664592,12
2665208,15
2665836,15
2666460,16
2667080,14
2667708,11
2668328,17
2668956,15
2669584,14
2670200,17
2670832,22
2671452,24
2672084,23
2672712,19
2673328,15
2673956,11
2674580,11
2675204,11
2675832,10
2676456,13
2677084,15
2677708,14
2678332,14
2678960,14
2679584,11
2680212,11
2680844,10
2681464,11
2682092,11
2682716,12
2683344,13
2683976,13
2684592,13
2685220,13
2685844,14
2686468,15
2687100,15
2687720,19
2688348,18
2688972,17
2689592,14
2690224,11
2690840,11
2691468,10
2692092,10
2692720,11
2693348,14
2693972,13
2694600,14
2695228,14
2695848,13
2696476,11
2697100,11
2697728,12
2698360,11
2698976,11
2699604,12
2700228,11
2700852,12
2701480,14
2702096,15
2702728,17
2703352,17
2703976,17
2704604,15
2705228,17
2705856,13
2706488,13
2707104,13
2707732,14
2708356,12
2708988,10
2709616,11
2710232,13
2710864,13
2711488,14
2712112,15
2712740,11
2713360,12
2713988,13
2714612,10
2715236,12
2715864,13
2716488,13
2717120,14
2717748,10
2718368,16
2718996,15
2719620,13
2720252,15
2720880,14
2721496,14
2722124,18
2722748,19
2723372,18
2724000,19
2724616,16
2725244,13
2725868,12
2726492,14
2727120,14
2727736,15
2728364,14
2728992,14
2729616,11
2730244,11
2730864,10
2731496,11
2732124,10
2732744,14
2733372,13
2733996,13
2734620,13
2735252,13
2735872,15
2736500,15
2737124,15
2737748,14
2738380,17
2739000,16
2739632,20
2740260,18
2740880,13
2741508,11
2742132,14
2742764,13
2743392,13
2744012,14
2744640,15
2745264,14
2745888,11
2746516,10
2747136,11
2747764,11
2748388,11
2749012,13
2749644,12
2750264,14
2750892,13
2751524,14
2752144,15
2752772,15
2753396,16
2754028,17
2754656,17
2755272,15
2755900,16
2756524,14
2757148,15
2757776,14
2758400,11
2759028,11
2759652,14
2760276,14
2760908,14
2761528,15
2762156,15
2762788,12
2763408,11
2764036,11
2764660,11
2765292,11
2765920,12
2766544,12
2767172,13
2767796,12
2768420,13
2769048,14
2769664,15
2770296,16
2770920,15
2771544,17
2772172,16
2772792,17
2773420,17
2774052,16
2774672,15
2775300,14
2775924,13
2776556,14
2777188,14
2777808,14
2778436,14
2779060,13
2779684,11
2780316,10
2780936,11
2781564,12
2782188,12
2782816,15
2783444,12
2784068,13
2784700,15
2785328,15
2785944,15
2786576,18
2787196,19
2787828,18
2788460,18
2789080,17
2789708,14
2790332,12
2790960,13
2791588,12
2792208,12
2792836,13
2793460,13
2794084,14
2794716,14
2795340,13
2795968,11
2796596,10
2797216,13
2797844,12
2798468,11
2799100,11
2799728,10
2800352,11
2800980,11
2801604,14
2802228,14
2802856,15
2803480,16
2804108,15
2804732,16
2805360,17
2805988,17
2806612,14
2807244,13
2807872,12
2808488,11
2809120,11
2809744,15
2810372,15
2811004,14
2811624,15
2812252,14
2812876,11
2813500,13
2814132,11
2814752,12
2815384,12
2816012,12
2816628,13
2817260,12
2817880,13
2818512,15
2819140,14
2819760,16
2820388,15
2821012,14
2821636,20
2822268,17
2822888,17
2823516,16
2824140,15
2824764,13
2825396,12
2826016,13
2826644,13
2827276,14
2827896,15
2828524,14
2829148,12
2829776,11
2830408,11
2831024,12
2831652,11
2832276,11
2832900,13
2833532,15
2834152,13
2834780,15
2835404,15
2836028,17
2836660,18
2837280,17
2837908,15
2838540,16
2839160,19
2839788,17
2840416,18
2841044,16
2841676,11
2842296,11
2842924,13
2843548,14
2844172,13
2844800,14
2845416,14
2846048,12
2846672,12
2847296,12
2847924,10
2848544,11
2849172,12
2849804,12
2850424,14
2851052,13
2851676,13
2852308,13
2852936,15
2853560,17
2854192,15
2854816,16
2855440,17
2856068,15
2856688,16
2857316,13
2857940,11
2858564,12
2859196,10
2859816,14
2860448,13
2861076,14
2861696,15
2862324,13
2862952,11
2863580,13
2864212,13
2864832,12
2865460,12
2866088,13
2866712,13
2867344,14
2867960,15
2868588,13
2869212,15
2869832,16
2870464,16
2871080,16
2871708,18
2872340,16
2872960,17
2873588,14
2874212,13
2874844,11
2875472,12
2876092,16
2876720,15
2877344,14
2877968,15
2878596,14
2879216,13
2879844,13
2880472,14
2881092,12
2881720,11
2882344,10
2882972,12
2883600,11
2884216,12
2884844,15
2885468,15
2886096,19
2886724,18
2887344,16
2887972,18
2888596,20
2889220,18
2889852,14
2890472,13
2891100,13
2891724,11
2892348,11
2892976,14
2893596,14
2894228,13
2894856,14
2895480,14
2896108,10
2896732,10
2897360,11
2897988,10
2898608,13
2899236,12
2899860,14
2900484,12
2901116,12
2901736,14
2902368,14
2902992,15
2903616,15
2904244,17
2904864,20
2905492,18
2906124,17
2906744,17
2907372,14
2907996,11
2908628,10
2909260,10
2909880,13
2910508,13
2911132,13
2911760,15
2912388,11
2913008,11
2913636,10
2914260,11
2914884,11
2915512,10
2916136,13
2916764,11
2917396,12
2918016,16
2918648,17
2919268,15
2919900,15
2920528,15
2921152,16
2921780,16
2922404,16
2923028,15
2923656,12
2924280,10
2924908,10
2925532,11
2926156,13
2926788,14
2927408,15
2928036,15
2928668,14
2929288,11
2929916,11
2930540,11
2931172,11
2931804,14
2932424,14
2933052,12
2933676,13
2934304,12
2934932,14
2935552,15
2936184,15
2936808,15
2937432,16
2938060,17
2938680,16
2939312,17
2939940,18
2940560,21
2941188,15
2941816,13
2942444,11
2943076,14
2943696,15
2944328,15
2944952,15
2945576,13
2946204,11
2946824,11
2947452,11
2948076,11
2948700,11
2949332,12
2949956,12
2950584,13
2951212,15
2951832,15
2952460,14
2953084,14
2953712,16
2954344,14
2954960,16
2955588,15
2956212,14
2956836,13
2957464,11
2958088,11
2958716,11
2959340,12
2959968,15
2960596,14
2961220,15
2961848,14
2962480,11
2963096,12
2963724,11
2964348,10
2964980,11
2965608,11
2966228,15
2966856,20
2967480,17
2968104,15
2968732,14
2969352,15
2969984,15
2970604,15
2971228,16
2971856,18
2972480,19
2973108,13
2973736,12
2974360,12
2974988,11
2975612,11
2976244,14
2976872,14
2977488,14
2978120,15
2978744,13
2979368,11
2979996,10
2980616,12
2981244,12
2981868,11
2982492,11
2983120,11
2983744,12
2984376,13
2985004,13
2985624,15
2986252,15
2986876,17
2987508,17
2988136,15
2988760,15
2989392,12
2990016,11
2990640,12
2991268,11
2991888,15
2992520,14
2993144,15
2993768,14
2994396,14
2995020,13
2995652,11
2996284,10
2996904,11
2997532,10
2998160,11
2998788,11
2999420,13
3000040,15
3000668,13
3001292,14
3001916,14
3002548,14
3003168,15
3003800,15
3004428,16
3005048,19
3005680,19
3006304,13
3006932,12
3007564,11
3008184,11
3008812,11
3009436,13
3010060,14
3010692,14
3011312,15
3011940,14
3012564,11
3013188,11
3013820,10
3014440,11
3015068,12
3015700,12
3016320,11
3016948,11
3017576,12
3018204,14
3018836,14
3019456,15
3020088,16
3020712,18
3021336,19
3021968,18
3022588,16
3023216,13
3023840,13
3024464,11
3025092,10
3025712,11
3026344,15
3026972,14
3027592,14
3028224,14
3028848,13
3029476,11
3030108,10
3030728,11
3031360,11
3031984,11
3032608,11
3033236,12
3033856,13
3034488,14
3035112,15
3035736,15
3036368,14
3036984,15
3037612,12
3038244,14
3038864,17
3039496,17
3040120,17
3040748,17
3041380,12
3042000,12
3042628,11
3043252,15
3043876,14
3044508,14
3045128,15
3045756,11
3046384,12
3047008,12
3047636,11
3048264,11
3048892,12
3049524,11
3050144,13
3050776,12
3051400,15
3052032,14
3052660,15
3053280,17
3053908,15
3054536,14
3055160,16
3055792,17
3056408,18
3057040,13
3057668,14
3058288,11
3058920,11
3059544,15
3060172,14
3060804,13
3061424,16
3062056,15
3062680,11
3063304,11
3063936,10
3064556,10
3065184,11
3065812,13
3066436,12
3067068,12
3067688,14
3068320,14
3068948,13
3069568,17
3070200,17
3070824,17
3071456,19
3072088,16
3072704,15
3073332,14
3073956,17
3074576,17
3075208,15
3075824,14
3076452,13
3077076,13
3077700,13
3078332,12
3078952,13
3079580,12
3080212,12
3080832,13
3081460,12
3082084,12
3082716,11
3083344,12
3083960,12
3084592,15
3085216,15
3085840,16
3086468,19
3087088,18
3087716,19
3088340,21
3088964,21
3089592,14
3090216,11
3090844,11
3091476,11
3092096,11
3092724,14
3093348,15
3093980,14
3094612,14
3095232,15
3095860,13
3096488,13
3097112,12
3097740,11
3098360,13
3098988,13
3099612,13
3100236,13
3100868,10
3101488,15
3102116,15
3102748,16
3103368,18
3103996,16
3104624,15
3105252,21
3105884,21
3106504,17
3107136,15
3107760,12
3108384,11
3109016,10
3109632,14
3110264,13
3110888,15
3111512,15
3112144,13
3112764,10
3113392,10
3114024,10
3114640,10
3115272,11
3115896,12
3116528,13
3117156,11
3117776,15
3118404,13
3119028,15
3119656,17
3120284,16
3120904,16
3121532,17
3122156,15
3122784,16
3123416,14
3124036,11
3124668,11
3125296,11
3125912,12
3126544,15
3127168,18
3127796,17
3128428,14
3129048,12
3129676,11
3130300,10
3130924,11
3131556,10
3132176,11
3132804,12
3133428,11
3134056,11
3134684,14
3135312,15
3135940,15
3136572,14
3137192,13
3137820,13
3138448,16
3139076,18
3139708,18
3140328,17
3140956,13
3141584,13
3142208,13
3142840,13
3143456,14
3144088,14
3144716,14
3145336,15
3145968,11
3146592,11
3147220,11
3147852,10
3148472,13
3149104,14
3149728,11
3150352,12
3150984,13
3151600,14
3152232,17
3152856,17
3153480,17
3154112,15
3154728,15
3155356,14
3155988,14
3156608,16
3157236,14
3157864,13
3158492,11
3159124,11
3159744,13
3160376,14
3161000,15
3161624,15
3162252,10
3162872,11
3163504,11
3164128,12
3164752,11
3165384,11
3166000,12
3166632,14
3167264,15
3167880,15
3168512,14
3169136,16
3169768,15
3170400,13
3171020,13
3171652,16
3172276,17
3172900,17
3173532,20
3174152,18
3174784,13
3175408,12
3176036,14
3176664,15
3177288,13
3177916,14
3178548,14
3179168,11
3179800,11
3180424,12
3181056,11
3181684,14
3182304,14
3182936,11
3183560,12
3184184,13
3184816,15
3185432,16
3186064,16
3186692,16
3187312,17
3187944,20
3188568,20
3189196,17
3189828,14
3190448,13
3191080,11
3191704,11
3192328,11
3192960,14
3193576,13
3194208,13
3194836,15
3195460,11
3196092,11
3196712,11
3197344,11
3197976,12
3198596,12
3199224,13
3199852,13
3200484,12
3201112,15
3201728,14
3202360,15
3202980,15
3203604,18
3204232,20
3204856,21
3205484,21
3206108,17
3206728,15
3207360,14
3207976,13
3208604,13
3209236,12
3209856,14
3210484,13
3211108,14
3211740,13
3212368,11
3212984,12
3213616,12
3214236,12
3214860,13
3215492,14
3216112,16
3216740,12
3217364,11
3217988,14
3218616,14
3219232,15
3219864,17
3220492,19
3221112,20
3221740,19
3222364,14
3222996,13
3223628,14
3224248,13
3224876,12
3225500,11
3226128,14
3226756,13
3227376,14
3228004,14
3228628,13
3229252,11
3229880,14
3230504,13
3231132,10
3231764,11
3232384,16
3233012,16
3233636,15
3234268,15
3234896,14
3235516,15
3236144,15
3236768,15
3237392,16
3238024,19
3238640,20
3239272,19
3239896,16
3240520,12
3241148,10
3241768,11
3242396,11
3243028,14
3243648,14
3244276,15
3244900,14
3245532,11
3246160,10
3246784,13
3247412,11
3248036,11
3248660,11
3249288,11
3249912,13
3250540,11
3251168,14
3251792,15
3252420,14
3253040,15
3253668,14
3254300,14
3254920,18
3255552,16
3256176,16
3256804,15
3257436,12
3258056,13
3258684,11
3259312,15
3259936,13
3260564,13
3261184,14
3261816,14
3262440,11
3263064,11
3263696,11
3264312,11
3264944,13
3265572,16
3266192,15
3266824,13
3267444,13
3268076,14
3268704,15
3269328,18
3269956,19
3270584,19
3271208,19
3271836,17
3272456,16
3273088,15
3273712,14
3274336,11
3274968,11
3275592,13
3276224,15
3276856,13
3277468,13
3278096,14
3278720,12
3279348,11
3279976,10
3280596,11
3281224,11
3281844,11
3282468,15
3283096,14
3283712,14
3284340,14
3284964,14
3285584,15
3286212,16
3286832,20
3287460,19
3288088,17
3288704,17
3289332,15
3289956,15
3290584,13
3291212,10
3291832,12
3292460,13
3293084,13
3293704,13
3294336,13
3294952,14
3295580,12
3296204,11
3296828,11
3297456,11
3298072,13
3298700,14
3299324,15
3299944,12
3300576,13
3301196,15
3301828,15
3302456,16
3303072,18
3303700,17
3304324,17
3304952,21
3305580,21
3306200,20
3306828,17
3307452,12
3308076,11
3308704,11
3309328,14
3309956,14
3310580,15
3311204,15
3311832,15
3312456,12
3313088,11
3313716,10
3314336,11
3314964,11
3315588,12
3316220,14
3316848,15
3317464,13
3318096,17
3318720,16
3319340,16
3319972,16
3320592,16
3321220,15
3321844,19
3322468,18
3323096,15
3323720,15
3324348,11
3324980,11
3325600,13
3326228,13
3326852,14
3327484,14
3328112,14
3328732,11
3329360,12
3329984,11
3330604,11
3331236,10
3331852,12
3332484,12
3333104,13
3333728,13
3334356,15
3334980,15
3335608,15
3336240,16
3336856,16
3337484,16
3338108,16
3338736,14
3339368,14
3339984,14
3340612,13
3341236,11
3341860,11
3342488,14
3343112,13
3343740,14
3344364,14
3344988,14
3345616,10
3346232,11
3346860,12
3347492,12
3348112,13
3348740,13
3349364,11
3349992,11
3350624,11
3351240,15
3351868,17
3352492,17
3353116,18
3353748,16
3354368,20
3354996,23
3355620,16
3356244,13
3356872,12
3357496,11
3358124,11
3358756,11
3359376,14
3360004,14
3360624,14
3361256,14
3361884,11
3362504,11
3363132,11
3363756,11
3364380,11
3365008,11
3365624,14
3366252,14
3366876,15
3367500,15
3368128,13
3368744,14
3369376,15
3370004,16
3370624,18
3371252,17
3371876,19
3372504,15
3373132,14
3373752,13
3374380,12
3375004,12
3375628,13
3376260,14
3376880,14
3377508,14
3378132,15
3378756,12
3379388,10
3380004,11
3380636,11
3381264,10
3381880,11
3382508,15
3383132,14
3383760,13
3384388,14
3385008,18
3385636,16
3386260,15
3386884,15
3387512,15
3388136,14
3388764,13
3389388,13
3390016,15
3390644,14
3391264,13
3391892,13
3392524,16
3393144,14
3393772,13
3394396,14
3395024,14
3395656,11
3396272,11
3396900,11
3397524,11
3398148,11
3398780,12
3399400,13
3400028,13
3400652,12
3401276,15
3401904,15
3402520,15
3403152,17
3403780,17
3404400,17
3405028,15
3405652,13
3406280,13
3406908,12
3407528,12
3408156,11
3408780,12
3409408,15
3410036,13
3410656,14
3411284,14
3411908,11
3412532,11
3413160,12
3413776,11
3414408,13
3415032,13
3415656,17
3416284,17
3416908,14
3417540,14
3418172,14
3418792,13
3419420,14
3420048,15
3420676,24
3421308,24
3421928,25
3422556,24
3423180,23
3423808,17
3424436,10
3425056,9
3425632,11
3426264,13
3426888,14
3427516,14
3428136,14
3428764,11
3429396,10
3430016,10
3430648,11
3431268,13
3431900,15
3432528,13
3433152,13
3433780,11
3434404,14
3435028,14
3435660,14
3436280,16
3436908,16
3437532,17
3438156,17
3438788,16
3439408,15
3440036,13
3440668,10
3441288,10
3441916,11
3442540,14
3443168,14
3443796,13
3444416,15
3445044,13
3445668,11
3446292,14
3446920,12
3447544,11
3448172,12
3448796,16
3449420,15
3450052,12
3450672,14
3451300,17
3451932,17
3452552,17
3453180,15
3453804,18
3454436,17
3455068,18
3455688,18
3456320,15
3456940,13
3457564,11
3458192,11
3458816,12
3459444,13
3460068,14
3460692,14
3461320,13
3461944,12
3462572,13
3463200,16
3463824,13
3464452,11
3465076,11
3465708,11
3466336,12
3466952,13
3467584,14
3468208,15
3468832,15
3469460,14
3470080,15
3470708,19
3471332,18
3471960,17
3472588,13
3473208,17
3473836,22
3474468,16
3475088,12
3475720,14
3476344,15
3476972,14
3477604,16
3478224,15
3478856,11
3479480,11
3480104,11
3480732,10
3481352,11
3481984,13
3482604,15
3483228,14
3483856,13
3484476,13
3485104,15
3485732,15
3486352,17
3486980,16
3487604,17
3488236,17
3488864,19
3489480,15
3490112,15
3490736,12
3491360,11
3491988,11
3492608,15
3493236,13
3493860,14
3494484,14
3495112,11
3495736,11
3496364,11
3496996,10
3497616,11
3498244,11
3498868,12
3499500,12
3500128,12
3500748,14
3501380,14
3502004,15
3502628,17
3503256,20
3503880,19
3504512,16
3505136,15
3505760,13
3506388,14
3507016,15
3507644,16
3508276,12
3508896,13
3509524,13
3510148,14
3510780,14
3511412,14
3512032,11
3512660,12
3513288,12
3513912,12
3514540,12
3515160,15
3515792,14
3516424,13
3517040,11
3517672,15
3518296,15
3518928,16
3519556,17
3520176,21
3520808,21
3521428,20
3522056,18
3522684,14
3523304,13
3523932,11
3524556,11
3525180,11
3525808,14
3526424,14
3527052,13
3527676,14
3528304,14
3528932,11
3529556,12
3530188,13
3530820,11
3531440,11
3532068,12
3532696,12
3533320,12
3533948,14
3534568,14
3535196,15
3535820,16
3536448,16
3537076,16
3537696,18
3538324,17
3538956,18
3539576,16
3540204,13
3540828,11
3541460,11
3542088,10
3542712,14
3543344,15
3543968,14
3544592,15
3545220,11
3545840,11
3546468,10
3547092,11
3547716,11
3548348,10
3548968,13
3549596,13
3550228,12
3550848,15
3551476,14
3552104,14
3552732,17
3553364,14
3553984,14
3554612,14
3555236,16
3555860,17
3556492,14
3557112,16
3557744,13
3558368,11
3558992,13
3559620,14
3560240,15
3560868,15
3561500,14
3562120,12
3562748,11
3563376,11
3564004,11
3564636,10
3565256,12
3565884,12
3566512,11
3567136,12
3567764,14
3568384,15
3569012,14
3569636,15
3570260,15
3570892,13
3571512,13
3572144,13
3572772,12
3573392,16
3574024,13
3574648,11
3575276,11
3575908,13
3576528,14
3577156,15
3577784,15
3578408,13
3579036,10
3579656,13
3580288,15
3580912,14
3581536,13
3582168,14
3582792,12
3583424,12
3584056,16
3584672,19
3585300,16
3585924,15
3586552,17
3587180,16
3587800,16
3588428,15
3589052,15
3589676,13
3590308,14
3590928,13
3591556,11
3592180,13
3592804,13
3593436,14
3594060,13
3594692,14
3595320,11
3595944,12
3596576,11
3597200,11
3597828,11
3598460,12
3599080,13
3599712,13
3600336,13
3600960,13
3601588,14
3602208,15
3602836,15
3603468,12
3604088,19
3604716,19
3605340,15
3605968,11
3606600,13
3607216,17
3607844,15
3608468,12
3609092,14
3609724,14
3610344,15
3610972,14
3611596,14
3612220,11
3612848,10
3613464,11
3614092,11
3614716,11
3615344,16
3615972,13
3616600,15
3617228,14
3617856,14
3618480,15
3619108,16
3619732,18
3620360,20
3620988,18
3621608,16
3622236,16
3622860,14
3623484,12
3624116,10
3624736,11
3625364,11
3625996,12
3626616,15
3627244,13
3627868,14
3628500,11
3629128,10
3629744,10
3630376,11
3631000,14
3631624,13
3632252,13
3632872,15
3633500,14
3634128,15
3634752,15
3635380,15
3636000,13
3636628,12
3637256,16
3637880,21
3638508,23
3639132,25
3639764,23
3640392,17
3641016,13
3641644,11
3642268,14
3642892,14
3643524,14
3644144,14
3644776,14
3645400,11
3646024,11
3646652,10
3647272,12
3647900,13
3648532,13
3649152,13
3649780,15
3650404,14
3651032,13
3651664,14
3652280,15
3652912,17
3653536,19
3654160,19
3654788,19
3655408,20
3656036,14
3656660,12
3657284,11
3657916,11
3658536,13
3659164,13
3659796,14
3660416,15
3661048,13
3661668,11
3662300,10
3662928,10
3663552,11
3664184,11
3664804,13
3665428,15
3666060,11
3666680,11
3667308,15
3667932,14
3668556,13
3669188,14
3669808,15
3670436,16
3671068,18
3671688,19
3672316,16
3672944,15
3673576,18
3674208,14
3674824,15
3675456,14
3676080,15
3676704,15
3677336,14
3677952,13
3678584,12
3679208,11
3679832,11
3680464,12
3681080,13
3681712,15
3682340,13
3682960,13
3683588,11
3684216,13
3684844,16
3685476,16
3686096,18
3686728,17
3687348,17
3687972,18
3688600,14
3689224,14
3689852,14
3690476,12
3691100,11
3691728,11
3692344,14
3692976,14
3693604,14
3694224,15
3694852,13
3695476,11
3696108,11
3696736,11
3697352,10
3697984,11
3698608,11
3699232,12
3699860,13
3700480,14
3701108,14
3701732,15
3702356,15
3702988,15
3703608,18
3704236,14
3704868,14
3705488,12
3706120,15
3706744,16
3707372,14
3708004,10
3708624,11
3709256,15
3709880,15
3710504,15
3711132,14
3711752,12
3712384,12
3713008,11
3713628,11
3714260,11
3714884,12
3715512,13
3716144,11
3716760,11
3717388,16
3718016,16
3718644,15
3719272,18
3719896,18
3720524,19
3721148,19
3721772,21
3722404,14
3723024,11
3723652,11
3724276,11
3724904,9
3725480,14
3726104,15
3726732,14
3727356,14
3727984,13
3728616,13
3729240,12
3729868,11
3730500,10
3731120,13
3731752,14
3732376,13
3733000,12
3733628,11
3734248,16
3734880,15
3735504,15
3736128,16
3736760,15
3737376,15
3738008,19
3738636,17
3739256,15
3739884,13
3740508,12
3741140,11
3741772,13
3742392,16
3743024,13
3743648,15
3744272,15
3744900,14
3745520,14
3746148,11
3746776,11
3747400,11
3748028,10
3748648,13
3749276,11
3749908,10
3750528,14
3751156,14
3751784,15
3752412,15
3753044,14
3753664,13
3754292,15
3754916,21
3755544,22
3756172,17
3756792,18
3757424,15
3758048,11
3758672,13
3759304,13
3759924,13
3760552,14
3761184,14
3761808,13
3762440,12
3763064,12
3763696,11
3764324,10
3764944,11
3765572,11
3766200,11
3766824,12
3767456,14
3768072,14
3768704,14
3769328,15
3769952,13
3770580,16
3771204,19
3771836,19
3772468,15
3773088,14
3773720,13
3774344,12
3774972,11
3775604,14
3776224,14
3776852,14
3777476,15
3778100,13
3778732,10
3779352,12
3779980,11
3780608,11
3781232,15
3781860,16
3782488,15
3783116,15
3783748,14
3784368,15
3784996,15
3785620,14
3786248,15
3786876,12
3787496,15
3788128,15
3788752,13
3789376,11
3790008,11
3790624,12
3791256,15
3791888,14
3792504,15
3793132,14
3793760,14
3794388,13
3795020,12
3795640,15
3796268,17
3796896,16
3797520,15
3798148,10
3798768,14
3799400,17
3800024,15
3800648,15
3801276,14
3801896,13
3802524,15
3803156,14
3803776,15
3804408,21
3805032,19
3805660,16
3806292,15
3806912,12
3807544,11
3808168,10
3808792,15
3809424,13
3810040,15
3810668,14
3811292,14
3811920,12
3812548,11
3813168,12
3813800,11
3814428,11
3815048,15
3815676,14
3816304,14
3816932,12
3817564,13
3818184,14
3818816,15
3819440,15
3820064,18
3820696,20
3821312,17
3821944,13
3822568,14
3823192,15
3823824,12
3824444,12
3825072,13
3825704,13
3826328,14
3826960,16
3827584,17
3828216,17
3828844,15
3829464,15
3830096,13
3830720,14
3831344,11
3831976,12
3832596,13
3833228,13
3833852,14
3834480,15
3835112,17
3835736,20
3836368,19
3837000,22
3837620,24
3838248,23
3838876,19
3839504,17
3840136,14
3840752,11
3841380,10
3842004,13
3842628,14
3843256,14
3843872,13
3844504,15
3845132,12
3845752,14
3846380,12
3847008,11
3847636,11
3848268,11
3848888,11
3849516,12
3850140,12
3850768,14
3851396,14
3852016,19
3852644,16
3853268,15
3853892,18
3854524,18
3855144,19
3855776,17
3856404,12
3857024,11
3857652,10
3858276,11
3858904,14
3859536,14
3860156,14
3860784,15
3861408,14
3862032,15
3862660,15
3863280,15
3863908,16
3864536,15
3865160,14
3865788,11
3866408,14
3867036,14
3867668,14
3868288,15
3868916,14
3869540,15
3870172,20
3870804,22
3871424,29
3872052,29
3872676,25
3873300,17
3873932,10
3874552,11
3875184,12
3875808,13
3876432,14
3877064,14
3877680,14
3878308,11
3878940,10
3879560,13
3880192,14
3880816,19
3881444,19
3882076,14
3882696,13
3883328,11
3883952,15
3884576,17
3885208,17
3885824,18
3886456,19
3887080,23
3887704,23
3888336,24
3888952,23
3889584,29
3890216,22
3890836,11
3891468,15
3892088,14
3892720,15
3893348,16
3893968,17
3894596,18
3895220,15
3895844,11
3896476,10
3897096,12
3897724,15
3898348,21
3898976,24
3899604,24
3900228,17
3900860,14
3901488,15
3902108,16
3902736,17
3903360,17
3903992,19
3904624,19
3905240,21
3905872,19
3906496,14
3907120,11
3907752,11
3908368,11
3909000,14
3909624,14
3910248,13
3910880,14
3911504,11
3912136,11
3912764,11
3913384,11
3914016,12
3914640,13
3915268,13
3915900,10
3916520,12
3917152,17
3917776,15
3918400,15
3919028,14
3919648,13
3920280,15
3920908,18
3921528,19
3922160,17
3922784,19
3923412,15
3924044,10
3924664,11
3925292,14
3925920,15
3926544,14
3927172,14
3927792,14
3928424,11
3929048,11
3929672,13
3930300,11
3930920,13
3931552,13
3932184,15
3932800,16
3933428,12
3934052,13
3934684,15
3935312,14
3935936,15
3936568,16
3937192,19
3937816,19
3938444,18
3939064,15
3939692,13
3940320,11
3940944,11
3941572,12
3942192,14
3942824,13
3943452,14
3944072,16
3944700,14
3945324,11
3945956,10
3946584,11
3947200,12
3947832,11
3948456,15
3949080,14
3949708,15
3950328,15
3950956,14
3951584,15
3952208,16
3952836,19
3953456,21
3954084,20
3954716,18
3955336,15
3955964,13
3956588,13
3957220,12
3957852,12
3958472,13
3959100,14
3959728,15
3960352,17
3960980,15
3961600,13
3962228,11
3962852,11
3963480,11
3964108,10
3964728,12
3965360,11
3965988,11
3966608,12
3967240,14
3967864,14
3968496,15
3969124,14
3969744,12
3970372,11
3971000,13
3971624,17
3972252,14
3972872,15
3973500,15
3974128,11
3974752,11
3975380,14
3976004,15
3976632,14
3977264,14
3977884,13
3978512,12
3979136,13
3979768,12
3980396,10
3981016,11
3981644,13
3982268,17
3982896,14
3983524,14
3984144,15
3984772,14
3985396,13
3986024,15
3986652,13
3987276,12
3987908,13
3988540,12
3989160,15
3989788,13
3990416,11
3991044,11
3991676,13
3992296,14
3992928,14
3993552,15
3994176,14
3994808,11
3995424,10
3996056,11
3996684,11
3997304,11
3997936,11
3998560,11
3999188,11
3999820,10
4000440,15
4001068,15
4001692,14
4002316,16
4002948,20
4003568,22
4004196,18
4004820,15
4005444,13
4006072,11
4006692,11
4007320,11
4007948,11
4008568,15
4009196,14
4009820,13
4010452,13
4011080,14
4011700,12
4012328,13
4012952,11
4013576,11
4014204,11
4014824,13
4015452,12
4016076,12
4016700,12
4017328,14
4017952,15
4018580,15
4019212,14
4019832,16
4020460,24
4021084,24
4021712,20
4022344,15
4022964,12
4023592,11
4024216,11
4024840,11
4025468,14
4026088,14
4026716,15
4027340,14
4027964,12
4028596,10
4029216,11
4029844,11
4030476,11
4031096,12
4031728,12
4032352,14
4032980,13
4033612,14
4034232,15
4034860,15
4035484,16
4036108,16
4036740,14
4037360,17
4037988,17
4038616,17
4039240,17
4039868,14
4040488,11
4041116,10
4041748,12
4042368,17
4042996,17
4043624,15
4044252,14
4044884,10
4045504,11
4046132,11
4046756,10
4047380,11
4048008,10
4048632,11
4049260,11
4049884,15
4050508,16
4051140,16
4051760,21
4052388,20
4053020,16
4053640,18
4054272,21
4054896,19
4055524,13
4056156,12
4056776,10
4057404,11
4058032,11
4058656,15
4059284,14
4059904,15
4060536,14
4061160,14
4061784,11
4062412,11
4063032,12
4063664,13
4064296,15
4064912,15
4065540,12
4066168,11
4066796,16
4067428,16
4068048,17
4068676,17
4069304,17
4069928,13
4070560,14
4071176,16
4071808,16
4072432,17
4073056,17
4073688,14
4074312,11
4074940,11
4075572,12
4076192,15
4076820,14
4077444,13
4078076,11
4078708,10
4079328,11
4079960,11
4080584,11
4081208,11
4081836,12
4082456,10
4083088,13
4083716,15
4084336,15
4084968,14
4085592,15
4086224,13
4086852,14
4087472,15
4088104,15
4088728,14
4089352,15
4089984,13
4090600,13
4091232,13
4091856,15
4092480,16
4093112,15
4093728,13
4094360,14
4094992,10
4095616,11
4096248,11
4096872,11
4097500,11
4098128,15
4098744,15
4099372,15
4099992,13
4100612,13
4101244,14
4101860,14
4102488,19
4103112,23
4103736,20
4104364,18
4104980,15
4105608,14
4106232,13
4106856,12
4107484,11
4108108,12
4108736,15
4109364,14
4109984,14
4110612,14
4111236,12
4111864,12
4112492,10
4113112,11
4113740,10
4114364,13
4114988,14
4115616,11
4116232,12
4116860,15
4117484,14
4118108,15
4118736,14
4119352,14
4119980,13
4120612,17
4121232,15
4121860,15
4122484,15
4123112,13
4123740,11
4124360,17
4124988,17
4125612,15
4126232,14
4126864,13
4127480,15
4128108,13
4128732,12
4129356,12
4129984,12
4130600,12
4131228,11
4131856,10
4132480,12
4133108,12
4133732,13
4134360,14
4134992,14
4135608,17
4136240,20
4136864,25
4137488,21
4138116,14
4138736,10
4139364,11
4139988,10
4140612,10
4141244,10
4141864,15
4142492,15
4143124,14
4143744,15
4144372,14
4144996,13
4145628,15
4146256,12
4146872,11
4147504,11
4148128,13
4148748,13
4149380,14
4150000,19
4150628,17
4151252,15
4151876,17
4152508,14
4153128,15
4153756,16
4154388,16
4155008,16
4155636,14
4156260,12
4156892,11
4157520,10
4158144,11
4158772,13
4159396,13
4160020,13
4160648,14
4161264,11
4161892,10
4162516,10
4163140,11
4163768,10
4164384,11
4165012,11
4165644,10
4166264,12
4166892,14
4167516,14
4168144,14
4168776,14
4169392,17
4170020,16
4170644,17
4171268,20
4171900,16
4172520,15
4173148,14
4173772,11
4174396,10
4175028,12
4175648,13
4176276,14
4176908,14
4177528,14
4178156,11
4178780,12
4179408,13
4180036,10
4180656,11
4181284,14
4181904,15
4182532,13
4183164,11
4183784,16
4184412,19
4185036,19
4185660,21
4186288,16
4186904,14
4187536,14
4188160,12
4188784,12
4189412,11
4190036,13
4190668,12
4191296,11
4191916,13
4192548,13
4193168,14
4193800,14
4194428,11
4195048,11
4195676,10
4196300,11
4196924,12
4197556,11
4198176,14
4198808,12
4199436,10
4200056,15
4200684,14
4201308,16
4201936,15
4202564,14
4203184,12
4203812,15
4204436,16
4205060,16
4205692,14
4206312,19
4206940,20
4207564,17
4208188,12
4208816,12
4209440,13
4210068,14
4210696,14
4211320,13
4211948,11
4212572,11
4213204,11
4213832,10
4214448,12
4215080,14
4215704,15
4216328,13
4216956,14
4217576,15
4218208,15
4218832,17
4219456,16
4220084,15
4220704,18
4221332,20
4221964,15
4222584,14
4223212,11
4223836,11
4224468,11
4225100,14
4225720,13
4226348,14
4226972,14
4227596,14
4228224,11
4228844,10
4229472,11
4230096,12
4230720,13
4231348,14
4231968,15
4232596,14
4233228,14
4233848,14
4234476,15
4235100,17
4235732,18
4236360,16
4236984,17
4237612,18
4238236,16
4238860,13
4239492,12
4240112,12
4240740,11
4241364,11
4241988,14
4242616,15
4243236,17
4243864,17
4244492,16
4245112,12
4245740,12
4246364,14
4246996,15
4247628,14
4248248,14
4248876,11
4249500,12
4250128,15
4250756,14
4251376,16
4252004,19
4252628,19
4253252,24
4253884,28
4254504,28
4255132,18
4255764,12
4256384,13
4257012,14
4257636,13
4258268,16
4258896,21
4259516,21
4260144,15
4260768,15
4261392,11
4262020,13
4262640,10
4263268,13
4263892,14
4264516,15
4265144,16
4265760,16
4266392,15
4267020,13
4267640,14
4268268,14
4268892,16
4269520,17
4270152,17
4270768,18
4271400,19
4272024,18
4272644,15
4273276,12
4273896,12
4274524,11
4275148,13
4275776,15
4276404,14
4277024,15
4277652,14
4278284,10
4278904,12
4279532,11
4280160,11
4280788,11
4281416,14
4282040,13
4282668,12
4283292,15
4283916,15
4284548,16
4285168,15
4285796,15
4286420,16
4287044,16
4287676,14
4288296,16
4288924,15
4289556,14
4290176,13
4290804,11
4291428,12
4292060,14
4292688,13
4293308,14
4293936,15
4294560,13
4295184,12
4295812,10
4296432,11
4297060,11
4297684,11
4298308,14
4298940,14
4299560,12
4300192,16
4300820,15
4301436,14
4302068,14
4302692,12
4303320,11
4303948,14
4304568,19
4305196,16
4305820,19
4306444,21
4307076,18
4307696,15
4308324,15
4308948,15
4309572,14
4310204,13
4310824,14
4311452,12
4312084,12
4312704,11
4313332,11
4313960,12
4314588,13
4315220,12
4315840,16
4316468,16
4317096,14
4317720,15
4318348,14
4318968,15
4319596,17
4320224,21
4320848,20
4321476,18
4322096,20
4322724,18
4323352,12
4323976,11
4324604,11
4325228,14
4325860,13
4326488,14
4327104,14
4327736,14
4328360,13
4328984,11
4329612,12
4330232,11
4330860,11
4331484,11
4332112,11
4332740,11
4333360,15
4333988,15
4334620,14
4335240,15
4335868,16
4336496,17
4337124,20
4337756,16
4338376,15
4339008,13
4339632,11
4340256,12
4340884,10
4341504,13
4342136,14
4342760,15
4343384,15
4344012,14
4344632,11
4345260,11
4345892,10
4346512,11
4347140,11
4347768,13
4348396,13
4349028,14
4349648,13
4350276,14
4350904,15
4351528,16
4352160,14
4352776,15
4353404,17
4354028,18
4354652,17
4355280,16
4355896,16
4356528,15
4357156,11
4357776,11
4358404,13
4359028,13
4359656,14
4360288,14
4360908,13
4361536,11
4362160,11
4362784,11
4363412,10
4364032,12
4364660,13
4365284,14
4365908,13
4366540,14
4367160,15
4367788,14
4368420,14
4369040,17
4369668,18
4370292,19
4370924,17
4371552,16
4372172,14
4372800,12
4373424,11
4374048,11
4374676,11
4375296,15
4375924,13
4376552,14
4377176,15
4377808,11
4378424,11
4379052,12
4379684,10
4380304,11
4380936,12
4381560,15
4382188,13
4382820,12
4383440,15
4384068,13
4384692,14
4385316,15
4385948,12
4386568,11
4387196,13
4387820,13
4388448,15
4389076,13
4389700,12
4390332,11
4390964,10
4391584,14
4392216,15
4392840,14
4393468,14
4394100,14
4394720,12
4395352,12
4395976,17
4396600,25
4397232,18
4397848,11
4398480,12
4399108,13
4399728,13
4400360,13
4400984,15
4401612,15
4402244,14
4402864,14
4403496,20
4404116,21
4404740,17
4405372,14
4405992,13
4406620,11
4407244,11
4407868,12
4408500,13
4409120,15
4409748,15
4410380,14
4411000,11
4411628,11
4412256,11
4412884,11
4413516,10
4414136,11
4414764,13
4415392,12
4416016,13
4416644,14
4417264,15
4417892,14
4418516,15
4419140,13
4419772,11
4420392,13
4421024,15
4421652,14
4422272,15
4422904,15
4423528,12
4424156,11
4424788,12
4425408,14
4426036,14
4426660,15
4427284,14
4427916,10
4428536,11
4429164,11
4429788,11
4430412,11
4431040,14
4431664,16
4432292,15
4432924,11
4433544,13
4434176,15
4434800,17
4435428,18
4436056,17
4436680,17
4437308,17
4437932,15
4438560,11
4439188,10
4439808,11
4440440,11
4441064,11
4441688,14
4442316,14
4442936,15
4443564,13
4444196,12
4444816,11
4445444,11
4446068,10
4446700,11
4447332,12
4447952,16
4448584,16
4449208,15
4449832,15
4450460,14
4451080,15
4451712,15
4452336,17
4452960,18
4453588,24
4454216,25
4454848,25
4455476,20
4456096,14
4456724,11
4457348,11
4457980,11
4458612,12
4459232,13
4459864,13
4460488,14
4461112,11
4461740,11
4462360,12
4462992,11
4463620,11
4464240,12
4464868,11
4465492,13
4466124,13
4466756,14
4467376,14
4468004,16
4468628,15
4469256,14
4469884,17
4470504,19
4471136,16
4471760,13
4472384,13
4473016,14
4473632,15
4474264,13
4474896,14
4475512,13
4476144,14
4476768,14
4477400,14
4478032,10
4478652,11
4479280,11
4479908,13
4480532,15
4481164,16
4481784,17
4482412,20
4483036,18
4483660,15
4484292,14
4484912,17
4485540,18
4486172,19
4486792,25
4487420,25
4488044,20
4488676,19
4489304,15
4489920,12
4490552,11
4491176,12
4491800,13
4492428,14
4493048,14
4493676,14
4494300,12
4494928,12
4495556,10
4496176,11
4496804,12
4497436,10
4498056,13
4498684,12
4499308,13
4499940,14
4500572,14
4501192,15
4501824,14
4502448,16
4503072,18
4503700,19
4504320,19
4504952,20
4505576,15
4506200,13
4506832,10
4507448,11
4508076,13
4508708,12
4509328,14
4509956,14
4510580,14
4511212,12
4511840,11
4512464,12
4513092,10
4513716,12
4514340,17
4514972,16
4515592,17
4516220,16
4516844,13
4517468,15
4518100,14
4518724,15
4519352,14
4519984,22
4520604,20
4521232,17
4521856,16
4522484,14
4523116,12
4523736,11
4524364,11
4524988,16
4525612,13
4526244,14
4526864,15
4527492,11
4528116,11
4528740,12
4529372,12
4529996,11
4530624,13
4531256,16
4531872,15
4532504,13
4533128,15
4533756,15
4534388,14
4535008,15
4535640,21
4536264,21
4536888,18
4537516,14
4538136,14
4538764,13
4539396,12
4540016,12
4540644,11
4541272,11
4541900,15
4542532,13
4543152,14
4543784,15
4544408,13
4545032,11
4545660,10
4546280,11
4546912,11
4547532,12
4548156,11
4548788,10
4549408,13
4550036,15
4550668,15
4551288,19
4551916,19
4552544,16
4553172,12
4553804,12
4554424,16
4555052,13
4555680,12
4556304,13
4556936,10
4557552,11
4558180,13
4558808,14
4559432,15
4560060,14
4560680,15
4561308,12
4561940,12
4562560,12
4563188,12
4563816,14
4564444,12
4565076,10
4565696,11
4566328,13
4566952,16
4567576,15
4568208,17
4568824,15
4569452,13
4570080,16
4570704,18
4571332,15
4571952,12
4572584,11
4573212,10
4573832,10
4574464,11
4575088,18
4575720,16
4576352,13
4576968,14
4577596,11
4578224,11
4578848,11
4579480,14
4580096,14
4580724,13
4581352,11
4581976,11
4582608,13
4583224,14
4583856,14
4584488,15
4585104,15
4585736,15
4586360,18
4586992,17
4587624,15
4588240,14
4588868,12
4589492,10
4590116,11
4590748,10
4591368,15
4591996,14
4592624,14
4593248,15
4593876,14
4594504,11
4595132,11
4595764,10
4596384,11
4597016,11
4597640,11
4598268,11
4598900,12
4599520,13
4600152,13
4600776,13
4601400,16
4602028,15
4602648,13
4603276,15
4603904,16
4604528,19
4605160,17
4605784,13
4606416,11
4607044,10
4607664,10
4608296,14
4608916,14
4609540,13
4610172,14
4610792,12
4611420,11
4612044,10
4612668,11
4613296,11
4613912,11
4614544,13
4615168,13
4615792,13
4616420,15
4617044,14
4617676,15
4618304,15
4618920,17
4619552,21
4620176,24
4620804,21
4621432,18
4622056,17
4622684,14
4623312,11
4623936,11
4624564,12
4625184,14
4625812,14
4626444,13
4627064,14
4627696,11
4628320,11
4628948,11
4629580,10
4630200,13
4630828,14
4631456,14
4632080,13
4632708,11
4633328,15
4633960,14
4634580,15
4635204,17
4635836,16
4636456,16
4637084,16
4637716,20
4638336,19
4638968,14
4639592,11
4640220,12
4640852,10
4641472,13
4642100,14
4642724,13
4643348,16
4643976,12
4644600,12
4645228,13
4645852,15
4646476,13
4647108,14
4647728,18
4648356,18
4648988,12
4649608,15
4650236,15
4650860,16
4651492,15
4652120,14
4652744,19
4653376,23
4654000,21
4654624,18
4655252,17
4655872,17
4656504,13
4657128,16
4657752,15
4658384,13
4659000,14
4659632,15
4660260,14
4660880,11
4661508,11
4662132,13
4662764,11
4663392,10
4664016,12
4664644,11
4665268,11
4665892,11
4666524,14
4667144,14
4667776,13
4668400,15
4669024,15
4669656,16
4670280,15
4670908,13
4671540,14
4672160,13
4672788,12
4673412,11
4674044,11
4674672,13
4675288,13
4675920,14
4676544,15
4677168,15
4677796,10
4678416,10
4679044,10
4679668,12
4680296,13
4680924,14
4681548,13
4682180,12
4682808,12
4683432,13
4684064,16
4684688,17
4685316,15
4685948,14
4686568,16
4687196,15
4687824,15
4688448,15
4689076,12
4689696,13
4690324,11
4690956,12
4691576,15
4692204,15
4692828,14
4693460,14
4694092,10
4694712,11
4695344,12
4695968,11
4696592,13
4697224,13
4697840,15
4698472,15
4699096,13
4699720,15
4700352,14
4700968,13
4701596,14
4702228,14
4702848,14
4703480,22
4704104,26
4704732,22
4705364,14
4705984,12
4706616,11
4707240,11
4707864,14
4708496,13
4709112,15
4709744,15
4710372,15
4711000,11
4711628,11
4712248,12
4712876,11
4713508,10
4714128,12
4714756,11
4715384,12
4716012,11
4716644,14
4717264,14
4717896,15
4718520,14
4719144,15
4719776,18
4720396,21
4721024,18
4721648,15
4722272,16
4722904,13
4723528,13
4724156,11
4724788,12
4725408,14
4726040,15
4726664,16
4727292,14
4727924,12
4728544,11
4729176,13
4729800,11
4730424,11
4731056,13
4731672,14
4732304,15
4732932,14
4733552,15
4734184,18
4734808,19
4735440,19
4736072,23
4736688,23
4737316,19
4737940,17
4738568,16
4739196,15
4739816,11
4740448,11
4741072,12
4741696,15
4742324,14
4742944,13
4743576,14
4744204,11
4744824,13
4745456,11
4746080,11
4746708,12
4747340,13
4747960,13
4748592,14
4749216,12
4749840,14
4750472,16
4751088,15
4751720,15
4752344,15
4752968,16
4753596,20
4754216,19
4754848,16
4755476,16
4756096,14
4756728,12
4757352,11
4757980,15
4758612,14
4759232,15
4759864,15
4760488,15
4761112,14
4761744,14
4762360,12
4762988,13
4763612,14
4764240,14
4764868,10
4765488,11
4766116,14
4766748,14
4767368,15
4767996,16
4768624,16
4769252,13
4769884,12
4770504,17
4771136,17
4771760,16
4772384,15
4773016,16
4773632,16
4774264,15
4774888,14
4775512,15
4776144,14
4776760,14
4777392,12
4778024,10
4778644,11
4779276,11
4779900,11
4780532,12
4781164,14
4781784,17
4782416,17
4783040,15
4783664,15
4784296,13
4784916,14
4785544,14
4786172,14
4786796,14
4787428,18
4788052,21
4788684,19
4789316,15
4789936,11
4790568,12
4791192,16
4791816,14
4792448,13
4793072,15
4793704,15
4794328,13
4794952,11
4795584,11
4796200,11
4796832,11
4797464,14
4798084,12
4798716,12
4799340,12
4799972,15
4800604,14
4801224,16
4801852,15
4802476,12
4803100,15
4803732,20
4804352,21
4804980,19
4805604,15
4806228,13
4806860,12
4807480,12
4808108,13
4808740,14
4809360,15
4809988,13
4810616,12
4811244,11
4811876,10
4812496,11
4813128,13
4813748,11
4814372,11
4815004,12
4815624,13
4816252,15
4816876,14
4817500,15
4818132,16
4818756,14
4819384,12
4820016,13
4820632,17
4821260,15
4821888,14
4822516,12
4823148,10
4823768,11
4824396,15
4825024,17
4825648,16
4826276,14
4826896,14
4827524,12
4828148,13
4828776,13
4829404,11
4830032,11
4830664,11
4831292,12
4831912,13
4832544,15
4833168,14
4833800,14
4834428,14
4835048,15
4835676,15
4836304,19
4836928,17
4837556,14
4838176,13
4838808,12
4839436,10
4840056,10
4840684,11
4841308,15
4841940,14
4842568,14
4843192,15
4843824,13
4844448,11
4845072,11
4845700,11
4846320,10
4846952,11
4847576,13
4848200,12
4848828,11
4849448,15
4850076,14
4850708,14
4851328,14
4851956,15
4852584,16
4853212,16
4853844,14
4854464,14
4855092,14
4855720,13
4856344,11
4856972,10
4857592,13
4858224,15
4858848,14
4859472,15
4860104,14
4860720,11
4861352,11
4861984,10
4862604,11
4863236,12
4863860,11
4864492,12
4865124,12
4865744,15
4866372,16
4866996,14
4867620,15
4868252,14
4868872,17
4869500,21
4870128,21
4870752,21
4871380,18
4872004,14
4872636,13
4873268,11
4873888,11
4874520,14
4875144,13
4875772,14
4876404,14
4877024,14
4877652,11
4878276,11
4878904,11
4879532,12
4880152,11
4880780,13
4881404,10
4882032,13
4882660,15
4883284,14
4883916,15
4884548,16
4885168,17
4885796,15
4886420,13
4887048,15
4887676,12
4888296,12
4888928,11
4889552,12
4890176,11
4890808,11
4891424,14
4892056,15
4892684,14
4893304,13
4893936,11
4894560,12
4895192,11
4895820,11
4896440,11
4897072,12
4897696,12
4898320,11
4898952,11
4899568,16
4900200,16
4900824,13
4901448,14
4902076,15
4902696,15
4903328,16
4903960,15
4904580,13
4905208,13
4905836,11
4906464,12
4907096,17
4907716,17
4908348,14
4908972,14
4909600,14
4910228,13
4910848,10
4911480,14
4912104,13
4912732,11
4913360,10
4913984,12
4914616,13
4915248,15
4915872,12
4916500,13
4917124,14
4917752,14
4918380,16
4919000,21
4919628,25
4920252,24
4920876,20
4921508,16
4922128,17
4922756,11
4923380,11
4924004,11
4924636,13
4925260,14
4925888,14
4926520,13
4927136,12
4927764,11
4928392,11
4929020,10
4929648,11
4930264,10
4930896,13
4931520,13
4932144,12
4932772,14
4933392,15
4934020,14
4934648,15
4935268,16
4935900,14
4936524,16
4937156,18
4937784,20
4938404,19
4939032,16
4939656,12
4940284,12
4940916,14
4941536,14
4942164,14
4942788,14
4943412,14
4944044,10
4944664,11
4945292,11
4945916,11
4946544,12
4947172,13
4947800,15
4948428,13
4949060,10
4949680,15
4950312,15
4950936,16
4951560,15
4952192,16
4952808,17
4953436,19
4954064,16
4954688,13
4955320,15
4955936,14
4956568,11
4957196,11
4957816,14
4958448,13
4959072,14
4959700,14
4960332,12
4960952,12
4961580,11
4962204,11
4962828,11
4963460,13
4964080,15
4964708,11
4965332,11
4965960,13
4966588,14
4967208,15
4967836,15
4968464,16
4969088,18
4969716,18
4970340,18
4970972,16
4971600,18
4972224,15
4972852,12
4973476,11
4974100,11
4974732,12
4975352,13
4975984,13
4976608,15
4977232,12
4977860,11
4978480,12
4979108,12
4979740,10
4980360,11
4980988,13
4981612,14
4982244,15
4982876,14
4983496,15
4984128,18
4984752,19
4985376,15
4986008,14
4986624,18
4987256,19
4987880,18
4988504,14
4989136,12
4989752,12
4990384,12
4991016,13
4991636,13
4992268,14
4992892,14
4993520,14
4994148,11
4994768,12
4995396,11
4996024,11
4996648,13
4997276,14
4997896,13
4998524,11
4999148,11
4999772,13
5000404,14
5001028,15
5001656,14
5002288,13
5002904,14
5003536,17
5004160,18
5004788,16
5005420,16
5006040,12
5006672,11
5007296,11
5007920,15
5008552,16
5009168,19
5009796,19
5010424,17
5011048,15
5011676,11
5012304,13
5012936,14
5013564,16
5014184,14
5014816,11
5015440,11
5016072,15
5016700,21
5017320,20
5017952,19
5018576,17
5019200,15
5019828,13
5020448,11
5021076,11
5021708,10
5022328,12
5022960,12
5023584,11
5024216,13
5024844,14
5025464,17
5026092,15
5026716,15
5027344,11
5027972,10
5028592,11
5029224,11
5029848,13
5030472,15
5031100,11
5031720,12
5032352,11
5032980,13
5033600,15
5034228,13
5034856,15
5035488,13
5036120,14
5036736,19
5037368,20
5037996,21
5038620,19
5039252,14
5039872,12
5040504,12
5041128,15
5041752,14
5042384,14
5043000,14
5043632,13
5044260,11
5044880,12
5045508,12
5046136,12
5046764,12
5047396,14
5048016,14
5048644,12
5049268,13
5049896,15
5050524,15
5051144,16
5051776,15
5052400,15
5053024,15
5053656,15
5054280,13
5054912,15
5055544,13
5056164,12
5056792,12
5057416,13
5058048,13
5058676,14
5059296,15
5059924,15
5060552,11
5061176,10
5061808,11
5062424,10
5063056,11
5063688,12
5064304,12
5064936,11
5065560,13
5066192,15
5066824,13
5067444,14
5068076,16
5068700,16
5069328,17
5069956,18
5070576,17
5071208,18
5071832,15
5072456,11
5073088,11
5073708,10
5074340,14
5074972,12
5075592,14
5076224,13
5076848,15
5077480,14
5078112,11
5078728,11
5079360,10
5079988,11
5080612,13
5081244,12
5081864,11
5082492,14
5083120,15
5083744,19
5084376,15
5085000,15
5085628,14
5086260,14
5086880,13
5087512,11
5088136,13
5088764,12
5089396,10
5090016,11
5090648,11
5091272,14
5091896,15
5092528,14
5093144,15
5093776,14
5094408,17
5095024,20
5095656,12
5096280,16
5096912,17
5097544,15
5098164,18
5098792,15
5099420,14
5100044,17
5100676,20
5101296,20
5101928,18
5102552,15
5103180,19
5103812,16
5104432,15
5105064,14
5105696,14
5106320,11
5106952,11
5107576,13
5108208,14
5108840,14
5109460,15
5110092,14
5110716,11
5111344,11
5111976,11
5112596,11
5113228,13
5113860,12
5114480,12
5115112,12
5115740,13
5116372,13
5117004,14
5117628,16
5118260,17
5118884,16
5119512,16
5120144,16
5120764,16
5121396,13
5122016,13
5122636,11
5123268,10
5123888,12
5124516,14
5125144,14
5125760,14
5126388,14
5127012,11
5127640,11
5128272,10
5128888,11
5129516,11
5130140,12
5130764,13
5131392,12
5132016,12
5132644,15
5133268,14
5133892,14
5134520,14
5135144,16
5135772,14
5136404,14
5137024,18
5137652,17
5138276,15
5138904,13
5139536,11
5140152,11
5140784,13
5141408,14
5142032,14
5142660,14
5143280,15
5143908,11
5144532,11
5145156,11
5145788,10
5146408,11
5147036,13
5147664,12
5148288,13
5148916,12
5149540,15
5150172,14
5150800,15
5151424,15
5152052,15
5152676,17
5153300,15
5153928,16
5154552,14
5155180,12
5155808,13
5156432,12
5157060,11
5157680,15
5158308,13
5158940,14
5159560,15
5160192,13
5160816,13
5161444,13
5162072,11
5162696,12
5163324,12
5163948,13
5164572,14
5165204,14
5165824,15
5166452,14
5167076,20
5167700,25
5168332,18
5168952,19
5169580,17
5170212,18
5170832,20
5171464,17
5172084,16
5172716,14
5173344,11
5173968,11
5174596,14
5175220,14
5175844,14
5176476,14
5177096,12
5177724,11
5178348,11
5178972,11
5179604,11
5180228,11
5180860,11
5181488,13
5182108,12
5182736,15
5183360,15
5183988,14
5184620,14
5185240,13
5185868,16
5186492,17
5187116,17
5187748,16
5188368,15
5188996,13
5189620,11
5190244,11
5190876,13
5191500,13
5192132,14
5192764,14
5193384,15
5194016,11
5194640,11
5195268,11
5195900,10
5196520,12
5197152,15
5197776,15
5198400,15
5199028,14
5199648,13
5200280,14
5200908,16
5201528,16
5202156,12
5202780,19
5203412,21
5204040,16
5204664,14
5205292,13
5205916,11
5206540,11
5207172,10
5207792,15
5208420,14
5209044,14
5209668,14
5210300,12
5210920,14
5211548,13
5212180,12
5212800,12
5213428,11
5214052,11
5214684,11
5215316,10
5215936,15
5216568,15
5217192,15
5217816,16
5218444,14
5219064,11
5219696,13
5220320,18
5220944,19
5221572,13
5222192,13
5222824,11
5223456,10
5224072,16
5224700,21
5225324,17
5225956,16
5226584,16
5227208,12
5227836,11
5228464,11
5229088,11
5229716,10
5230336,12
5230968,13
5231592,17
5232216,19
5232844,14
5233464,15
5234092,15
5234724,15
5235344,23
5235972,27
5236600,23
5237228,17
5237860,14
5238480,13
5239108,11
5239736,11
5240360,12
5240988,12
5241608,14
5242236,14
5242864,15
5243488,12
5244116,11
5244740,11
5245372,11
5246000,11
5246616,11
5247248,14
5247872,13
5248500,13
5249128,14
5249748,13
5250380,15
5251004,17
5251624,18
5252252,20
5252872,19
5253500,17
5254124,15
5254744,12
5255376,12
5255992,11
5256620,11
5257252,10
5257872,14
5258500,14
5259124,14
5259752,14
5260384,11
5261000,11
5261628,11
5262252,10
5262876,11
5263504,12
5264128,13
5264756,14
5265380,12
5266004,14
5266632,13
5267248,15
5267876,15
5268504,14
5269128,16
5269756,19
5270380,16
5271012,16
5271644,14
5272264,12
5272892,11
5273516,11
5274144,13
5274772,14
5275392,13
5276020,15
5276644,13
5277268,11
5277896,11
5278520,11
5279148,11
5279780,12
5280400,14
5281028,12
5281652,13
5282280,12
5282908,13
5283528,15
5284156,15
5284780,17
5285404,21
5286032,23
5286648,24
5287276,22
5287900,17
5288524,11
5289152,11
5289768,13
5290396,14
5291028,14
5291648,14
5292276,14
5292900,14
5293528,11
5294160,10
5294776,12
5295404,11
5296028,12
5296652,11
5297280,11
5297896,11
5298528,13
5299152,14
5299776,14
5300404,14
5301024,15
5301652,14
5302284,12
5302904,17
5303532,16
5304160,13
5304788,16
5305420,14
5306040,12
5306668,11
5307292,13
5307916,15
5308548,14
5309168,15
5309796,15
5310420,11
5311048,11
5311676,10
5312296,10
5312928,11
5313556,10
5314176,15
5314804,14
5315428,13
5316060,13
5316688,13
5317312,15
5317940,15
5318568,13
5319188,13
5319820,14
5320440,17
5321068,21
5321692,23
5322316,18
5322948,12
5323568,13
5324200,14
5324828,13
5325444,14
5326072,14
5326696,13
5327328,12
5327956,10
5328576,11
5329204,12
5329828,15
5330452,15
5331080,13
5331700,13
5332328,15
5332952,15
5333576,15
5334204,14
5334824,17
5335452,19
5336084,20
5336704,22
5337332,21
5337956,17
5338584,12
5339216,12
5339832,12
5340464,13
5341084,13
5341708,14
5342340,14
5342960,15
5343588,12
5344216,13
5344836,11
5345468,10
5346088,10
5346716,11
5347344,14
5347968,16
5348596,14
5349220,14
5349852,15
5350480,18
5351104,17
5351732,17
5352356,16
5352980,17
5353608,18
5354232,17
5354860,13
5355484,11
5356112,10
5356740,10
5357360,15
5357988,14
5358620,13
5359240,15
5359868,15
5360496,13
5361124,11
5361756,12
5362376,11
5363004,11
5363632,12
5364256,12
5364884,14
5365504,14
5366132,14
5366756,14
5367380,15
5368012,16
5368632,17
5369260,15
5369892,16
5370512,19
5371140,17
5371768,15
5372396,13
5373028,11
5373648,11
5374276,14
5374904,14
5375528,14
5376160,13
5376776,12
5377404,11
5378028,10
5378648,10
5379276,10
5379896,11
5380524,15
5381152,13
5381776,13
5382404,15
5383028,17
5383656,18
5384288,16
5384904,14
5385536,15
5386160,19
5386784,20
5387412,16
5388032,13
5388660,12
5389284,11
5389908,10
5390540,12
5391160,15
5391792,13
5392420,14
5393040,16
5393668,11
5394292,11
5394924,10
5395552,10
5396176,12
5396804,16
5397428,14
5398052,13
5398684,10
5399304,16
5399932,16
5400560,17
5401184,17
5401816,15
5402436,15
5403068,19
5403696,20
5404320,19
5404948,15
5405572,11
5406204,11
5406836,10
5407456,14
5408084,13
5408708,14
5409332,14
5409960,13
5410576,12
5411204,11
5411828,13
5412452,11
5413084,12
5413708,16
5414336,13
5414968,11
5415584,15
5416212,14
5416836,14
5417468,15
5418096,16
5418720,17
5419348,19
5419976,25
5420600,23
5421228,19
5421848,15
5422476,12
5423100,10
5423728,11
5424360,14
5424984,16
5425612,15
5426244,14
5426864,11
5427496,11
5428120,11
5428740,11
5429372,10
5429992,12
5430620,11
5431244,11
5431868,14
5432500,14
5433120,13
5433748,15
5434380,14
5435000,15
5435628,16
5436252,17
5436884,15
5437516,12
5438136,13
5438768,12
5439392,11
5440016,12
5440644,12
5441264,14
5441892,14
5442516,14
5443140,15
5443768,12
5444388,10
5445016,11
5445644,10
5446264,11
5446892,12
5447516,11
5448148,12
5448776,12
5449392,13
5450024,15
5450648,17
5451272,17
5451900,16
5452520,15
5453148,14
5453772,15
5454396,14
5455028,14
5455648,11
5456276,11
5456908,10
5457528,14
5458156,14
5458780,13
5459412,13
5460040,11
5460656,10
5461288,12
5461912,11
5462536,12
5463164,12
5463784,13
5464412,11
5465036,11
5465664,15
5466292,14
5466912,15
5467540,15
5468172,19
5468792,17
5469424,17
5470048,20
5470676,17
5471308,14
5471928,12
5472560,11
5473184,11
5473808,13
5474436,13
5475056,13
5475688,14
5476312,15
5476936,13
5477568,10
5478184,12
5478816,12
5479444,12
5480064,11
5480692,11
5481316,12
5481948,12
5482576,14
5483196,16
5483824,16
5484448,17
5485072,18
5485704,15
5486324,17
5486952,17
5487580,14
5488204,15
5488832,12
5489456,11
5490084,11
5490716,14
5491336,13
5491964,14
5492588,14
5493220,13
5493848,10
5494472,11
5495100,12
5495724,12
5496352,11
5496980,15
5497600,16
5498228,16
5498856,15
5499480,15
5500108,16
5500728,17
5501360,15
5501988,14
5502608,16
5503240,15
5503864,13
5504496,12
5505124,10
5505744,14
5506372,12
5507000,12
5507624,13
5508252,14
5508872,15
5509504,15
5510128,11
5510752,12
5511380,11
5512004,10
5512636,12
5513268,10
5513888,11
5514520,11
5515144,11
5515776,15
5516404,14
5517024,14
5517656,15
5518280,15
5518904,17
5519536,16
5520152,18
5520784,20
5521412,16
5522032,13
5522660,12
5523288,11
5523916,13
5524548,12
5525168,15
5525796,15
5526424,15
5527048,11
5527676,12
5528296,10
5528928,11
5529552,13
5530176,13
5530808,11
5531424,12
5532052,13
5532684,12
5533304,15
5533932,15
5534560,16
5535188,17
5535820,18
5536440,18
5537068,14
5537692,15
5538316,16
5538948,13
5539568,14
5540196,12
5540820,13
5541444,13
5542076,14
5542696,15
5543324,13
5543956,11
5544576,12
5545208,11
5545832,12
5546460,13
5547092,14
5547712,13
5548344,13
5548968,15
5549592,15
5550224,15
5550840,16
5551472,17
5552096,15
5552720,17
5553348,19
5553968,17
5554600,14
5555228,12
5555848,11
5556476,11
5557104,13
5557732,14
5558364,14
5558984,14
5559616,15
5560240,11
5560864,11
5561492,11
5562112,12
5562744,13
5563368,11
5563992,15
5564624,15
5565244,14
5565872,14
5566504,15
5567124,20
5567756,20
5568384,21
5569012,19
5569644,18
5570264,19
5570896,18
5571520,12
5572144,11
5572772,10
5573392,11
5574020,13
5574648,13
5575272,14
5575900,14
5576524,12
5577156,11
5577788,10
5578408,12
5579036,11
5579664,13
5580292,15
5580924,15
5581544,13
5582172,15
5582796,15
5583420,16
5584052,14
5584672,15
5585300,14
5585932,14
5586552,16
5587184,17
5587808,19
5588440,15
5589068,10
5589688,11
5590320,12
5590944,14
5591568,14
5592200,14
5592816,15
5593448,12
5594072,13
5594696,12
5595328,11
5595944,13
5596576,15
5597204,15
5597824,14
5598456,11
5599080,16
5599712,17
5600344,18
5600960,18
5601588,16
5602212,19
5602836,19
5603468,16
5604088,14
5604716,14
5605340,13
5605968,11
5606596,10
5607216,15
5607844,15
5608476,14
5609096,15
5609724,14
5610348,11
5610980,11
5611612,10
5612232,12
5612860,12
5613484,12
5614108,11
5614740,12
5615360,14
5615988,14
5616616,16
5617240,16
5617868,14
5618488,14
5619116,15
5619748,15
5620368,21
5620996,19
5621624,18
5622252,14
5622884,14
5623504,14
5624136,13
5624760,14
5625384,15
5626016,14
5626632,11
5627264,11
5627888,11
5628512,11
5629144,11
5629768,11
5630400,13
5631028,12
5631648,12
5632280,14
5632904,15
5633532,14
5634160,14
5634784,15
5635412,14
5636036,15
5636660,15
5637288,10
5637912,12
5638540,15
5639164,12
5639792,14
5640420,14
5641044,14
5641676,14
5642304,13
5642920,13
5643552,11
5644176,11
5644804,11
5645432,12
5646056,13
5646684,14
5647308,14
5647936,15
5648564,15
5649184,14
5649812,15
5650444,16
5651064,20
5651696,24
5652320,25
5652948,23
5653580,20
5654200,17
5654828,15
5655452,13
5656076,13
5656708,12
5657328,15
5657960,13
5658580,13
5659204,15
5659836,12
5660456,11
5661084,11
5661716,10
5662336,11
5662968,11
5663592,14
5664220,13
5664852,11
5665472,15
5666100,14
5666724,14
5667348,16
5667980,14
5668600,16
5669228,15
5669852,15
5670480,15
5671108,13
5671728,12
5672360,11
5672988,10
5673608,13
5674236,14
5674860,15
5675492,14
5676124,14
5676744,11
5677376,11
5678000,11
5678624,12
5679256,10
5679872,11
5680504,12
5681128,12
5681752,13
5682384,13
5683000,14
5683632,17
5684260,18
5684880,17
5685508,15
5686132,14
5686764,15
5687396,13
5688016,12
5688644,13
5689268,11
5689892,12
5690524,14
5691144,14
5691776,14
5692400,15
5693024,13
5693656,13
5694280,11
5694908,10
5695540,10
5696160,12
5696788,15
5697412,14
5698044,13
5698672,14
5699292,14
5699920,15
5700544,17
5701168,18
5701796,14
5702416,17
5703044,16
5703668,15
5704296,14
5704924,13
5705552,11
5706184,11
5706812,12
5707432,13
5708064,13
5708688,14
5709320,15
5709948,11
5710568,13
5711200,11
5711824,11
5712448,11
5713080,10
5713696,12
5714328,15
5714956,14
5715576,15
5716208,15
5716832,16
5717460,17
5718092,17
5718712,17
5719344,20
5719968,19
5720592,15
5721224,14
5721844,14
5722476,12
5723100,10
5723724,15
5724356,15
5724976,14
5725608,13
5726236,12
5726856,11
5727488,11
5728116,11
5728744,13
5729376,10
5729996,13
5730628,13
5731252,11
5731876,14
5732508,14
5733128,13
5733760,15
5734384,15
5735012,14
5735644,17
5736268,20
5736896,21
5737524,18
5738144,19
5738772,15
5739400,11
5740028,12
5740660,15
5741280,15
5741908,15
5742532,15
5743156,11
5743788,14
5744408,15
5745036,12
5745660,10
5746288,11
5746916,11
5747544,12
5748172,11
5748800,15
5749424,14
5750052,14
5750680,16
5751304,17
5751936,15
5752552,15
5753184,17
5753808,19
5754432,15
5755064,11
5755680,10
5756312,11
5756944,13
5757560,15
5758192,15
5758816,17
5759448,19
5760076,17
5760692,15
5761324,12
5761944,10
5762568,11
5763196,10
5763816,12
5764444,11
5765068,14
5765692,16
5766324,22
5766944,16
5767572,16
5768204,16
5768824,17
5769452,15
5770076,13
5770708,11
5771336,11
5771956,10
5772584,11
5773212,10
5773832,13
5774464,13
5775084,14
5775712,14
5776336,14
5776960,10
5777588,13
5778208,18
5778836,15
5779468,10
5780088,12
5780716,15
5781340,13
5781972,14
5782600,16
5783224,15
5783852,15
5784480,15
5785100,16
5785732,18
5786352,23
5786980,21
5787604,18
5788228,15
5788856,11
5789480,12
5790108,12
5790740,12
5791360,15
5791988,15
5792616,15
5793244,11
5793876,10
5794496,12
5795124,11
5795752,11
5796376,15
5797004,16
5797624,17
5798252,13
5798880,13
5799500,14
5800132,14
5800752,16
5801380,13
5802012,14
5802632,20
5803264,20
5803888,12
5804516,10
5805148,10
5805768,11
5806396,11
5807024,16
5807648,15
5808280,14
5808896,13
5809524,13
5810152,10
5810776,14
5811408,13
5812024,11
5812652,10
5813284,12
5813904,11
5814536,11
5815160,13
5815792,15
5816424,15
5817040,15
5817668,16
5818292,17
5818916,16
5819548,14
5820168,15
5820796,15
5821424,15
5822048,13
5822680,11
5823304,11
5823936,14
5824568,14
5825184,15
5825816,15
5826440,12
5827068,12
5827700,10
5828320,11
5828948,11
5829576,13
5830200,15
5830832,16
5831448,13
5832080,15
5832704,12
5833328,15
5833960,20
5834584,21
5835216,14
5835844,14
5836464,15
5837096,16
5837720,16
5838344,17
5838972,12
5839592,11
5840224,13
5840844,14
5841468,14
5842100,14
5842720,15
5843348,12
5843980,10
5844600,13
5845228,13
5845852,12
5846484,13
5847116,13
5847736,14
5848364,13
5848992,14
5849616,15
5850244,15
5850864,16
5851496,19
5852120,20
5852744,19
5853376,15
5853992,17
5854624,20
5855256,15
5855872,13
5856504,15
5857128,14
5857760,15
5858388,14
5859008,14
5859640,13
5860264,13
5860888,13
5861516,12
5862136,13
5862768,14
5863392,17
5864016,15
5864644,11
5865264,15
5865896,14
5866524,14
5867144,18
5867776,23
5868400,27
5869028,25
5869660,20
5870280,18
5870912,17
5871536,17
5872160,12
5872792,10
5873408,11
5874040,14
5874664,15
5875288,16
5875916,14
5876536,11
5877168,11
5877800,11
5878416,10
5879048,11
5879672,12
5880304,12
5880936,14
5881556,14
5882188,14
5882812,14
5883436,15
5884068,15
5884688,17
5885320,18
5885944,17
5886568,16
5887200,15
5887824,16
5888456,14
5889084,11
5889704,11
5890332,13
5890956,13
5891588,14
5892220,14
5892840,14
5893468,10
5894096,11
5894720,12
5895348,16
5895968,18
5896600,19
5897228,13
5897848,13
5898480,14
5899100,13
5899732,17
5900364,18
5900984,15
5901612,13
5902236,28
5902860,17
5903492,12
5904112,15
5904740,18
5905364,16
5905988,17
5906620,20
5907240,21
5907868,14
5908500,14
5909120,15
5909748,12
5910376,13
5911004,12
5911636,11
5912256,12
5912888,13
5913512,15
5914136,13
5914768,12
5915388,14
5916016,14
5916640,17
5917268,19
5917896,15
5918520,15
5919152,16
5919784,15
5920400,15
5921032,13
5921656,13
5922284,11
5922916,10
5923536,15
5924164,13
5924788,13
5925416,14
5926044,15
5926664,14
5927292,12
5927916,11
5928544,11
5929172,12
5929796,13
5930428,11
5931060,10
5931680,13
5932308,14
5932936,15
5933564,13
5934196,16
5934816,21
5935448,21
5936072,21
5936696,23
5937324,18
5937944,14
5938576,11
5939204,11
5939824,10
5940452,13
5941076,13
5941704,14
5942336,15
5942956,13
5943584,14
5944208,12
5944836,11
5945468,11
5946088,12
5946716,12
5947344,11
5947968,11
5948596,14
5949216,17
5949848,17
5950476,15
5951096,15
5951728,13
5952352,13
5952980,13
5953612,11
5954232,13
5954864,12
5955488,12
5956112,13
5956740,17
5957360,14
5957988,14
5958616,14
5959240,15
5959872,11
5960488,11
5961116,11
5961748,12
5962368,11
5962996,11
5963624,17
5964252,19
5964884,16
5965504,15
5966132,14
5966756,15
5967380,17
5968012,20
5968632,24
5969260,27
5969888,23
5970512,19
5971144,17
5971760,12
5972392,11
5973024,10
5973640,13
5974272,13
5974896,14
5975528,14
5976156,12
5976776,10
5977408,12
5978032,11
5978656,11
5979288,12
5979904,21
5980536,19
5981160,15
5981784,15
5982412,20
5983032,17
5983664,19
5984296,18
5984912,17
5985544,17
5986168,16
5986796,14
5987428,16
5988048,14
5988676,11
5989304,11
5989928,11
5990560,13
5991176,15
5991808,13
5992432,15
5993056,12
5993684,11
5994308,11
5994940,12
5995572,11
5996192,11
5996824,11
5997448,11
5998076,11
5998708,15
5999328,15
5999960,15
6000588,15
6001212,15
6001844,16
6002464,19
6003092,16
6003724,13
6004344,14
6004972,15
6005600,12
6006228,11
6006860,14
6007480,14
6008112,14
6008736,15
6009360,14
6009992,11
6010608,10
6011240,11
6011864,11
6012488,13
6013120,14
6013736,13
6014368,14
6015000,14
6015620,14
6016252,15
6016876,15
6017504,14
6018136,12
6018756,13
6019384,12
6020008,11
6020632,13
6021264,16
6021884,11
6022512,11
6023136,13
6023764,15
6024392,14
6025016,15
6025648,19
6026276,12
6026896,13
6027524,12
6028152,11
6028780,11
6029412,11
6030032,16
6030664,15
6031288,11
6031912,14
6032544,14
6033164,14
6033792,14
6034420,12
6035044,13
6035676,17
6036300,17
6036932,15
6037564,16
6038184,16
6038816,18
6039440,16
6040072,17
6040704,16
6041324,13
6041956,14
6042580,14
6043204,14
6043832,13
6044452,12
6045080,11
6045712,12
6046332,14
6046964,13
6047588,12
6048220,11
6048848,14
6049472,17
6050104,17
6050728,17
6051352,18
6051984,20
6052604,20
6053232,21
6053856,20
6054480,16
6055108,11
6055728,12
6056360,12
6056988,13
6057608,14
6058236,16
6058864,16
6059496,16
6060128,15
6060748,13
6061380,11
6062004,12
6062632,13
6063260,14
6063880,12
6064512,11
6065136,17
6065760,19
6066392,17
6067016,18
6067648,17
6068276,16
6068896,18
6069524,17
6070152,13
6070784,12
6071416,12
6072032,12
6072664,11
6073288,14
6073912,14
6074544,14
6075164,14
6075792,15
6076424,10
6077048,10
6077680,10
6078304,11
6078936,11
6079568,15
6080188,13
6080816,11
6081440,11
6082064,15
6082692,16
6083312,17
6083940,17
6084564,14
6085192,13
6085820,13
6086440,15
6087068,16
6087700,14
6088320,13
6088948,12
6089576,11
6090208,14
6090836,14
6091456,15
6092088,18
6092712,16
6093336,15
6093968,15
6094588,11
6095216,11
6095844,12
6096468,13
6097096,12
6097720,11
6098352,15
6098980,15
6099600,21
6100228,22
6100856,19
6101484,16
6102116,16
6102736,15
6103368,15
6103992,14
6104616,13
6105248,11
6105868,11
6106496,16
6107124,15
6107748,14
6108380,15
6109004,14
6109636,12
6110264,11
6110888,11
6111520,11
6112144,11
6112776,12
6113408,13
6114024,12
6114656,12
6115280,15
6115904,14
6116536,14
6117156,13
6117788,12
6118416,13
6119040,17
6119672,17
6120296,15
6120928,15
6121560,15
6122176,14
6122808,12
6123436,15
6124060,13
6124692,14
6125312,15
6125944,14
6126572,11
6127196,11
6127828,13
6128456,12
6129088,12
6129716,15
6130336,14
6130968,14
6131596,14
6132228,13
6132860,14
6133480,15
6134112,16
6134740,15
6135364,17
6135996,19
6136620,19
6137252,17
6137884,14
6138504,10
6139136,10
6139764,11
6140396,15
6141028,14
6141652,13
6142284,14
6142908,11
6143536,12
6144168,11
6144784,10
6145412,11
6146036,11
6146660,11
6147288,12
6147912,12
6148540,14
6149172,14
6149792,17
6150420,18
6151044,21
6151676,23
6152304,17
6152928,18
6153556,15
6154184,12
6154808,11
6155436,10
6156056,11
6156684,13
6157312,14
6157936,13
6158564,15
6159188,14
6159820,11
6160452,10
6161072,11
6161700,10
6162324,11
6162952,12
6163580,11
6164200,13
6164828,14
6165452,14
6166076,13
6166708,13
6167328,14
6167956,16
6168588,18
6169208,16
6169836,13
6170460,13
6171092,13
6171724,12
6172344,11
6172972,13
6173596,15
6174224,14
6174852,14
6175472,15
6176104,12
6176724,12
6177352,12
6177980,16
6178600,13
6179228,10
6179860,12
6180480,15
6181108,15
6181736,14
6182368,15
6182996,15
6183616,15
6184248,15
6184872,14
6185496,13
6186128,14
6186744,15
6187376,11
6188000,12
6188624,12
6189256,10
6189872,14
6190504,13
6191132,14
6191752,13
6192384,14
6193008,11
6193640,11
6194272,10
6194888,11
6195520,13
6196144,12
6196768,11
6197400,13
6198016,13
6198648,15
6199272,14
6199896,15
6200528,15
6201144,17
6201776,19
6202404,16
6203024,15
6203656,12
6204280,12
6204912,11
6205540,10
6206160,11
6206792,13
6207416,15
6208040,15
6208668,15
6209288,13
6209916,11
6210544,11
6211168,11
6211800,11
6212424,14
6213056,15
6213684,15
6214304,11
6214936,14
6215560,15
6216192,15
6216820,15
6217440,19
6218072,21
6218696,21
6219320,22
6219952,16
6220572,13
6221204,12
6221832,10
6222456,11
6223088,11
6223712,13
6224344,14
6224972,14
6225592,14
6226224,11
6226848,11
6227472,11
6228100,11
6228720,11
6229348,11
6229976,12
6230600,13
6231232,11
6231848,14
6232480,15
6233108,15
6233728,14
6234360,15
6234984,16
6235616,20
6236244,18
6236864,17
6237492,14
6238120,12
6238744,12
6239376,10
6239992,14
6240628,15
6241252,14
6241876,15
6242508,14
6243128,11
6243760,11
6244388,10
6245008,11
6245640,12
6246264,14
6246896,11
6247524,10
6248144,14
6248772,14
6249396,15
6250020,14
6250652,14
6251272,15
6251904,17
6252528,18
6253152,18
6253780,16
6254408,13
6255036,11
6255668,10
6256288,12
6256916,13
6257544,13
6258172,13
6258804,14
6259424,11
6260052,11
6260680,12
6261304,11
6261932,10
6262552,11
