tempo_arduino_micro_s,valor_ADC
500,29
1004,26
1504,18
2000,13
2508,15
3000,18
3508,17
4000,14
4508,12
5000,10
5500,16
6000,18
6500,10
7004,21
7500,31
8000,34
8500,31
9000,14
9500,22
10000,27
10516,38
11036,39
11564,24
12084,15
12612,11
13132,12
13660,20
14180,20
14708,16
15228,10
15756,12
16276,33
16796,45
17316,31
17836,22
18356,26
18876,25
19396,24
19916,26
20436,39
20956,26
21476,12
21996,12
22516,12
23036,18
23564,23
24084,13
24612,10
25132,10
25660,9
26120,12
26652,20
27172,21
27700,23
28220,15
28748,15
29268,15
29796,12
30316,10
30844,11
31364,13
31892,15
32412,13
32940,11
33460,13
33988,23
34508,25
35036,26
35556,21
36084,21
36604,16
37132,14
37652,18
38180,21
38700,14
39228,15
39748,17
40276,10
40796,25
41324,37
41844,39
42372,33
42892,22
43420,13
43940,13
44460,13
44980,14
45500,19
46020,23
46540,17
47060,17
47580,14
48100,16
48620,18
49140,18
49660,17
50188,13
50708,11
51236,12
51756,13
52284,15
52804,16
53332,14
53852,14
54380,13
54900,12
55428,10
55948,14
56476,20
56996,11
57524,16
58044,20
58572,16
59092,12
59620,10
60140,12
60668,13
61188,15
61716,14
62236,14
62764,11
63284,17
63812,16
64336,14
64860,11
65380,14
65908,16
66428,13
66956,10
67476,12
67996,13
68516,13
69036,14
69556,13
70076,16
70600,16
71116,11
71640,30
72160,44
72676,41
73196,37
73720,23
74236,14
74764,44
75284,75
75812,69
76336,37
76860,21
77380,13
77908,21
78432,27
78956,53
79480,70
80004,66
80524,26
81052,29
81572,51
82100,60
82620,59
83148,36
83668,25
84196,16
84716,12
85244,14
85764,15
86292,14
86812,16
87340,19
87860,16
88388,14
88908,18
89436,16
89960,10
90484,12
91004,12
91532,14
92052,14
92572,17
93092,32
93612,36
94132,28
94652,21
95172,14
95696,26
96216,44
96732,57
97252,39
97776,14
98292,14
98812,19
99340,28
99860,33
100388,23
100952,11
101536,27
102108,30
102688,34
103256,29
103832,15
104400,12
104976,16
105552,16
106120,13
106696,11
107264,11
107848,17
108416,12
108992,19
109560,25
110128,22
110712,16
111280,17
111864,17
112436,14
113016,9
113532,11
114112,15
114680,18
115256,24
115840,18
116408,15
116984,21
117552,13
118136,16
118704,18
119284,15
119864,14
120432,16
121016,14
121584,11
122168,10
122736,12
123320,10
123888,11
124464,32
125048,66
125616,62
126200,28
126768,26
127352,51
127924,49
128500,51
129080,35
129648,18
130224,45
130792,34
131368,11
131936,33
132512,32
133080,21
133656,14
134240,11
134808,14
135392,22
135960,37
136544,36
137112,27
137688,14
138272,17
138840,12
139424,11
139992,11
140576,9
141096,10
141672,11
142240,11
142816,11
143400,14
143968,16
144552,13
145120,14
145704,17
146272,15
146856,12
147424,11
148000,11
148584,16
149152,22
149736,14
150308,11
150888,13
151460,19
152036,13
152616,22
153188,21
153768,22
154336,19
154912,16
155480,15
156064,24
156632,22
157212,27
157792,25
158364,11
158944,10
159516,11
160096,13
160664,13
161232,13
161808,14
162376,13
162960,14
163528,11
164112,10
164680,15
165256,13
165824,9
166340,11
166920,16
167488,12
168064,16
168632,20
169208,13
169776,19
170352,23
170920,15
171496,14
172080,19
172648,27
173232,22
173800,16
174384,21
174952,19
175536,15
176104,19
176680,23
177256,19
177824,14
178408,13
178976,14
179560,11
180128,17
180696,30
181280,18
181848,48
182432,58
183000,26
183584,20
184156,26
184736,14
185304,24
185880,28
186464,18
187032,15
187616,13
188184,14
188768,11
189340,14
189916,23
190496,25
191068,21
191648,13
192220,14
192800,19
193368,17
193944,18
194512,28
195092,28
195672,20
196240,15
196824,13
197392,13
197976,12
198548,11
199120,12
199704,11
200272,13
200856,22
201424,26
202008,19
202576,15
203160,15
203732,19
204308,25
204888,14
205456,16
206032,30
206600,17
207184,10
207752,16
208336,32
208912,30
209480,23
210056,15
210624,14
211208,15
211776,13
212352,12
212920,12
213496,11
214080,11
214648,12
215232,11
215800,13
216384,13
216952,11
217536,12
218108,17
218680,14
219264,15
219832,15
220416,19
220984,13
221568,35
222140,35
222716,24
223296,13
223868,15
224448,11
225016,10
225600,9
226116,14
226696,23
227264,28
227840,29
228424,27
228992,15
229576,15
230148,24
230728,20
231296,11
231880,37
232456,63
233024,65
233608,44
234176,31
234760,23
235332,18
235912,17
236484,33
237056,34
237640,15
238208,15
238792,35
239364,37
239944,21
240516,13
241096,11
241672,15
242240,14
242824,11
243396,12
243976,13
244548,15
245128,24
245696,16
246276,15
246856,13
247424,11
248008,11
248576,12
249160,11
249732,11
250312,11
250888,11
251456,15
252040,19
252608,16
253192,15
253764,19
254344,22
254916,11
255492,10
256072,11
256644,12
257224,13
257792,15
258368,29
258936,21
259520,15
260088,21
260656,13
261232,21
261800,21
262384,13
262956,11
263536,12
264104,11
264680,10
265264,12
265836,13
266416,14
266984,11
267560,15
268128,16
268712,14
269284,13
269856,21
270432,26
271000,24
271584,20
272156,22
272736,12
273304,42
273880,33
274464,13
275032,36
275616,15
276188,18
276768,45
277336,59
277920,52
278492,24
279064,18
279648,23
280220,37
280800,40
281368,49
281952,44
282520,24
283096,14
283680,35
284248,45
284832,47
285400,46
285984,32
286556,22
287136,15
287716,17
288292,17
288872,13
289440,17
290024,13
290592,11
291176,10
291748,12
292324,10
292904,16
293472,14
294056,14
294628,14
295208,13
295776,11
296360,13
296928,20
297508,22
298088,18
298656,14
299240,11
299812,11
300392,16
300964,18
301536,14
302120,14
302692,21
303272,22
303844,15
304424,11
305004,10
305584,10
306156,10
306732,10
307312,17
307884,24
308464,26
309036,26
309616,14
310188,29
310764,36
311344,34
311916,27
312496,12
313068,14
313648,15
314216,15
314800,11
315380,14
315956,17
316536,14
317108,11
317688,11
318268,12
318848,15
319420,21
319996,17
320580,14
321148,13
321728,11
322296,30
322880,38
323448,29
324032,25
324600,22
325176,11
325760,11
326328,14
326912,16
327484,32
328064,29
328632,22
329200,15
329784,16
330352,18
330928,21
331496,24
332080,48
332648,53
333232,29
333800,15
334376,37
334960,76
335528,63
336112,26
336680,16
337264,15
337832,26
338412,14
338992,14
339560,18
340144,12
340712,12
341296,10
341864,24
342448,49
343016,33
343596,14
344176,21
344744,15
345328,16
345900,15
346480,11
347048,23
347624,31
348208,25
348776,19
349360,22
349932,11
350512,20
351084,28
351664,27
352236,28
352808,20
353392,15
353960,16
354544,18
355116,13
355696,16
356276,18
356852,18
357432,17
358004,14
358584,13
359152,11
359736,16
360304,22
360888,21
361456,25
362032,14
362616,10
363184,12
363768,11
364340,15
364920,11
365488,15
366064,19
366648,15
367220,12
367800,12
368372,14
368952,32
369520,35
370104,25
370672,21
371252,27
371832,30
372404,15
372984,11
373552,14
374136,14
374708,11
375284,10
375864,11
376436,14
377016,19
377588,34
378168,35
378748,23
379328,11
379912,26
380484,35
381064,19
381636,12
382216,26
382788,17
383368,12
383940,11
384516,21
385096,34
385668,32
386248,24
386816,14
387400,13
387968,24
388552,37
389128,31
389696,14
390280,19
390852,22
391432,15
392004,31
392584,34
393156,16
393732,12
394312,14
394884,14
395464,16
396036,17
396616,12
397188,13
397768,15
398344,17
398916,11
399496,12
400068,19
400648,19
401216,18
401800,15
402372,14
402948,15
403528,15
404100,11
404680,11
405248,11
405832,11
406404,14
406984,13
407560,12
408132,15
408712,19
409284,14
409864,13
410432,13
411008,13
411576,14
412152,13
412736,11
413304,12
413888,19
414456,22
415040,20
415608,16
416192,16
416760,12
417328,18
417912,17
418480,22
419064,31
419636,24
420216,21
420784,24
421360,27
421944,22
422512,15
423096,11
423664,13
424248,12
424816,13
425400,11
425968,11
426544,15
427128,14
427700,13
428280,13
428848,12
429432,13
430004,11
430580,11
431160,19
431732,22
432312,23
432884,26
433464,12
434036,27
434616,49
435188,49
435764,21
436344,27
436912,25
437496,13
438068,11
438648,15
439216,12
439792,14
440376,11
440944,13
441528,12
442100,10
442680,15
443248,15
443832,13
444404,14
444980,24
445560,32
446132,29
446712,13
447284,11
447864,16
448436,21
449008,15
449592,13
450164,14
450744,15
451312,15
451896,14
452464,22
453048,21
453620,15
454192,18
454776,16
455348,14
455928,17
456500,11
457080,28
457652,30
458228,25
458808,25
459380,24
459960,20
460532,14
461112,15
461680,15
462264,15
462836,16
463412,20
463992,19
464564,20
465144,12
465716,25
466296,20
466868,16
467444,18
468024,22
468592,14
469176,20
469748,16
470328,15
470908,12
471488,10
472060,18
472636,29
473216,28
473788,23
474368,12
474940,26
475520,42
476092,43
476668,27
477248,18
477820,22
478400,15
478972,14
479552,12
480132,20
480712,30
481288,19
481856,17
482440,33
483008,27
483592,18
484164,12
484744,27
485316,45
485892,59
486472,34
487044,15
487624,11
488196,12
488776,13
489348,11
489928,11
490504,10
491076,13
491656,15
492228,11
492808,18
493376,16
493952,13
494524,13
495096,14
495680,11
496252,10
496832,11
497400,11
497984,15
498556,19
499136,23
499720,12
500292,10
500872,11
501444,16
502024,17
502596,26
503176,22
503748,14
504324,12
504904,14
505476,12
506056,10
506628,15
507208,29
507780,15
508360,26
508944,19
509516,15
510096,14
510668,18
511248,21
511828,19
512412,14
512984,11
513552,15
514128,18
514696,15
515280,11
515848,12
516424,10
516992,11
517576,13
518152,20
518724,22
519304,16
519876,14
520456,16
521024,11
521608,15
522176,11
522756,11
523336,11
523904,11
524488,11
525056,11
525640,10
526208,16
526792,24
527368,24
527936,14
528520,24
529088,31
529672,26
530244,11
530824,28
531396,31
531972,28
532552,19
533120,12
533704,14
534276,35
534856,62
535428,49
536008,29
536584,18
537156,12
537736,11
538304,11
538888,12
539456,11
540040,9
540560,10
541136,10
541712,10
542284,11
542864,14
543436,15
544016,13
544584,13
545160,13
545732,13
546308,19
546888,15
547456,19
548040,28
548608,28
549192,25
549764,12
550344,21
550920,25
551492,42
552072,16
552644,15
553224,13
553796,17
554376,11
554948,27
555524,55
556104,40
556676,15
557256,11
557828,17
558408,18
558988,12
559568,13
560152,14
560724,14
561304,14
561876,14
562456,15
563036,13
563616,11
564192,10
564772,11
565352,14
565924,17
566504,12
567076,12
567656,17
568228,14
568804,14
569384,23
569956,14
570536,16
571108,13
571688,13
572268,11
572848,12
573420,11
573996,10
574576,10
575148,22
575728,28
576300,22
576880,15
577448,20
578024,14
578608,14
579176,12
579760,12
580332,12
580912,17
581484,27
582064,21
582636,11
583212,11
583792,12
584364,13
584944,13
585516,14
586096,18
586676,15
587252,15
587832,10
588404,10
588984,11
589552,11
590136,13
590708,10
591288,11
591868,9
592392,12
592976,15
593548,14
594128,15
594708,17
595288,13
595856,11
596436,14
597016,19
597588,12
598168,11
598740,15
599320,17
599892,22
600472,23
601052,21
601628,17
602208,14
602780,17
603360,19
603940,15
604520,13
605100,16
605676,13
606256,11
606828,14
607408,14
607980,10
608564,11
609140,10
609720,15
610300,13
610876,15
611456,24
612032,15
612608,11
613188,13
613768,19
614348,14
614924,19
615504,23
616076,14
616656,17
617224,22
617808,25
618380,34
618960,35
619544,22
620116,14
620696,11
621268,11
621848,9
622368,10
622944,11
623524,11
624100,12
624680,15
625248,16
625832,14
626404,14
626984,16
627556,15
628136,13
628708,15
629284,18
629864,15
630436,12
631016,11
631588,11
632168,15
632748,14
633324,13
633904,13
634480,13
635056,15
635628,13
636208,16
636788,18
637372,17
637948,20
638528,11
639104,11
639680,14
640260,10
640832,11
641416,16
641984,22
642560,39
643144,31
643716,16
644296,16
644868,19
645448,27
646016,32
646600,33
647176,14
647748,11
648328,13
648896,11
649480,25
650052,30
650632,19
651204,14
651780,25
652360,29
652932,26
653512,18
654084,11
654664,19
655236,23
655816,22
656400,11
656968,21
657544,25
658112,36
658696,29
659264,14
659848,17
660416,30
660996,35
661576,24
662148,19
662728,40
663296,54
663880,56
664452,18
665032,11
665608,11
666176,11
666752,14
667320,14
667904,17
668476,15
669056,14
669624,14
670200,13
670784,17
671352,18
671936,11
672508,12
673088,13
673660,13
674240,15
674808,16
675388,13
675968,13
676536,14
677120,13
677688,14
678272,15
678844,14
679416,11
680000,11
680568,11
681152,10
681720,13
682304,12
682876,11
683456,9
683976,13
684548,19
685128,18
685696,17
686280,14
686848,21
687432,27
688004,25
688584,12
689160,13
689732,17
690312,13
690884,10
691464,13
692032,14
692616,13
693188,14
693764,19
694344,34
694916,43
695496,36
696068,13
696648,35
697216,59
697800,53
698376,26
698948,18
699528,34
700100,18
700680,13
701252,19
701832,34
702412,32
702988,27
703568,15
704140,13
704720,14
705288,22
705872,10
706444,17
707024,12
707600,30
708172,37
708752,32
709324,19
709904,16
710476,18
711056,16
711628,15
712204,25
712784,19
713356,15
713936,16
714516,10
715096,11
715676,17
716252,25
716832,23
717404,37
717984,43
718556,34
719136,20
719708,15
720288,21
720856,18
721432,15
722016,11
722584,11
723168,10
723740,11
724320,11
724892,11
725464,22
726048,27
726620,14
727200,15
727768,14
728352,14
728924,12
729504,11
730076,14
730652,16
731232,22
731804,17
732384,17
732964,18
733544,13
734116,12
734692,14
735272,20
735848,15
736424,13
736996,12
737576,11
738148,11
738728,10
739296,10
739872,11
740456,18
741028,25
741608,13
742180,17
742760,19
743340,20
743916,13
744496,13
745068,14
745648,18
746220,36
746800,31
747380,19
747960,11
748540,17
749116,12
749696,11
750268,17
750848,25
751420,30
752000,21
752576,16
753156,25
753736,27
754308,42
754888,41
755460,31
756040,31
756620,45
757200,42
757784,21
758356,11
758936,11
759508,21
760088,37
760668,35
761248,17
761820,14
762396,21
762976,35
763548,39
764128,15
764708,14
765288,15
765868,14
766444,15
767024,22
767600,13
768180,28
768748,27
769328,17
769896,14
770480,24
771052,21
771628,12
772208,17
772780,19
773360,15
773940,10
774520,10
775092,12
775668,11
776248,12
776820,14
777400,14
777972,19
778552,22
779132,16
779712,13
780296,11
780868,10
781448,11
782020,12
782600,13
783172,22
783752,16
784332,15
784908,22
785488,19
786060,13
786640,16
787212,30
787792,29
788364,20
788944,14
789528,11
790100,15
790680,16
791252,12
791832,11
792412,11
792992,13
793564,17
794140,28
794720,28
795292,29
795872,22
796452,11
797032,14
797612,18
798188,19
798768,13
799340,23
799920,31
800496,36
801072,22
801644,17
802224,15
802796,14
803372,14
803952,11
804524,19
805104,22
805676,18
806256,15
806836,17
807412,11
807992,14
808564,31
809144,23
809716,18
810296,13
810868,15
811448,15
812028,16
812604,12
813184,15
813756,22
814336,29
814916,18
815496,17
816076,42
816652,52
817232,39
817804,17
818384,25
818964,55
819544,66
820120,35
820696,24
821280,32
821848,26
822432,22
823000,12
823584,13
824156,11
824736,12
825304,15
825880,18
826464,16
827032,13
827616,13
828184,16
828768,12
829340,12
829916,11
830496,12
831064,10
831648,11
832220,14
832800,12
833368,11
833944,19
834512,24
835092,14
835672,41
836244,37
836824,19
837392,13
837976,12
838548,10
839124,11
839704,15
840272,34
840856,43
841424,34
842008,20
842576,18
843160,34
843732,43
844308,43
844888,33
845456,15
846032,12
846604,15
847184,12
847756,11
848336,11
848912,10
849480,11
850064,20
850632,22
851216,23
851784,22
852368,14
852940,17
853516,35
854096,39
854668,25
855248,11
855820,11
856400,13
856972,18
857552,27
858128,23
858700,12
859280,21
859852,25
860432,21
861004,34
861584,29
862156,14
862732,15
863312,21
863884,33
864464,43
865040,32
865624,14
866192,43
866772,58
867352,32
867924,17
868504,14
869076,16
869656,19
870236,12
870816,13
871392,12
871972,22
872552,23
873124,11
873704,23
874276,45
874856,15
875428,12
876004,12
876584,18
877156,15
877736,19
878308,14
878888,13
879468,15
880048,13
880624,11
881204,16
881784,22
882356,11
882936,16
883508,32
884088,13
884656,25
885232,32
885816,35
886388,17
886968,13
887540,15
888120,9
888640,23
889216,36
889788,15
890364,11
890944,15
891516,12
892096,13
892668,19
893248,15
893828,14
894408,29
894992,36
895564,12
896148,10
896716,10
897296,17
897864,23
898448,11
899020,26
899596,27
900176,22
900748,18
901328,47
901904,45
902488,31
903056,17
903632,22
904216,15
904784,26
905368,47
905940,60
906520,39
907092,14
907672,32
908252,56
908828,83
909408,64
909980,17
910560,24
911140,24
911720,15
912300,14
912876,18
913456,37
914028,47
914608,31
915180,11
915764,25
916340,49
916920,66
917500,59
918076,35
918656,21
919232,53
919808,48
920388,42
920968,27
921540,17
922116,12
922696,19
923268,35
923848,32
924420,26
925000,39
925572,57
926152,83
926736,38
927308,42
927888,98
928460,146
929092,162
929716,92
930284,67
930864,73
931436,64
932016,55
932588,47
933168,53
933740,57
934320,51
934900,28
935476,16
936056,17
936628,68
937208,75
937788,44
938368,12
938940,51
939516,45
940100,23
940672,12
941248,27
941820,38
942400,80
942980,61
943560,76
944144,28
944716,49
945296,15
945868,40
946448,86
947028,131
947664,106
948292,38
948860,65
949440,115
950064,142
950692,95
951264,75
951836,21
952420,69
952988,58
953568,39
954140,15
954720,23
955300,17
955876,82
956456,135
957084,122
957712,61
958284,61
958868,96
959444,115
960072,89
960648,107
961268,46
961848,13
962420,27
963000,33
963572,32
964148,19
964728,13
965300,18
965880,16
966452,30
967032,70
967604,64
968180,78
968760,22
969332,75
969912,108
970536,105
971168,46
971740,16
972316,12
972900,19
973468,13
974048,9
974568,10
975144,13
975716,12
976296,16
976876,13
977452,13
978032,23
978604,39
979184,35
979756,20
980336,11
980916,11
981492,44
982072,28
982648,12
983224,33
983796,43
984376,17
984948,58
985528,43
986108,23
986684,20
987264,30
987836,15
988416,16
988996,47
989576,48
990148,32
990724,15
991304,11
991876,10
992456,15
993028,23
993608,25
994176,17
994760,13
995336,11
995908,11
996488,17
997060,14
997640,29
998220,45
998800,19
999380,22
999956,14
1000536,11
1001152,14
1001784,15
1002404,23
1003028,19
1003660,10
1004280,12
1004908,10
1005528,12
1006152,13
1006780,10
1007400,11
1008028,11
1008656,11
1009272,14
1009900,21
1010524,27
1011156,23
1011784,17
1012408,29
1013036,40
1013660,19
1014284,23
1014916,33
1015536,49
1016164,31
1016788,49
1017412,39
1018044,16
1018664,14
1019292,16
1019924,16
1020544,14
1021172,16
1021796,17
1022428,27
1023056,10
1023680,17
1024312,25
1024932,13
1025552,17
1026180,28
1026796,26
1027428,14
1028048,18
1028668,11
1029296,29
1029912,67
1030540,76
1031164,47
1031784,21
1032412,47
1033036,35
1033664,13
1034292,35
1034908,19
1035536,31
1036160,40
1036788,12
1037416,22
1038040,37
1038668,24
1039288,14
1039912,25
1040540,51
1041160,31
1041788,16
1042408,27
1043032,54
1043660,27
1044280,17
1044908,25
1045536,36
1046152,41
1046780,26
1047404,14
1048032,43
1048660,46
1049276,33
1049908,13
1050528,31
1051152,64
1051780,58
1052400,25
1053028,14
1053648,21
1054272,23
1054900,14
1055520,35
1056148,24
1056776,14
1057392,44
1058020,14
1058644,34
1059272,18
1059900,16
1060520,13
1061148,14
1061772,15
1062400,11
1063028,11
1063648,12
1064276,15
1064900,21
1065524,22
1066152,34
1066768,55
1067396,24
1068020,19
1068644,21
1069272,40
1069896,37
1070524,15
1071152,26
1071768,40
1072400,56
1073024,11
1073652,13
1074280,18
1074896,17
1075528,12
1076148,15
1076772,16
1077400,27
1078016,24
1078648,23
1079268,12
1079892,31
1080524,51
1081144,38
1081772,21
1082400,13
1083016,13
1083644,15
1084268,24
1084896,14
1085524,14
1086144,13
1086772,17
1087392,16
1088016,11
1088644,16
1089260,10
1089892,40
1090512,61
1091136,36
1091764,18
1092384,76
1093012,91
1093640,29
1094264,17
1094892,14
1095516,14
1096144,15
1096776,14
1097392,12
1098020,22
1098644,33
1099268,21
1099900,18
1100520,13
1101148,21
1101772,14
1102396,29
1103028,14
1103648,11
1104276,10
1104908,12
1105528,11
1106156,13
1106780,21
1107408,11
1108040,16
1108656,11
1109284,20
1109908,14
1110536,19
1111164,12
1111784,14
1112412,17
1113036,11
1113660,17
1114288,10
1114912,11
1115540,20
1116172,12
1116792,36
1117420,29
1118048,27
1118676,43
1119308,30
1119928,16
1120560,15
1121180,10
1121804,15
1122436,26
1123056,45
1123684,63
1124308,72
1124932,37
1125560,21
1126184,72
1126816,62
1127444,40
1128064,22
1128692,12
1129312,13
1129940,16
1130568,10
1131192,13
1131820,19
1132444,49
1133068,55
1133696,46
1134316,30
1134944,84
1135568,103
1136244,34
1136868,17
1137492,19
1138120,18
1138752,10
1139368,17
1139996,27
1140620,27
1141248,19
1141880,12
1142496,23
1143124,45
1143748,45
1144372,16
1145004,38
1145624,19
1146252,11
1146876,14
1147504,16
1148132,12
1148756,11
1149388,11
1150016,11
1150636,14
1151264,16
1151888,18
1152520,15
1153148,18
1153768,20
1154396,17
1155020,12
1155640,16
1156272,19
1156888,15
1157516,11
1158140,10
1158768,13
1159396,17
1160020,37
1160648,33
1161276,20
1161896,27
1162524,61
1163148,56
1163776,14
1164408,15
1165024,11
1165652,17
1166276,19
1166900,14
1167528,14
1168148,13
1168776,16
1169400,19
1170020,36
1170652,34
1171276,21
1171904,11
1172532,23
1173152,55
1173780,51
1174404,32
1175032,13
1175664,17
1176280,15
1176912,18
1177536,29
1178160,32
1178788,15
1179408,20
1180036,27
1180660,17
1181284,36
1181912,58
1182536,49
1183164,20
1183796,23
1184416,47
1185044,82
1185668,77
1186296,33
1186928,23
1187544,17
1188172,13
1188796,11
1189420,13
1190048,39
1190672,57
1191300,38
1191924,13
1192548,27
1193180,70
1193804,45
1194432,27
1195060,22
1195680,12
1196308,23
1196932,27
1197564,13
1198192,10
1198816,16
1199444,26
1200068,23
1200692,15
1201320,20
1201944,15
1202572,24
1203196,18
1203824,13
1204452,10
1205076,13
1205708,51
1206336,49
1206956,14
1207584,11
1208208,15
1208836,11
1209468,12
1210088,15
1210716,20
1211340,25
1211964,19
1212596,16
1213216,15
1213844,13
1214476,10
1215096,17
1215728,17
1216352,14
1216980,14
1217608,26
1218232,43
1218860,38
1219484,17
1220108,28
1220740,54
1221360,43
1221988,32
1222612,24
1223236,11
1223868,16
1224488,29
1225116,11
1225748,38
1226368,47
1226996,31
1227624,27
1228252,41
1228884,32
1229500,31
1230128,23
1230752,12
1231376,29
1232004,28
1232620,19
1233252,25
1233876,27
1234496,13
1235128,14
1235744,15
1236376,16
1237004,19
1237624,19
1238252,16
1238876,12
1239508,13
1240136,15
1240752,14
1241384,12
1242008,27
1242628,46
1243260,29
1243880,13
1244508,38
1245132,43
1245756,37
1246384,15
1247008,14
1247636,23
1248268,14
1248888,11
1249516,11
1250140,28
1250768,32
1251396,21
1252016,14
1252644,36
1253268,46
1253892,34
1254524,12
1255144,20
1255772,33
1256396,11
1257020,23
1257648,12
1258264,20
1258896,24
1259516,14
1260144,14
1260772,14
1261400,14
1262028,16
1262660,16
1263280,15
1263908,13
1264536,14
1265160,12
1265788,15
1266408,12
1267036,17
1267664,21
1268284,27
1268916,28
1269536,35
1270168,31
1270796,13
1271416,13
1272044,31
1272668,71
1273300,53
1273928,14
1274552,18
1275184,25
1275808,18
1276432,27
1277060,67
1277680,39
1278308,13
1278936,13
1279560,13
1280192,12
1280808,19
1281432,16
1282060,15
1282676,11
1283308,11
1283928,19
1284556,16
1285184,14
1285800,16
1286428,25
1287048,13
1287676,15
1288308,15
1288928,12
1289556,10
1290180,10
1290800,11
1291428,16
1292048,18
1292676,13
1293300,28
1293920,36
1294552,23
1295172,12
1295804,13
1296432,34
1297048,47
1297676,25
1298300,22
1298928,19
1299556,19
1300176,25
1300804,19
1301428,13
1302048,14
1302680,14
1303296,12
1303924,21
1304548,22
1305172,12
1305804,28
1306424,24
1307052,11
1307680,10
1308296,17
1308928,33
1309552,36
1310180,21
1310812,14
1311428,15
1312060,13
1312680,15
1313300,22
1313928,26
1314544,21
1315172,16
1315796,29
1316420,41
1317048,35
1317664,14
1318292,37
1318920,30
1319544,14
1320172,22
1320792,25
1321424,32
1322052,18
1322672,12
1323300,15
1323920,21
1324548,19
1325176,17
1325800,17
1326428,24
1327048,14
1327672,14
1328300,13
1328920,12
1329548,16
1330172,22
1330792,16
1331424,21
1332044,33
1332672,25
1333300,13
1333916,20
1334548,26
1335168,18
1335796,15
1336428,14
1337044,11
1337676,13
1338296,14
1338916,28
1339548,38
1340168,22
1340796,11
1341420,15
1342044,15
1342672,13
1343288,15
1343920,16
1344548,18
1345164,13
1345796,11
1346416,13
1347044,11
1347676,16
1348296,34
1348924,18
1349548,12
1350168,36
1350800,57
1351416,35
1352044,14
1352668,14
1353288,14
1353916,26
1354536,21
1355164,28
1355792,59
1356416,45
1357044,23
1357668,72
1358296,66
1358924,36
1359544,29
1360172,14
1360792,16
1361416,13
1362044,22
1362660,29
1363292,12
1363912,13
1364536,13
1365164,22
1365784,15
1366412,12
1367032,11
1367656,13
1368288,13
1368912,14
1369540,15
1370168,15
1370792,11
1371420,10
1372044,14
1372672,13
1373304,15
1373920,21
1374548,18
1375172,13
1375796,19
1376428,18
1377048,14
1377676,16
1378300,12
1378920,27
1379552,27
1380172,15
1380804,10
1381432,13
1382048,29
1382680,29
1383300,15
1383932,14
1384560,17
1385176,15
1385804,14
1386428,13
1387052,12
1387680,11
1388296,13
1388924,17
1389548,17
1390172,11
1390800,10
1391424,11
1392052,11
1392684,15
1393300,13
1393932,13
1394552,18
1395184,23
1395812,21
1396432,16
1397060,13
1397684,11
1398308,18
1398936,14
1399556,22
1400184,31
1400808,31
1401428,18
1402060,16
1402680,15
1403308,17
1403936,10
1404560,16
1405188,15
1405812,12
1406444,11
1407072,26
1407688,22
1408320,12
1408940,34
1409564,34
1410192,14
1410816,20
1411444,13
1412068,12
1412692,12
1413320,11
1413936,22
1414568,19
1415196,19
1415816,24
1416444,12
1417068,15
1417696,15
1418324,24
1418944,27
1419572,22
1420196,11
1420820,16
1421448,24
1422064,33
1422692,21
1423316,12
1423944,15
1424572,10
1425192,11
1425820,13
1426452,16
1427072,17
1427700,15
1428324,24
1428956,18
1429584,12
1430204,18
1430832,12
1431460,22
1432084,19
1432712,20
1433332,27
1433964,28
1434584,16
1435208,14
1435836,14
1436456,16
1437084,13
1437716,11
1438336,13
1438964,12
1439588,9
1440168,12
1440796,10
1441416,24
1442044,29
1442664,15
1443296,33
1443924,14
1444540,15
1445172,24
1445792,24
1446416,13
1447044,26
1447660,33
1448292,20
1448916,20
1449536,13
1450168,12
1450784,39
1451412,76
1452044,60
1452664,26
1453292,45
1453916,57
1454548,87
1455176,49
1455792,14
1456424,15
1457048,17
1457668,20
1458300,12
1458920,13
1459548,15
1460172,25
1460796,35
1461424,24
1462044,16
1462672,14
1463300,11
1463920,13
1464548,32
1465172,28
1465804,21
1466432,20
1467048,34
1467680,43
1468300,33
1468932,20
1469560,18
1470184,19
1470812,13
1471436,12
1472064,19
1472692,12
1473312,13
1473940,13
1474572,12
1475188,11
1475820,13
1476444,14
1477072,15
1477700,16
1478320,13
1478948,11
1479572,13
1480196,14
1480828,11
1481448,26
1482076,31
1482700,28
1483324,16
1483952,18
1484576,17
1485204,15
1485832,14
1486456,12
1487084,12
1487708,24
1488336,12
1488964,17
1489584,11
1490212,14
1490836,11
1491460,11
1492092,12
1492712,15
1493340,15
1493964,13
1494588,13
1495220,13
1495840,19
1496468,30
1497096,15
1497720,19
1498348,16
1498972,11
1499600,12
1500228,11
1500848,14
1501476,14
1502100,13
1502724,14
1503356,12
1503976,13
1504608,17
1505232,20
1505856,24
1506484,27
1507104,30
1507732,12
1508364,23
1508984,35
1509612,37
1510236,19
1510868,15
1511500,22
1512120,32
1512748,16
1513372,15
1514000,27
1514628,14
1515248,13
1515876,19
1516504,11
1517124,15
1517756,24
1518376,41
1519004,39
1519636,20
1520256,18
1520884,15
1521508,10
1522136,18
1522768,17
1523388,15
1524016,12
1524640,11
1525260,13
1525892,22
1526512,28
1527140,22
1527764,13
1528388,11
1529020,13
1529640,30
1530268,35
1530900,12
1531520,13
1532148,12
1532776,12
1533404,19
1534036,22
1534656,17
1535288,13
1535912,15
1536536,11
1537164,10
1537784,11
1538412,11
1539032,12
1539656,17
1540284,11
1540904,11
1541532,13
1542160,14
1542784,40
1543412,47
1544036,32
1544664,14
1545292,26
1545912,39
1546540,42
1547164,17
1547788,12
1548420,15
1549040,13
1549668,15
1550292,11
1550916,15
1551544,18
1552168,15
1552796,14
1553428,10
1554048,12
1554676,14
1555300,12
1555932,10
1556560,18
1557184,45
1557812,61
1558436,41
1559060,25
1559688,48
1560304,77
1560936,54
1561560,21
1562184,11
1562812,10
1563432,11
1564060,13
1564692,14
1565312,12
1565940,13
1566564,15
1567196,17
1567824,13
1568444,18
1569072,21
1569696,22
1570320,23
1570948,17
1571568,22
1572196,43
1572820,35
1573444,32
1574072,13
1574696,9
1575272,12
1575904,13
1576528,14
1577156,14
1577776,19
1578404,12
1579036,11
1579656,16
1580284,19
1580908,16
1581540,11
1582168,12
1582792,12
1583420,12
1584044,13
1584668,13
1585300,13
1585920,13
1586548,13
1587176,12
1587800,19
1588428,11
1589048,14
1589676,17
1590308,14
1590928,11
1591556,15
1592184,23
1592812,15
1593444,14
1594064,14
1594692,13
1595320,17
1595944,11
1596572,13
1597192,17
1597824,20
1598448,19
1599072,20
1599700,14
1600328,19
1600956,23
1601584,19
1602200,14
1602828,19
1603452,16
1604080,16
1604708,12
1605328,15
1605956,14
1606580,12
1607200,15
1607832,15
1608448,15
1609076,13
1609700,23
1610320,26
1610952,16
1611568,11
1612196,11
1612828,10
1613444,11
1614076,11
1614700,10
1615328,12
1615956,11
1616576,13
1617204,16
1617828,15
1618452,13
1619080,16
1619704,22
1620332,11
1620956,15
1621580,24
1622208,16
1622832,12
1623460,16
1624092,15
1624712,12
1625340,14
1625964,13
1626592,13
1627224,13
1627840,14
1628468,10
1629092,15
1629716,23
1630348,14
1630968,19
1631596,23
1632224,25
1632844,21
1633476,36
1634096,53
1634724,41
1635356,20
1635976,16
1636604,21
1637232,14
1637860,11
1638492,18
1639108,24
1639736,13
1640356,15
1640980,23
1641604,34
1642220,37
1642848,31
1643472,15
1644092,13
1644720,14
1645344,13
1645972,10
1646600,11
1647216,12
1647844,10
1648464,18
1649096,13
1649724,20
1650340,22
1650972,15
1651592,18
1652220,29
1652848,23
1653468,11
1654100,20
1654720,12
1655340,18
1655972,14
1656592,21
1657220,15
1657844,12
1658464,11
1659092,13
1659716,13
1660344,25
1660972,14
1661592,13
1662220,13
1662844,17
1663472,13
1664100,13
1664716,16
1665344,24
1665964,45
1666588,43
1667216,20
1667832,16
1668460,18
1669080,14
1669704,13
1670332,19
1670952,27
1671580,25
1672208,22
1672828,11
1673460,11
1674080,16
1674712,20
1675340,19
1675960,17
1676588,22
1677212,19
1677836,17
1678464,12
1679080,17
1679708,31
1680332,41
1680952,13
1681580,16
1682200,11
1682828,11
1683448,10
1684072,15
1684700,18
1685324,21
1685952,15
1686580,20
1687200,24
1687828,21
1688448,15
1689080,13
1689708,35
1690324,59
1690952,61
1691576,46
1692200,16
1692828,38
1693444,82
1694072,77
1694696,39
1695320,27
1695948,11
1696568,12
1697196,14
1697824,24
1698440,19
1699072,15
1699692,11
1700324,13
1700952,12
1701568,16
1702196,16
1702820,13
1703444,10
1704072,10
1704688,9
1705264,10
1705888,11
1706508,11
1707140,12
1707760,13
1708388,11
1709012,13
1709636,15
1710264,15
1710888,14
1711516,14
1712148,20
1712768,19
1713396,11
1714020,16
1714648,27
1715280,27
1715896,21
1716524,12
1717148,14
1717772,14
1718400,15
1719016,13
1719648,13
1720272,11
1720896,11
1721524,14
1722144,41
1722772,57
1723400,32
1724024,14
1724652,31
1725276,52
1725904,65
1726532,46
1727152,28
1727780,13
1728404,15
1729028,11
1729656,13
1730272,14
1730904,20
1731524,19
1732148,21
1732776,20
1733400,13
1734028,22
1734652,25
1735280,13
1735908,15
1736532,11
1737160,15
1737792,23
1738408,15
1739036,21
1739660,23
1740292,11
1740920,16
1741540,26
1742172,23
1742792,36
1743416,32
1744044,38
1744660,15
1745288,11
1745912,12
1746536,15
1747164,13
1747788,11
1748416,15
1749048,13
1749664,12
1750292,13
1750916,14
1751548,13
1752176,14
1752796,17
1753424,18
1754048,11
1754672,11
1755300,12
1755920,27
1756548,30
1757172,21
1757796,17
1758428,16
1759052,16
1759680,16
1760312,15
1760928,15
1761556,20
1762180,22
1762808,15
1763436,10
1764056,11
1764684,12
1765308,11
1765932,14
1766560,18
1767176,17
1767804,16
1768428,16
1769052,35
1769680,25
1770296,13
1770924,12
1771556,19
1772176,21
1772804,21
1773428,17
1774056,13
1774684,13
1775304,21
1775932,35
1776560,40
1777180,19
1777812,13
1778432,12
1779060,12
1779684,12
1780308,11
1780940,12
1781560,15
1782188,11
1782820,10
1783440,11
1784068,13
1784692,18
1785320,22
1785952,22
1786568,12
1787200,12
1787824,16
1788448,11
1789076,14
1789696,19
1790324,13
1790948,19
1791576,11
1792204,22
1792820,22
1793448,31
1794080,28
1794696,21
1795324,25
1795948,11
1796576,11
1797204,11
1797824,11
1798452,20
1799076,17
1799696,14
1800328,14
1800944,16
1801572,13
1802196,17
1802820,13
1803452,10
1804072,12
1804700,11
1805328,14
1805944,10
1806576,16
1807196,17
1807828,15
1808456,11
1809072,15
1809700,21
1810324,31
1810948,27
1811580,22
1812200,13
1812828,11
1813452,11
1814072,10
1814704,11
1815320,15
1815952,24
1816580,25
1817200,32
1817828,17
1818452,30
1819080,51
1819712,38
1820328,13
1820956,18
1821580,41
1822212,35
1822840,22
1823456,44
1824088,33
1824708,12
1825332,33
1825960,33
1826584,33
1827212,23
1827836,20
1828460,33
1829088,27
1829712,34
1830340,27
1830972,30
1831592,21
1832220,13
1832844,21
1833476,14
1834104,14
1834728,28
1835356,27
1835980,13
1836608,13
1837236,11
1837856,17
1838484,15
1839116,14
1839736,15
1840368,12
1840992,17
1841620,32
1842248,27
1842872,17
1843500,19
1844124,19
1844748,20
1845376,15
1845992,11
1846620,21
1847244,19
1847868,11
1848496,29
1849112,29
1849740,11
1850364,24
1850992,15
1851620,22
1852244,31
1852872,44
1853504,38
1854120,14
1854748,25
1855372,25
1856000,47
1856628,67
1857248,47
1857876,39
1858500,31
1859124,13
1859752,13
1860376,16
1861004,26
1861628,28
1862256,21
1862884,10
1863508,11
1864140,14
1864768,33
1865384,31
1866016,15
1866640,13
1867268,15
1867896,14
1868516,17
1869144,13
1869768,19
1870392,23
1871020,46
1871640,55
1872268,51
1872892,60
1873520,51
1874148,40
1874772,15
1875404,27
1876032,53
1876648,48
1877280,56
1877904,19
1878532,33
1879164,68
1879784,59
1880416,38
1881036,89
1881664,80
1882292,14
1882912,49
1883540,52
1884172,14
1884792,15
1885420,27
1886044,17
1886672,33
1887304,40
1887924,14
1888552,35
1889176,41
1889800,12
1890428,14
1891048,45
1891676,25
1892300,28
1892924,16
1893556,26
1894176,15
1894808,35
1895436,58
1896056,128
1896736,208
1897404,204
1898076,157
1898756,27
1899376,220
1900056,292
1900740,149
1901412,142
1902092,122
1902768,17
1903392,96
1904024,95
1904652,16
1905272,79
1905900,137
1906576,54
1907200,68
1907828,92
1908448,59
1909076,24
1909700,19
1910328,37
1910956,20
1911576,35
1912208,13
1912836,16
1913456,30
1914088,13
1914712,19
1915344,31
1915972,12
1916592,41
1917224,113
1917900,62
1918520,56
1919152,22
1919772,31
1920404,12
1921032,13
1921648,15
1922276,17
1922900,11
1923528,16
1924156,21
1924776,19
1925404,20
1926028,21
1926660,18
1927288,18
1927904,17
1928532,16
1929156,14
1929780,11
1930408,12
1931032,11
1931660,14
1932284,18
1932912,13
1933540,13
1934164,15
1934792,14
1935424,14
1936040,13
1936672,15
1937296,11
1937924,15
1938552,10
1939172,31
1939804,62
1940428,65
1941052,31
1941680,25
1942300,14
1942928,23
1943556,72
1944176,74
1944808,22
1945432,70
1946064,160
1946744,161
1947412,136
1948088,37
1948716,28
1949336,28
1949964,49
1950588,94
1951220,42
1951852,17
1952472,48
1953100,15
1953724,53
1954348,20
1954980,50
1955600,15
1956228,18
1956852,23
1957476,36
1958108,12
1958732,40
1959360,47
1959988,26
1960608,15
1961236,15
1961860,13
1962492,15
1963120,15
1963744,13
1964372,17
1965000,17
1965620,15
1966252,16
1966872,14
1967500,13
1968124,14
1968744,16
1969376,14
1969996,21
1970628,56
1971256,82
1971872,66
1972504,45
1973124,87
1973752,66
1974384,40
1975004,17
1975632,24
1976256,22
1976880,29
1977508,14
1978128,12
1978756,13
1979380,111
1980056,172
1980732,114
1981404,43
1982024,75
1982652,206
1983324,148
1984004,43
1984628,27
1985248,22
1985876,15
1986500,17
1987124,11
1987752,12
1988376,17
1989004,16
1989628,12
1990256,12
1990884,21
1991508,21
1992140,22
1992768,15
1993388,14
1994016,15
1994640,13
1995268,32
1995900,30
1996520,17
1997152,92
1997772,144
1998448,121
1999124,40
1999744,83
2000372,156
2001056,72
2001672,45
2002300,23
2002924,25
2003548,36
2004176,53
2004792,17
2005424,13
2006052,13
2006672,12
2007300,13
2007924,32
2008556,28
2009184,48
2009800,58
2010428,27
2011052,21
2011676,34
2012304,34
2012928,11
2013556,25
2014180,25
2014804,27
2015432,29
2016056,17
2016684,16
2017312,23
2017936,25
2018564,15
2019188,14
2019816,16
2020448,27
2021064,16
2021696,15
2022320,29
2022944,35
2023572,16
2024192,12
2024820,14
2025444,14
2026068,13
2026700,16
2027320,24
2027948,13
2028580,13
2029200,16
2029828,19
2030452,26
2031084,21
2031712,12
2032332,48
2032960,13
2033584,28
2034208,18
2034836,13
2035456,38
2036084,41
2036708,16
2037332,29
2037964,112
2038636,116
2039316,81
2039944,29
2040560,86
2041192,140
2041876,42
2042496,15
2043124,23
2043752,19
2044380,14
2045012,46
2045632,49
2046260,20
2046888,19
2047512,32
2048144,48
2048756,48
2049384,33
2050008,58
2050628,61
2051256,61
2051872,16
2052500,15
2053128,11
2053744,13
2054372,23
2054996,27
2055624,17
2056252,16
2056868,20
2057500,19
2058120,19
2058752,13
2059380,27
2060000,24
2060628,14
2061248,11
2061872,21
2062500,27
2063120,19
2063748,24
2064372,57
2064992,55
2065620,55
2066244,55
2066872,22
2067500,43
2068120,51
2068748,19
2069372,14
2070000,15
2070628,35
2071248,42
2071876,53
2072500,12
2073120,13
2073752,26
2074368,31
2074996,22
2075620,24
2076244,22
2076872,13
2077488,17
2078116,18
2078748,45
2079368,43
2079996,19
2080620,26
2081248,52
2081876,60
2082496,12
2083124,21
2083748,14
2084368,15
2085000,13
2085616,19
2086244,35
2086868,18
2087492,10
2088120,16
2088736,12
2089364,13
2089992,27
2090616,29
2091244,19
2091864,13
2092496,16
2093124,20
2093744,13
2094372,12
2094996,17
2095620,11
2096252,14
2096872,59
2097500,60
2098124,38
2098744,16
2099376,56
2099992,87
2100620,26
2101244,13
2101872,19
2102500,23
2103120,16
2103752,25
2104380,40
2105000,45
2105628,25
2106248,11
2106880,21
2107508,14
2108128,12
2108756,13
2109380,14
2110004,13
2110636,15
2111256,12
2111884,12
2112508,16
2113136,16
2113764,21
2114388,25
2115016,36
2115644,30
2116264,12
2116892,27
2117516,13
2118144,32
2118776,31
2119392,24
2120024,11
2120644,19
2121268,27
2121896,22
2122520,23
2123148,31
2123772,16
2124400,13
2125028,13
2125652,13
2126280,15
2126912,14
2127528,13
2128156,11
2128780,13
2129408,16
2130040,22
2130656,12
2131284,11
2131908,11
2132528,24
2133160,33
2133776,28
2134404,30
2135028,15
2135652,33
2136280,50
2136904,41
2137536,22
2138164,13
2138784,11
2139412,10
2140036,10
2140668,13
2141296,17
2141912,25
2142544,25
2143168,32
2143792,19
2144420,13
2145040,11
2145668,12
2146292,11
2146916,15
2147544,18
2148168,13
2148796,14
2149428,14
2150048,14
2150676,16
2151300,36
2151932,45
2152560,42
2153176,35
2153804,11
2154428,27
2155052,51
2155680,75
2156296,55
2156928,11
2157548,16
2158172,24
2158804,19
2159428,17
2160056,18
2160684,12
2161300,11
2161932,14
2162552,12
2163184,20
2163816,23
2164432,21
2165060,21
2165684,17
2166308,11
2166936,16
2167560,21
2168188,19
2168812,14
2169436,13
2170068,12
2170692,23
2171320,20
2171948,11
2172568,11
2173196,13
2173820,12
2174452,27
2175080,30
2175704,14
2176336,21
2176956,33
2177580,31
2178208,45
2178824,29
2179456,12
2180076,11
2180700,12
2181332,13
2181956,12
2182584,20
2183212,18
2183832,16
2184460,19
2185084,13
2185712,19
2186344,13
2186960,11
2187588,14
2188212,35
2188836,85
2189464,17
2190088,37
2190716,13
2191340,13
2191968,18
2192596,30
2193220,29
2193852,15
2194480,24
2195100,30
2195728,13
2196352,18
2196980,21
2197612,44
2198232,57
2198864,24
2199488,16
2200112,29
2200740,35
2201360,29
2201992,15
2202612,17
2203236,25
2203868,30
2204492,25
2205120,23
2205748,14
2206368,12
2207000,11
2207624,11
2208252,17
2208884,18
2209504,15
2210132,13
2210756,13
2211380,13
2212012,10
2212632,13
2213260,13
2213884,10
2214512,13
2215140,13
2215764,14
2216392,11
2217024,14
2217640,14
2218272,21
2218892,15
2219524,12
2220152,11
2220772,10
2221400,11
2222028,10
2222652,10
2223280,11
2223900,12
2224528,12
2225160,14
2225780,16
2226408,13
2227032,15
2227664,17
2228292,15
2228912,23
2229540,17
2230168,13
2230792,31
2231420,40
2232040,55
2232668,45
2233292,16
2233916,13
2234548,30
2235168,82
2235800,104
2236480,62
2237096,19
2237728,11
2238352,11
2238984,17
2239612,36
2240232,16
2240860,13
2241484,13
2242108,18
2242736,23
2243352,21
2243984,24
2244612,31
2245232,17
2245860,14
2246484,15
2247112,20
2247744,11
2248360,28
2248992,19
2249616,16
2250244,31
2250872,40
2251496,22
2252128,15
2252752,12
2253376,11
2254004,19
2254624,24
2255252,24
2255880,17
2256504,11
2257132,22
2257756,26
2258384,18
2259016,15
2259632,13
2260264,15
2260884,16
2261508,16
2262140,14
2262760,17
2263388,17
2264012,19
2264636,28
2265264,18
2265888,22
2266516,14
2267148,33
2267768,51
2268396,42
2269020,48
2269652,25
2270280,12
2270900,21
2271528,25
2272152,17
2272776,11
2273408,22
2274024,31
2274656,21
2275280,17
2275900,57
2276532,54
2277152,23
2277780,13
2278412,30
2279032,35
2279660,45
2280284,35
2280916,18
2281544,11
2282164,20
2282792,33
2283416,44
2284040,55
2284668,35
2285288,23
2285916,64
2286540,65
2287168,45
2287796,32
2288416,12
2289044,17
2289676,10
2290296,17
2290928,17
2291552,15
2292180,13
2292812,14
2293432,13
2294064,14
2294688,11
2295308,13
2295940,12
2296560,17
2297188,30
2297812,33
2298436,32
2299068,16
2299688,12
2300316,26
2300948,44
2301568,43
2302196,30
2302824,20
2303452,12
2304084,10
2304700,12
2305328,13
2305952,12
2306576,11
2307204,10
2307824,11
2308452,14
2309076,13
2309700,13
2310328,13
2310952,12
2311580,11
2312212,11
2312832,12
2313460,11
2314084,13
2314716,13
2315344,10
2315968,12
2316596,13
2317220,13
2317844,14
2318476,16
2319096,19
2319724,17
2320348,14
2320972,11
2321604,10
2322224,11
2322852,12
2323484,12
2324104,13
2324732,37
2325356,93
2325988,115
2326668,92
2327288,31
2327916,61
2328540,150
2329216,159
2329900,69
2330520,25
2331144,11
2331772,12
2332392,12
2333020,12
2333644,13
2334268,14
2334900,14
2335520,14
2336148,12
2336776,11
2337400,13
2338028,10
2338652,17
2339280,19
2339912,21
2340528,19
2341156,11
2341780,16
2342408,16
2343036,17
2343656,18
2344288,13
2344908,11
2345536,11
2346164,10
2346784,11
2347416,11
2348044,10
2348664,11
2349296,12
2349920,13
2350548,15
2351180,18
2351800,18
2352432,16
2353056,12
2353680,12
2354308,16
2354928,12
2355560,11
2356180,10
2356804,11
2357432,10
2358056,20
2358684,28
2359316,26
2359936,23
2360568,17
2361188,13
2361820,11
2362452,20
2363072,17
2363700,20
2364324,32
2364952,50
2365580,35
2366200,18
2366828,15
2367452,17
2368080,17
2368708,14
2369328,19
2369956,12
2370588,12
2371208,41
2371836,29
2372460,23
2373092,44
2373724,40
2374344,25
2374976,19
2375600,60
2376224,29
2376852,31
2377472,31
2378100,13
2378724,27
2379352,62
2379980,38
2380600,13
2381232,14
2381860,12
2382480,12
2383108,15
2383732,18
2384364,14
2384992,14
2385616,17
2386244,13
2386868,13
2387492,11
2388124,10
2388744,11
2389372,12
2390000,12
2390624,11
2391252,11
2391876,13
2392508,13
2393140,12
2393760,14
2394388,11
2395016,11
2395644,12
2396276,15
2396896,13
2397524,25
2398152,26
2398776,21
2399404,12
2400024,14
2400652,20
2401276,18
2401904,15
2402532,13
2403156,13
2403788,10
2404420,12
2405040,11
2405668,11
2406296,13
2406920,12
2407548,11
2408168,13
2408796,14
2409420,13
2410044,15
2410676,16
2411296,19
2411924,21
2412556,24
2413176,27
2413804,26
2414432,19
2415060,12
2415692,24
2416312,39
2416944,25
2417564,25
2418188,15
2418820,26
2419440,45
2420068,27
2420692,23
2421316,29
2421948,12
2422568,14
2423196,11
2423828,10
2424448,17
2425076,22
2425700,14
2426332,30
2426964,51
2427584,47
2428212,21
2428836,21
2429464,48
2430092,50
2430712,54
2431344,37
2431968,24
2432592,46
2433224,35
2433840,22
2434472,15
2435100,43
2435720,51
2436352,20
2436976,12
2437604,21
2438232,22
2438856,14
2439484,10
2440108,11
2440732,11
2441364,10
2441984,13
2442612,14
2443236,14
2443860,13
2444492,16
2445112,17
2445740,11
2446372,12
2446992,10
2447624,11
2448248,15
2448876,11
2449508,18
2450128,33
2450760,36
2451384,14
2452008,15
2452636,12
2453256,20
2453888,23
2454512,14
2455136,13
2455768,11
2456392,12
2457024,17
2457652,12
2458268,31
2458900,38
2459520,14
2460148,15
2460780,14
2461400,13
2462028,11
2462652,13
2463276,16
2463908,13
2464528,15
2465156,11
2465780,14
2466404,15
2467032,21
2467656,35
2468284,23
2468916,13
2469536,32
2470164,22
2470788,10
2471420,31
2472048,27
2472664,14
2473292,11
2473916,11
2474540,15
2475172,34
2475792,31
2476420,18
2477044,19
2477668,24
2478300,19
2478924,11
2479552,18
2480184,21
2480800,17
2481428,11
2482052,17
2482680,15
2483312,16
2483928,21
2484556,18
2485180,14
2485804,18
2486432,27
2487048,25
2487680,22
2488304,13
2488928,21
2489556,12
2490180,11
2490812,16
2491440,30
2492064,37
2492692,27
2493320,15
2493948,13
2494580,12
2495200,12
2495828,11
2496456,10
2497080,11
2497708,14
2498328,12
2498956,11
2499580,11
2500208,17
2500836,24
2501460,28
2502088,14
2502720,23
2503336,20
2503968,26
2504592,22
2505220,21
2505852,12
2506472,11
2507100,13
2507728,11
2508352,13
2508980,14
2509600,17
2510228,16
2510860,14
2511480,13
2512108,15
2512732,11
2513364,12
2513992,11
2514616,12
2515244,11
2515868,12
2516492,14
2517124,12
2517744,14
2518376,14
2519000,13
2519624,13
2520256,12
2520872,12
2521500,20
2522132,19
2522752,16
2523380,15
2524008,11
2524636,15
2525268,12
2525888,14
2526520,16
2527144,22
2527768,16
2528400,12
2529016,23
2529644,14
2530268,13
2530892,28
2531524,20
2532144,22
2532776,16
2533404,19
2534024,19
2534656,17
2535280,15
2535908,19
2536540,16
2537160,11
2537792,11
2538416,13
2539040,43
2539672,72
2540288,68
2540916,46
2541540,20
2542164,31
2542796,58
2543416,70
2544048,23
2544676,14
2545296,47
2545924,40
2546548,26
2547180,22
2547812,25
2548432,26
2549064,15
2549688,15
2550312,29
2550944,37
2551564,26
2552192,14
2552820,19
2553444,15
2554072,12
2554700,10
2555332,13
2555964,10
2556584,11
2557216,11
2557840,11
2558472,14
2559104,15
2559724,14
2560356,14
2560976,11
2561596,11
2562224,11
2562848,11
2563476,15
2564104,14
2564720,11
2565348,13
2565972,13
2566600,16
2567228,20
2567848,14
2568476,14
2569100,12
2569728,15
2570356,20
2570976,25
2571604,24
2572228,15
2572848,10
2573476,18
2574096,30
2574724,37
2575348,21
2575972,22
2576600,30
2577224,25
2577856,14
2578484,36
2579104,67
2579732,47
2580356,18
2580988,12
2581616,11
2582232,12
2582860,12
2583484,17
2584108,22
2584736,23
2585360,19
2585988,17
2586612,12
2587236,11
2587864,15
2588488,25
2589116,31
2589748,16
2590368,13
2590996,17
2591620,23
2592252,29
2592880,30
2593496,19
2594128,12
2594748,18
2595372,28
2596004,18
2596624,11
2597252,27
2597876,42
2598500,45
2599128,18
2599752,14
2600384,19
2601012,14
2601632,16
2602260,14
2602884,13
2603512,11
2604140,10
2604760,13
2605388,17
2606012,15
2606640,14
2607268,12
2607888,13
2608516,14
2609140,15
2609764,13
2610396,13
2611020,14
2611652,16
2612280,11
2612896,14
2613528,16
2614152,20
2614780,13
2615412,14
2616032,27
2616660,27
2617284,17
2617908,15
2618540,16
2619160,16
2619792,11
2620416,14
2621040,11
2621668,11
2622292,13
2622920,17
2623552,24
2624168,25
2624796,28
2625416,23
2626044,13
2626676,20
2627292,37
2627924,45
2628544,42
2629168,23
2629796,10
2630416,12
2631044,11
2631664,12
2632288,11
2632916,11
2633540,15
2634172,15
2634800,13
2635416,13
2636048,17
2636668,17
2637300,25
2637928,21
2638544,12
2639176,13
2639800,21
2640424,13
2641052,10
2641672,16
2642300,18
2642924,31
2643544,40
2644172,40
2644788,44
2645420,38
2646048,35
2646664,29
2647296,11
2647916,29
2648548,39
2649176,48
2649792,38
2650424,20
2651044,18
2651668,50
2652300,39
2652920,23
2653548,25
2654172,11
2654796,27
2655424,43
2656044,40
2656672,22
2657300,12
2657920,18
2658548,14
2659172,23
2659800,20
2660432,13
2661048,12
2661680,11
2662304,11
2662928,11
2663556,13
2664176,13
2664804,11
2665424,11
2666048,11
2666676,14
2667296,14
2667924,19
2668552,19
2669168,28
2669800,20
2670420,11
2671048,29
2671680,28
2672296,13
2672924,13
2673548,13
2674176,11
2674808,12
2675424,15
2676052,13
2676676,17
2677300,15
2677928,11
2678544,19
2679172,19
2679796,20
2680420,13
2681048,12
2681672,23
2682300,37
2682932,40
2683552,17
2684180,29
2684804,35
2685432,35
2686060,18
2686680,11
2687308,20
2687932,31
2688560,29
2689188,22
2689808,17
2690436,14
2691056,35
2691680,50
2692308,29
2692932,17
2693560,14
2694192,11
2694808,12
2695436,21
2696060,19
2696688,14
2697316,16
2697936,15
2698564,13
2699188,11
2699812,21
2700440,14
2701064,15
2701692,18
2702316,18
2702940,13
2703572,14
2704196,10
2704824,12
2705452,10
2706072,13
2706700,14
2707324,12
2707952,29
2708584,47
2709200,31
2709828,15
2710452,15
2711076,28
2711704,40
2712328,29
2712956,35
2713580,40
2714208,20
2714836,11
2715460,13
2716088,15
2716716,12
2717336,14
2717964,15
2718588,13
2719220,11
2719848,11
2720468,11
2721096,12
2721720,23
2722340,81
2722972,80
2723592,59
2724220,29
2724844,24
2725464,82
2726096,109
2726764,68
2727388,33
2728016,10
2728636,14
2729268,17
2729892,11
2730516,11
2731144,11
2731764,13
2732392,19
2733016,17
2733640,17
2734268,13
2734888,14
2735516,13
2736148,11
2736768,11
2737396,11
2738020,10
2738648,10
2739280,10
2739896,12
2740524,11
2741148,14
2741772,26
2742400,27
2743016,19
2743648,19
2744272,30
2744896,43
2745524,26
2746144,16
2746772,11
2747404,12
2748024,14
2748652,14
2749276,13
2749908,12
2750536,13
2751160,17
2751792,24
2752416,21
2753040,23
2753668,38
2754288,27
2754916,17
2755540,20
2756164,17
2756792,35
2757416,12
2758044,25
2758676,23
2759296,13
2759924,13
2760548,26
2761180,19
2761808,28
2762432,20
2763060,15
2763684,38
2764308,54
2764940,36
2765560,19
2766188,16
2766812,22
2767432,20
2768064,15
2768680,15
2769308,12
2769936,15
2770560,11
2771188,10
2771812,10
2772444,14
2773072,40
2773696,49
2774324,51
2774952,57
2775576,41
2776204,24
2776824,50
2777452,39
2778076,56
2778700,42
2779332,24
2779952,32
2780584,21
2781212,12
2781832,17
2782464,12
2783088,16
2783716,13
2784348,14
2784968,19
2785596,25
2786220,23
2786844,27
2787476,14
2788096,25
2788724,15
2789348,14
2789972,11
2790604,16
2791224,13
2791852,15
2792480,34
2793104,30
2793732,14
2794356,11
2794988,26
2795616,39
2796232,15
2796864,13
2797488,12
2798112,12
2798740,12
2799360,13
2799988,13
2800616,14
2801240,16
2801868,14
2802488,13
2803116,10
2803748,14
2804368,27
2804996,27
2805620,17
2806252,12
2806880,26
2807496,29
2808128,25
2808752,15
2809376,15
2810004,12
2810624,15
2811252,23
2811876,26
2812500,24
2813132,24
2813752,15
2814384,29
2815012,14
2815632,23
2816264,15
2816884,42
2817512,25
2818144,28
2818760,38
2819388,25
2820012,11
2820636,31
2821264,69
2821880,61
2822512,25
2823136,13
2823756,11
2824388,14
2825008,14
2825636,15
2826264,18
2826888,19
2827516,27
2828140,30
2828768,21
2829400,15
2830016,35
2830644,47
2831268,33
2831892,26
2832524,22
2833144,18
2833772,16
2834396,15
2835020,14
2835652,12
2836272,18
2836900,17
2837532,10
2838152,11
2838780,12
2839404,11
2840036,21
2840664,25
2841288,23
2841916,17
2842540,13
2843164,16
2843796,14
2844416,15
2845044,16
2845668,11
2846292,11
2846924,10
2847544,16
2848172,19
2848804,22
2849424,18
2850052,14
2850676,17
2851308,16
2851936,18
2852552,22
2853184,21
2853808,17
2854432,12
2855060,18
2855680,17
2856308,27
2856932,28
2857560,29
2858188,19
2858808,22
2859436,32
2860068,16
2860688,11
2861320,19
2861944,26
2862572,19
2863204,14
2863824,15
2864456,15
2865080,13
2865704,20
2866336,23
2866952,14
2867584,16
2868208,14
2868828,21
2869456,35
2870080,33
2870708,20
2871340,12
2871960,39
2872588,76
2873212,59
2873844,30
2874472,14
2875092,14
2875720,15
2876344,18
2876968,16
2877596,10
2878216,12
2878844,12
2879468,11
2880092,24
2880720,47
2881344,41
2881972,24
2882600,14
2883216,18
2883844,43
2884468,35
2885096,14
2885724,10
2886344,22
2886972,21
2887596,19
2888220,11
2888848,10
2889472,10
2890100,11
2890724,19
2891348,21
2891976,17
2892596,14
2893224,13
2893852,12
2894472,12
2895100,13
2895724,11
2896352,13
2896984,11
2897600,11
2898228,11
2898852,13
2899476,18
2900104,14
2900728,15
2901356,13
2901980,14
2902604,16
2903236,28
2903856,32
2904484,21
2905116,10
2905736,16
2906364,23
2906988,20
2907620,27
2908248,12
2908872,25
2909500,20
2910124,14
2910748,18
2911376,23
2912000,23
2912628,23
2913252,15
2913876,17
2914508,22
2915128,14
2915760,11
2916388,16
2917008,22
2917636,25
2918264,27
2918892,24
2919524,20
2920144,25
2920772,19
2921396,13
2922020,14
2922652,36
2923272,68
2923900,53
2924528,21
2925152,14
2925780,13
2926404,13
2927032,15
2927664,14
2928284,11
2928912,11
2929536,16
2930164,22
2930796,22
2931416,32
2932044,29
2932668,17
2933292,13
2933924,18
2934544,61
2935172,62
2935800,20
2936424,11
2937052,10
2937676,11
2938308,11
2938940,12
2939560,11
2940188,12
2940812,12
2941444,13
2942072,15
2942696,15
2943328,20
2943952,19
2944576,12
2945208,10
2945824,15
2946456,11
2947084,12
2947704,11
2948332,30
2948960,39
2949588,29
2950216,13
2950840,13
2951468,14
2952092,14
2952716,14
2953344,11
2953968,14
2954596,10
2955220,13
2955844,12
2956476,10
2957096,13
2957724,15
2958356,12
2958976,16
2959604,16
2960228,19
2960860,11
2961488,16
2962104,16
2962736,12
2963360,12
2963980,20
2964612,16
2965232,13
2965860,21
2966484,15
2967108,18
2967740,17
2968360,17
2968988,11
2969620,12
2970236,13
2970868,11
2971492,15
2972120,12
2972748,42
2973368,58
2973996,40
2974620,34
2975248,35
2975876,16
2976496,19
2977124,36
2977748,49
2978372,52
2979000,38
2979624,32
2980252,26
2980884,10
2981504,11
2982132,11
2982756,16
2983388,25
2984016,19
2984632,14
2985264,14
2985888,18
2986512,25
2987140,23
2987760,16
2988388,11
2989012,12
2989640,18
2990268,14
2990888,33
2991516,50
2992148,48
2992768,29
2993396,19
2994020,67
2994652,69
2995284,38
2995904,12
2996532,27
2997156,17
2997780,13
2998412,10
2999032,11
2999664,14
3000288,14
3000912,15
3001540,17
3002160,16
3002788,17
3003420,18
3004040,19
3004668,11
3005296,16
3005924,19
3006556,14
3007176,11
3007808,19
3008432,15
3009056,14
3009684,21
3010304,31
3010936,22
3011560,12
3012184,19
3012812,20
3013432,15
3014064,12
3014692,12
3015312,17
3015944,19
3016568,25
3017196,17
3017828,16
3018448,14
3019076,22
3019704,25
3020328,31
3020960,30
3021576,15
3022204,11
3022832,10
3023456,11
3024084,11
3024708,25
3025340,30
3025972,23
3026592,20
3027220,12
3027844,11
3028476,10
3029108,10
3029728,19
3030360,21
3030984,15
3031612,11
3032240,15
3032864,13
3033496,19
3034124,16
3034744,14
3035376,14
3036000,13
3036628,12
3037260,14
3037880,30
3038512,53
3039136,53
3039760,33
3040392,15
3041012,13
3041640,13
3042264,14
3042888,24
3043516,52
3044136,66
3044764,42
3045396,22
3046016,14
3046648,13
3047268,18
3047900,17
3048532,26
3049152,23
3049780,18
3050404,17
3051028,18
3051660,16
3052280,15
3052908,11
3053532,11
3054160,12
3054788,10
3055408,11
3056040,13
3056668,34
3057288,59
3057916,53
3058544,49
3059176,16
3059808,47
3060424,38
3061056,30
3061680,32
3062304,53
3062936,57
3063552,14
3064184,22
3064812,19
3065436,14
3066068,13
3066692,13
3067324,15
3067956,26
3068576,25
3069208,21
3069832,13
3070464,11
3071096,22
3071716,22
3072348,21
3072972,20
3073592,22
3074220,11
3074840,21
3075468,21
3076092,14
3076720,19
3077348,20
3077972,12
3078604,12
3079232,14
3079848,23
3080476,21
3081100,17
3081732,25
3082360,33
3082976,55
3083608,23
3084232,16
3084852,34
3085484,90
3086104,81
3086732,41
3087356,16
3087984,10
3088616,13
3089236,13
3089868,11
3090496,12
3091120,19
3091752,24
3092376,23
3093000,15
3093628,13
3094248,13
3094876,15
3095500,13
3096128,13
3096756,10
3097376,12
3098008,11
3098636,12
3099256,12
3099884,13
3100508,13
3101140,14
3101772,14
3102392,11
3103024,10
3103648,11
3104272,11
3104900,13
3105520,20
3106148,18
3106776,15
3107400,11
3108028,16
3108648,13
3109276,14
3109908,14
3110528,14
3111156,11
3111784,11
3112416,11
3113044,10
3113664,19
3114292,12
3114916,21
3115540,21
3116172,24
3116792,36
3117424,41
3118048,15
3118672,22
3119304,43
3119920,40
3120552,11
3121180,26
3121800,21
3122428,16
3123056,17
3123684,11
3124316,12
3124936,14
3125564,25
3126188,34
3126812,40
3127444,37
3128064,24
3128692,19
3129316,11
3129940,17
3130572,42
3131192,64
3131824,52
3132452,13
3133072,36
3133704,51
3134328,46
3134960,28
3135588,18
3136208,18
3136836,18
3137460,15
3138084,12
3138712,23
3139336,21
3139964,19
3140592,14
3141216,15
3141844,15
3142468,18
3143100,14
3143728,16
3144352,14
3144980,21
3145604,14
3146236,10
3146868,11
3147488,26
3148120,21
3148744,19
3149368,13
3150000,16
3150620,18
3151248,15
3151880,15
3152500,15
3153132,15
3153756,17
3154388,22
3155016,11
3155640,12
3156268,11
3156896,12
3157520,13
3158148,15
3158768,14
3159400,14
3160024,13
3160648,11
3161276,14
3161896,14
3162524,13
3163156,14
3163776,11
3164408,12
3165032,12
3165664,12
3166292,22
3166912,44
3167544,59
3168168,69
3168792,56
3169424,31
3170040,25
3170672,69
3171296,55
3171920,30
3172552,52
3173172,69
3173800,55
3174432,32
3175056,20
3175684,16
3176308,18
3176940,19
3177572,24
3178192,26
3178824,13
3179448,18
3180072,12
3180704,15
3181320,13
3181952,11
3182576,12
3183200,16
3183832,17
3184456,25
3185088,14
3185716,20
3186336,34
3186968,24
3187592,19
3188224,38
3188852,39
3189472,15
3190104,12
3190728,13
3191352,13
3191984,13
3192604,13
3193236,15
3193868,23
3194488,23
3195120,15
3195744,11
3196376,17
3197008,26
3197624,18
3198256,13
3198880,14
3199504,19
3200136,21
3200752,20
3201380,14
3202004,15
3202624,12
3203256,12
3203872,11
3204500,14
3205128,16
3205752,15
3206380,14
3207004,13
3207632,25
3208260,20
3208880,14
3209508,14
3210132,13
3210760,13
3211388,11
3212008,11
3212636,11
3213260,11
3213884,15
3214516,16
3215136,12
3215764,17
3216396,16
3217016,14
3217644,17
3218268,19
3218896,14
3219524,10
3220144,11
3220772,18
3221396,25
3222024,17
3222652,10
3223272,21
3223900,28
3224528,34
3225148,40
3225780,26
3226400,29
3227028,77
3227656,100
3228332,55
3228956,13
3229580,12
3230212,16
3230840,22
3231464,35
3232092,24
3232716,16
3233340,18
3233968,23
3234592,26
3235220,29
3235852,12
3236472,15
3237100,18
3237724,22
3238356,23
3238988,12
3239608,24
3240236,22
3240860,13
3241484,15
3242116,19
3242736,16
3243364,13
3243988,11
3244612,11
3245244,11
3245864,13
3246492,18
3247124,12
3247744,14
3248372,12
3248996,17
3249628,19
3250256,19
3250880,22
3251508,39
3252136,30
3252760,12
3253388,11
3254008,20
3254636,30
3255264,21
3255888,11
3256516,13
3257136,14
3257764,25
3258396,24
3259016,15
3259644,13
3260272,14
3260900,11
3261532,12
3262152,15
3262784,12
3263408,20
3264032,22
3264660,22
3265280,18
3265908,12
3266532,16
3267160,15
3267788,18
3268408,21
3269036,17
3269668,16
3270288,11
3270920,14
3271544,17
3272176,17
3272804,11
3273424,19
3274056,21
3274680,15
3275304,15
3275936,15
3276556,15
3277188,13
3277808,18
3278428,20
3279056,12
3279680,41
3280308,65
3280936,50
3281552,36
3282180,13
3282800,70
3283432,108
3284112,69
3284728,29
3285356,15
3285976,21
3286600,31
3287228,19
3287844,16
3288476,13
3289104,13
3289720,24
3290348,25
3290972,15
3291600,15
3292228,26
3292848,32
3293476,18
3294096,13
3294724,12
3295352,14
3295976,20
3296604,13
3297228,11
3297852,28
3298480,44
3299096,21
3299724,19
3300348,29
3300976,15
3301604,23
3302228,34
3302856,53
3303484,38
3304104,11
3304732,17
3305356,10
3305984,11
3306612,12
3307232,11
3307860,13
3308484,13
3309108,14
3309736,18
3310352,17
3310980,13
3311604,11
3312228,11
3312860,17
3313480,18
3314112,20
3314740,40
3315360,38
3315988,32
3316612,24
3317240,33
3317872,48
3318488,31
3319116,10
3319740,11
3320364,11
3320992,12
3321608,15
3322240,24
3322860,23
3323484,21
3324116,12
3324740,22
3325368,27
3325996,14
3326616,29
3327244,53
3327868,23
3328500,31
3329128,50
3329744,40
3330372,12
3330996,21
3331620,26
3332248,18
3332864,17
3333492,15
3334116,18
3334740,15
3335368,13
3335984,15
3336612,11
3337244,10
3337864,10
3338492,11
3339116,18
3339744,11
3340372,10
3340992,15
3341620,13
3342244,15
3342868,21
3343496,26
3344112,42
3344740,36
3345364,23
3345988,12
3346616,22
3347240,61
3347868,67
3348496,41
3349112,21
3349744,14
3350368,15
3350996,14
3351628,12
3352248,11
3352876,16
3353500,11
3354128,13
3354756,12
3355376,11
3356004,11
3356628,10
3357252,11
3357884,12
3358504,16
3359132,23
3359764,27
3360384,19
3361012,11
3361632,11
3362264,12
3362892,30
3363512,36
3364140,15
3364764,12
3365384,11
3366016,15
3366632,29
3367260,20
3367884,16
3368508,27
3369136,34
3369752,42
3370380,31
3371004,11
3371632,41
3372260,50
3372884,36
3373512,15
3374140,11
3374760,25
3375388,51
3376012,18
3376640,21
3377268,16
3377888,23
3378516,26
3379140,12
3379768,15
3380396,24
3381016,24
3381644,15
3382268,12
3382896,13
3383524,13
3384148,13
3384776,14
3385404,15
3386024,21
3386652,24
3387276,11
3387904,22
3388536,21
3389152,30
3389780,26
3390404,23
3391028,18
3391660,16
3392280,21
3392908,37
3393532,41
3394160,33
3394788,32
3395412,23
3396040,40
3396668,20
3397288,15
3397916,12
3398540,13
3399172,30
3399800,37
3400416,20
3401048,20
3401668,21
3402292,13
3402920,12
3403544,13
3404172,13
3404796,22
3405424,16
3406052,14
3406676,20
3407308,14
3407936,13
3408556,13
3409184,20
3409808,31
3410436,31
3411068,14
3411688,19
3412316,25
3412940,31
3413564,20
3414196,14
3414816,38
3415444,32
3416076,18
3416696,39
3417324,73
3417952,77
3418580,40
3419208,26
3419832,88
3420460,101
3421136,42
3421760,16
3422388,10
3423008,11
3423636,11
3424268,13
3424888,15
3425516,24
3426140,27
3426772,17
3427400,25
3428020,28
3428648,24
3429272,30
3429896,50
3430528,18
3431144,31
3431772,22
3432396,16
3433020,13
3433652,13
3434272,14
3434900,13
3435532,11
3436152,11
3436784,11
3437408,11
3438036,13
3438668,16
3439288,15
3439920,20
3440544,21
3441168,15
3441796,19
3442416,16
3443044,13
3443668,18
3444292,23
3444920,12
3445544,17
3446172,18
3446804,24
3447424,13
3448052,27
3448676,30
3449304,17
3449936,32
3450552,64
3451184,55
3451808,24
3452432,15
3453060,11
3453680,19
3454308,17
3454936,32
3455560,33
3456192,14
3456808,52
3457436,45
3458064,20
3458680,13
3459312,19
3459936,37
3460564,49
3461192,48
3461816,47
3462444,31
3463068,13
3463692,59
3464320,54
3464936,35
3465564,32
3466188,43
3466816,50
3467444,22
3468064,18
3468692,12
3469324,10
3469944,20
3470572,24
3471196,27
3471828,36
3472460,44
3473080,19
3473708,43
3474332,80
3474960,63
3475588,35
3476208,19
3476836,14
3477460,11
3478084,13
3478716,14
3479336,11
3479968,12
3480596,30
3481216,40
3481848,33
3482472,25
3483100,13
3483728,27
3484344,31
3484976,18
3485596,11
3486220,11
3486852,10
3487472,9
3488048,14
3488676,15
3489300,23
3489928,31
3490552,39
3491180,48
3491804,50
3492432,31
3493060,14
3493680,65
3494308,116
3494992,84
3495608,36
3496236,14
3496860,19
3497484,17
3498116,18
3498736,30
3499364,20
3499988,17
3500616,24
3501244,15
3501864,18
3502496,11
3503124,18
3503744,19
3504376,35
3505000,51
3505628,43
3506260,10
3506880,11
3507508,17
3508136,35
3508760,35
3509388,23
3510008,16
3510636,11
3511264,19
3511888,12
3512520,36
3513136,43
3513768,35
3514396,16
3515016,23
3515648,53
3516272,29
3516900,13
3517532,14
3518152,14
3518784,12
3519408,11
3520032,10
3520660,11
3521280,11
3521908,10
3522532,11
3523156,11
3523788,14
3524408,15
3525036,27
3525668,35
3526288,25
3526916,16
3527540,13
3528172,16
3528800,13
3529416,14
3530048,15
3530672,21
3531296,22
3531924,11
3532544,14
3533176,16
3533796,18
3534420,14
3535052,22
3535672,29
3536300,17
3536932,14
3537552,13
3538180,32
3538808,59
3539436,70
3540068,58
3540688,17
3541316,113
3541992,107
3542668,16
3543292,26
3543916,20
3544548,17
3545180,10
3545800,11
3546428,11
3547052,12
3547676,14
3548308,14
3548928,16
3549556,17
3550180,17
3550804,22
3551436,16
3552056,44
3552684,36
3553316,20
3553936,13
3554564,23
3555188,12
3555820,21
3556452,24
3557072,12
3557704,14
3558328,14
3558952,15
3559580,27
3560200,24
3560828,20
3561452,14
3562080,11
3562708,20
3563332,12
3563964,20
3564596,20
3565216,16
3565844,15
3566468,15
3567100,22
3567732,39
3568352,49
3568980,44
3569604,25
3570228,28
3570860,44
3571480,36
3572112,13
3572736,20
3573360,12
3573992,12
3574616,14
3575244,22
3575876,32
3576496,25
3577128,19
3577752,16
3578376,12
3579008,11
3579624,21
3580256,38
3580880,36
3581504,21
3582136,14
3582752,28
3583384,69
3584016,32
3584636,15
3585268,28
3585892,31
3586520,12
3587148,14
3587768,10
3588396,14
3589020,18
3589644,28
3590276,24
3590896,24
3591524,14
3592148,20
3592772,22
3593404,20
3594024,11
3594652,18
3595284,14
3595904,17
3596536,13
3597160,11
3597788,18
3598420,17
3599040,15
3599668,17
3600296,16
3600920,15
3601548,15
3602168,12
3602796,12
3603420,11
3604044,13
3604676,19
3605296,16
3605924,19
3606552,16
3607168,12
3607800,21
3608424,21
3609052,33
3609680,38
3610300,27
3610932,18
3611556,20
3612180,31
3612808,31
3613424,27
3614052,15
3614676,19
3615300,35
3615932,33
3616552,15
3617180,45
3617812,20
3618432,15
3619060,15
3619684,28
3620312,31
3620944,37
3621560,22
3622192,84
3622816,55
3623440,24
3624068,11
3624688,21
3625316,37
3625940,28
3626564,17
3627192,26
3627816,33
3628444,21
3629076,15
3629696,19
3630324,21
3630948,18
3631580,21
3632212,28
3632832,21
3633460,13
3634084,19
3634708,25
3635340,16
3635960,17
3636588,19
3637212,13
3637836,17
3638468,25
3639088,20
3639716,11
3640348,14
3640968,19
3641596,13
3642220,16
3642852,37
3643484,28
3644104,13
3644732,22
3645360,43
3645984,28
3646612,12
3647232,12
3647860,19
3648488,44
3649108,35
3649740,18
3650360,23
3650988,17
3651620,16
3652240,33
3652868,25
3653492,11
3654124,21
3654752,12
3655376,12
3656004,11
3656628,11
3657252,15
3657884,12
3658504,13
3659132,13
3659760,19
3660384,17
3661012,13
3661636,11
3662268,15
3662900,12
3663520,52
3664148,76
3664776,60
3665404,32
3666036,14
3666656,47
3667284,55
3667908,22
3668532,29
3669164,40
3669784,20
3670412,15
3671040,17
3671664,69
3672296,55
3672920,12
3673552,13
3674184,14
3674800,14
3675432,17
3676056,18
3676680,20
3677312,10
3677928,17
3678560,15
3679184,19
3679808,19
3680440,12
3681056,19
3681684,25
3682316,22
3682936,25
3683568,25
3684192,15
3684820,15
3685452,14
3686072,27
3686704,29
3687324,25
3687948,20
3688580,62
3689200,59
3689828,28
3690452,25
3691072,19
3691704,12
3692320,13
3692952,15
3693580,11
3694200,13
3694828,21
3695452,23
3696084,14
3696712,11
3697328,12
3697956,11
3698580,12
3699204,20
3699836,17
3700456,16
3701084,15
3701708,13
3702336,25
3702964,26
3703584,31
3704216,63
3704844,22
3705464,11
3706096,20
3706720,23
3707348,25
3707980,16
3708600,15
3709228,13
3709856,17
3710480,14
3711108,12
3711728,24
3712360,13
3712984,17
3713604,22
3714236,26
3714856,20
3715484,21
3716116,40
3716736,21
3717364,19
3717988,39
3718620,36
3719252,25
3719872,12
3720500,29
3721124,45
3721748,34
3722380,16
3723000,17
3723628,30
3724256,20
3724880,25
3725508,37
3726128,32
3726756,22
3727388,22
3728008,12
3728636,11
3729260,18
3729892,18
3730520,25
3731140,28
3731772,18
3732396,13
3733020,17
3733648,21
3734272,15
3734904,14
3735528,22
3736152,29
3736784,18
3737400,12
3738032,11
3738660,10
3739280,13
3739908,10
3740532,16
3741164,23
3741796,14
3742416,15
3743044,13
3743672,18
3744296,21
3744924,11
3745544,14
3746172,19
3746800,15
3747424,13
3748052,22
3748676,12
3749308,14
3749936,14
3750560,15
3751188,21
3751812,24
3752444,13
3753076,10
3753696,10
3754324,11
3754952,22
3755576,29
3756204,34
3756824,35
3757452,35
3758084,31
3758704,29
3759336,15
3759960,31
3760592,69
3761224,58
3761840,33
3762472,15
3763096,29
3763720,32
3764352,16
3764968,23
3765596,65
3766224,76
3766848,31
3767480,14
3768096,14
3768728,21
3769356,19
3769976,12
3770604,15
3771228,14
3771860,10
3772488,20
3773112,37
3773744,44
3774368,24
3774992,15
3775624,56
3776244,55
3776872,33
3777496,12
3778120,21
3778748,19
3779368,12
3779996,15
3780628,14
3781248,13
3781876,12
3782504,15
3783132,15
3783764,14
3784384,16
3785012,14
3785640,13
3786264,13
3786892,21
3787512,27
3788144,25
3788768,18
3789392,22
3790024,11
3790640,25
3791272,21
3791904,17
3792520,16
3793152,14
3793776,19
3794408,15
3795036,18
3795656,11
3796284,11
3796912,11
3797536,13
3798164,17
3798784,17
3799416,20
3800040,25
3800664,25
3801292,17
3801912,11
3802544,13
3803172,20
3803792,30
3804424,41
3805048,44
3805676,27
3806308,14
3806928,27
3807560,41
3808184,55
3808808,42
3809436,18
3810056,13
3810684,13
3811312,17
3811936,43
3812564,42
3813192,20
3813820,41
3814452,70
3815072,57
3815704,51
3816328,15
3816956,41
3817588,36
3818208,17
3818840,22
3819464,51
3820088,18
3820720,14
3821340,11
3821968,11
3822600,16
3823224,38
3823856,48
3824480,40
3825112,24
3825740,37
3826360,74
3826992,40
3827616,24
3828240,11
3828872,11
3829492,23
3830124,23
3830748,15
3831372,15
3832004,14
3832624,15
3833256,14
3833888,19
3834504,29
3835136,17
3835764,11
3836396,15
3837028,14
3837648,11
3838280,18
3838908,13
3839532,14
3840168,30
3840784,42
3841412,37
3842036,19
3842656,15
3843288,15
3843912,32
3844540,36
3845172,46
3845792,17
3846420,49
3847044,89
3847672,91
3848304,72
3848924,31
3849552,19
3850180,14
3850804,14
3851432,15
3852052,13
3852680,10
3853304,13
3853928,15
3854556,13
3855180,11
3855812,14
3856444,12
3857064,14
3857692,14
3858316,13
3858948,14
3859576,12
3860200,11
3860828,11
3861452,10
3862076,11
3862708,12
3863328,12
3863956,13
3864588,11
3865208,13
3865840,14
3866460,13
3867092,13
3867720,14
3868344,13
3868972,11
3869596,13
3870224,12
3870852,11
3871472,11
3872104,11
3872724,11
3873348,12
3873980,12
3874600,13
3875228,13
3875860,14
3876480,29
3877108,31
3877736,22
3878364,11
3878996,14
3879616,28
3880248,17
3880872,16
3881496,13
3882124,18
3882744,22
3883376,14
3884000,18
3884624,13
3885252,16
3885872,15
3886504,23
3887132,39
3887752,33
3888384,20
3889008,32
3889640,87
3890268,92
3890888,53
3891520,15
3892140,25
3892764,20
3893396,14
3894016,13
3894644,11
3895268,14
3895892,17
3896524,28
3897144,16
3897772,13
3898404,12
3899024,16
3899652,23
3900280,27
3900908,13
3901540,19
3902160,37
3902792,24
3903416,13
3904040,11
3904668,10
3905288,13
3905916,11
3906540,15
3907168,13
3907796,15
3908424,17
3909052,17
3909684,14
3910304,14
3910936,11
3911560,12
3912192,21
3912820,32
3913440,29
3914072,21
3914696,19
3915320,21
3915952,48
3916572,54
3917200,33
3917832,24
3918452,16
3919080,10
3919708,11
3920336,12
3920968,13
3921584,17
3922216,24
3922840,12
3923464,18
3924092,18
3924712,19
3925344,15
3925968,17
3926592,31
3927224,12
3927840,11
3928472,17
3929104,32
3929720,20
3930352,12
3930976,11
3931608,11
3932236,12
3932856,13
3933484,13
3934108,15
3934732,14
3935364,10
3935984,14
3936616,13
3937240,11
3937864,15
3938492,17
3939112,15
3939744,11
3940372,10
3940992,13
3941620,17
3942244,17
3942876,15
3943508,18
3944128,18
3944756,14
3945380,21
3946004,13
3946636,10
3947256,21
3947884,31
3948508,30
3949132,18
3949764,19
3950384,27
3951016,48
3951644,40
3952264,30
3952892,20
3953516,21
3954148,14
3954776,14
3955400,23
3956028,12
3956652,13
3957276,22
3957908,24
3958528,20
3959156,18
3959784,17
3960408,12
3961036,15
3961656,14
3962284,15
3962916,12
3963536,12
3964164,11
3964788,15
3965420,12
3966052,16
3966672,17
3967304,14
3967928,14
3968552,12
3969184,11
3969800,11
3970428,21
3971052,28
3971676,19
3972308,17
3972932,27
3973564,30
3974196,14
3974816,19
3975444,25
3976068,26
3976700,27
3977328,26
3977952,12
3978584,23
3979204,15
3979828,15
3980460,12
3981080,13
3981708,18
3982332,60
3982960,72
3983592,35
3984216,19
3984844,21
3985476,10
3986096,15
3986724,23
3987352,11
3987976,36
3988608,49
3989224,35
3989856,12
3990480,20
3991104,42
3991732,42
3992352,30
3992984,17
3993616,17
3994232,19
3994860,11
3995488,13
3996116,11
3996748,18
3997368,15
3998000,11
3998624,11
3999248,14
3999880,14
4000496,14
4001124,13
4001748,11
4002372,15
4003004,23
4003624,31
4004252,30
4004884,27
4005504,22
4006132,13
4006756,13
4007388,13
4008016,19
4008632,17
4009260,15
4009884,12
4010508,14
4011140,14
4011760,35
4012388,52
4013016,68
4013640,60
4014268,28
4014888,12
4015516,12
4016148,12
4016768,14
4017396,13
4018020,15
4018652,11
4019280,16
4019896,15
4020524,13
4021148,11
4021772,23
4022400,22
4023024,33
4023652,41
4024276,21
4024900,41
4025532,36
4026152,19
4026780,19
4027412,18
4028032,11
4028660,16
4029288,12
4029916,11
4030548,14
4031168,23
4031800,30
4032424,29
4033048,22
4033676,17
4034296,15
4034924,17
4035548,13
4036172,15
4036804,10
4037424,16
4038052,27
4038684,27
4039304,18
4039932,17
4040560,16
4041188,33
4041820,32
4042440,19
4043068,13
4043692,13
4044316,23
4044948,23
4045568,19
4046196,13
4046820,43
4047444,51
4048076,31
4048696,31
4049324,25
4049956,24
4050576,73
4051204,65
4051828,58
4052460,47
4053088,30
4053712,16
4054344,13
4054968,27
4055592,42
4056224,29
4056840,15
4057468,14
4058096,14
4058720,25
4059348,25
4059972,26
4060604,15
4061236,16
4061856,35
4062488,47
4063112,37
4063740,16
4064372,11
4064992,12
4065620,16
4066244,19
4066868,22
4067500,24
4068120,34
4068752,29
4069380,17
4070000,15
4070632,21
4071256,19
4071884,19
4072516,14
4073136,12
4073768,16
4074392,23
4075016,22
4075648,28
4076264,14
4076896,37
4077520,62
4078144,59
4078776,14
4079392,48
4080024,102
4080704,102
4081380,38
4082008,12
4082628,17
4083256,23
4083884,28
4084504,16
4085132,11
4085760,15
4086384,13
4087016,14
4087640,13
4088272,14
4088900,34
4089520,35
4090152,19
4090776,14
4091400,13
4092032,14
4092652,15
4093284,13
4093908,10
4094532,12
4095164,10
4095784,10
4096420,13
4097044,11
4097660,19
4098288,24
4098908,15
4099536,19
4100164,26
4100780,14
4101412,26
4102032,17
4102660,10
4103288,21
4103912,12
4104540,14
4105164,11
4105784,13
4106412,11
4107028,12
4107660,13
4108284,17
4108904,19
4109532,13
4110156,19
4110784,17
4111412,11
4112032,11
4112660,12
4113280,13
4113912,11
4114540,11
4115160,12
4115788,21
4116412,22
4117036,23
4117664,22
4118288,14
4118916,26
4119540,28
4120164,30
4120792,34
4121416,27
4122044,17
4122672,29
4123296,20
4123924,17
4124548,28
4125176,26
4125804,25
4126424,14
4127052,19
4127676,14
4128300,10
4128928,35
4129544,48
4130176,39
4130796,15
4131420,52
4132052,91
4132672,56
4133304,15
4133932,12
4134552,14
4135180,13
4135804,13
4136436,17
4137064,15
4137680,11
4138308,11
4138932,11
4139556,11
4140184,12
4140800,20
4141428,21
4142052,14
4142680,20
4143308,51
4143928,61
4144556,41
4145188,10
4145808,23
4146436,36
4147060,49
4147692,29
4148320,15
4148936,20
4149564,17
4150188,16
4150812,14
4151440,18
4152064,26
4152692,33
4153316,32
4153940,23
4154572,17
4155192,16
4155820,16
4156452,15
4157072,11
4157700,13
4158324,16
4158956,38
4159588,58
4160208,70
4160836,74
4161456,30
4162080,27
4162708,40
4163328,43
4163956,22
4164580,18
4165200,30
4165832,16
4166448,16
4167076,33
4167704,30
4168328,22
4168956,11
4169576,11
4170208,27
4170836,36
4171456,13
4172084,18
4172708,17
4173332,13
4173964,12
4174584,14
4175212,24
4175836,35
4176460,29
4177092,16
4177712,12
4178340,17
4178972,34
4179592,37
4180220,28
4180844,16
4181472,15
4182100,14
4182720,18
4183348,14
4183972,13
4184596,16
4185224,13
4185848,27
4186476,18
4187100,16
4187724,21
4188352,22
4188976,27
4189604,28
4190232,19
4190852,13
4191480,40
4192104,44
4192736,21
4193364,22
4193984,22
4194612,19
4195236,12
4195860,19
4196488,15
4197104,14
4197736,11
4198360,32
4198984,33
4199612,15
4200232,37
4200860,25
4201488,26
4202104,20
4202736,14
4203360,16
4203988,10
4204616,14
4205240,22
4205868,12
4206492,13
4207116,28
4207744,14
4208368,15
4208996,14
4209620,14
4210244,19
4210872,22
4211492,16
4212120,13
4212748,10
4213368,13
4213996,16
4214620,13
4215252,11
4215880,14
4216504,21
4217132,23
4217756,33
4218380,26
4219012,14
4219632,31
4220260,45
4220884,30
4221508,27
4222140,29
4222760,15
4223388,12
4224020,18
4224636,25
4225268,16
4225892,14
4226520,13
4227148,11
4227768,12
4228396,14
4229020,27
4229644,27
4230272,20
4230896,18
4231524,19
4232148,13
4232772,34
4233404,59
4234024,37
4234652,15
4235284,10
4235904,11
4236532,16
4237160,21
4237788,13
4238420,10
4239040,17
4239668,26
4240292,36
4240916,18
4241548,13
4242168,23
4242796,29
4243420,13
4244044,15
4244672,19
4245296,21
4245924,16
4246556,14
4247176,13
4247804,19
4248432,30
4249060,34
4249692,24
4250312,16
4250940,15
4251564,13
4252188,12
4252816,12
4253440,10
4254068,13
4254692,11
4255316,13
4255948,14
4256568,11
4257196,14
4257828,16
4258448,18
4259076,17
4259704,14
4260332,13
4260960,12
4261584,11
4262212,14
4262836,17
4263460,20
4264088,22
4264704,19
4265332,14
4265956,18
4266580,19
4267208,25
4267832,30
4268460,24
4269092,20
4269712,13
4270340,16
4270964,17
4271596,15
4272228,24
4272848,29
4273476,12
4274100,38
4274724,34
4275356,16
4275976,28
4276604,59
4277228,54
4277852,35
4278484,25
4279104,28
4279736,25
4280368,16
4280984,14
4281612,24
4282236,18
4282864,21
4283492,32
4284112,31
4284744,26
4285368,11
4285992,17
4286620,27
4287240,19
4287868,16
4288496,17
4289116,10
4289748,11
4290372,12
4291004,17
4291632,18
4292248,18
4292880,19
4293504,12
4294132,23
4294764,24
4295384,12
4296012,16
4296636,20
4297260,21
4297892,34
4298512,53
4299144,49
4299768,22
4300392,24
4301024,33
4301648,65
4302276,56
4302904,33
4303520,24
4304152,15
4304776,25
4305404,37
4306032,28
4306656,11
4307284,17
4307908,14
4308532,14
4309160,14
4309784,16
4310412,12
4311036,11
4311664,13
4312296,19
4312920,15
4313548,13
4314180,14
4314800,15
4315428,13
4316052,14
4316680,15
4317308,17
4317928,23
4318556,12
4319184,13
4319808,43
4320440,55
4321056,40
4321684,36
4322316,23
4322936,11
4323564,35
4324188,45
4324820,37
4325448,43
4326064,36
4326696,22
4327320,17
4327944,12
4328572,16
4329192,12
4329820,10
4330444,11
4331068,11
4331700,14
4332320,19
4332948,17
4333580,16
4334200,16
4334828,12
4335452,12
4336084,24
4336712,34
4337336,22
4337964,11
4338588,19
4339212,22
4339844,20
4340464,21
4341096,20
4341720,19
4342344,18
4342972,15
4343592,12
4344224,11
4344852,10
4345472,12
4346104,11
4346728,11
4347356,13
4347988,14
4348608,15
4349236,13
4349864,29
4350488,29
4351116,22
4351736,20
4352368,11
4352992,11
4353616,21
4354244,10
4354864,18
4355492,36
4356124,42
4356744,19
4357372,17
4357996,17
4358628,13
4359256,13
4359880,17
4360508,17
4361132,11
4361756,13
4362388,16
4363008,24
4363636,15
4364260,11
4364884,12
4365512,14
4366132,14
4366760,13
4367388,12
4368008,15
4368636,13
4369260,10
4369892,16
4370520,15
4371140,12
4371768,30
4372396,36
4373020,21
4373648,11
4374272,19
4374904,33
4375528,36
4376152,18
4376780,10
4377400,10
4378032,11
4378660,14
4379280,13
4379908,11
4380536,11
4381164,11
4381796,12
4382416,14
4383048,29
4383672,34
4384296,53
4384924,48
4385544,22
4386172,15
4386796,56
4387420,81
4388052,77
4388676,39
4389308,15
4389936,24
4390556,22
4391188,13
4391812,16
4392444,14
4393072,12
4393692,13
4394320,14
4394944,11
4395568,23
4396196,18
4396816,12
4397444,14
4398068,15
4398696,20
4399328,15
4399952,20
4400584,13
4401212,18
4401832,30
4402464,15
4403088,11
4403720,13
4404348,32
4404968,38
4405596,19
4406220,16
4406844,16
4407476,12
4408096,27
4408724,52
4409356,56
4409976,40
4410604,12
4411228,35
4411860,58
4412488,46
4413112,29
4413744,17
4414368,12
4414992,12
4415624,14
4416240,14
4416872,15
4417496,17
4418120,28
4418748,33
4419368,16
4419996,18
4420628,14
4421248,13
4421876,22
4422504,41
4423132,41
4423764,40
4424384,15
4425012,20
4425636,25
4426260,20
4426888,13
4427504,19
4428136,11
4428760,24
4429384,34
4430012,26
4430632,21
4431260,20
4431892,14
4432512,17
4433140,17
4433764,13
4434396,14
4435028,15
4435648,25
4436276,26
4436900,24
4437524,13
4438156,10
4438776,12
4439408,12
4440032,11
4440656,15
4441284,15
4441904,20
4442532,17
4443164,11
4443784,15
4444416,14
4445040,15
4445668,11
4446296,22
4446920,13
4447548,16
4448176,29
4448800,31
4449428,30
4450048,27
4450676,24
4451300,14
4451928,40
4452556,44
4453176,35
4453808,25
4454436,16
4455056,12
4455684,12
4456308,16
4456940,14
4457572,12
4458192,16
4458824,17
4459448,14
4460072,11
4460704,11
4461320,13
4461952,21
4462576,20
4463200,14
4463832,16
4464456,17
4465088,25
4465716,28
4466336,27
4466968,17
4467592,15
4468220,24
4468852,40
4469472,36
4470104,25
4470728,17
4471352,10
4471984,11
4472604,11
4473236,11
4473864,14
4474488,17
4475120,17
4475744,14
4476376,13
4477008,11
4477624,13
4478256,15
4478880,14
4479504,15
4480136,12
4480752,19
4481380,29
4482004,41
4482628,22
4483256,14
4483876,34
4484504,55
4485132,49
4485752,33
4486380,17
4487004,17
4487636,43
4488264,50
4488888,41
4489516,20
4490140,11
4490764,21
4491396,20
4492016,15
4492644,14
4493268,13
4493896,13
4494524,19
4495144,25
4495776,11
4496404,19
4497024,14
4497652,17
4498276,22
4498908,15
4499540,38
4500160,44
4500788,14
4501416,14
4502040,11
4502672,11
4503288,11
4503920,12
4504544,11
4505168,13
4505800,22
4506416,27
4507044,24
4507672,13
4508296,18
4508924,16
4509548,17
4510176,11
4510808,21
4511424,18
4512056,27
4512676,29
4513300,38
4513932,28
4514552,13
4515180,41
4515808,56
4516432,35
4517060,19
4517680,16
4518308,13
4518940,12
4519560,11
4520188,13
4520812,29
4521444,40
4522072,30
4522696,12
4523324,17
4523952,23
4524576,23
4525204,21
4525824,16
4526452,11
4527076,11
4527704,12
4528332,11
4528952,13
4529580,17
4530212,17
4530832,16
4531464,21
4532084,26
4532716,45
4533344,31
4533968,14
4534596,20
4535224,27
4535848,26
4536476,23
4537096,23
4537728,19
4538348,17
4538976,12
4539604,11
4540228,12
4540860,13
4541492,23
4542112,25
4542744,17
4543368,29
4544000,47
4544628,43
4545248,33
4545880,13
4546504,41
4547128,88
4547756,62
4548376,31
4549008,22
4549628,14
4550256,17
4550888,21
4551512,27
4552140,15
4552772,10
4553392,10
4554024,17
4554648,16
4555272,12
4555904,10
4556520,12
4557152,14
4557776,12
4558400,20
4559032,16
4559652,12
4560280,11
4560912,13
4561528,13
4562160,13
4562784,12
4563412,11
4564044,16
4564664,13
4565292,13
4565916,14
4566544,14
4567172,16
4567792,16
4568424,13
4569048,13
4569672,13
4570300,21
4570920,26
4571548,11
4572180,10
4572800,17
4573428,19
4574056,13
4574684,16
4575316,13
4575936,13
4576568,14
4577196,23
4577820,21
4578448,26
4579072,21
4579704,17
4580328,14
4580952,13
4581584,19
4582204,24
4582832,13
4583464,49
4584084,75
4584712,28
4585340,11
4585972,12
4586600,10
4587224,12
4587856,20
4588480,13
4589104,12
4589732,12
4590352,13
4590984,17
4591608,20
4592232,19
4592860,15
4593484,10
4594116,14
4594748,10
4595368,13
4595996,11
4596620,12
4597252,11
4597884,18
4598504,19
4599132,13
4599760,13
4600384,15
4601012,15
4601632,11
4602260,11
4602892,18
4603512,27
4604144,31
4604768,24
4605400,19
4606028,10
4606648,11
4607280,15
4607904,26
4608528,29
4609160,15
4609776,35
4610404,33
4611028,25
4611652,17
4612280,25
4612896,12
4613528,11
4614156,15
4614776,13
4615404,21
4616028,39
4616656,27
4617288,20
4617904,17
4618532,25
4619156,40
4619784,25
4620412,12
4621032,11
4621660,12
4622284,15
4622908,15
4623540,14
4624160,25
4624788,20
4625420,15
4626040,15
4626668,11
4627292,16
4627924,27
4628552,23
4629176,13
4629804,15
4630428,15
4631052,16
4631684,10
4632304,16
4632936,15
4633560,14
4634184,16
4634812,12
4635432,15
4636060,15
4636692,20
4637312,18
4637944,10
4638568,14
4639196,28
4639828,32
4640448,15
4641076,34
4641700,18
4642324,14
4642952,12
4643576,22
4644204,27
4644828,12
4645452,22
4646084,15
4646704,22
4647332,27
4647964,26
4648584,21
4649212,18
4649836,20
4650468,23
4651096,24
4651720,25
4652348,13
4652972,40
4653596,42
4654228,12
4654848,13
4655476,15
4656104,19
4656728,17
4657356,12
4657976,14
4658608,13
4659236,13
4659856,12
4660484,12
4661108,11
4661740,14
4662368,11
4662988,11
4663616,11
4664244,12
4664868,11
4665496,13
4666116,17
4666748,27
4667372,23
4667996,18
4668628,12
4669252,11
4669884,10
4670512,11
4671132,20
4671760,29
4672388,41
4673016,46
4673644,15
4674264,45
4674892,65
4675516,43
4676140,41
4676772,40
4677392,22
4678020,11
4678648,21
4679272,20
4679900,13
4680524,13
4681156,24
4681784,29
4682408,27
4683036,19
4683660,13
4684292,16
4684924,18
4685544,14
4686172,15
4686796,21
4687424,25
4688052,12
4688672,21
4689300,20
4689932,22
4690552,23
4691180,13
4691808,31
4692436,26
4693068,14
4693688,33
4694320,17
4694944,13
4695568,11
4696200,17
4696816,22
4697444,19
4698072,12
4698696,17
4699328,17
4699944,14
4700576,19
4701208,16
4701824,23
4702456,28
4703080,17
4703712,13
4704344,17
4704960,23
4705592,31
4706216,19
4706844,14
4707472,19
4708096,20
4708728,15
4709352,14
4709976,11
4710608,14
4711232,11
4711860,11
4712492,12
4713112,12
4713744,11
4714368,11
4714996,21
4715628,22
4716248,18
4716876,18
4717500,13
4718128,24
4718756,37
4719376,24
4720008,13
4720632,25
4721256,25
4721884,26
4722512,23
4723140,11
4723772,14
4724392,23
4725024,19
4725648,40
4726276,35
4726908,40
4727528,31
4728160,11
4728784,27
4729408,35
4730040,21
4730656,16
4731288,17
4731920,41
4732540,51
4733168,17
4733796,17
4734424,15
4735056,11
4735676,13
4736308,23
4736932,13
4737556,16
4738188,22
4738808,24
4739436,11
4740064,15
4740688,21
4741316,14
4741936,21
4742568,21
4743196,14
4743816,15
4744448,23
4745072,26
4745700,12
4746332,14
4746952,13
4747584,11
4748208,11
4748832,15
4749460,21
4750080,26
4750712,25
4751336,21
4751960,13
4752592,12
4753216,13
4753844,12
4754476,10
4755096,13
4755728,16
4756352,14
4756984,16
4757612,16
4758232,16
4758864,13
4759488,14
4760112,13
4760744,11
4761360,13
4761992,15
4762616,12
4763240,13
4763868,16
4764496,20
4765124,17
4765756,13
4766376,14
4767008,15
4767632,17
4768264,13
4768892,12
4769512,20
4770144,17
4770768,20
4771392,25
4772024,11
4772640,23
4773268,25
4773900,20
4774520,20
4775148,14
4775776,18
4776404,15
4777036,31
4777656,47
4778284,33
4778912,12
4779536,53
4780168,95
4780784,96
4781416,74
4782040,36
4782668,13
4783296,16
4783920,15
4784552,24
4785184,27
4785804,16
4786432,12
4787060,20
4787692,19
4788324,21
4788944,24
4789576,17
4790200,20
4790824,14
4791456,13
4792076,17
4792708,13
4793332,10
4793956,11
4794588,12
4795212,10
4795844,16
4796476,18
4797096,16
4797728,13
4798356,11
4798984,13
4799616,14
4800236,18
4800864,22
4801488,19
4802112,17
4802740,11
4803360,13
4803988,14
4804620,14
4805240,15
4805868,11
4806492,23
4807124,29
4807752,22
4808376,15
4809004,18
4809628,15
4810252,17
4810884,14
4811504,15
4812136,12
4812760,18
4813384,34
4814012,28
4814632,25
4815260,17
4815892,14
4816512,14
4817140,15
4817764,19
4818396,16
4819024,10
4819648,11
4820276,16
4820900,20
4821524,16
4822156,19
4822776,51
4823408,39
4824032,47
4824656,45
4825284,15
4825904,32
4826532,35
4827164,32
4827784,34
4828416,34
4829040,18
4829668,14
4830300,19
4830920,19
4831552,13
4832176,18
4832800,13
4833432,15
4834048,30
4834680,43
4835304,25
4835928,15
4836556,26
4837176,23
4837804,13
4838436,25
4839056,13
4839684,14
4840308,19
4840940,21
4841568,18
4842192,14
4842824,13
4843448,11
4844072,13
4844700,13
4845320,12
4845948,11
4846576,12
4847200,11
4847828,13
4848456,13
4849084,15
4849716,12
4850336,14
4850968,14
4851592,12
4852224,11
4852852,12
4853472,15
4854104,13
4854728,11
4855352,11
4855984,12
4856604,20
4857232,17
4857864,19
4858480,24
4859112,29
4859736,16
4860368,12
4860996,10
4861616,15
4862248,13
4862872,13
4863496,13
4864128,12
4864744,12
4865372,15
4865996,13
4866620,15
4867252,14
4867872,17
4868500,16
4869132,12
4869752,15
4870384,10
4871008,11
4871640,11
4872268,11
4872888,14
4873520,27
4874144,24
4874768,14
4875396,16
4876016,24
4876644,29
4877272,27
4877896,13
4878524,10
4879144,10
4879776,13
4880404,16
4881024,11
4881652,19
4882276,25
4882908,37
4883540,28
4884160,14
4884788,29
4885416,43
4886040,32
4886668,35
4887288,24
4887916,11
4888544,14
4889168,13
4889800,10
4890416,13
4891044,13
4891676,14
4892296,15
4892928,13
4893552,11
4894180,12
4894812,19
4895432,19
4896064,15
4896688,15
4897308,23
4897940,20
4898560,19
4899188,15
4899816,19
4900440,14
4901072,26
4901688,26
4902320,21
4902952,15
4903572,22
4904204,31
4904828,16
4905460,22
4906088,24
4906712,25
4907344,36
4907968,16
4908596,46
4909228,60
4909848,55
4910480,41
4911112,15
4911732,16
4912364,22
4912988,16
4913620,13
4914252,16
4914872,21
4915504,19
4916128,13
4916752,15
4917380,14
4918000,15
4918628,16
4919252,11
4919876,17
4920508,11
4921128,11
4921756,14
4922384,14
4923008,13
4923636,13
4924260,13
4924892,15
4925520,13
4926140,13
4926768,11
4927392,11
4928016,15
4928644,28
4929264,30
4929892,22
4930516,13
4931140,13
4931772,12
4932392,15
4933020,23
4933652,18
4934272,20
4934904,12
4935528,19
4936156,13
4936788,11
4937408,17
4938036,16
4938660,25
4939284,33
4939916,44
4940536,19
4941168,17
4941788,17
4942412,13
4943044,12
4943664,18
4944296,14
4944924,11
4945544,14
4946176,14
4946800,14
4947428,11
4948056,11
4948680,15
4949308,29
4949932,39
4950560,35
4951188,22
4951808,11
4952440,15
4953064,11
4953688,22
4954316,24
4954936,14
4955568,13
4956196,11
4956816,13
4957444,15
4958068,26
4958700,17
4959332,16
4959952,25
4960584,28
4961208,23
4961832,18
4962460,18
4963080,20
4963708,11
4964336,14
4964960,16
4965588,17
4966212,16
4966844,13
4967472,22
4968096,34
4968724,31
4969348,16
4969980,10
4970608,10
4971228,10
4971856,21
4972480,26
4973104,17
4973732,14
4974352,16
4974984,25
4975608,37
4976232,15
4976864,13
4977484,25
4978116,12
4978748,12
4979368,15
4979996,22
4980624,16
4981252,12
4981884,18
4982504,17
4983132,14
4983760,17
4984384,14
4985012,11
4985632,12
4986260,11
4986892,10
4987512,11
4988144,13
4988768,30
4989400,27
4990032,26
4990648,15
4991280,18
4991904,35
4992532,30
4993160,12
4993776,14
4994408,23
4995032,13
4995656,13
4996288,12
4996904,19
4997536,24
4998164,22
4998784,17
4999412,15
5000036,13
5000668,14
5001296,14
5001916,12
5002548,13
5003172,27
5003796,40
5004428,35
5005048,16
5005676,17
5006300,42
5006928,54
5007556,22
5008176,15
5008804,15
5009436,12
5010056,12
5010684,13
5011312,11
5011940,11
5012572,12
5013192,17
5013824,15
5014448,18
5015072,15
5015704,15
5016320,15
5016952,17
5017576,16
5018204,31
5018836,21
5019460,15
5020088,14
5020716,10
5021336,15
5021968,16
5022592,15
5023224,13
5023852,14
5024472,19
5025100,23
5025728,20
5026352,15
5026984,17
5027600,29
5028232,31
5028856,12
5029480,13
5030112,11
5030736,12
5031364,11
5031996,14
5032616,13
5033248,15
5033872,15
5034504,12
5035136,11
5035752,17
5036384,15
5037012,11
5037636,13
5038268,11
5038888,11
5039520,11
5040148,14
5040768,16
5041396,14
5042024,15
5042652,13
5043284,12
5043904,14
5044532,19
5045160,24
5045784,20
5046412,14
5047032,12
5047664,13
5048288,12
5048912,29
5049544,37
5050164,22
5050792,19
5051424,24
5052044,30
5052676,41
5053300,29
5053932,13
5054564,10
5055184,14
5055816,26
5056440,30
5057064,22
5057696,28
5058316,25
5058948,23
5059572,47
5060196,43
5060828,19
5061452,13
5062084,15
5062712,15
5063336,12
5063968,13
5064592,15
5065224,13
5065856,13
5066472,15
5067104,26
5067732,30
5068356,24
5068988,25
5069608,17
5070236,11
5070868,14
5071488,14
5072120,13
5072744,13
5073376,12
5074004,19
5074624,23
5075256,14
5075880,17
5076504,19
5077136,16
5077752,22
5078388,41
5079012,27
5079640,27
5080272,35
5080888,34
5081520,17
5082152,24
5082768,57
5083400,50
5084024,30
5084656,18
5085288,10
5085904,10
5086536,11
5087160,13
5087784,16
5088416,10
5089032,11
5089664,13
5090288,27
5090912,35
5091544,20
5092168,21
5092800,47
5093428,44
5094048,30
5094680,16
5095304,11
5095936,11
5096568,14
5097188,16
5097820,16
5098444,16
5099068,15
5099700,16
5100320,27
5100952,25
5101580,17
5102200,10
5102832,12
5103460,12
5104092,11
5104724,13
5105344,15
5105976,12
5106600,17
5107224,15
5107856,15
5108476,15
5109108,13
5109736,27
5110360,33
5110992,24
5111616,13
5112252,13
5112884,20
5113504,21
5114140,21
5114764,18
5115396,20
5116032,16
5116652,14
5117284,14
5117912,11
5118536,11
5119172,10
5119796,12
5120428,17
5121056,18
5121672,18
5122300,14
5122924,15
5123552,13
5124184,22
5124800,26
5125428,17
5126052,15
5126676,12
5127304,11
5127920,11
5128548,11
5129172,14
5129796,17
5130424,18
5131048,14
5131676,11
5132304,12
5132928,14
5133556,14
5134180,16
5134808,14
5135440,12
5136056,11
5136684,11
5137308,15
5137932,15
5138560,15
5139176,11
5139808,11
5140432,13
5141056,13
5141684,26
5142304,30
5142932,28
5143564,24
5144184,13
5144812,28
5145436,44
5146068,21
5146696,10
5147320,17
5147948,25
5148572,33
5149196,33
5149828,20
5150448,17
5151076,20
5151700,21
5152328,20
5152956,11
5153576,17
5154204,19
5154836,20
5155456,20
5156084,16
5156708,14
5157340,13
5157972,13
5158592,15
5159220,13
5159844,11
5160468,11
5161100,10
5161720,16
5162348,17
5162972,12
5163596,12
5164224,11
5164848,16
5165476,39
5166108,28
5166728,15
5167356,13
5167980,14
5168612,11
5169244,13
5169864,15
5170492,13
5171120,12
5171744,15
5172372,20
5172992,19
5173620,15
5174244,16
5174868,23
5175500,16
5176120,12
5176748,11
5177380,10
5178000,11
5178628,10
5179252,11
5179884,11
5180512,11
5181136,12
5181768,15
5182388,25
5183016,20
5183644,17
5184264,15
5184892,12
5185516,11
5186140,11
5186772,11
5187392,11
5188024,11
5188652,12
5189272,12
5189900,25
5190528,28
5191156,29
5191788,28
5192408,19
5193036,29
5193660,57
5194288,37
5194916,16
5195536,17
5196168,11
5196792,17
5197416,22
5198048,18
5198672,14
5199304,29
5199932,36
5200552,14
5201184,21
5201808,25
5202436,38
5203068,71
5203688,64
5204316,47
5204940,24
5205564,13
5206196,26
5206816,34
5207444,29
5208076,26
5208696,24
5209324,13
5209952,12
5210580,10
5211212,14
5211832,20
5212464,20
5213088,15
5213712,23
5214344,26
5214960,18
5215592,15
5216216,15
5216840,30
5217468,27
5218088,15
5218716,11
5219348,13
5219968,22
5220600,22
5221224,11
5221852,22
5222484,16
5223104,13
5223732,14
5224356,13
5224980,14
5225608,15
5226232,13
5226860,15
5227488,14
5228112,11
5228740,10
5229360,12
5229988,12
5230620,10
5231240,13
5231872,14
5232496,15
5233128,13
5233756,14
5234376,15
5235008,13
5235632,12
5236256,12
5236884,11
5237504,13
5238136,14
5238760,13
5239384,12
5240016,14
5240632,16
5241264,15
5241892,18
5242512,20
5243144,19
5243764,16
5244396,11
5245024,12
5245640,10
5246272,11
5246896,14
5247516,14
5248148,14
5248764,19
5249392,19
5250016,15
5250636,27
5251268,22
5251888,13
5252516,11
5253144,18
5253760,11
5254388,17
5255012,31
5255640,39
5256272,25
5256888,16
5257516,34
5258140,16
5258764,24
5259392,32
5260016,13
5260644,11
5261268,21
5261892,34
5262520,38
5263144,32
5263772,22
5264404,11
5265024,13
5265652,12
5266276,15
5266904,14
5267532,14
5268152,28
5268780,19
5269404,10
5270028,10
5270660,12
5271280,12
5271908,11
5272536,11
5273160,11
5273788,14
5274408,19
5275036,19
5275664,18
5276288,11
5276916,11
5277540,10
5278172,14
5278800,20
5279416,16
5280048,13
5280668,12
5281292,19
5281920,32
5282536,26
5283168,21
5283792,19
5284416,13
5285044,10
5285664,11
5286292,11
5286920,10
5287544,11
5288172,16
5288796,29
5289424,19
5290052,14
5290672,23
5291300,30
5291924,44
5292548,25
5293180,13
5293800,16
5294428,13
5295052,11
5295676,14
5296308,10
5296928,17
5297556,14
5298188,10
5298808,16
5299436,14
5300060,16
5300692,17
5301320,13
5301940,12
5302568,13
5303192,11
5303816,15
5304444,21
5305064,27
5305692,19
5306316,12
5306940,13
5307572,12
5308192,21
5308820,24
5309452,37
5310072,39
5310704,13
5311328,45
5311956,75
5312588,46
5313208,26
5313836,29
5314460,27
5315084,20
5315716,14
5316336,15
5316964,13
5317588,14
5318216,14
5318844,11
5319464,12
5320096,11
5320724,10
5321344,18
5321976,41
5322600,53
5323228,47
5323860,32
5324480,15
5325112,37
5325732,62
5326356,43
5326984,26
5327608,16
5328236,13
5328860,11
5329480,11
5330112,11
5330728,12
5331356,11
5331988,16
5332608,15
5333236,20
5333860,17
5334488,11
5335120,10
5335736,11
5336364,13
5336988,12
5337612,11
5338240,12
5338856,12
5339488,13
5340112,15
5340736,13
5341364,13
5341984,13
5342612,15
5343244,14
5343864,12
5344496,14
5345116,11
5345748,11
5346376,11
5347000,12
5347628,12
5348252,15
5348876,15
5349508,17
5350128,21
5350760,22
5351380,21
5352004,11
5352636,10
5353256,18
5353884,19
5354516,13
5355136,13
5355768,12
5356392,19
5357020,17
5357652,14
5358272,21
5358900,24
5359528,13
5360152,11
5360780,18
5361400,23
5362028,19
5362652,11
5363276,14
5363908,16
5364528,12
5365156,14
5365788,16
5366408,21
5367036,21
5367660,28
5368292,21
5368920,16
5369544,14
5370176,12
5370800,11
5371424,12
5372052,10
5372672,12
5373304,13
5373928,15
5374552,17
5375184,16
5375800,14
5376432,12
5377064,11
5377680,11
5378308,10
5378932,11
5379560,12
5380192,12
5380808,12
5381436,13
5382060,20
5382684,20
5383312,16
5383936,13
5384564,12
5385188,11
5385812,15
5386444,10
5387064,13
5387692,12
5388324,10
5388944,13
5389572,19
5390196,29
5390828,21
5391456,14
5392076,13
5392704,13
5393328,12
5393952,12
5394580,11
5395200,13
5395828,14
5396452,15
5397080,19
5397708,12
5398328,23
5398960,16
5399588,22
5400208,16
5400836,14
5401464,13
5402092,18
5402724,12
5403344,33
5403976,43
5404600,33
5405224,29
5405852,12
5406472,20
5407104,14
5407724,23
5408348,29
5408980,16
5409600,17
5410232,11
5410860,12
5411480,11
5412108,12
5412732,14
5413364,11
5413992,12
5414616,13
5415244,13
5415868,15
5416492,17
5417124,12
5417744,14
5418372,17
5418996,12
5419620,11
5420252,10
5420876,10
5421508,10
5422136,12
5422756,11
5423384,16
5424008,13
5424640,17
5425268,19
5425888,14
5426520,12
5427144,13
5427768,27
5428396,23
5429016,11
5429644,17
5430268,12
5430896,11
5431524,16
5432148,14
5432780,20
5433412,18
5434032,15
5434660,13
5435284,15
5435912,11
5436540,11
5437160,17
5437792,24
5438416,24
5439040,15
5439668,11
5440288,17
5440916,17
5441544,14
5442168,14
5442796,19
5443420,21
5444048,14
5444680,12
5445296,20
5445924,23
5446548,11
5447172,13
5447804,12
5448424,31
5449052,31
5449676,22
5450296,28
5450928,34
5451544,12
5452172,15
5452796,12
5453424,11
5454052,11
5454676,11
5455308,10
5455936,14
5456560,21
5457188,15
5457812,15
5458440,17
5459068,14
5459688,12
5460316,13
5460940,19
5461564,13
5462196,10
5462816,12
5463444,12
5464076,10
5464696,16
5465324,21
5465952,24
5466580,14
5467208,12
5467832,12
5468464,11
5469088,10
5469712,26
5470340,27
5470960,13
5471588,11
5472216,13
5472840,15
5473468,22
5474088,30
5474716,38
5475348,32
5475968,15
5476596,19
5477224,45
5477852,51
5478484,32
5479104,17
5479732,42
5480356,89
5480980,85
5481608,26
5482232,21
5482860,33
5483488,23
5484112,14
5484740,13
5485360,19
5485988,18
5486620,14
5487240,25
5487872,23
5488496,17
5489124,15
5489756,14
5490376,24
5491008,13
5491632,18
5492256,17
5492884,18
5493504,27
5494136,27
5494760,22
5495384,19
5496012,14
5496632,12
5497264,17
5497892,14
5498512,15
5499144,19
5499768,18
5500396,13
5501028,16
5501648,12
5502280,26
5502904,41
5503528,42
5504160,25
5504776,13
5505404,41
5506028,30
5506652,16
5507284,17
5507908,21
5508536,14
5509168,20
5509784,46
5510416,37
5511040,11
5511668,11
5512300,10
5512920,12
5513552,13
5514176,12
5514800,19
5515428,17
5516048,14
5516680,15
5517304,19
5517928,25
5518560,21
5519184,11
5519816,14
5520444,13
5521064,22
5521692,24
5522320,12
5522948,15
5523580,16
5524200,35
5524832,53
5525456,31
5526080,24
5526708,30
5527328,17
5527960,27
5528592,17
5529212,11
5529840,11
5530464,12
5531096,15
5531724,15
5532344,15
5532972,15
5533596,17
5534224,15
5534852,10
5535472,23
5536104,33
5536724,21
5537348,11
5537980,10
5538600,13
5539228,21
5539860,14
5540480,15
5541108,16
5541732,13
5542364,17
5542996,18
5543616,13
5544248,19
5544872,17
5545496,11
5546128,11
5546744,11
5547376,15
5548000,12
5548624,14
5549256,13
5549872,14
5550504,16
5551136,10
5551756,13
5552384,27
5553012,22
5553640,10
5554272,17
5554892,23
5555520,26
5556148,26
5556772,26
5557404,15
5558024,24
5558656,42
5559280,46
5559904,58
5560536,31
5561160,18
5561792,13
5562420,10
5563040,13
5563672,11
5564296,15
5564928,15
5565556,14
5566176,19
5566808,21
5567432,14
5568056,19
5568688,25
5569304,20
5569936,11
5570568,15
5571184,30
5571816,17
5572440,13
5573068,15
5573700,12
5574320,14
5574952,15
5575576,17
5576200,11
5576828,13
5577448,19
5578076,11
5578704,30
5579328,42
5579960,26
5580576,12
5581208,24
5581840,37
5582456,52
5583088,41
5583712,15
5584340,11
5584972,12
5585592,11
5586224,11
5586848,10
5587472,11
5588100,11
5588720,12
5589348,13
5589976,16
5590600,14
5591232,13
5591848,13
5592480,13
5593108,10
5593728,21
5594356,20
5594984,23
5595612,23
5596244,11
5596864,21
5597492,24
5598120,15
5598744,15
5599376,17
5599992,20
5600624,14
5601252,22
5601876,24
5602504,19
5603124,13
5603752,19
5604384,28
5605004,21
5605632,19
5606256,11
5606888,15
5607516,14
5608136,17
5608764,15
5609388,13
5610016,16
5610644,14
5611264,15
5611896,13
5612520,17
5613144,14
5613772,11
5614392,13
5615024,13
5615652,13
5616272,13
5616900,17
5617524,27
5618156,16
5618788,10
5619408,12
5620036,15
5620660,22
5621284,40
5621916,38
5622536,35
5623164,19
5623792,19
5624416,37
5625044,19
5625668,18
5626300,11
5626932,30
5627552,49
5628184,29
5628808,11
5629436,13
5630068,11
5630688,13
5631320,14
5631944,14
5632572,14
5633200,14
5633824,13
5634452,11
5635084,10
5635704,13
5636332,11
5636956,15
5637588,11
5638216,15
5638836,10
5639464,15
5640088,19
5640712,15
5641340,14
5641960,14
5642588,24
5643212,30
5643836,20
5644468,12
5645088,18
5645716,30
5646348,36
5646968,41
5647596,41
5648220,27
5648852,14
5649480,20
5650100,19
5650728,16
5651352,15
5651976,12
5652608,17
5653224,15
5653852,14
5654476,20
5655100,20
5655732,11
5656352,16
5656980,15
5657612,12
5658232,13
5658860,13
5659484,14
5660116,21
5660744,32
5661368,28
5661996,16
5662624,17
5663248,31
5663876,33
5664496,27
5665124,33
5665748,23
5666372,21
5667004,32
5667624,13
5668252,22
5668884,10
5669504,23
5670136,32
5670760,15
5671388,13
5672020,36
5672640,54
5673272,31
5673896,18
5674520,16
5675148,14
5675768,13
5676400,12
5677024,11
5677648,11
5678276,14
5678896,16
5679528,17
5680156,14
5680776,11
5681404,13
5682032,19
5682660,16
5683292,14
5683912,15
5684540,12
5685164,12
5685788,11
5686420,13
5687040,10
5687668,11
5688292,11
5688920,15
5689548,13
5690168,13
5690800,13
5691428,14
5692048,16
5692680,15
5693304,16
5693936,27
5694564,16
5695184,11
5695816,11
5696440,15
5697064,25
5697692,35
5698312,26
5698944,13
5699568,24
5700192,24
5700820,18
5701444,17
5702076,18
5702708,12
5703328,26
5703960,17
5704584,13
5705212,52
5705844,60
5706464,31
5707096,19
5707720,41
5708344,57
5708976,44
5709592,35
5710224,19
5710856,14
5711472,11
5712104,12
5712728,15
5713356,17
5713988,19
5714608,15
5715240,13
5715864,14
5716488,14
5717116,13
5717736,14
5718368,19
5718996,11
5719620,9
5720200,11
5720828,14
5721460,11
5722084,15
5722708,22
5723340,22
5723960,19
5724592,13
5725224,13
5725840,11
5726472,11
5727096,11
5727728,16
5728360,19
5728976,18
5729608,17
5730232,12
5730856,18
5731488,25
5732108,27
5732740,27
5733364,15
5733992,14
5734624,25
5735248,19
5735876,11
5736508,15
5737128,13
5737756,10
5738380,13
5739012,14
5739640,16
5740264,18
5740892,14
5741516,17
5742140,14
5742772,10
5743392,11
5744020,13
5744652,10
5745272,13
5745900,11
5746528,15
5747156,12
5747788,10
5748408,19
5749036,27
5749664,24
5750288,19
5750916,10
5751536,12
5752168,23
5752792,24
5753416,13
5754048,12
5754664,18
5755296,16
5755924,25
5756544,51
5757176,34
5757800,18
5758428,14
5759060,16
5759680,38
5760312,58
5760932,67
5761556,66
5762188,32
5762808,27
5763436,97
5764060,107
5764736,62
5765356,20
5765980,15
5766612,14
5767240,16
5767856,15
5768488,15
5769112,12
5769736,15
5770364,20
5770984,23
5771612,19
5772236,15
5772860,13
5773492,22
5774112,26
5774740,21
5775372,13
5775992,16
5776620,14
5777244,11
5777876,21
5778504,19
5779128,15
5779760,12
5780380,11
5781008,11
5781636,14
5782256,23
5782884,21
5783508,21
5784132,14
5784764,14
5785384,35
5786016,35
5786644,20
5787264,13
5787892,16
5788516,23
5789148,28
5789776,26
5790396,14
5791024,16
5791652,34
5792276,55
5792904,34
5793528,27
5794156,18
5794784,12
5795408,11
5796036,11
5796656,11
5797284,11
5797916,12
5798536,14
5799164,13
5799788,14
5800420,15
5801052,10
5801672,13
5802300,17
5802924,11
5803548,12
5804180,10
5804800,13
5805428,10
5806052,12
5806680,14
5807308,14
5807928,15
5808560,14
5809188,14
5809808,13
5810436,11
5811064,12
5811696,15
5812324,11
5812944,11
5813576,12
5814200,12
5814824,19
5815456,19
5816072,15
5816704,13
5817328,12
5817952,19
5818580,22
5819204,10
5819836,12
5820468,10
5821088,11
5821720,13
5822344,11
5822972,12
5823604,15
5824224,15
5824852,17
5825476,19
5826100,16
5826732,12
5827352,12
5827980,12
5828608,11
5829232,13
5829860,14
5830488,21
5831116,26
5831748,22
5832368,22
5832996,15
5833624,14
5834248,26
5834876,42
5835496,24
5836128,12
5836752,24
5837376,34
5838008,37
5838624,25
5839256,18
5839888,41
5840504,35
5841132,17
5841756,13
5842388,12
5843020,14
5843640,12
5844268,21
5844892,25
5845516,32
5846148,28
5846768,32
5847400,22
5848024,13
5848644,14
5849276,12
5849896,20
5850524,25
5851156,12
5851776,12
5852408,21
5853032,13
5853660,12
5854292,20
5854912,17
5855544,11
5856168,15
5856792,27
5857424,27
5858040,30
5858668,18
5859292,12
5859920,21
5860548,14
5861168,24
5861800,17
5862428,10
5863048,17
5863676,19
5864300,16
5864932,21
5865564,20
5866184,23
5866816,15
5867440,15
5868064,12
5868692,10
5869312,11
5869944,13
5870568,11
5871192,16
5871824,17
5872444,11
5873076,13
5873704,12
5874328,13
5874960,14
5875584,15
5876216,11
5876844,11
5877464,14
5878096,18
5878720,13
5879344,16
5879976,11
5880596,14
5881228,18
5881852,18
5882480,19
5883112,15
5883736,13
5884368,11
5885000,10
5885616,11
5886248,11
5886872,13
5887496,12
5888132,18
5888752,16
5889380,11
5890004,15
5890628,15
5891260,22
5891880,29
5892508,25
5893140,12
5893760,13
5894388,24
5895016,38
5895648,33
5896280,25
5896896,44
5897528,50
5898152,26
5898780,14
5899408,18
5900028,20
5900656,17
5901280,11
5901904,11
5902532,14
5903152,15
5903784,12
5904412,10
5905032,11
5905660,12
5906284,14
5906916,13
5907548,18
5908168,23
5908796,23
5909424,20
5910048,14
5910676,12
5911296,16
5911928,21
5912552,19
5913176,11
5913808,11
5914424,12
5915052,14
5915684,16
5916304,14
5916936,16
5917560,15
5918192,13
5918820,13
5919440,11
5920072,15
5920692,23
5921316,29
5921948,28
5922568,18
5923196,15
5923820,32
5924448,39
5925076,31
5925700,23
5926332,11
5926964,20
5927584,27
5928216,11
5928840,13
5929468,16
5930100,18
5930720,12
5931352,27
5931976,39
5932600,36
5933232,27
5933848,18
5934480,13
5935108,14
5935728,11
5936360,12
5936984,13
5937612,13
5938244,19
5938864,19
5939496,11
5940120,21
5940744,30
5941372,20
5941992,28
5942620,53
5943248,41
5943868,19
5944500,12
5945120,13
5945748,33
5946380,50
5947000,37
5947628,16
5948256,15
5948884,15
5949516,15
5950136,15
5950768,16
5951392,18
5952016,14
5952644,11
5953264,20
5953892,18
5954516,12
5955144,17
5955772,15
5956392,14
5957024,13
5957652,28
5958272,33
5958904,22
5959528,16
5960160,12
5960788,40
5961408,49
5962040,14
5962664,23
5963288,30
5963916,35
5964536,16
5965168,53
5965792,53
5966416,28
5967044,15
5967664,14
5968296,11
5968924,11
5969544,15
5970176,14
5970800,11
5971428,18
5972060,14
5972680,11
5973308,17
5973936,25
5974560,17
5975192,15
5975808,15
5976440,11
5977064,14
5977688,13
5978316,17
5978936,15
5979568,14
5980196,14
5980816,16
5981444,20
5982068,20
5982700,16
5983332,14
5983952,12
5984584,12
5985212,13
5985836,13
5986464,10
5987088,13
5987720,11
5988344,12
5988968,14
5989600,12
5990224,13
5990856,14
5991484,14
5992104,17
5992732,15
5993360,19
5993988,14
5994620,10
5995240,16
5995872,16
5996496,15
5997120,14
5997752,15
5998368,16
5999000,13
5999632,18
6000256,23
6000888,15
6001512,17
6002144,15
6002772,30
6003392,29
6004020,12
6004644,10
6005268,17
6005900,30
6006520,25
6007148,16
6007776,15
6008400,40
6009028,55
6009648,28
6010276,11
6010908,42
6011528,41
6012160,11
6012784,18
6013416,12
6014048,18
6014664,40
6015296,31
6015924,18
6016548,20
6017180,26
6017800,17
6018428,10
6019056,11
6019680,11
6020308,20
6020936,39
6021564,38
6022196,34
6022816,17
6023444,31
6024072,56
6024700,51
6025332,36
6025952,17
6026584,11
6027208,11
6027832,13
6028464,19
6029084,15
6029712,12
6030344,13
6030960,14
6031592,16
6032220,18
6032848,15
6033480,14
6034100,12
6034728,10
6035356,15
6035980,14
6036612,10
6037232,14
6037864,17
6038488,25
6039112,27
6039744,15
6040364,15
6040996,16
6041624,21
6042248,26
6042876,27
6043500,25
6044132,17
6044764,16
6045384,11
6046016,22
6046640,50
6047264,47
6047896,30
6048516,23
6049144,15
6049768,15
6050392,20
6051024,18
6051644,16
6052272,19
6052904,13
6053524,11
6054156,13
6054780,11
6055412,14
6056044,14
6056664,13
6057296,14
6057920,15
6058544,14
6059176,11
6059796,11
6060428,12
6061052,14
6061680,15
6062312,11
6062936,13
6063568,19
6064196,14
6064816,15
6065444,16
6066072,17
6066696,20
6067328,12
6067944,11
6068576,21
6069200,24
6069824,17
6070452,10
6071072,14
6071704,20
6072336,13
6072952,13
6073584,13
6074208,13
6074840,15
6075472,23
6076092,14
6076720,18
6077348,28
6077972,40
6078604,37
6079224,23
6079856,12
6080484,11
6081108,11
6081740,13
6082360,15
6082992,19
6083620,13
6084240,16
6084868,18
6085492,27
6086124,33
6086756,29
6087376,27
6088008,13
6088628,22
6089256,45
6089884,58
6090504,43
6091136,15
6091760,25
6092384,27
6093016,25
6093640,16
6094268,16
6094900,18
6095520,16
6096152,16
6096776,31
6097404,40
6098036,52
6098656,17
6099288,25
6099912,33
6100536,21
6101168,18
6101784,39
6102416,64
6103048,35
6103668,18
6104296,12
6104924,20
6105552,25
6106184,32
6106808,19
6107440,13
6108064,14
6108688,24
6109320,31
6109936,19
6110568,11
6111192,26
6111816,34
6112452,31
6113072,24
6113704,12
6114332,18
6114952,47
6115584,45
6116212,18
6116840,14
6117472,11
6118092,14
6118724,36
6119348,49
6119976,55
6120608,34
6121228,13
6121856,43
6122484,83
6123108,51
6123740,26
6124364,17
6124996,13
6125628,11
6126248,12
6126880,15
6127504,13
6128136,18
6128768,26
6129384,37
6130016,28
6130644,30
6131268,15
6131900,26
6132520,48
6133152,67
6133784,32
6134408,11
6135040,11
6135664,11
6136296,11
6136928,10
6137548,11
6138180,10
6138808,11
6139432,21
6140064,25
6140684,15
6141316,28
6141944,19
6142568,12
6143200,12
6143828,11
6144464,11
6145092,10
6145712,15
6146340,20
6146964,11
6147588,14
6148220,14
6148840,15
6149468,21
6150092,15
6150716,20
6151348,22
6151968,17
6152596,11
6153228,14
6153848,13
6154476,11
6155100,11
6155732,13
6156364,15
6156984,13
6157612,14
6158236,15
6158860,20
6159492,11
6160112,11
6160740,11
6161364,13
6161988,15
6162620,11
6163240,14
6163868,15
6164500,15
6165120,23
6165748,18
6166372,14
6167004,17
6167636,12
6168256,12
6168884,17
6169512,34
6170136,35
6170764,18
6171384,11
6172012,11
6172636,24
6173264,35
6173892,36
6174512,36
6175144,23
6175772,41
6176392,35
6177020,16
6177648,14
6178276,27
6178908,26
6179528,20
6180156,19
6180784,29
6181408,27
6182040,16
6182656,14
6183288,14
6183912,15
6184536,19
6185168,34
6185784,29
6186412,15
6187044,18
6187664,19
6188292,27
6188920,20
6189548,12
6190180,12
6190800,21
6191428,21
6192056,32
6192680,25
6193308,42
6193928,21
6194560,17
6195184,15
6195808,22
6196440,21
6197064,15
6197696,11
6198324,12
6198944,13
6199576,15
6200200,15
6200832,12
6201460,10
6202080,11
6202708,14
6203336,27
6203960,23
6204592,12
6205208,12
6205840,12
6206472,13
6207092,17
6207720,15
6208348,15
6208976,15
6209604,15
6210224,14
6210856,15
6211480,15
6212104,11
6212736,12
6213352,13
6213984,12
6214608,15
6215232,17
6215864,16
6216480,14
6217112,15
6217744,23
6218360,21
6218992,14
6219616,15
6220248,11
6220880,14
6221496,13
6222128,13
6222752,40
6223376,43
6224008,56
6224624,37
6225256,23
6225880,73
6226504,92
6227136,71
6227756,42
6228384,15
6229016,36
6229636,22
6230264,11
6230892,29
6231520,33
6232152,25
6232772,20
6233404,23
6234028,13
6234652,13
6235284,16
6235904,18
6236536,13
6237160,12
6237784,11
6238416,20
6239032,13
6239664,21
6240296,19
6240920,15
6241548,47
6242176,21
6242804,15
6243436,10
6244056,11
6244684,11
6245312,14
6245936,12
6246568,19
6247184,22
6247812,15
6248436,14
6249060,32
6249692,42
6250316,33
6250944,18
6251576,57
6252196,45
6252824,11
6253448,22
6254076,28
6254708,20
6255328,12
6255960,11
6256584,20
6257208,27
6257836,16
6258456,21
6259088,11
6259716,14
6260336,11
6260968,18
6261592,17
6262224,13
6262852,14
