tempo_arduino_micro_s,valor_ADC
500,15
1004,17
1504,20
2000,17
2508,14
3000,14
3508,15
4000,13
4508,10
5000,12
5500,12
6000,10
6500,10
7004,11
7500,12
8000,14
8500,10
9000,10
9500,10
10000,14
10516,12
11036,13
11564,13
12084,14
12612,13
13132,22
13660,22
14180,13
14708,10
15228,14
15756,13
16276,11
16796,12
17316,13
17836,16
18356,18
18876,15
19396,14
19916,14
20436,14
20956,12
21476,12
21996,15
22516,17
23036,15
23564,10
24084,13
24612,17
25132,15
25660,11
26180,10
26708,14
27228,14
27756,13
28276,13
28804,14
29324,11
29852,12
30372,12
30900,11
31420,11
31948,10
32472,11
32996,11
33516,14
34044,12
34564,12
35092,17
35612,17
36140,16
36660,14
37188,14
37708,11
38236,11
38760,11
39284,10
39804,11
40332,11
40852,10
41372,10
41892,11
42412,10
42932,11
43452,13
43972,14
44492,15
45012,14
45532,14
46052,16
46572,17
47092,14
47612,11
48140,11
48660,13
49188,19
49708,20
50236,23
50756,21
51284,17
51804,16
52332,15
52852,15
53380,14
53900,13
54428,10
54948,10
55476,14
55996,14
56524,12
57044,10
57572,12
58096,14
58620,13
59140,10
59668,12
60188,13
60716,13
61240,13
61764,14
62284,16
62812,11
63332,11
63860,11
64384,12
64908,11
65428,11
65948,15
66468,17
66988,13
67508,14
68028,16
68548,21
69068,21
69588,17
70108,16
70628,13
71148,10
71668,11
72192,11
72716,10
73236,10
73764,10
74284,10
74812,11
75332,10
75860,10
76384,12
76908,12
77428,15
77956,15
78476,17
79004,13
79528,11
80052,12
80572,12
81100,10
81620,10
82148,10
82668,11
83196,11
83720,12
84244,16
84764,22
85292,16
85812,14
86340,14
86860,21
87388,22
87908,16
88436,11
88956,10
89484,14
90004,20
90524,17
91044,14
91564,11
92084,10
92604,10
93124,15
93644,12
94164,16
94684,15
95204,15
95724,13
96248,11
96764,12
97292,12
97812,11
98340,11
98860,10
99388,12
99908,12
100436,14
101000,13
101584,19
102156,18
102736,17
103304,17
103880,20
104456,18
105024,13
105600,13
106168,11
106744,10
107312,11
107896,12
108464,13
109040,11
109624,11
110192,13
110768,15
111336,15
111920,13
112492,10
113072,10
113640,13
114216,15
114792,15
115364,11
115944,17
116512,12
117096,10
117664,11
118240,15
118824,22
119392,28
119976,27
120548,22
121128,16
121696,11
122280,11
122848,10
123428,11
124008,11
124576,11
125160,12
125728,15
126312,14
126884,15
127456,22
128040,26
128608,16
129184,12
129752,15
130328,13
130896,13
131480,16
132048,24
132624,20
133200,17
133768,15
134344,17
134912,19
135496,20
136064,18
136648,16
137224,15
137792,14
138376,11
138944,12
139528,12
140096,18
140680,19
141252,14
141824,11
142408,11
142976,12
143560,14
144128,14
144712,13
145280,14
145864,11
146440,13
147008,16
147592,15
148160,14
148744,10
149312,11
149896,13
150464,15
151040,14
151624,17
152196,15
152776,16
153348,14
153928,15
154496,15
155080,15
155656,13
156224,10
156808,11
157376,11
157952,10
158524,11
159104,9
159624,11
160200,13
160776,15
161344,18
161928,17
162496,12
163072,11
163644,11
164224,11
164792,12
165360,13
165944,11
166512,12
167096,11
167664,12
168240,21
168808,23
169384,17
169952,15
170528,13
171104,12
171676,12
172256,10
172824,11
173408,11
173976,12
174556,11
175136,14
175704,13
176288,11
176856,15
177440,14
178008,14
178592,13
179160,13
179740,15
180320,12
180888,11
181472,11
182040,10
182624,11
183192,14
183772,14
184352,13
184920,14
185496,13
186064,14
186648,16
187216,17
187800,11
188368,11
188944,11
189528,10
190096,11
190680,9
191200,10
191776,11
192348,11
192928,11
193496,14
194072,14
194656,13
195224,15
195808,11
196376,11
196960,10
197528,11
198104,11
198688,12
199256,13
199840,11
200408,12
200992,11
201560,18
202144,13
202716,15
203292,14
203872,14
204444,12
205024,11
205592,11
206168,12
206736,16
207312,12
207888,13
208456,18
209040,12
209608,11
210184,14
210752,14
211336,14
211904,18
212480,11
213064,16
213632,22
214216,20
214788,22
215368,21
215936,24
216520,19
217096,18
217664,16
218248,21
218816,13
219392,13
219960,14
220544,13
221112,14
221692,14
222272,13
222844,14
223424,16
223996,20
224576,24
225152,22
225736,12
226312,17
226880,29
227464,29
228032,30
228616,21
229184,15
229768,13
230336,12
230916,12
231496,11
232068,11
232648,11
233216,11
233800,11
234368,18
234952,21
235528,14
236096,17
236680,15
237252,15
237832,21
238404,24
238984,23
239556,14
240132,10
240712,23
241280,38
241864,36
242436,19
243016,13
243588,18
244168,27
244744,24
245316,17
245896,14
246464,18
247048,11
247616,27
248200,23
248768,18
249344,14
249928,26
250496,18
251080,14
251648,18
252232,18
252800,15
253384,14
253960,14
254532,17
255112,17
255684,13
256264,26
256840,18
257416,14
257984,20
258552,23
259128,23
259696,15
260280,15
260848,14
261432,17
262000,15
262584,11
263152,13
263720,15
264304,14
264872,10
265456,12
266024,15
266608,17
267176,13
267744,11
268328,19
268896,30
269480,24
270048,20
270632,15
271200,11
271784,13
272352,11
272928,10
273512,10
274084,11
274664,15
275232,26
275816,23
276388,21
276964,14
277544,27
278116,31
278696,18
279268,11
279848,12
280420,18
281000,16
281572,11
282148,14
282728,18
283296,11
283880,16
284448,15
285032,15
285604,17
286176,14
286760,22
287328,31
287912,32
288484,18
289064,10
289632,11
290216,16
290788,11
291364,20
291944,18
292512,15
293096,18
293668,20
294248,17
294820,14
295392,26
295976,38
296548,46
297128,45
297696,31
298280,16
298848,14
299432,11
300004,18
300580,22
301160,14
301732,17
302312,15
302892,14
303472,13
304044,13
304616,13
305200,14
305772,15
306352,12
306924,11
307504,11
308080,11
308664,10
309232,11
309812,17
310392,16
310964,15
311544,13
312116,15
312696,19
313268,13
313844,21
314424,18
314996,11
315576,15
316148,18
316728,24
317308,17
317888,14
318472,17
319044,24
319624,35
320196,29
320776,21
321344,19
321928,9
322444,11
323024,12
323600,14
324168,11
324752,11
325324,11
325904,12
326476,24
327056,28
327628,23
328204,17
328784,15
329352,11
329936,11
330504,12
331088,14
331656,15
332240,11
332816,12
333384,11
333960,18
334528,19
335112,15
335684,19
336264,17
336832,15
337408,16
337992,18
338560,14
339144,11
339716,20
340296,15
340864,11
341448,14
342024,11
342592,11
343176,14
343748,15
344328,15
344896,14
345480,15
346052,12
346624,11
347208,11
347776,18
348360,13
348928,14
349512,15
350084,12
350664,13
351240,26
351812,26
352392,18
352964,14
353544,13
354116,15
354696,24
355264,26
355840,24
356424,27
356996,18
357576,11
358148,12
358728,11
359304,11
359888,15
360464,19
361032,16
361616,14
362184,14
362768,15
363340,17
363920,12
364492,22
365064,21
365648,18
366216,15
366800,13
367368,11
367952,24
368524,50
369104,52
369680,36
370248,24
370832,15
371404,11
371984,21
372556,26
373136,17
373708,15
374284,12
374864,11
375436,10
376016,11
376584,14
377168,13
377740,16
378320,14
378896,13
379464,17
380048,40
380620,35
381200,12
381772,18
382352,13
382924,11
383500,12
384080,15
384652,19
385232,20
385804,15
386384,13
386956,15
387536,13
388112,16
388684,10
389264,12
389832,16
390416,12
390984,11
391568,10
392140,15
392716,16
393296,16
393868,14
394448,13
395016,14
395600,14
396172,10
396752,9
397272,12
397844,13
398424,18
398996,18
399576,17
400156,11
400736,17
401304,20
401884,14
402464,14
403036,14
403616,23
404184,22
404768,15
405340,12
405920,11
406492,10
407068,13
407648,12
408220,15
408800,11
409372,11
409952,16
410528,13
411096,15
411680,14
412248,13
412824,11
413392,11
413968,10
414536,12
415120,14
415688,14
416264,15
416848,11
417416,17
417992,27
418560,23
419144,14
419716,15
420296,18
420872,17
421440,30
422024,18
422592,11
423176,13
423744,11
424328,10
424896,11
425472,11
426056,10
426624,14
427208,19
427776,18
428360,13
428932,14
429512,12
430088,18
430656,26
431240,27
431812,16
432392,12
432964,12
433544,14
434116,13
434692,12
435272,16
435840,15
436424,14
436996,14
437576,11
438148,10
438728,10
439304,13
439876,10
440456,14
441024,17
441608,10
442176,11
442752,13
443324,14
443900,14
444480,13
445048,14
445632,15
446204,17
446784,12
447356,10
447936,11
448520,10
449092,11
449672,11
450240,13
450824,20
451392,19
451976,16
452548,14
453120,15
453704,15
454276,16
454856,12
455428,11
456008,12
456576,18
457160,18
457736,18
458308,17
458888,11
459456,13
460040,12
460612,14
461192,17
461768,15
462344,14
462928,11
463500,11
464080,12
464648,12
465232,11
465804,11
466384,13
466960,16
467532,29
468112,31
468684,24
469264,27
469836,23
470416,16
470988,14
471564,11
472144,10
472716,10
473296,12
473868,15
474448,11
475020,13
475600,14
476184,12
476756,13
477336,13
477908,16
478488,16
479068,13
479648,11
480220,11
480792,13
481376,11
481944,11
482528,12
483100,11
483680,11
484252,14
484828,19
485408,17
485980,14
486560,15
487128,15
487712,10
488284,14
488864,22
489436,19
490012,12
490592,11
491164,11
491744,11
492320,10
492904,13
493472,15
494048,14
494632,14
495204,14
495784,11
496356,14
496936,11
497508,11
498088,12
498656,21
499236,19
499816,24
500388,42
500968,19
501540,20
502120,18
502700,24
503276,31
503856,32
504428,30
505008,27
505580,23
506160,14
506740,10
507320,10
507900,10
508476,10
509056,10
509628,10
510208,13
510780,14
511360,16
511940,15
512516,11
513096,11
513664,11
514248,14
514816,14
515400,13
515968,13
516552,12
517128,15
517696,15
518280,14
518852,14
519432,15
520004,16
520584,15
521152,26
521732,32
522312,29
522880,22
523464,13
524036,12
524616,15
525188,11
525768,11
526344,12
526916,14
527496,14
528064,14
528648,17
529216,31
529800,41
530372,19
530948,16
531528,24
532096,22
532680,26
533248,21
533832,17
534404,22
534984,18
535560,17
536132,15
536712,15
537284,20
537864,19
538432,16
539016,11
539588,11
540164,13
540744,11
541316,10
541896,11
542468,10
543048,12
543616,15
544200,14
544776,14
545344,14
545928,13
546496,11
547080,12
547652,11
548232,11
548804,11
549376,14
549960,10
550532,11
551112,11
551684,15
552264,15
552836,15
553416,13
553992,14
554564,15
555144,17
555716,16
556296,10
556868,14
557448,11
558020,11
558596,11
559176,11
559748,13
560328,13
560900,13
561480,19
562052,22
562632,17
563208,14
563780,11
564360,10
564932,11
565512,10
566084,13
566664,25
567236,40
567812,37
568392,21
568964,14
569544,18
570116,20
570696,16
571268,11
571848,12
572424,14
572996,10
573576,11
574148,10
574728,11
575300,10
575880,11
576460,14
577032,14
577616,14
578184,17
578768,15
579336,15
579920,14
580492,12
581072,10
581648,10
582220,12
582800,11
583372,10
583952,17
584524,21
585104,20
585676,18
586252,15
586832,14
587404,12
587984,9
588504,10
589080,11
589660,12
590240,14
590812,26
591388,19
591968,11
592540,10
593120,14
593700,13
594280,14
594860,15
595436,14
596016,15
596588,18
597168,12
597740,13
598320,11
598900,12
599480,11
600060,12
600636,14
601216,16
601788,15
602368,15
602940,14
603520,18
604100,13
604676,10
605256,11
605828,12
606408,13
606980,13
607560,14
608140,12
608720,9
609240,16
609812,20
610392,14
610964,18
611544,19
612124,20
612704,18
613284,10
613860,17
614440,22
615012,26
615592,19
616164,13
616744,21
617316,23
617896,23
618468,20
619044,19
619624,26
620196,26
620776,15
621348,10
621928,11
622500,11
623076,10
623656,12
624232,12
624808,16
625380,10
625960,17
626532,18
627112,14
627692,13
628268,13
628848,14
629420,14
630000,16
630580,12
631160,11
631732,10
632308,11
632888,16
633464,13
634040,13
634616,20
635192,21
635772,23
636352,19
636936,14
637508,12
638088,14
638660,11
639240,19
639820,26
640404,19
640976,17
641544,11
642128,19
642696,24
643280,20
643848,14
644432,13
645004,14
645584,13
646160,11
646732,10
647312,11
647884,11
648464,13
649036,16
649616,12
650184,17
650764,21
651344,22
651916,19
652496,27
653076,24
653656,15
654228,11
654804,12
655384,13
655952,11
656536,16
657104,15
657688,12
658256,16
658840,14
659408,14
659984,15
660568,14
661136,16
661720,15
662292,14
662872,11
663444,13
664016,11
664600,11
665172,11
665752,11
666320,11
666904,11
667472,15
668056,17
668624,18
669200,26
669784,24
670352,15
670936,17
671508,19
672088,15
672656,13
673232,11
673808,19
674376,24
674960,18
675532,19
676112,16
676680,14
677264,13
677832,14
678412,14
678992,14
679560,13
680144,12
680712,14
681296,12
681864,14
682448,14
683024,11
683596,16
684176,15
684744,14
685328,13
685900,15
686480,13
687048,15
687628,15
688208,16
688776,11
689360,11
689932,16
690512,18
691084,23
691664,21
692248,10
692816,11
693400,15
693972,15
694552,17
695124,15
695704,13
696276,16
696852,15
697432,11
698004,10
698584,11
699156,13
699736,11
700308,15
700884,24
701464,22
702036,14
702616,14
703188,15
703768,17
704348,13
704928,12
705500,15
706076,10
706656,12
707224,17
707808,20
708380,16
708960,16
709532,17
710108,19
710688,17
711260,15
711840,14
712412,15
712992,13
713564,10
714144,12
714724,11
715300,11
715880,10
716452,12
717032,11
717612,11
718192,17
718764,23
719340,26
719920,20
720492,17
721072,11
721644,10
722224,12
722796,10
723376,9
723896,13
724468,28
725048,43
725620,40
726200,27
726772,20
727352,16
727924,14
728504,17
729076,20
729652,23
730232,24
730804,26
731384,32
731956,32
732536,23
733116,14
733692,15
734272,23
734844,26
735424,21
735996,15
736580,14
737156,15
737736,14
738320,15
738892,10
739472,11
740044,15
740624,17
741196,11
741776,9
742296,10
742868,14
743448,15
744020,13
744600,14
745172,14
745752,12
746324,11
746904,9
747424,10
747996,10
748576,11
749148,12
749728,11
750300,11
750880,19
751460,24
752040,27
752620,20
753196,15
753776,14
754348,17
754928,14
755508,11
756088,20
756668,34
757244,34
757824,17
758396,11
758976,18
759552,24
760128,21
760708,13
761288,14
761872,14
762444,14
763024,15
763596,12
764176,27
764756,26
765336,18
765916,14
766492,10
767072,11
767648,12
768228,14
768800,14
769384,22
769952,30
770532,32
771112,28
771684,18
772264,11
772836,14
773416,21
773988,21
774568,20
775136,15
775716,11
776296,14
776868,14
777448,13
778020,14
778600,13
779168,12
779748,11
780328,10
780900,11
781480,11
782052,10
782632,13
783204,14
783784,12
784356,23
784932,24
785512,20
786084,19
786664,15
787236,14
787816,16
788388,15
788964,11
789544,10
790116,10
790696,9
791220,11
791800,11
792372,11
792952,11
793532,14
794108,15
794688,15
795260,15
795840,12
796412,11
796992,11
797572,10
798152,10
798740,11
799308,12
799888,14
800464,18
801040,17
801608,19
802192,17
802764,15
803340,14
803920,16
804492,18
805072,17
805644,11
806224,11
806796,12
807376,11
807952,15
808524,18
809104,15
809676,11
810256,13
810828,14
811408,14
811988,13
812564,11
813144,10
813716,11
814296,11
814876,12
815456,14
816036,12
816612,15
817192,18
817768,13
818344,22
818916,25
819496,19
820072,15
820648,13
821216,10
821784,11
822368,11
822936,10
823520,10
824088,11
824672,10
825240,14
825816,16
826400,16
826968,17
827552,15
828124,16
828704,15
829276,12
829856,13
830424,15
831000,12
831584,15
832156,11
832736,13
833304,19
833888,17
834456,11
835036,21
835616,19
836184,14
836768,14
837340,14
837920,11
838492,11
839072,13
839644,19
840220,14
840800,13
841368,12
841952,11
842520,11
843104,17
843676,14
844252,15
844832,18
845400,15
845976,11
846544,10
847128,11
847700,14
848280,17
848848,16
849424,11
850008,12
850576,13
851160,13
851732,17
852312,13
852884,14
853456,16
854040,14
854612,11
855192,11
855764,11
856344,9
856864,11
857440,13
858012,18
858584,19
859168,11
859740,15
860320,15
860892,15
861472,21
862044,21
862624,13
863196,10
863772,12
864352,15
864924,17
865504,11
866076,15
866656,25
867224,24
867800,19
868384,18
868956,17
869536,15
870108,16
870688,15
871264,16
871848,13
872420,11
872992,10
873576,11
874148,11
874728,15
875300,13
875880,14
876460,16
877036,14
877616,14
878188,14
878768,14
879340,11
879920,12
880500,13
881080,10
881648,13
882224,14
882808,12
883380,12
883960,20
884532,32
885112,29
885684,19
886260,15
886840,14
887412,12
887992,11
888564,11
889144,11
889716,11
890296,10
890868,10
891444,11
892024,14
892596,12
893176,14
893756,14
894336,18
894916,17
895492,15
896076,17
896644,15
897224,11
897796,17
898376,16
898948,15
899528,23
900104,20
900676,16
901256,11
901828,27
902408,31
902976,29
903560,29
904132,32
904708,22
905288,12
905860,13
906440,18
907008,13
907592,15
908164,24
908744,25
909320,23
909892,23
910472,17
911044,15
911624,33
912196,43
912776,27
913348,17
913924,14
914504,12
915076,10
915656,10
916228,12
916808,13
917384,13
917968,13
918552,13
919124,16
919704,18
920276,25
920856,27
921436,21
922020,12
922592,11
923168,12
923752,21
924324,23
924904,20
925476,16
926056,11
926628,12
927204,13
927784,14
928356,14
928936,14
929508,12
930088,15
930660,14
931240,12
931812,14
932388,15
932968,13
933540,11
934120,11
934700,18
935280,19
935860,18
936436,15
937016,19
937588,20
938168,17
938740,16
939320,12
939900,12
940480,17
941064,13
941636,11
942216,16
942788,15
943368,13
943940,14
944520,16
945100,15
945676,14
946256,13
946828,10
947408,11
947988,11
948568,11
949148,12
949724,19
950304,16
950880,21
951456,23
952028,21
952608,22
953188,22
953768,16
954348,10
954924,12
955504,13
956080,11
956656,10
957236,10
957820,12
958396,15
958972,13
959552,11
960128,17
960704,18
961276,18
961856,14
962436,12
963016,15
963592,14
964164,10
964744,14
965316,15
965896,13
966468,14
967048,12
967620,11
968196,14
968776,14
969348,14
969928,17
970500,14
971080,10
971660,14
972240,14
972824,11
973396,10
973976,11
974548,11
975128,11
975708,10
976288,11
976868,13
977444,15
978024,17
978596,15
979176,11
979748,12
980328,21
980908,30
981484,30
982064,20
982636,12
983216,15
983788,13
984368,17
984936,32
985520,28
986092,20
986664,27
987248,30
987820,35
988400,35
988980,30
989560,22
990132,11
990708,11
991288,12
991860,10
992440,15
993012,18
993592,16
994164,14
994744,17
995316,25
995892,22
996472,17
997044,10
997624,11
998204,10
998784,11
999364,11
999940,14
1000520,13
1001136,13
1001764,17
1002388,19
1003012,25
1003644,23
1004264,19
1004892,13
1005512,10
1006136,15
1006764,16
1007384,21
1008012,22
1008636,12
1009260,12
1009888,14
1010512,13
1011140,14
1011772,12
1012392,17
1013020,16
1013644,11
1014276,18
1014904,15
1015520,13
1016152,14
1016776,16
1017400,13
1018028,17
1018648,23
1019276,16
1019900,14
1020528,14
1021156,11
1021780,13
1022412,13
1023040,12
1023664,16
1024296,13
1024916,13
1025540,19
1026168,20
1026784,14
1027412,13
1028032,14
1028652,13
1029280,12
1029900,12
1030528,14
1031152,19
1031776,21
1032404,13
1033024,17
1033652,21
1034280,25
1034896,29
1035524,23
1036144,14
1036776,15
1037404,18
1038024,20
1038652,11
1039272,11
1039896,12
1040524,12
1041140,11
1041772,12
1042392,13
1043016,15
1043644,16
1044264,14
1044892,15
1045520,14
1046136,17
1046764,19
1047388,15
1048016,12
1048644,12
1049260,19
1049892,18
1050512,12
1051140,12
1051772,14
1052392,17
1053020,15
1053644,16
1054264,11
1054892,16
1055508,17
1056140,10
1056760,11
1057384,18
1058012,26
1058636,15
1059264,14
1059892,14
1060512,13
1061140,14
1061760,14
1062392,13
1063020,10
1063640,11
1064268,13
1064892,14
1065516,12
1066144,12
1066760,11
1067392,12
1068012,23
1068636,22
1069264,21
1069880,19
1070508,15
1071136,12
1071760,11
1072388,13
1073012,15
1073640,15
1074268,10
1074888,17
1075516,20
1076140,16
1076760,13
1077392,14
1078008,17
1078636,18
1079260,11
1079884,10
1080512,10
1081128,11
1081756,11
1082384,10
1083008,11
1083636,12
1084260,15
1084888,21
1085516,18
1086136,16
1086764,15
1087388,17
1088008,17
1088636,12
1089256,12
1089884,11
1090504,10
1091128,11
1091756,10
1092376,11
1093004,13
1093628,15
1094256,17
1094884,18
1095508,18
1096136,15
1096764,12
1097384,11
1098012,13
1098636,13
1099264,15
1099892,18
1100512,27
1101140,28
1101764,25
1102388,15
1103016,14
1103640,13
1104268,14
1104892,12
1105520,12
1106148,10
1106772,11
1107400,11
1108028,11
1108648,12
1109276,11
1109900,14
1110528,15
1111156,14
1111776,14
1112404,16
1113028,15
1113652,13
1114280,10
1114904,11
1115532,10
1116156,15
1116784,18
1117412,13
1118040,15
1118668,18
1119300,15
1119920,14
1120552,14
1121172,15
1121800,13
1122428,10
1123048,10
1123676,10
1124300,11
1124924,17
1125552,18
1126176,13
1126804,13
1127436,13
1128056,14
1128684,14
1129304,11
1129936,11
1130564,10
1131184,11
1131812,11
1132436,11
1133060,12
1133692,18
1134312,15
1134940,15
1135564,15
1136188,17
1136816,18
1137440,21
1138068,22
1138696,16
1139320,12
1139948,13
1140572,17
1141200,15
1141832,11
1142448,13
1143076,16
1143700,17
1144328,17
1144956,15
1145576,15
1146208,13
1146832,12
1147456,12
1148084,10
1148704,11
1149332,11
1149964,12
1150584,13
1151212,17
1151836,17
1152468,15
1153096,14
1153712,14
1154340,12
1154964,12
1155588,11
1156220,11
1156840,10
1157468,11
1158088,10
1158712,11
1159340,11
1159960,14
1160588,18
1161212,20
1161840,21
1162468,11
1163092,16
1163720,13
1164348,10
1164968,12
1165596,14
1166220,15
1166848,24
1167476,28
1168096,29
1168724,21
1169348,20
1169968,19
1170600,19
1171216,13
1171844,10
1172468,12
1173092,14
1173720,13
1174344,13
1174972,13
1175604,11
1176224,11
1176852,13
1177476,17
1178108,17
1178736,14
1179360,13
1179988,13
1180612,10
1181236,11
1181864,10
1182488,13
1183116,16
1183740,22
1184368,24
1184996,22
1185620,17
1186248,15
1186876,15
1187496,12
1188124,12
1188748,10
1189380,10
1190008,11
1190628,14
1191256,14
1191880,15
1192504,19
1193132,24
1193752,23
1194380,16
1195004,14
1195632,18
1196260,21
1196884,16
1197516,16
1198144,17
1198768,16
1199396,15
1200020,18
1200644,19
1201272,16
1201896,13
1202524,14
1203148,14
1203776,14
1204404,12
1205024,13
1205652,12
1206280,10
1206904,15
1207532,17
1208156,18
1208788,13
1209416,10
1210040,13
1210668,14
1211292,14
1211916,15
1212548,10
1213168,12
1213796,12
1214420,11
1215044,10
1215676,10
1216296,14
1216924,19
1217552,30
1218176,35
1218804,32
1219428,25
1220060,17
1220688,13
1221304,10
1221936,11
1222560,11
1223184,11
1223812,13
1224432,15
1225060,13
1225684,11
1226308,11
1226940,14
1227560,14
1228188,14
1228820,18
1229436,18
1230064,11
1230688,10
1231316,14
1231948,14
1232568,14
1233196,13
1233820,15
1234444,11
1235072,22
1235688,31
1236320,29
1236940,21
1237564,15
1238196,10
1238816,10
1239444,10
1240076,14
1240696,15
1241324,10
1241948,10
1242576,12
1243204,14
1243824,14
1244452,13
1245076,14
1245700,14
1246332,11
1246952,14
1247580,12
1248204,11
1248828,11
1249456,11
1250080,13
1250708,16
1251336,15
1251952,14
1252584,15
1253208,19
1253836,22
1254468,18
1255088,12
1255716,12
1256340,12
1256964,10
1257596,12
1258216,16
1258844,13
1259468,11
1260092,15
1260724,14
1261344,14
1261972,14
1262604,11
1263224,11
1263852,10
1264476,11
1265108,12
1265740,10
1266360,11
1266988,11
1267616,14
1268236,22
1268868,25
1269488,19
1270116,17
1270740,17
1271364,15
1271996,10
1272616,11
1273244,11
1273876,11
1274496,12
1275124,13
1275752,15
1276380,13
1277012,12
1277632,13
1278260,16
1278888,20
1279512,15
1280144,10
1280756,15
1281384,15
1282008,18
1282628,12
1283256,10
1283872,12
1284500,14
1285128,21
1285744,24
1286372,19
1286996,14
1287624,12
1288252,10
1288868,12
1289500,11
1290120,11
1290752,11
1291380,10
1292000,10
1292628,11
1293252,13
1293872,15
1294500,14
1295120,15
1295748,15
1296372,11
1296996,12
1297624,17
1298244,19
1298872,16
1299504,17
1300120,12
1300748,18
1301372,27
1302000,28
1302632,24
1303248,17
1303876,15
1304500,16
1305124,14
1305752,12
1306376,11
1307004,17
1307628,16
1308252,17
1308880,17
1309496,13
1310124,19
1310756,16
1311372,16
1312004,14
1312624,11
1313252,10
1313880,12
1314496,17
1315124,21
1315748,30
1316368,26
1316996,28
1317616,27
1318244,24
1318868,20
1319488,15
1320116,14
1320736,15
1321364,13
1321992,10
1322608,11
1323236,11
1323860,12
1324488,11
1325116,12
1325736,11
1326364,13
1326988,14
1327616,14
1328244,14
1328860,15
1329492,15
1330112,14
1330736,11
1331368,11
1331984,10
1332612,15
1333232,21
1333852,24
1334484,20
1335104,22
1335732,16
1336360,16
1336980,19
1337612,12
1338232,11
1338860,12
1339488,10
1340112,13
1340740,16
1341364,15
1341988,13
1342616,21
1343232,22
1343860,14
1344484,20
1345108,23
1345736,19
1346352,14
1346980,10
1347608,11
1348232,18
1348860,23
1349480,24
1350112,25
1350740,20
1351360,14
1351988,13
1352612,14
1353232,13
1353864,18
1354480,18
1355108,16
1355732,10
1356356,10
1356984,11
1357600,16
1358228,15
1358856,13
1359472,11
1360104,13
1360724,13
1361352,13
1361984,14
1362600,11
1363228,10
1363848,12
1364476,12
1365104,11
1365720,12
1366352,17
1366976,17
1367600,17
1368228,18
1368848,18
1369476,14
1370100,13
1370724,13
1371352,11
1371976,9
1372552,11
1373184,11
1373808,15
1374436,11
1375060,11
1375688,11
1376316,12
1376936,13
1377564,13
1378188,15
1378816,17
1379444,18
1380064,17
1380692,13
1381316,11
1381940,15
1382568,19
1383188,20
1383820,26
1384444,30
1385064,29
1385692,19
1386316,15
1386944,14
1387572,10
1388192,11
1388820,14
1389444,14
1390072,10
1390700,11
1391320,12
1391948,11
1392576,11
1393200,16
1393828,15
1394448,15
1395076,17
1395700,13
1396324,10
1396952,11
1397576,11
1398204,11
1398836,12
1399456,11
1400084,16
1400708,14
1401336,12
1401964,14
1402584,19
1403212,21
1403836,16
1404460,14
1405088,12
1405708,12
1406336,11
1406960,13
1407584,12
1408216,11
1408836,11
1409464,11
1410092,12
1410712,15
1411340,14
1411964,14
1412592,16
1413220,24
1413840,21
1414468,13
1415088,17
1415712,29
1416340,31
1416960,28
1417588,18
1418212,17
1418836,14
1419464,15
1420088,15
1420716,15
1421348,18
1421968,14
1422596,11
1423220,10
1423852,13
1424480,11
1425096,10
1425728,12
1426352,14
1426976,17
1427604,20
1428224,18
1428852,15
1429476,11
1430100,11
1430732,12
1431352,17
1431984,15
1432612,10
1433232,11
1433864,14
1434484,21
1435112,24
1435744,19
1436360,18
1436988,16
1437612,15
1438236,13
1438864,15
1439480,12
1440112,11
1440732,13
1441356,14
1441984,13
1442600,11
1443228,12
1443856,13
1444472,16
1445100,20
1445724,16
1446352,13
1446980,16
1447600,14
1448228,12
1448852,11
1449476,17
1450108,22
1450728,19
1451356,16
1451980,18
1452604,17
1453232,20
1453856,20
1454484,12
1455112,10
1455736,10
1456364,15
1456988,13
1457616,10
1458248,12
1458864,11
1459492,11
1460116,13
1460740,13
1461372,14
1461992,15
1462620,11
1463244,11
1463868,10
1464496,10
1465120,11
1465748,17
1466376,22
1467000,25
1467628,21
1468252,19
1468880,21
1469512,17
1470128,14
1470756,13
1471380,13
1472008,21
1472636,18
1473256,11
1473884,10
1474508,11
1475132,13
1475764,11
1476384,12
1477012,14
1477640,14
1478264,15
1478892,14
1479516,11
1480144,11
1480776,11
1481392,12
1482020,13
1482644,11
1483268,11
1483900,10
1484520,12
1485148,20
1485772,19
1486396,17
1487024,17
1487640,11
1488272,23
1488892,18
1489520,18
1490148,17
1490772,12
1491400,17
1492028,20
1492648,20
1493276,17
1493900,13
1494528,16
1495160,14
1495776,13
1496404,11
1497028,19
1497652,27
1498280,22
1498896,14
1499524,11
1500148,11
1500772,11
1501404,17
1502028,17
1502656,17
1503284,20
1503904,26
1504536,22
1505160,13
1505788,11
1506420,10
1507040,14
1507668,15
1508292,16
1508916,14
1509548,11
1510168,14
1510800,14
1511420,12
1512048,15
1512676,12
1513300,11
1513932,11
1514560,14
1515184,13
1515816,11
1516440,21
1517064,23
1517692,18
1518312,25
1518940,21
1519568,15
1520192,15
1520820,12
1521440,15
1522068,19
1522696,16
1523320,11
1523948,16
1524572,16
1525204,13
1525832,10
1526448,18
1527080,20
1527704,20
1528328,16
1528956,15
1529576,28
1530208,29
1530832,19
1531456,16
1532084,16
1532704,13
1533336,13
1533964,11
1534584,11
1535216,14
1535840,15
1536472,17
1537100,14
1537720,12
1538348,11
1538972,10
1539592,11
1540224,13
1540840,11
1541468,13
1542092,14
1542716,13
1543344,13
1543960,16
1544592,27
1545220,27
1545840,14
1546468,13
1547092,21
1547720,23
1548352,15
1548968,11
1549596,14
1550220,20
1550852,22
1551480,17
1552104,18
1552732,20
1553356,21
1553980,18
1554612,12
1555232,12
1555860,11
1556492,10
1557112,13
1557740,17
1558364,19
1558996,13
1559624,12
1560244,13
1560872,14
1561496,13
1562120,14
1562748,11
1563368,12
1563996,10
1564620,10
1565244,11
1565876,10
1566496,12
1567124,12
1567756,17
1568376,21
1569004,18
1569628,16
1570256,16
1570884,11
1571504,11
1572132,13
1572756,14
1573384,19
1574012,16
1574632,10
1575260,11
1575884,13
1576508,16
1577140,16
1577760,14
1578388,15
1579020,20
1579640,14
1580268,11
1580892,14
1581524,12
1582152,11
1582772,11
1583400,12
1584024,15
1584648,20
1585276,22
1585896,26
1586528,28
1587152,26
1587776,18
1588404,10
1589024,11
1589652,14
1590284,14
1590904,11
1591532,14
1592160,14
1592788,11
1593420,14
1594040,15
1594668,14
1595296,14
1595920,11
1596548,11
1597168,11
1597800,11
1598424,12
1599048,11
1599676,12
1600296,17
1600924,21
1601552,28
1602168,27
1602796,21
1603420,21
1604048,19
1604676,12
1605296,11
1605924,16
1606548,20
1607172,17
1607804,10
1608424,10
1609052,11
1609672,12
1610296,14
1610924,14
1611544,14
1612172,14
1612796,10
1613424,11
1614052,11
1614676,11
1615304,12
1615936,11
1616552,13
1617184,19
1617808,22
1618436,22
1619064,18
1619688,15
1620316,14
1620940,12
1621564,18
1622192,22
1622816,17
1623444,10
1624076,16
1624696,20
1625324,18
1625948,22
1626576,20
1627208,13
1627824,14
1628452,14
1629076,12
1629700,14
1630332,14
1630952,15
1631580,14
1632208,11
1632828,12
1633460,10
1634080,11
1634708,15
1635340,21
1635960,24
1636588,18
1637212,15
1637844,11
1638472,11
1639092,10
1639720,11
1640340,11
1640964,10
1641592,10
1642208,11
1642836,11
1643456,14
1644080,18
1644708,17
1645328,15
1645956,10
1646576,11
1647200,13
1647828,11
1648452,11
1649080,15
1649708,14
1650324,11
1650956,11
1651576,16
1652204,13
1652832,14
1653452,15
1654084,17
1654704,17
1655328,15
1655956,14
1656576,13
1657204,13
1657828,10
1658448,10
1659080,11
1659696,14
1660324,17
1660952,19
1661568,24
1662196,20
1662820,11
1663448,13
1664076,10
1664692,15
1665320,16
1665940,13
1666564,13
1667192,13
1667808,13
1668436,16
1669060,14
1669680,13
1670308,14
1670928,12
1671556,11
1672180,16
1672800,12
1673428,12
1674052,18
1674680,26
1675308,16
1675928,11
1676556,14
1677180,14
1677808,14
1678436,13
1679056,12
1679684,13
1680308,16
1680928,21
1681556,14
1682176,11
1682804,13
1683424,11
1684048,13
1684676,18
1685292,21
1685920,20
1686552,19
1687168,21
1687796,13
1688420,11
1689048,13
1689676,14
1690292,15
1690920,13
1691544,16
1692164,19
1692792,13
1693416,13
1694044,15
1694668,14
1695292,14
1695920,12
1696536,11
1697164,11
1697788,10
1698416,11
1699044,11
1699664,12
1700296,14
1700924,10
1701544,13
1702172,14
1702796,14
1703424,17
1704052,20
1704668,19
1705300,13
1705920,11
1706544,12
1707172,10
1707792,11
1708420,11
1709044,12
1709668,12
1710296,13
1710920,14
1711548,15
1712180,15
1712800,12
1713428,12
1714052,15
1714680,14
1715312,11
1715928,11
1716556,12
1717180,17
1717804,26
1718432,24
1719056,15
1719684,14
1720308,14
1720932,11
1721560,12
1722184,10
1722812,13
1723444,14
1724064,16
1724692,15
1725316,16
1725944,14
1726576,15
1727192,15
1727820,14
1728448,15
1729068,11
1729696,12
1730320,11
1730948,12
1731572,16
1732196,21
1732824,27
1733444,22
1734076,26
1734704,22
1735320,23
1735952,25
1736576,17
1737204,13
1737836,10
1738456,13
1739084,15
1739708,19
1740332,18
1740964,10
1741580,18
1742212,16
1742832,13
1743456,15
1744084,13
1744708,13
1745336,15
1745964,11
1746584,13
1747212,17
1747832,15
1748464,12
1749092,11
1749712,13
1750340,18
1750964,17
1751588,19
1752220,14
1752840,15
1753468,16
1754092,12
1754716,15
1755348,17
1755972,14
1756600,11
1757228,10
1757848,12
1758476,11
1759100,11
1759732,14
1760364,14
1760984,19
1761612,18
1762232,15
1762856,11
1763484,10
1764104,15
1764732,13
1765356,16
1765980,17
1766608,12
1767224,12
1767852,12
1768480,20
1769100,21
1769732,17
1770356,13
1770984,11
1771612,10
1772232,11
1772860,10
1773484,10
1774108,10
1774736,10
1775352,10
1775984,11
1776608,13
1777232,14
1777860,16
1778480,19
1779108,18
1779740,14
1780360,12
1780988,12
1781612,13
1782244,13
1782872,11
1783492,11
1784120,11
1784744,14
1785368,19
1785996,18
1786616,19
1787244,21
1787868,22
1788492,15
1789124,10
1789744,10
1790372,11
1791004,10
1791624,11
1792256,12
1792876,11
1793504,14
1794136,18
1794752,20
1795380,16
1796004,13
1796628,11
1797256,13
1797872,14
1798500,11
1799124,14
1799748,12
1800376,14
1800992,17
1801624,18
1802252,16
1802868,16
1803500,17
1804120,22
1804752,24
1805380,18
1806000,13
1806628,10
1807252,11
1807876,16
1808508,12
1809128,13
1809756,15
1810380,14
1811000,15
1811632,14
1812248,15
1812876,11
1813500,14
1814128,13
1814756,11
1815380,11
1816008,11
1816636,12
1817256,22
1817884,29
1818508,25
1819136,19
1819768,18
1820384,23
1821012,22
1821636,17
1822260,11
1822888,11
1823512,14
1824140,11
1824764,10
1825392,11
1826020,10
1826644,14
1827272,19
1827900,14
1828520,13
1829148,11
1829772,10
1830400,11
1831028,10
1831648,12
1832276,12
1832900,15
1833524,15
1834156,12
1834776,15
1835404,16
1836028,16
1836656,14
1837284,13
1837908,11
1838540,11
1839172,10
1839792,20
1840424,28
1841048,27
1841672,22
1842300,14
1842920,12
1843548,13
1844172,17
1844792,18
1845424,19
1846040,19
1846668,13
1847292,12
1847912,14
1848544,24
1849168,27
1849796,31
1850424,22
1851040,14
1851668,21
1852292,17
1852920,15
1853552,14
1854168,12
1854796,11
1855420,9
1855992,10
1856624,15
1857240,14
1857868,12
1858492,11
1859116,11
1859744,12
1860368,14
1860996,14
1861620,14
1862244,15
1862872,10
1863496,11
1864124,11
1864756,10
1865376,11
1866004,11
1866628,13
1867256,15
1867888,15
1868504,21
1869132,16
1869756,15
1870380,14
1871012,10
1871632,12
1872260,11
1872884,10
1873508,10
1874140,11
1874764,18
1875392,18
1876020,11
1876640,13
1877268,15
1877892,15
1878524,14
1879152,12
1879772,12
1880400,14
1881024,19
1881648,17
1882276,20
1882896,23
1883524,19
1884148,15
1884772,21
1885404,19
1886028,14
1886656,16
1887288,14
1887904,11
1888536,10
1889156,9
1889736,10
1890364,10
1890984,11
1891612,11
1892236,11
1892868,11
1893496,13
1894120,14
1894748,15
1895372,19
1895996,15
1896628,10
1897248,12
1897876,12
1898508,12
1899128,19
1899756,20
1900384,19
1901012,17
1901644,18
1902264,14
1902892,14
1903516,13
1904144,12
1904772,12
1905392,11
1906020,11
1906644,13
1907268,11
1907900,10
1908520,11
1909148,10
1909780,13
1910400,13
1911028,13
1911652,14
1912284,13
1912916,10
1913536,12
1914168,11
1914792,14
1915416,12
1916048,11
1916664,11
1917296,15
1917920,17
1918544,16
1919176,18
1919796,14
1920428,17
1921056,18
1921672,19
1922300,20
1922924,15
1923552,14
1924184,16
1924800,18
1925428,15
1926052,11
1926676,19
1927304,28
1927920,25
1928552,25
1929176,21
1929796,15
1930428,14
1931048,11
1931676,11
1932308,10
1932928,13
1933556,16
1934180,24
1934812,36
1935440,29
1936056,18
1936684,14
1937308,13
1937932,10
1938564,11
1939184,11
1939812,11
1940440,13
1941064,17
1941692,20
1942312,19
1942944,14
1943572,13
1944192,13
1944820,15
1945448,15
1946076,13
1946708,12
1947328,11
1947956,10
1948580,11
1949204,10
1949832,11
1950456,13
1951084,15
1951708,16
1952332,16
1952964,14
1953584,15
1954212,14
1954844,12
1955464,11
1956092,10
1956716,11
1957348,11
1957976,13
1958600,14
1959228,13
1959852,14
1960476,15
1961108,16
1961728,14
1962356,14
1962980,11
1963604,12
1964236,10
1964856,11
1965484,10
1966116,10
1966736,13
1967364,16
1967984,22
1968616,27
1969244,25
1969864,25
1970492,23
1971116,26
1971740,23
1972368,21
1972992,16
1973620,11
1974244,17
1974868,24
1975496,23
1976116,21
1976744,21
1977372,14
1977992,15
1978620,17
1979244,13
1979872,11
1980504,13
1981120,12
1981752,12
1982376,12
1983000,11
1983628,16
1984248,25
1984876,19
1985500,21
1986124,25
1986752,31
1987368,31
1988000,30
1988628,14
1989248,11
1989876,13
1990500,14
1991128,12
1991760,10
1992376,11
1993008,13
1993632,14
1994256,13
1994884,16
1995504,15
1996136,12
1996760,12
1997384,12
1998012,10
1998632,12
1999260,10
1999892,10
2000512,12
2001140,21
2001764,22
2002392,16
2003024,17
2003640,15
2004268,11
2004892,19
2005516,15
2006144,10
2006768,11
2007396,10
2008020,10
2008644,11
2009272,10
2009892,13
2010520,14
2011148,13
2011768,15
2012396,13
2013020,11
2013652,10
2014280,11
2014896,11
2015528,12
2016152,12
2016776,15
2017404,17
2018024,20
2018652,16
2019276,14
2019900,13
2020528,15
2021148,11
2021776,11
2022404,10
2023020,10
2023652,10
2024276,10
2024908,15
2025536,15
2026156,12
2026784,14
2027408,14
2028036,15
2028668,14
2029288,13
2029916,12
2030540,14
2031164,18
2031796,16
2032416,14
2033044,11
2033676,11
2034296,12
2034924,14
2035552,14
2036180,14
2036812,16
2037432,13
2038064,11
2038688,14
2039312,14
2039944,13
2040560,11
2041192,11
2041816,11
2042440,11
2043068,13
2043688,14
2044316,15
2044948,16
2045568,15
2046200,11
2046824,11
2047452,11
2048084,13
2048700,11
2049328,13
2049948,11
2050572,15
2051196,16
2051816,21
2052444,18
2053064,16
2053688,14
2054316,10
2054936,12
2055564,10
2056184,11
2056808,14
2057436,11
2058060,10
2058688,11
2059316,10
2059936,13
2060564,13
2061184,14
2061816,14
2062444,11
2063060,11
2063692,14
2064312,15
2064936,21
2065564,32
2066184,33
2066812,25
2067436,17
2068056,16
2068688,17
2069304,14
2069932,15
2070560,15
2071176,13
2071804,15
2072428,14
2073056,18
2073684,17
2074300,11
2074932,11
2075552,10
2076176,12
2076804,18
2077420,26
2078052,19
2078676,15
2079300,13
2079928,25
2080552,27
2081180,18
2081808,13
2082424,10
2083052,12
2083676,17
2084304,15
2084932,17
2085552,21
2086180,23
2086804,23
2087428,17
2088056,14
2088680,13
2089308,11
2089928,10
2090552,14
2091180,15
2091800,22
2092428,24
2093052,22
2093680,17
2094308,12
2094932,16
2095560,17
2096188,16
2096808,13
2097436,11
2098060,10
2098688,11
2099316,12
2099932,17
2100564,12
2101184,12
2101808,15
2102436,16
2103056,19
2103684,19
2104308,16
2104932,14
2105560,10
2106184,10
2106812,12
2107444,15
2108064,12
2108692,12
2109316,13
2109948,14
2110576,13
2111192,13
2111824,13
2112448,13
2113068,12
2113700,10
2114320,12
2114948,11
2115572,11
2116196,12
2116824,15
2117448,15
2118076,14
2118708,14
2119328,15
2119956,14
2120580,14
2121212,13
2121840,12
2122456,10
2123088,15
2123712,17
2124336,12
2124964,12
2125580,14
2126212,11
2126836,13
2127460,14
2128088,14
2128712,15
2129340,11
2129968,12
2130588,13
2131220,15
2131840,13
2132468,15
2133096,16
2133720,18
2134348,18
2134972,17
2135596,14
2136228,14
2136848,15
2137476,14
2138100,11
2138724,11
2139352,10
2139976,11
2140604,11
2141236,10
2141856,11
2142484,13
2143108,14
2143740,14
2144368,14
2144984,14
2145616,14
2146236,13
2146860,11
2147492,11
2148112,11
2148740,11
2149364,11
2149988,11
2150620,11
2151244,16
2151872,27
2152500,26
2153120,20
2153748,17
2154372,14
2155000,11
2155628,11
2156248,11
2156876,11
2157500,10
2158124,11
2158752,10
2159372,11
2160000,14
2160620,15
2161244,14
2161876,20
2162500,18
2163128,11
2163756,10
2164376,10
2165004,11
2165628,10
2166260,10
2166888,13
2167504,22
2168136,24
2168760,21
2169384,22
2170012,16
2170632,15
2171260,13
2171884,11
2172508,13
2173140,14
2173760,10
2174392,16
2175024,16
2175640,14
2176272,13
2176892,13
2177520,14
2178152,18
2178768,17
2179396,11
2180020,11
2180644,10
2181272,12
2181888,12
2182516,13
2183140,13
2183764,16
2184392,20
2185008,23
2185640,23
2186268,15
2186888,15
2187516,11
2188140,11
2188768,10
2189400,12
2190020,16
2190648,17
2191272,13
2191896,11
2192524,10
2193144,14
2193772,13
2194396,13
2195020,15
2195652,14
2196272,11
2196900,12
2197532,12
2198152,11
2198780,11
2199408,12
2200036,14
2200664,17
2201288,19
2201916,16
2202540,14
2203164,15
2203796,14
2204416,11
2205044,10
2205668,12
2206292,14
2206924,10
2207544,13
2208172,13
2208804,10
2209424,11
2210052,13
2210676,13
2211308,13
2211936,17
2212556,20
2213184,17
2213808,11
2214432,11
2215060,12
2215680,13
2216308,14
2216932,13
2217556,12
2218188,15
2218808,16
2219436,18
2220068,19
2220688,21
2221316,16
2221944,13
2222572,10
2223204,10
2223824,11
2224456,13
2225080,13
2225704,16
2226332,12
2226952,13
2227584,13
2228208,14
2228828,14
2229460,10
2230084,10
2230712,10
2231344,11
2231964,11
2232596,10
2233220,11
2233848,11
2234476,11
2235096,15
2235728,17
2236352,23
2236976,24
2237604,20
2238224,16
2238856,12
2239480,12
2240104,11
2240732,10
2241356,10
2241984,10
2242612,10
2243232,15
2243860,15
2244484,16
2245112,18
2245744,14
2246360,11
2246988,11
2247612,11
2248236,11
2248868,10
2249488,12
2250116,11
2250740,15
2251368,23
2251996,23
2252620,20
2253252,19
2253880,16
2254504,16
2255132,13
2255756,10
2256384,15
2257016,17
2257632,12
2258260,11
2258884,13
2259508,13
2260136,16
2260752,15
2261384,15
2262008,14
2262632,11
2263260,10
2263884,10
2264512,11
2265144,10
2265760,11
2266388,12
2267012,15
2267644,16
2268272,18
2268896,17
2269524,15
2270148,15
2270772,13
2271404,13
2272024,11
2272652,12
2273276,18
2273904,17
2274532,15
2275156,13
2275788,10
2276420,13
2277040,15
2277668,18
2278292,17
2278920,15
2279548,11
2280168,14
2280796,16
2281420,15
2282044,11
2282676,10
2283296,14
2283924,16
2284556,22
2285176,27
2285804,17
2286428,16
2287060,14
2287688,12
2288312,13
2288940,11
2289568,10
2290192,11
2290820,10
2291440,11
2292068,14
2292692,17
2293320,17
2293948,14
2294568,15
2295196,14
2295828,14
2296448,20
2297076,18
2297700,13
2298332,11
2298960,12
2299576,11
2300208,11
2300832,13
2301456,13
2302084,16
2302704,21
2303336,25
2303960,25
2304584,20
2305212,16
2305832,12
2306460,12
2307088,14
2307712,16
2308340,16
2308964,13
2309592,11
2310220,13
2310840,13
2311468,13
2312092,14
2312716,11
2313348,10
2313968,11
2314596,11
2315220,12
2315844,11
2316472,12
2317096,15
2317724,17
2318356,19
2318976,18
2319604,17
2320228,15
2320860,14
2321488,11
2322104,12
2322732,10
2323356,17
2323980,21
2324612,20
2325232,20
2325860,11
2326484,18
2327108,22
2327736,18
2328360,15
2328988,15
2329620,12
2330240,11
2330868,12
2331492,10
2332120,10
2332752,11
2333372,11
2334000,15
2334624,21
2335252,22
2335880,18
2336504,17
2337132,15
2337756,19
2338380,17
2339012,12
2339632,11
2340260,9
2340832,13
2341464,11
2342092,10
2342712,15
2343340,18
2343972,14
2344592,15
2345220,22
2345844,18
2346476,16
2347104,13
2347728,11
2348356,11
2348984,11
2349608,11
2350236,14
2350856,12
2351484,17
2352112,15
2352736,14
2353364,17
2353988,20
2354620,22
2355252,14
2355872,13
2356500,9
2357072,10
2357700,12
2358332,14
2358952,13
2359584,13
2360208,17
2360836,15
2361468,14
2362088,14
2362716,11
2363340,12
2363964,12
2364596,10
2365216,11
2365844,12
2366476,10
2367096,13
2367728,13
2368352,21
2368980,19
2369612,16
2370232,15
2370860,12
2371484,12
2372112,12
2372740,10
2373360,12
2373988,12
2374616,11
2375240,11
2375868,10
2376488,14
2377116,14
2377748,17
2378368,22
2378996,17
2379620,11
2380252,11
2380884,10
2381504,11
2382132,11
2382756,13
2383380,19
2384012,24
2384632,25
2385260,21
2385884,15
2386512,15
2387140,18
2387760,17
2388388,17
2389020,18
2389640,11
2390272,21
2390896,25
2391524,21
2392156,14
2392776,11
2393408,13
2394032,17
2394656,19
2395288,14
2395904,14
2396536,18
2397160,19
2397784,14
2398412,10
2399032,13
2399664,13
2400296,12
2400912,21
2401540,23
2402164,17
2402796,20
2403424,17
2404044,13
2404672,11
2405296,11
2405920,11
2406548,11
2407168,11
2407796,11
2408420,11
2409044,11
2409672,13
2410288,13
2410920,14
2411548,14
2412168,14
2412796,13
2413420,15
2414052,11
2414684,12
2415304,12
2415936,12
2416560,15
2417184,23
2417812,23
2418432,25
2419060,21
2419684,19
2420308,13
2420940,12
2421560,17
2422188,17
2422820,14
2423440,13
2424068,13
2424692,13
2425324,11
2425956,13
2426576,15
2427204,13
2427828,15
2428456,14
2429084,11
2429704,13
2430336,11
2430960,13
2431584,15
2432216,13
2432840,12
2433468,13
2434096,17
2434720,22
2435348,26
2435972,29
2436604,21
2437236,15
2437856,13
2438484,11
2439108,11
2439732,12
2440364,10
2440984,11
2441612,13
2442236,10
2442864,13
2443492,15
2444120,13
2444748,14
2445380,14
2446000,14
2446628,14
2447256,14
2447880,14
2448508,12
2449128,15
2449756,11
2450384,11
2451008,15
2451636,16
2452256,15
2452888,14
2453516,14
2454136,13
2454768,17
2455392,24
2456024,20
2456652,18
2457272,15
2457904,11
2458528,16
2459148,21
2459780,18
2460400,13
2461028,13
2461652,14
2462276,13
2462904,11
2463520,14
2464152,11
2464780,10
2465400,11
2466028,13
2466652,14
2467280,12
2467908,14
2468528,18
2469156,14
2469780,13
2470404,13
2471036,13
2471656,17
2472284,15
2472908,13
2473532,11
2474164,10
2474784,11
2475412,11
2476044,10
2476664,14
2477292,15
2477920,16
2478548,15
2479180,10
2479800,11
2480428,11
2481052,10
2481676,11
2482308,11
2482928,13
2483556,11
2484180,13
2484804,17
2485432,14
2486052,14
2486680,14
2487308,15
2487928,15
2488556,13
2489180,13
2489812,12
2490440,13
2491060,11
2491688,11
2492312,12
2492936,17
2493564,17
2494184,16
2494812,14
2495436,13
2496064,11
2496692,10
2497312,12
2497940,10
2498572,10
2499192,11
2499820,17
2500444,21
2501076,19
2501704,21
2502328,15
2502956,16
2503584,15
2504208,12
2504836,12
2505456,12
2506084,11
2506708,10
2507332,12
2507964,11
2508584,13
2509216,11
2509844,12
2510464,14
2511092,14
2511716,14
2512348,12
2512976,11
2513600,15
2514228,12
2514852,11
2515476,13
2516108,12
2516728,14
2517356,12
2517984,18
2518608,24
2519236,23
2519856,18
2520488,16
2521116,12
2521736,12
2522364,10
2522988,11
2523620,11
2524252,12
2524872,17
2525500,11
2526124,11
2526752,13
2527380,15
2528000,16
2528628,14
2529252,11
2529876,11
2530508,12
2531128,15
2531760,13
2532388,14
2533008,16
2533640,17
2534264,19
2534896,23
2535524,19
2536144,17
2536772,17
2537400,20
2538024,17
2538656,14
2539272,10
2539904,14
2540528,15
2541152,14
2541780,11
2542408,12
2543036,13
2543668,12
2544288,14
2544916,19
2545544,18
2546172,12
2546804,11
2547424,11
2548052,11
2548680,11
2549304,12
2549932,10
2550552,13
2551184,19
2551812,19
2552432,21
2553064,20
2553688,18
2554316,15
2554948,16
2555568,18
2556200,12
2556824,11
2557448,10
2558080,10
2558696,12
2559328,12
2559956,14
2560584,13
2561208,14
2561828,14
2562456,12
2563088,11
2563704,11
2564332,11
2564956,11
2565584,11
2566212,12
2566832,12
2567460,11
2568084,14
2568708,16
2569336,13
2569960,20
2570588,19
2571212,16
2571832,14
2572460,14
2573080,11
2573708,16
2574332,18
2574960,15
2575588,13
2576212,13
2576840,14
2577472,12
2578088,15
2578716,15
2579340,15
2579968,14
2580600,15
2581216,15
2581844,12
2582468,11
2583088,11
2583720,11
2584336,11
2584964,15
2585588,15
2586212,14
2586840,14
2587464,13
2588092,13
2588724,12
2589344,10
2589972,10
2590596,10
2591228,10
2591856,10
2592476,10
2593104,14
2593728,15
2594352,15
2594980,14
2595600,13
2596228,11
2596852,10
2597476,12
2598104,13
2598728,10
2599360,11
2599988,10
2600608,12
2601236,17
2601860,23
2602492,26
2603120,22
2603736,17
2604368,12
2604992,11
2605616,11
2606244,12
2606864,13
2607492,15
2608116,14
2608740,11
2609372,10
2609996,13
2610624,14
2611252,14
2611872,13
2612500,11
2613124,10
2613752,11
2614380,10
2615000,11
2615628,11
2616256,12
2616880,17
2617508,18
2618128,21
2618756,16
2619380,13
2620004,15
2620636,13
2621260,14
2621892,14
2622520,13
2623136,11
2623768,11
2624388,11
2625016,12
2625644,11
2626260,12
2626892,15
2627512,16
2628136,20
2628764,20
2629384,13
2630012,10
2630636,12
2631256,11
2631888,11
2632504,11
2633132,11
2633760,13
2634376,14
2635008,18
2635632,15
2636260,15
2636888,17
2637504,17
2638132,18
2638756,15
2639380,11
2640008,14
2640624,16
2641252,15
2641876,13
2642500,11
2643128,14
2643744,15
2644372,15
2645004,14
2645624,14
2646252,11
2646876,11
2647504,12
2648132,10
2648752,12
2649380,12
2650004,11
2650628,11
2651260,18
2651880,19
2652508,16
2653132,14
2653756,16
2654384,19
2655004,13
2655632,9
2656204,10
2656832,10
2657460,10
2658080,12
2658708,15
2659336,13
2659956,13
2660584,15
2661208,14
2661836,13
2662468,10
2663084,11
2663712,11
2664336,13
2664964,10
2665592,11
2666208,12
2666836,13
2667460,15
2668084,17
2668712,17
2669328,15
2669956,14
2670580,13
2671204,11
2671832,13
2672456,11
2673084,12
2673712,10
2674336,13
2674964,15
2675588,11
2676216,12
2676844,12
2677464,17
2678092,14
2678716,13
2679336,10
2679968,12
2680584,13
2681216,13
2681840,11
2682460,13
2683092,12
2683716,12
2684344,22
2684972,22
2685592,21
2686220,22
2686844,24
2687472,22
2688104,16
2688720,11
2689348,12
2689968,11
2690592,11
2691220,11
2691836,13
2692468,13
2693092,14
2693716,14
2694344,13
2694960,14
2695592,13
2696220,11
2696840,13
2697468,17
2698092,20
2698720,20
2699348,11
2699968,23
2700596,37
2701224,39
2701844,30
2702476,17
2703096,14
2703724,15
2704348,10
2704972,10
2705600,10
2706216,10
2706844,13
2707476,16
2708096,19
2708724,14
2709348,12
2709976,15
2710608,14
2711224,14
2711856,14
2712480,12
2713100,18
2713732,24
2714352,23
2714980,16
2715604,11
2716224,11
2716856,11
2717472,13
2718100,17
2718732,18
2719352,16
2719980,15
2720608,13
2721236,10
2721864,10
2722480,10
2723112,18
2723736,25
2724360,16
2724988,14
2725608,11
2726236,17
2726860,20
2727480,17
2728112,16
2728728,15
2729356,10
2729980,10
2730608,12
2731236,10
2731860,12
2732488,11
2733120,10
2733736,11
2734364,12
2734988,19
2735620,19
2736248,14
2736872,15
2737500,12
2738124,10
2738748,11
2739380,12
2740000,11
2740628,10
2741256,10
2741880,11
2742508,11
2743132,14
2743764,13
2744392,14
2745008,13
2745640,13
2746260,11
2746884,10
2747516,10
2748136,11
2748764,11
2749388,13
2750016,12
2750644,12
2751264,16
2751892,17
2752524,14
2753144,17
2753772,16
2754396,13
2755028,11
2755656,19
2756276,23
2756904,18
2757528,13
2758152,11
2758780,11
2759400,19
2760028,17
2760652,15
2761276,14
2761908,14
2762528,12
2763156,14
2763788,16
2764408,16
2765036,17
2765660,12
2766288,12
2766920,11
2767536,13
2768164,16
2768788,16
2769412,17
2770044,14
2770664,13
2771292,14
2771916,16
2772540,16
2773168,18
2773792,16
2774420,12
2775052,10
2775672,15
2776300,19
2776928,19
2777556,15
2778188,15
2778808,14
2779436,11
2780064,11
2780688,12
2781316,12
2781936,11
2782564,11
2783192,14
2783816,13
2784448,11
2785064,13
2785692,14
2786324,13
2786944,19
2787572,16
2788196,15
2788824,15
2789456,12
2790072,11
2790704,13
2791324,15
2791948,11
2792580,10
2793200,15
2793828,14
2794452,14
2795076,13
2795708,12
2796328,11
2796956,11
2797588,10
2798208,11
2798836,11
2799460,11
2800092,11
2800720,14
2801344,19
2801972,21
2802596,17
2803220,15
2803848,16
2804464,14
2805096,15
2805720,11
2806344,13
2806972,21
2807592,26
2808220,25
2808852,14
2809472,11
2810100,13
2810724,17
2811356,14
2811984,14
2812608,13
2813236,21
2813864,20
2814488,13
2815116,10
2815736,16
2816368,23
2816988,22
2817612,22
2818240,28
2818856,21
2819484,15
2820116,14
2820736,13
2821364,11
2821988,12
2822616,11
2823248,11
2823864,15
2824492,13
2825116,11
2825740,10
2826372,12
2826992,13
2827620,13
2828244,14
2828868,15
2829496,10
2830112,11
2830740,10
2831372,10
2831992,11
2832620,11
2833244,11
2833876,12
2834504,13
2835128,15
2835756,16
2836384,19
2837008,22
2837636,20
2838256,15
2838884,11
2839508,10
2840132,12
2840764,11
2841384,13
2842016,10
2842644,10
2843264,13
2843892,14
2844516,13
2845148,15
2845776,14
2846396,15
2847024,14
2847648,10
2848272,11
2848904,11
2849520,15
2850148,13
2850772,11
2851396,13
2852028,17
2852648,19
2853276,21
2853908,23
2854528,15
2855156,10
2855780,11
2856412,10
2857040,12
2857664,19
2858292,27
2858916,24
2859540,16
2860172,14
2860792,14
2861424,17
2862048,19
2862672,17
2863304,17
2863920,14
2864552,11
2865184,10
2865800,10
2866432,19
2867056,28
2867688,25
2868316,20
2868936,14
2869564,13
2870188,14
2870812,11
2871440,10
2872064,11
2872692,10
2873316,10
2873940,11
2874568,10
2875192,10
2875820,11
2876452,14
2877072,15
2877700,14
2878324,14
2878956,13
2879588,10
2880208,11
2880836,10
2881456,11
2882080,11
2882708,10
2883328,11
2883956,11
2884580,12
2885200,15
2885832,14
2886448,16
2887076,14
2887704,10
2888328,11
2888956,10
2889576,12
2890208,10
2890836,12
2891456,11
2892084,11
2892708,13
2893332,13
2893964,12
2894584,15
2895212,15
2895836,11
2896460,10
2897088,11
2897708,19
2898336,24
2898964,14
2899584,11
2900212,22
2900836,29
2901464,32
2902096,26
2902712,30
2903344,26
2903964,16
2904588,12
2905220,16
2905840,15
2906468,10
2907092,19
2907716,20
2908348,12
2908968,11
2909596,11
2910228,14
2910848,16
2911476,14
2912100,15
2912732,18
2913360,17
2913976,10
2914608,11
2915232,15
2915856,16
2916484,11
2917104,15
2917736,21
2918360,29
2918984,25
2919612,18
2920232,13
2920860,11
2921492,10
2922112,11
2922740,12
2923364,15
2923996,15
2924624,13
2925248,12
2925876,10
2926500,15
2927124,14
2927756,12
2928376,15
2929004,13
2929628,12
2930252,11
2930884,10
2931504,11
2932132,11
2932764,11
2933384,11
2934016,15
2934640,17
2935268,17
2935900,18
2936520,19
2937148,15
2937776,13
2938400,11
2939028,10
2939648,13
2940276,12
2940904,13
2941528,14
2942156,11
2942776,11
2943408,13
2944036,13
2944656,14
2945284,15
2945908,13
2946536,11
2947168,10
2947788,14
2948416,16
2949040,16
2949668,17
2950296,17
2950912,19
2951544,23
2952168,19
2952788,15
2953420,14
2954040,12
2954668,11
2955300,10
2955920,11
2956548,11
2957172,11
2957804,11
2958432,10
2959056,12
2959684,13
2960308,14
2960932,15
2961564,14
2962184,14
2962812,10
2963436,12
2964060,11
2964692,12
2965312,10
2965944,12
2966572,12
2967192,13
2967820,13
2968448,17
2969076,17
2969708,14
2970324,14
2970956,11
2971580,12
2972200,12
2972832,11
2973448,11
2974076,11
2974700,19
2975324,25
2975956,17
2976580,17
2977208,17
2977840,14
2978456,17
2979084,22
2979708,25
2980340,13
2980968,10
2981592,11
2982220,13
2982848,12
2983468,14
2984100,23
2984720,27
2985348,20
2985972,14
2986596,16
2987228,13
2987852,11
2988480,11
2989112,11
2989728,10
2990360,11
2990984,16
2991612,16
2992244,11
2992864,14
2993492,18
2994116,19
2994740,17
2995372,18
2995992,16
2996620,13
2997244,12
2997872,11
2998500,13
2999124,17
2999756,14
3000388,10
3001008,17
3001636,23
3002260,21
3002888,21
3003516,18
3004136,16
3004768,13
3005392,11
3006016,13
3006648,13
3007264,11
3007896,13
3008528,14
3009144,11
3009772,15
3010396,19
3011028,16
3011660,14
3012280,13
3012908,11
3013532,11
3014160,11
3014788,10
3015408,11
3016040,11
3016660,11
3017288,17
3017916,22
3018536,22
3019168,19
3019796,19
3020416,17
3021048,12
3021672,11
3022300,15
3022932,14
3023552,15
3024184,14
3024808,13
3025432,12
3026060,21
3026680,17
3027312,14
3027936,13
3028560,14
3029188,10
3029808,11
3030440,11
3031068,11
3031688,12
3032316,11
3032944,13
3033572,15
3034204,15
3034824,22
3035456,18
3036080,16
3036704,15
3037336,12
3037952,11
3038584,11
3039212,11
3039836,10
3040468,11
3041092,11
3041720,19
3042352,19
3042968,14
3043600,13
3044224,15
3044852,14
3045484,16
3046104,11
3046736,13
3047356,13
3047984,11
3048612,11
3049232,12
3049864,12
3050488,15
3051112,15
3051744,17
3052368,16
3052996,14
3053628,14
3054248,12
3054876,14
3055504,11
3056132,10
3056764,10
3057384,11
3058016,11
3058640,12
3059264,11
3059892,13
3060512,15
3061144,15
3061772,13
3062392,13
3063024,11
3063648,15
3064280,12
3064908,11
3065528,11
3066160,12
3066784,21
3067408,26
3068040,19
3068656,16
3069288,19
3069912,23
3070536,23
3071168,20
3071796,20
3072428,21
3073056,11
3073672,17
3074304,26
3074924,29
3075556,19
3076184,11
3076808,15
3077436,18
3078060,15
3078684,14
3079312,10
3079932,11
3080560,11
3081184,14
3081808,14
3082436,12
3083056,12
3083684,11
3084316,12
3084936,22
3085564,16
3086188,16
3086820,19
3087448,15
3088064,15
3088696,18
3089320,16
3089944,15
3090572,10
3091192,11
3091824,12
3092448,14
3093072,18
3093700,21
3094320,23
3094948,21
3095580,23
3096200,15
3096828,13
3097456,22
3098084,18
3098716,16
3099336,14
3099964,11
3100592,20
3101216,29
3101844,29
3102464,28
3103096,25
3103720,19
3104344,21
3104972,14
3105592,13
3106224,10
3106852,12
3107472,15
3108104,17
3108728,14
3109356,11
3109988,14
3110608,15
3111236,14
3111864,15
3112488,12
3113120,10
3113736,11
3114364,11
3114988,13
3115612,15
3116244,12
3116868,15
3117496,21
3118128,31
3118748,29
3119376,26
3120000,24
3120628,15
3121260,10
3121880,11
3122512,11
3123136,11
3123760,10
3124388,11
3125008,18
3125636,16
3126260,15
3126884,15
3127516,14
3128140,15
3128772,14
3129400,10
3130024,12
3130652,12
3131276,11
3131908,11
3132540,10
3133160,11
3133792,11
3134416,13
3135040,16
3135668,17
3136288,19
3136916,19
3137548,24
3138168,19
3138796,11
3139420,12
3140052,14
3140684,10
3141304,11
3141932,11
3142560,16
3143184,17
3143812,13
3144432,13
3145060,15
3145684,13
3146308,11
3146940,11
3147560,11
3148192,17
3148820,14
3149440,13
3150068,12
3150692,11
3151324,16
3151956,16
3152576,19
3153208,32
3153832,34
3154456,23
3155088,16
3155708,14
3156336,11
3156960,11
3157584,12
3158216,12
3158836,14
3159464,16
3160096,17
3160716,13
3161344,14
3161972,14
3162600,11
3163232,10
3163852,12
3164480,11
3165104,11
3165732,12
3166360,12
3166984,12
3167616,12
3168240,15
3168864,15
3169492,16
3170120,15
3170748,11
3171380,13
3172000,18
3172632,13
3173256,11
3173888,11
3174520,10
3175136,11
3175768,11
3176392,14
3177016,14
3177644,14
3178264,15
3178892,15
3179520,14
3180144,12
3180776,11
3181400,12
3182032,11
3182664,11
3183280,13
3183912,19
3184536,20
3185164,22
3185796,18
3186416,19
3187048,15
3187672,13
3188296,12
3188928,10
3189544,10
3190176,12
3190808,15
3191428,17
3192060,11
3192684,13
3193316,15
3193948,16
3194568,19
3195200,19
3195824,11
3196448,18
3197080,16
3197696,15
3198328,15
3198956,15
3199580,13
3200212,16
3200836,17
3201464,20
3202092,18
3202712,17
3203340,17
3203964,15
3204592,13
3205220,11
3205840,11
3206468,10
3207088,13
3207712,21
3208340,27
3208960,31
3209588,19
3210212,13
3210836,16
3211464,14
3212088,21
3212716,17
3213348,16
3213968,14
3214596,11
3215220,11
3215852,14
3216480,21
3217096,19
3217728,19
3218352,17
3218976,15
3219604,14
3220224,16
3220852,14
3221476,14
3222100,10
3222732,12
3223352,13
3223984,12
3224612,13
3225232,21
3225864,20
3226484,21
3227116,13
3227744,13
3228364,14
3228992,13
3229616,11
3230240,12
3230868,14
3231488,18
3232116,21
3232740,21
3233364,23
3233996,22
3234616,21
3235244,16
3235876,14
3236496,15
3237124,13
3237748,16
3238380,14
3239008,10
3239632,11
3240260,11
3240884,11
3241508,11
3242140,10
3242760,12
3243388,13
3244012,14
3244636,17
3245268,18
3245892,11
3246524,11
3247152,10
3247772,11
3248400,12
3249024,11
3249656,11
3250284,12
3250904,12
3251536,16
3252160,15
3252780,15
3253412,14
3254032,13
3254664,11
3255288,11
3255912,11
3256544,13
3257168,12
3257796,13
3258428,10
3259048,11
3259676,13
3260304,14
3260932,15
3261564,16
3262184,16
3262816,11
3263440,17
3264064,23
3264692,16
3265312,14
3265940,12
3266572,10
3267192,11
3267824,17
3268448,21
3269076,22
3269708,16
3270328,14
3270960,13
3271584,13
3272208,13
3272836,13
3273456,11
3274088,11
3274712,13
3275336,11
3275968,11
3276588,13
3277216,14
3277848,13
3278464,14
3279092,12
3279712,10
3280344,11
3280972,10
3281588,10
3282220,10
3282840,12
3283460,13
3284088,16
3284708,15
3285336,14
3285960,15
3286584,13
3287212,13
3287828,10
3288460,15
3289080,15
3289704,15
3290332,13
3290952,10
3291584,16
3292212,26
3292828,25
3293456,14
3294080,15
3294708,22
3295336,22
3295960,21
3296588,12
3297212,11
3297836,10
3298464,10
3299080,10
3299708,11
3300332,16
3300956,21
3301584,25
3302200,22
3302828,17
3303456,14
3304080,12
3304708,11
3305332,12
3305960,15
3306588,11
3307208,11
3307836,13
3308460,14
3309084,14
3309712,20
3310328,19
3310960,15
3311584,13
3312208,16
3312836,16
3313456,19
3314084,20
3314712,16
3315336,16
3315964,17
3316588,16
3317220,11
3317848,11
3318464,14
3319092,15
3319716,17
3320340,17
3320968,11
3321584,11
3322212,11
3322836,10
3323460,12
3324092,12
3324712,11
3325340,11
3325972,10
3326592,16
3327220,17
3327844,16
3328476,13
3329104,12
3329728,14
3330356,10
3330976,10
3331600,11
3332228,10
3332848,13
3333476,16
3334100,20
3334720,22
3335352,21
3335968,19
3336596,19
3337228,16
3337848,11
3338476,12
3339100,10
3339728,11
3340356,11
3340976,10
3341604,11
3342228,11
3342852,12
3343484,12
3344104,20
3344732,17
3345356,17
3345980,15
3346608,16
3347224,13
3347856,11
3348476,16
3349104,22
3349732,17
3350356,20
3350988,24
3351616,20
3352240,16
3352868,16
3353492,18
3354120,15
3354748,11
3355368,11
3355996,13
3356620,15
3357244,15
3357876,13
3358496,11
3359124,11
3359756,14
3360376,16
3361004,16
3361624,15
3362256,14
3362884,13
3363504,11
3364132,12
3364756,11
3365380,11
3366012,10
3366632,13
3367260,13
3367884,13
3368508,14
3369136,15
3369752,17
3370380,20
3371004,18
3371632,15
3372260,10
3372884,17
3373512,17
3374140,11
3374760,17
3375388,18
3376012,11
3376640,14
3377268,14
3377888,17
3378516,15
3379140,11
3379768,11
3380396,12
3381016,13
3381644,12
3382268,11
3382896,14
3383524,13
3384148,13
3384776,18
3385404,16
3386024,15
3386652,14
3387276,18
3387904,17
3388536,11
3389152,11
3389780,15
3390404,13
3391028,14
3391660,14
3392280,13
3392908,11
3393532,15
3394160,17
3394788,14
3395412,13
3396040,11
3396672,11
3397288,13
3397916,16
3398540,17
3399172,12
3399800,12
3400424,15
3401052,19
3401676,23
3402296,24
3402928,19
3403544,14
3404172,13
3404796,11
3405424,15
3406052,17
3406676,11
3407308,10
3407936,12
3408556,17
3409184,15
3409808,14
3410436,13
3411064,15
3411688,21
3412316,19
3412940,11
3413564,11
3414196,14
3414816,13
3415444,12
3416076,16
3416696,12
3417324,15
3417948,15
3418580,16
3419208,16
3419832,16
3420464,17
3421088,12
3421712,11
3422340,12
3422960,19
3423588,15
3424216,11
3424836,12
3425468,10
3426088,12
3426716,16
3427348,16
3427968,15
3428596,15
3429220,15
3429852,14
3430484,12
3431104,11
3431732,11
3432356,11
3432980,11
3433608,11
3434232,15
3434860,17
3435488,17
3436112,19
3436740,19
3437360,19
3437988,13
3438620,10
3439240,11
3439872,13
3440496,12
3441124,11
3441756,10
3442376,11
3443004,13
3443628,13
3444252,15
3444880,17
3445504,19
3446132,18
3446756,11
3447380,13
3448008,15
3448632,13
3449260,11
3449892,11
3450512,16
3451140,20
3451764,27
3452396,25
3453028,19
3453648,14
3454276,10
3454900,17
3455524,22
3456156,14
3456776,11
3457404,10
3458028,12
3458648,12
3459280,12
3459896,13
3460524,14
3461156,13
3461776,17
3462404,13
3463028,10
3463656,11
3464288,12
3464904,10
3465532,12
3466156,11
3466780,13
3467412,18
3468032,21
3468660,25
3469284,24
3469908,16
3470540,12
3471160,11
3471792,11
3472420,10
3473040,11
3473668,11
3474292,11
3474924,11
3475552,11
3476176,11
3476804,13
3477428,16
3478052,17
3478684,15
3479304,15
3479936,18
3480560,22
3481184,15
3481816,11
3482436,15
3483068,17
3483696,11
3484312,11
3484940,15
3485564,17
3486196,21
3486824,24
3487440,20
3488072,12
3488692,10
3489316,10
3489944,10
3490568,10
3491196,11
3491820,14
3492444,14
3493076,14
3493700,13
3494328,14
3494960,14
3495576,14
3496204,11
3496828,13
3497460,12
3498088,10
3498712,11
3499340,11
3499968,16
3500592,21
3501220,25
3501840,25
3502468,17
3503092,17
3503720,17
3504348,14
3504972,13
3505604,11
3506232,11
3506852,14
3507484,14
3508104,15
3508736,23
3509364,16
3509984,14
3510612,17
3511240,17
3511864,16
3512492,12
3513112,11
3513744,11
3514372,10
3514992,11
3515624,11
3516248,12
3516876,12
3517508,16
3518128,23
3518760,19
3519384,17
3520008,14
3520636,12
3521256,12
3521884,13
3522508,13
3523132,12
3523764,10
3524384,10
3525012,11
3525644,10
3526264,16
3526892,17
3527516,16
3528148,14
3528776,14
3529396,14
3530024,15
3530648,14
3531272,13
3531900,11
3532520,11
3533148,11
3533772,11
3534396,15
3535028,20
3535648,16
3536276,14
3536908,13
3537528,11
3538156,11
3538780,12
3539412,10
3540040,10
3540660,10
3541288,11
3541912,11
3542536,11
3543164,16
3543784,20
3544412,15
3545036,15
3545660,16
3546292,18
3546912,19
3547540,16
3548172,15
3548792,12
3549424,12
3550048,15
3550680,19
3551308,16
3551928,16
3552560,15
3553184,15
3553808,24
3554436,22
3555056,12
3555688,9
3556260,11
3556888,11
3557516,14
3558136,14
3558768,11
3559392,13
3560016,14
3560644,15
3561264,14
3561896,14
3562524,10
3563144,13
3563776,14
3564400,11
3565028,11
3565660,11
3566280,17
3566908,21
3567532,22
3568160,24
3568788,22
3569408,25
3570036,22
3570664,19
3571288,14
3571916,12
3572536,11
3573164,13
3573796,18
3574416,24
3575044,22
3575668,16
3576300,14
3576932,14
3577552,15
3578184,16
3578808,15
3579432,15
3580064,25
3580680,23
3581312,15
3581940,13
3582564,11
3583196,21
3583820,28
3584456,25
3585084,18
3585704,15
3586332,14
3586956,14
3587584,10
3588216,11
3588832,10
3589464,12
3590088,14
3590712,13
3591340,11
3591960,11
3592592,11
3593216,14
3593840,14
3594468,13
3595092,15
3595724,15
3596356,12
3596976,10
3597604,10
3598228,11
3598856,11
3599484,14
3600104,16
3600732,15
3601356,18
3601980,17
3602608,14
3603232,16
3603860,14
3604492,14
3605108,12
3605740,11
3606364,15
3606992,11
3607624,10
3608240,11
3608868,10
3609492,11
3610120,16
3610748,16
3611368,15
3611996,14
3612620,11
3613244,11
3613876,10
3614496,11
3615124,11
3615756,12
3616376,13
3617004,17
3617628,21
3618256,27
3618884,23
3619504,17
3620132,14
3620756,11
3621384,12
3622012,10
3622632,12
3623260,12
3623884,11
3624508,10
3625140,10
3625760,11
3626388,17
3627020,16
3627640,15
3628268,14
3628892,13
3629524,11
3630152,10
3630772,11
3631400,11
3632024,13
3632648,15
3633276,10
3633896,15
3634528,23
3635152,32
3635776,37
3636408,26
3637024,15
3637652,10
3638284,11
3638904,11
3639532,10
3640160,10
3640788,11
3641420,13
3642040,15
3642668,11
3643292,13
3643916,16
3644548,15
3645168,15
3645796,12
3646420,11
3647044,11
3647676,10
3648296,14
3648924,17
3649556,12
3650176,13
3650804,19
3651428,28
3652060,22
3652688,14
3653308,15
3653936,15
3654560,13
3655184,13
3655812,10
3656432,11
3657060,12
3657684,11
3658308,11
3658940,12
3659560,13
3660188,15
3660820,14
3661440,13
3662068,13
3662692,11
3663324,11
3663956,10
3664576,11
3665204,11
3665828,10
3666456,11
3667084,11
3667704,15
3668332,16
3668960,14
3669580,14
3670212,14
3670832,9
3671412,11
3672040,12
3672664,11
3673292,10
3673912,11
3674544,10
3675172,10
3675792,11
3676424,15
3677048,16
3677680,16
3678308,14
3678928,13
3679560,17
3680184,16
3680808,13
3681436,10
3682056,12
3682684,11
3683308,14
3683936,15
3684564,13
3685188,15
3685820,13
3686452,14
3687068,13
3687700,10
3688320,11
3688948,11
3689580,11
3690200,11
3690828,10
3691452,11
3692076,11
3692704,11
3693328,15
3693956,16
3694580,21
3695204,18
3695836,12
3696460,11
3697088,14
3697720,11
3698336,11
3698964,13
3699588,20
3700220,23
3700848,23
3701464,27
3702096,23
3702720,18
3703344,16
3703972,14
3704592,11
3705220,11
3705848,11
3706468,11
3707100,11
3707724,10
3708356,10
3708984,11
3709604,12
3710232,15
3710856,15
3711488,19
3712116,17
3712736,15
3713364,12
3713988,11
3714612,12
3715240,12
3715860,11
3716488,13
3717112,17
3717736,25
3718364,31
3718992,27
3719620,20
3720252,16
3720872,13
3721500,11
3722128,12
3722756,10
3723388,10
3724008,12
3724636,13
3725264,21
3725888,24
3726516,20
3727136,21
3727768,15
3728396,14
3729016,20
3729644,19
3730268,17
3730900,11
3731528,11
3732152,13
3732784,13
3733408,11
3734032,12
3734660,15
3735280,19
3735908,19
3736536,21
3737160,21
3737792,22
3738408,20
3739036,11
3739668,12
3740288,13
3740916,10
3741540,11
3742172,12
3742804,16
3743424,15
3744056,14
3744676,20
3745300,17
3745932,12
3746552,12
3747184,15
3747808,10
3748432,13
3749060,11
3749680,13
3750308,19
3750940,16
3751560,15
3752192,13
3752816,15
3753444,20
3754076,14
3754696,11
3755328,11
3755952,11
3756576,10
3757208,10
3757824,10
3758456,11
3759080,11
3759704,13
3760336,14
3760952,14
3761584,14
3762216,14
3762832,11
3763464,13
3764088,11
3764716,10
3765348,14
3765968,14
3766600,11
3767224,12
3767848,16
3768480,21
3769096,19
3769724,18
3770348,16
3770972,11
3771604,10
3772228,11
3772856,10
3773488,11
3774108,11
3774736,12
3775360,12
3775992,11
3776624,18
3777240,17
3777868,15
3778492,14
3779120,11
3779748,10
3780368,13
3780996,14
3781624,12
3782248,11
3782876,12
3783504,13
3784132,13
3784764,19
3785384,17
3786016,16
3786640,15
3787268,13
3787900,10
3788520,14
3789152,18
3789776,15
3790400,11
3791028,10
3791648,11
3792276,11
3792908,11
3793528,14
3794160,17
3794784,15
3795412,16
3796044,12
3796664,20
3797292,17
3797920,16
3798544,12
3799172,10
3799792,11
3800424,13
3801048,15
3801672,17
3802300,14
3802920,15
3803548,14
3804180,16
3804800,17
3805428,18
3806056,13
3806684,11
3807316,15
3807936,23
3808568,23
3809192,13
3809820,14
3810448,14
3811072,15
3811704,14
3812328,14
3812952,15
3813584,13
3814200,10
3814832,10
3815464,11
3816084,11
3816712,15
3817336,21
3817968,21
3818596,19
3819216,17
3819848,16
3820472,17
3821096,15
3821728,10
3822344,10
3822976,11
3823600,14
3824224,16
3824856,16
3825480,12
3826112,11
3826740,13
3827360,16
3827988,14
3828616,14
3829248,12
3829876,14
3830496,16
3831128,16
3831752,13
3832376,15
3833008,13
3833628,11
3834260,12
3834888,14
3835512,16
3836144,24
3836768,24
3837400,19
3838032,16
3838656,12
3839288,10
3839916,11
3840544,11
3841172,10
3841792,9
3842368,12
3843000,13
3843624,14
3844252,17
3844872,17
3845500,15
3846124,11
3846748,11
3847380,11
3848004,12
3848632,11
3849260,11
3849880,12
3850508,13
3851132,16
3851764,18
3852392,20
3853012,27
3853640,32
3854264,25
3854888,14
3855516,10
3856136,11
3856764,10
3857388,18
3858012,15
3858640,11
3859264,11
3859896,15
3860524,14
3861144,14
3861772,14
3862396,12
3863028,11
3863660,11
3864280,11
3864908,11
3865536,11
3866160,11
3866788,13
3867408,13
3868036,17
3868660,15
3869288,14
3869916,14
3870540,13
3871172,17
3871804,14
3872424,11
3873052,10
3873676,12
3874308,11
3874936,10
3875560,13
3876188,15
3876816,16
3877436,16
3878068,15
3878688,15
3879316,10
3879948,10
3880568,12
3881196,11
3881824,11
3882452,10
3883084,10
3883704,16
3884332,21
3884960,20
3885584,13
3886212,16
3886832,19
3887464,19
3888088,20
3888712,20
3889340,16
3889960,11
3890592,11
3891220,13
3891840,12
3892468,11
3893092,13
3893720,17
3894352,21
3894972,25
3895600,18
3896224,11
3896848,12
3897480,11
3898100,11
3898728,13
3899352,13
3899976,15
3900608,16
3901224,17
3901856,15
3902484,13
3903104,14
3903736,14
3904360,16
3904988,15
3905620,10
3906240,13
3906868,11
3907492,14
3908120,17
3908748,18
3909368,19
3909996,15
3910624,13
3911248,15
3911880,20
3912496,20
3913124,11
3913756,10
3914376,13
3915008,13
3915632,13
3916264,12
3916892,12
3917512,17
3918144,25
3918768,24
3919392,19
3920024,15
3920640,14
3921268,13
3921896,12
3922520,10
3923148,11
3923768,11
3924400,13
3925028,12
3925648,13
3926280,15
3926904,21
3927536,25
3928164,19
3928784,14
3929416,15
3930040,15
3930664,17
3931296,15
3931912,15
3932544,13
3933168,13
3933792,11
3934424,13
3935048,17
3935676,19
3936308,16
3936928,18
3937556,13
3938180,12
3938812,10
3939440,10
3940064,13
3940692,12
3941316,12
3941944,12
3942572,13
3943192,17
3943820,16
3944444,14
3945072,13
3945700,11
3946324,13
3946956,14
3947584,12
3948208,11
3948836,14
3949460,21
3950088,25
3950716,23
3951336,24
3951968,23
3952592,24
3953216,19
3953844,13
3954464,11
3955092,11
3955724,14
3956344,15
3956972,14
3957600,13
3958228,13
3958860,11
3959480,12
3960112,12
3960736,13
3961360,14
3961988,14
3962608,12
3963240,11
3963860,11
3964488,11
3965116,12
3965736,14
3966368,16
3966996,21
3967616,25
3968248,16
3968872,14
3969500,14
3970132,14
3970752,11
3971380,11
3972004,11
3972632,11
3973260,10
3973880,11
3974508,10
3975132,10
3975756,10
3976388,12
3977008,14
3977636,14
3978268,14
3978888,15
3979516,14
3980144,11
3980772,11
3981404,11
3982024,11
3982656,12
3983280,13
3983904,19
3984536,21
3985152,25
3985784,25
3986408,22
3987032,20
3987664,13
3988280,10
3988912,12
3989540,14
3990160,15
3990792,12
3991416,11
3992048,10
3992676,10
3993296,14
3993928,14
3994552,14
3995176,16
3995804,11
3996424,15
3997052,16
3997680,19
3998304,15
3998932,11
3999560,12
4000188,19
4000816,26
4001440,33
4002068,31
4002692,25
4003320,19
4003948,12
4004568,11
4005196,11
4005820,10
4006444,10
4007072,10
4007692,11
4008320,15
4008944,11
4009568,12
4010196,13
4010820,14
4011452,14
4012080,14
4012704,10
4013336,11
4013960,11
4014588,12
4015220,10
4015840,11
4016468,15
4017092,19
4017716,19
4018348,22
4018968,19
4019596,17
4020220,15
4020848,13
4021476,10
4022100,11
4022728,10
4023360,11
4023976,14
4024608,16
4025232,14
4025860,15
4026492,14
4027112,15
4027744,15
4028368,14
4028992,13
4029620,11
4030240,11
4030868,11
4031500,10
4032120,11
4032748,12
4033372,14
4034004,11
4034632,16
4035248,21
4035880,22
4036504,17
4037128,15
4037756,12
4038376,12
4039008,13
4039632,11
4040256,12
4040884,11
4041504,12
4042132,12
4042764,11
4043384,14
4044012,18
4044640,18
4045268,15
4045900,11
4046520,11
4047148,11
4047772,10
4048396,11
4049028,12
4049648,19
4050276,22
4050900,21
4051524,16
4052156,12
4052776,14
4053408,16
4054036,16
4054656,20
4055288,19
4055908,11
4056540,11
4057172,10
4057792,19
4058420,21
4059044,15
4059668,12
4060300,12
4060920,15
4061548,14
4062172,13
4062800,13
4063428,14
4064048,13
4064676,10
4065308,10
4065928,14
4066556,14
4067184,17
4067812,19
4068444,18
4069064,19
4069696,14
4070320,15
4070944,11
4071576,10
4072196,10
4072824,11
4073448,11
4074072,11
4074704,13
4075324,16
4075952,12
4076584,14
4077204,14
4077832,13
4078460,15
4079088,15
4079720,11
4080340,11
4080972,11
4081596,11
4082220,11
4082852,12
4083472,11
4084100,17
4084728,22
4085352,18
4085984,15
4086608,16
4087236,17
4087868,16
4088488,11
4089116,11
4089744,11
4090372,10
4091004,13
4091624,12
4092256,11
4092880,11
4093504,14
4094136,13
4094756,13
4095388,13
4096020,12
4096636,12
4097264,15
4097884,13
4098512,11
4099144,12
4099760,17
4100388,13
4101008,12
4101636,15
4102264,14
4102888,16
4103516,16
4104140,12
4104760,11
4105388,10
4106008,11
4106636,12
4107260,11
4107880,10
4108508,13
4109132,14
4109760,16
4110388,12
4111008,14
4111636,13
4112260,15
4112888,17
4113516,14
4114136,13
4114764,13
4115388,10
4116012,11
4116640,13
4117256,15
4117884,15
4118508,16
4119132,16
4119760,15
4120376,14
4121008,16
4121636,12
4122252,12
4122880,13
4123504,11
4124132,11
4124764,12
4125384,11
4126012,11
4126636,12
4127260,14
4127888,13
4128508,14
4129136,11
4129760,11
4130380,11
4131012,10
4131632,11
4132260,11
4132892,10
4133512,13
4134140,13
4134764,17
4135392,18
4136024,15
4136640,14
4137268,15
4137892,18
4138516,17
4139144,12
4139768,11
4140396,11
4141020,11
4141644,13
4142272,14
4142896,13
4143524,13
4144156,12
4144776,14
4145404,15
4146028,11
4146660,13
4147288,16
4147904,13
4148532,11
4149156,11
4149780,12
4150408,12
4151024,13
4151652,15
4152276,17
4152900,15
4153532,17
4154152,18
4154780,11
4155412,11
4156032,13
4156660,10
4157284,10
4157916,10
4158548,10
4159168,13
4159800,15
4160424,13
4161044,14
4161672,14
4162296,13
4162924,10
4163544,11
4164168,12
4164796,11
4165416,12
4166044,13
4166672,11
4167296,11
4167924,12
4168548,15
4169176,17
4169804,18
4170424,19
4171052,18
4171676,15
4172300,11
4172928,12
4173552,16
4174180,15
4174804,13
4175424,10
4176056,11
4176672,14
4177300,13
4177932,14
4178552,15
4179180,11
4179804,11
4180432,14
4181060,11
4181680,13
4182308,12
4182932,11
4183560,12
4184188,14
4184808,21
4185436,14
4186060,13
4186684,14
4187312,12
4187932,16
4188560,19
4189188,16
4189808,15
4190436,14
4191060,10
4191692,10
4192320,10
4192936,12
4193568,15
4194192,15
4194820,13
4195452,14
4196072,13
4196700,15
4197324,13
4197948,11
4198580,11
4199200,15
4199828,16
4200456,12
4201072,16
4201704,19
4202324,13
4202952,14
4203584,14
4204200,12
4204828,12
4205452,10
4206080,11
4206708,10
4207328,11
4207956,11
4208584,11
4209208,11
4209836,12
4210456,16
4211084,13
4211708,14
4212336,14
4212964,11
4213588,11
4214220,11
4214848,14
4215472,19
4216100,16
4216728,11
4217348,11
4217980,16
4218600,26
4219228,27
4219852,23
4220476,19
4221108,16
4221728,13
4222356,12
4222988,10
4223608,10
4224240,12
4224860,15
4225488,20
4226116,20
4226736,22
4227364,20
4227988,15
4228612,15
4229244,12
4229864,11
4230492,11
4231116,11
4231740,11
4232368,15
4232988,19
4233616,17
4234244,13
4234864,16
4235492,17
4236116,19
4236748,17
4237380,15
4238000,17
4238628,15
4239252,15
4239880,12
4240508,11
4241128,11
4241756,11
4242380,11
4243004,13
4243632,12
4244256,14
4244884,14
4245516,13
4246136,15
4246764,16
4247388,12
4248020,13
4248648,19
4249268,21
4249896,11
4250520,19
4251144,19
4251772,16
4252392,13
4253020,14
4253644,16
4254268,16
4254900,14
4255520,17
4256148,17
4256780,14
4257400,11
4258028,13
4258652,13
4259284,15
4259912,16
4260528,13
4261160,17
4261780,18
4262404,15
4263032,12
4263656,11
4264284,11
4264908,12
4265532,12
4266160,16
4266784,12
4267412,12
4268044,18
4268664,19
4269292,17
4269916,14
4270548,14
4271176,11
4271796,11
4272424,11
4273048,12
4273672,11
4274300,11
4274920,11
4275548,12
4276172,14
4276796,13
4277428,17
4278048,20
4278676,19
4279308,18
4279928,18
4280560,16
4281180,11
4281812,11
4282440,11
4283060,18
4283688,23
4284312,27
4284936,29
4285564,35
4286184,33
4286812,30
4287436,29
4288060,17
4288692,10
4289312,14
4289940,19
4290572,22
4291192,27
4291820,25
4292448,17
4293076,14
4293708,12
4294328,14
4294960,14
4295584,13
4296208,11
4296836,11
4297456,11
4298088,12
4298712,19
4299336,25
4299968,23
4300584,22
4301216,25
4301844,20
4302464,23
4303092,21
4303716,20
4304348,18
4304976,11
4305592,11
4306224,10
4306848,13
4307468,14
4308100,14
4308720,13
4309348,11
4309972,16
4310600,13
4311228,12
4311848,15
4312476,11
4313108,10
4313728,13
4314356,15
4314980,17
4315612,15
4316240,11
4316864,15
4317492,18
4318116,20
4318744,19
4319372,14
4319992,17
4320624,19
4321248,14
4321872,11
4322500,11
4323120,11
4323748,11
4324380,10
4325000,12
4325628,10
4326252,13
4326884,14
4327512,13
4328132,14
4328760,17
4329384,12
4330008,12
4330636,10
4331256,12
4331884,11
4332508,10
4333132,11
4333764,10
4334384,15
4335016,17
4335644,12
4336264,15
4336892,15
4337516,16
4338148,19
4338780,12
4339400,11
4340028,11
4340652,11
4341276,10
4341908,10
4342528,11
4343156,13
4343780,15
4344404,22
4345036,28
4345656,25
4346284,11
4346916,12
4347536,12
4348164,15
4348788,18
4349420,21
4350052,18
4350672,21
4351304,25
4351928,19
4352552,16
4353184,14
4353800,14
4354428,11
4355052,10
4355676,14
4356304,18
4356928,13
4357556,10
4358188,10
4358808,15
4359436,15
4360060,13
4360692,20
4361320,18
4361940,14
4362568,14
4363192,15
4363816,11
4364444,12
4365064,11
4365692,11
4366316,11
4366940,11
4367572,11
4368196,16
4368824,18
4369452,21
4370072,23
4370700,24
4371328,17
4371956,10
4372588,10
4373208,11
4373836,11
4374460,15
4375084,17
4375716,12
4376336,14
4376964,13
4377588,16
4378216,15
4378844,17
4379468,15
4380100,14
4380732,12
4381352,11
4381984,12
4382608,13
4383240,15
4383868,12
4384488,16
4385116,22
4385740,19
4386364,17
4386996,16
4387616,13
4388244,11
4388876,12
4389496,14
4390128,14
4390752,17
4391380,18
4392012,10
4392632,13
4393264,17
4393888,18
4394512,15
4395144,13
4395760,12
4396392,11
4397016,13
4397640,14
4398272,11
4398888,12
4399520,14
4400152,16
4400768,21
4401400,22
4402024,21
4402652,18
4403284,16
4403904,15
4404532,10
4405156,10
4405780,10
4406408,13
4407024,12
4407652,17
4408280,16
4408904,11
4409532,10
4410152,14
4410780,13
4411412,13
4412032,14
4412664,12
4413288,15
4413916,13
4414548,12
4415168,11
4415800,13
4416424,15
4417048,13
4417676,24
4418296,27
4418924,17
4419548,17
4420172,22
4420804,17
4421424,11
4422056,11
4422684,14
4423304,19
4423936,15
4424560,10
4425188,12
4425816,11
4426440,14
4427068,18
4427692,19
4428316,15
4428948,12
4429568,12
4430196,16
4430820,13
4431444,13
4432076,12
4432696,11
4433324,13
4433956,22
4434576,33
4435204,38
4435828,35
4436460,25
4437088,16
4437712,15
4438344,12
4438968,11
4439592,12
4440224,17
4440840,17
4441468,18
4442096,16
4442720,13
4443348,13
4443972,14
4444604,13
4445236,14
4445856,13
4446484,11
4447108,11
4447740,11
4448372,10
4448992,14
4449620,11
4450244,10
4450868,18
4451500,26
4452120,24
4452752,25
4453380,20
4454000,15
4454632,14
4455256,11
4455884,11
4456516,10
4457136,12
4457764,12
4458388,16
4459016,13
4459644,15
4460264,16
4460892,18
4461520,19
4462144,17
4462772,11
4463392,18
4464024,21
4464652,15
4465272,13
4465900,15
4466528,17
4467156,16
4467788,11
4468408,15
4469036,14
4469664,17
4470288,19
4470920,16
4471536,15
4472168,11
4472792,12
4473416,12
4474048,14
4474664,12
4475296,11
4475928,10
4476548,13
4477180,15
4477804,19
4478436,18
4479068,12
4479688,12
4480320,11
4480944,12
4481568,11
4482196,10
4482816,15
4483444,17
4484068,17
4484692,22
4485324,20
4485944,23
4486572,27
4487204,22
4487824,23
4488452,14
4489076,12
4489708,12
4490336,13
4490956,14
4491584,15
4492208,14
4492832,12
4493460,13
4494080,20
4494708,24
4495336,22
4495960,12
4496592,10
4497208,12
4497836,17
4498468,18
4499088,24
4499720,18
4500344,18
4500972,18
4501604,20
4502224,20
4502856,18
4503480,17
4504104,17
4504736,11
4505352,13
4505988,12
4506608,11
4507232,10
4507860,12
4508484,15
4509112,17
4509740,23
4510360,17
4510988,13
4511612,14
4512244,13
4512872,10
4513496,13
4514124,12
4514748,13
4515372,15
4516004,12
4516624,14
4517252,15
4517876,12
4518500,13
4519132,13
4519756,15
4520384,14
4521016,11
4521632,11
4522260,10
4522884,10
4523516,10
4524148,10
4524768,16
4525400,16
4526024,12
4526648,13
4527276,14
4527896,19
4528528,20
4529152,14
4529776,13
4530404,15
4531028,15
4531660,14
4532292,10
4532912,12
4533540,12
4534168,16
4534792,22
4535420,16
4536040,14
4536668,13
4537292,13
4537916,11
4538548,10
4539168,10
4539800,13
4540428,15
4541048,18
4541680,20
4542304,15
4542932,12
4543564,14
4544184,15
4544812,14
4545436,13
4546060,11
4546692,10
4547312,13
4547940,12
4548564,11
4549188,11
4549820,10
4550440,11
4551068,11
4551700,14
4552320,15
4552948,16
4553576,20
4554208,19
4554836,14
4555456,13
4556088,12
4556712,11
4557336,11
4557968,10
4558588,12
4559216,11
4559840,14
4560464,14
4561092,13
4561712,15
4562340,12
4562972,10
4563592,12
4564220,16
4564848,11
4565476,11
4566108,10
4566728,12
4567360,12
4567980,13
4568608,15
4569236,14
4569856,14
4570484,18
4571108,22
4571736,19
4572364,12
4572984,11
4573612,12
4574244,16
4574864,11
4575496,10
4576120,12
4576748,15
4577380,12
4578000,14
4578628,14
4579256,11
4579880,11
4580508,10
4581128,11
4581760,11
4582384,11
4583008,11
4583640,15
4584264,21
4584896,22
4585524,14
4586144,14
4586776,15
4587400,15
4588032,12
4588660,10
4589280,11
4589908,10
4590532,12
4591156,11
4591788,12
4592408,13
4593036,13
4593660,12
4594288,16
4594916,19
4595544,14
4596172,13
4596804,16
4597424,11
4598056,10
4598680,12
4599304,17
4599932,20
4600552,22
4601180,23
4601808,22
4602432,19
4603060,15
4603680,15
4604308,12
4604940,12
4605560,11
4606192,11
4606816,13
4607448,12
4608076,13
4608692,17
4609324,12
4609944,13
4610568,13
4611196,14
4611816,15
4612444,11
4613068,11
4613692,11
4614324,13
4614944,11
4615572,10
4616204,10
4616824,11
4617452,11
4618076,15
4618708,16
4619336,14
4619956,13
4620584,13
4621208,11
4621832,11
4622460,11
4623080,12
4623708,13
4624332,12
4624956,12
4625588,10
4626208,11
4626836,14
4627468,12
4628088,15
4628716,14
4629340,11
4629972,10
4630600,10
4631224,11
4631852,11
4632480,13
4633100,16
4633732,18
4634352,19
4634980,20
4635604,16
4636228,14
4636860,13
4637480,11
4638108,11
4638740,10
4639360,13
4639988,14
4640616,13
4641244,13
4641876,10
4642496,11
4643124,20
4643748,24
4644376,16
4645004,14
4645624,16
4646252,12
4646876,12
4647500,18
4648132,14
4648752,12
4649380,13
4650012,18
4650632,24
4651260,21
4651888,18
4652516,15
4653148,14
4653768,15
4654396,14
4655024,15
4655648,11
4656280,10
4656896,11
4657524,11
4658152,11
4658776,11
4659408,11
4660024,14
4660652,14
4661284,14
4661904,15
4662532,15
4663160,15
4663788,13
4664420,12
4665040,12
4665668,13
4666292,16
4666916,15
4667548,16
4668168,25
4668796,23
4669424,19
4670048,16
4670676,13
4671304,11
4671932,10
4672564,11
4673184,16
4673812,16
4674436,16
4675068,16
4675696,12
4676320,15
4676948,17
4677572,15
4678200,14
4678828,16
4679448,15
4680080,11
4680700,11
4681328,13
4681956,14
4682584,16
4683212,18
4683844,14
4684464,17
4685096,25
4685720,25
4686344,17
4686972,14
4687592,13
4688224,10
4688848,11
4689468,10
4690100,10
4690720,10
4691348,11
4691980,12
4692600,14
4693228,14
4693856,15
4694484,16
4695116,14
4695736,13
4696368,13
4696992,13
4697616,12
4698244,11
4698864,10
4699496,12
4700120,15
4700744,16
4701376,17
4701996,19
4702628,18
4703256,16
4703880,17
4704512,13
4705136,11
4705768,10
4706400,11
4707020,12
4707648,11
4708276,12
4708900,10
4709532,10
4710152,14
4710788,15
4711408,14
4712032,14
4712664,13
4713288,11
4713916,11
4714548,10
4715168,12
4715800,12
4716424,12
4717056,11
4717684,14
4718304,21
4718936,18
4719560,18
4720184,19
4720812,16
4721432,15
4722060,15
4722688,10
4723312,10
4723940,13
4724568,12
4725196,11
4725828,10
4726448,13
4727076,14
4727704,15
4728328,14
4728956,12
4729576,11
4730208,13
4730832,15
4731456,10
4732088,11
4732708,11
4733340,13
4733972,15
4734592,14
4735224,15
4735848,15
4736480,15
4737108,14
4737728,12
4738356,16
4738984,15
4739608,13
4740236,10
4740856,11
4741488,10
4742112,11
4742736,13
4743364,12
4743984,16
4744616,16
4745244,14
4745864,11
4746496,11
4747120,11
4747752,11
4748380,10
4749000,10
4749632,13
4750256,17
4750880,21
4751512,22
4752128,17
4752760,17
4753384,16
4754008,19
4754636,14
4755256,12
4755884,10
4756516,10
4757136,13
4757764,13
4758392,16
4759024,12
4759656,13
4760272,13
4760904,14
4761528,14
4762152,14
4762784,10
4763404,11
4764032,13
4764656,11
4765280,14
4765908,11
4766536,12
4767164,12
4767796,10
4768416,14
4769044,15
4769672,14
4770300,15
4770932,14
4771552,17
4772184,19
4772808,17
4773432,14
4774060,11
4774680,11
4775308,10
4775936,11
4776560,14
4777192,15
4777816,15
4778444,15
4779076,12
4779696,10
4780328,10
4780952,11
4781576,13
4782208,11
4782824,11
4783456,11
4784080,13
4784704,17
4785336,16
4785952,18
4786584,16
4787216,16
4787836,15
4788464,13
4789092,11
4789724,12
4790356,18
4790976,12
4791608,11
4792236,11
4792860,12
4793492,14
4794112,14
4794744,14
4795368,13
4795992,11
4796624,11
4797244,11
4797876,12
4798508,10
4799128,11
4799760,14
4800388,15
4801016,15
4801644,13
4802264,14
4802892,14
4803516,17
4804140,16
4804772,13
4805392,14
4806020,12
4806644,10
4807268,14
4807900,13
4808524,10
4809156,10
4809784,13
4810408,14
4811036,14
4811664,15
4812292,14
4812924,11
4813544,10
4814172,10
4814796,11
4815420,11
4816052,10
4816672,11
4817300,11
4817932,14
4818552,20
4819180,21
4819808,23
4820436,18
4821068,10
4821688,14
4822316,14
4822944,12
4823568,11
4824200,10
4824816,11
4825444,12
4826072,14
4826696,13
4827324,14
4827944,15
4828576,14
4829204,11
4829824,11
4830456,11
4831080,12
4831712,13
4832344,11
4832960,11
4833588,11
4834212,16
4834840,27
4835468,19
4836088,15
4836716,14
4837340,13
4837968,16
4838600,14
4839216,11
4839844,11
4840476,10
4841096,14
4841724,16
4842348,14
4842980,14
4843612,14
4844232,15
4844860,15
4845484,14
4846108,11
4846740,12
4847360,12
4847988,11
4848616,15
4849240,19
4849872,15
4850488,13
4851120,15
4851752,17
4852368,17
4853000,19
4853624,21
4854256,21
4854884,18
4855504,11
4856136,13
4856760,12
4857384,12
4858016,10
4858632,11
4859264,11
4859888,14
4860512,13
4861144,13
4861768,14
4862400,13
4863028,13
4863648,15
4864284,10
4864904,13
4865536,15
4866164,14
4866784,13
4867412,13
4868036,19
4868660,17
4869292,16
4869912,21
4870544,23
4871172,12
4871792,15
4872424,17
4873048,21
4873676,16
4874308,11
4874928,11
4875556,11
4876184,13
4876808,14
4877436,14
4878056,15
4878688,15
4879312,12
4879936,12
4880568,11
4881184,11
4881812,11
4882444,10
4883064,12
4883696,14
4884320,17
4884948,17
4885580,15
4886200,15
4886832,15
4887456,13
4888080,11
4888708,14
4889328,12
4889960,11
4890584,11
4891208,12
4891836,10
4892456,16
4893088,19
4893716,14
4894336,15
4894968,16
4895592,17
4896224,12
4896852,10
4897472,11
4898100,11
4898728,12
4899352,11
4899980,14
4900600,17
4901232,19
4901856,20
4902480,15
4903108,14
4903728,13
4904360,12
4904988,11
4905608,11
4906236,10
4906864,11
4907496,11
4908128,11
4908744,10
4909380,10
4910004,13
4910628,14
4911260,14
4911880,15
4912512,12
4913140,11
4913764,11
4914396,10
4915024,12
4915656,13
4916284,12
4916904,17
4917532,22
4918156,20
4918788,14
4919416,13
4920032,15
4920664,13
4921288,13
4921908,13
4922540,10
4923160,11
4923788,11
4924412,14
4925040,21
4925668,18
4926292,14
4926924,14
4927552,13
4928176,14
4928804,16
4929428,17
4930052,13
4930684,10
4931304,11
4931932,11
4932556,11
4933180,16
4933808,20
4934432,24
4935060,25
4935692,18
4936312,16
4936940,16
4937564,11
4938196,11
4938828,10
4939448,11
4940076,14
4940704,10
4941328,11
4941956,11
4942576,12
4943204,13
4943828,14
4944456,14
4945084,12
4945704,13
4946332,11
4946964,11
4947584,13
4948212,11
4948836,11
4949468,12
4950100,11
4950720,15
4951352,21
4951976,21
4952600,20
4953232,16
4953848,15
4954480,13
4955104,11
4955728,11
4956360,11
4956976,12
4957604,11
4958236,12
4958856,11
4959488,12
4960112,15
4960740,14
4961372,16
4961992,17
4962620,11
4963244,11
4963868,10
4964500,10
4965120,14
4965748,15
4966376,16
4967000,15
4967628,14
4968248,16
4968876,20
4969508,24
4970128,23
4970756,19
4971384,15
4972012,11
4972644,10
4973264,10
4973892,11
4974520,12
4975144,14
4975772,11
4976392,15
4977024,20
4977648,17
4978268,14
4978900,14
4979524,10
4980152,11
4980784,16
4981404,14
4982036,11
4982660,11
4983288,13
4983916,14
4984536,17
4985164,17
4985792,14
4986416,13
4987044,13
4987664,11
4988296,11
4988920,21
4989544,24
4990172,14
4990800,11
4991428,11
4992064,10
4992680,11
4993308,13
4993932,14
4994564,13
4995192,13
4995812,11
4996444,11
4997068,11
4997692,10
4998324,10
4998944,11
4999572,11
5000204,10
5000824,11
5001452,17
5002076,17
5002708,17
5003340,15
5003960,15
5004592,11
5005216,11
5005840,9
5006420,13
5007044,13
5007676,13
5008300,11
5008924,11
5009552,12
5010176,13
5010808,17
5011432,18
5012056,16
5012688,10
5013304,11
5013936,11
5014564,10
5015184,10
5015816,11
5016440,12
5017072,12
5017704,17
5018320,22
5018948,17
5019572,16
5020196,15
5020828,10
5021448,11
5022076,10
5022704,11
5023328,11
5023960,11
5024584,13
5025212,14
5025844,11
5026464,14
5027096,14
5027720,15
5028352,15
5028980,19
5029600,23
5030228,17
5030856,11
5031480,12
5032112,11
5032728,11
5033360,21
5033992,28
5034608,32
5035240,21
5035864,15
5036496,13
5037128,15
5037748,11
5038380,10
5039004,10
5039628,10
5040260,12
5040880,12
5041508,14
5042136,14
5042760,14
5043392,16
5044008,15
5044636,14
5045268,14
5045888,11
5046516,12
5047144,12
5047772,11
5048404,10
5049024,11
5049656,13
5050280,14
5050904,15
5051532,20
5052152,25
5052784,21
5053408,18
5054036,18
5054668,17
5055288,11
5055920,11
5056552,10
5057172,13
5057800,17
5058428,14
5059056,12
5059688,19
5060308,21
5060940,15
5061564,13
5062188,14
5062820,16
5063440,14
5064072,14
5064696,16
5065320,14
5065952,11
5066576,12
5067208,10
5067836,12
5068456,17
5069088,14
5069716,15
5070344,17
5070976,16
5071596,12
5072228,11
5072852,11
5073476,13
5074108,15
5074728,19
5075360,19
5075988,11
5076608,13
5077240,14
5077864,14
5078496,17
5079128,13
5079744,13
5080376,21
5081000,17
5081624,13
5082252,12
5082872,17
5083504,23
5084128,25
5084752,24
5085384,18
5086004,19
5086632,15
5087264,12
5087888,10
5088520,10
5089144,12
5089776,14
5090408,12
5091024,13
5091656,17
5092284,20
5092908,19
5093540,14
5094160,15
5094792,16
5095416,15
5096044,12
5096672,12
5097300,15
5097928,14
5098560,19
5099180,15
5099812,17
5100436,21
5101064,29
5101696,30
5102312,22
5102944,18
5103572,15
5104196,12
5104828,10
5105448,11
5106080,12
5106712,14
5107332,14
5107960,11
5108588,10
5109220,11
5109852,12
5110472,13
5111104,15
5111728,16
5112356,15
5112988,11
5113608,11
5114240,10
5114864,11
5115492,11
5116124,13
5116752,14
5117384,20
5118016,26
5118636,23
5119268,22
5119896,22
5120524,17
5121152,13
5121776,12
5122404,10
5123024,18
5123648,22
5124276,18
5124896,15
5125524,12
5126152,11
5126772,12
5127400,13
5128024,15
5128652,14
5129280,11
5129896,11
5130524,11
5131148,12
5131780,10
5132408,11
5133024,11
5133656,16
5134280,13
5134904,16
5135532,14
5136152,15
5136780,14
5137404,14
5138032,11
5138660,11
5139284,11
5139916,10
5140544,11
5141160,10
5141792,11
5142416,11
5143044,13
5143672,14
5144296,16
5144924,15
5145548,13
5146176,11
5146804,10
5147424,11
5148052,11
5148684,10
5149304,11
5149932,13
5150556,13
5151188,20
5151820,18
5152440,13
5153068,15
5153692,14
5154316,13
5154948,11
5155568,11
5156196,11
5156820,11
5157444,12
5158076,10
5158696,11
5159324,12
5159956,12
5160576,17
5161204,17
5161828,19
5162460,12
5163088,12
5163704,11
5164336,11
5164960,13
5165584,13
5166212,14
5166832,14
5167460,11
5168084,14
5168708,17
5169340,18
5169960,17
5170588,12
5171220,10
5171840,10
5172468,10
5173092,11
5173720,10
5174352,10
5174972,11
5175600,12
5176224,15
5176848,19
5177476,18
5178096,15
5178724,14
5179348,13
5179976,12
5180604,11
5181224,11
5181856,12
5182484,10
5183104,11
5183736,11
5184360,13
5184988,20
5185616,20
5186240,20
5186868,19
5187492,15
5188116,11
5188748,10
5189368,21
5189996,22
5190624,17
5191248,17
5191876,15
5192496,12
5193124,13
5193756,16
5194376,17
5195008,17
5195632,14
5196260,11
5196892,10
5197512,13
5198140,17
5198768,18
5199392,17
5200020,14
5200640,12
5201268,13
5201892,14
5202516,15
5203148,12
5203768,15
5204396,15
5205028,12
5205648,13
5206276,12
5206904,13
5207532,10
5208164,11
5208784,11
5209412,11
5210040,13
5210664,14
5211292,16
5211912,16
5212544,11
5213168,11
5213792,11
5214420,11
5215048,12
5215676,14
5216308,16
5216928,16
5217556,18
5218184,21
5218812,20
5219444,16
5220064,14
5220692,11
5221320,11
5221944,11
5222576,10
5223192,10
5223820,9
5224396,10
5225024,12
5225652,10
5226272,13
5226900,16
5227532,18
5228152,15
5228784,13
5229408,11
5230036,11
5230668,11
5231288,10
5231920,12
5232544,11
5233168,15
5233800,14
5234416,15
5235048,27
5235672,27
5236296,32
5236928,32
5237544,32
5238176,23
5238804,17
5239424,16
5240056,14
5240680,11
5241308,15
5241940,16
5242560,13
5243192,14
5243816,13
5244436,15
5245068,14
5245688,12
5246316,11
5246940,13
5247564,11
5248196,10
5248812,13
5249440,15
5250068,12
5250688,11
5251316,14
5251940,16
5252568,19
5253196,16
5253816,17
5254444,17
5255064,17
5255688,13
5256316,10
5256936,15
5257564,14
5258188,11
5258812,11
5259440,12
5260064,13
5260692,13
5261324,16
5261944,19
5262572,16
5263196,13
5263828,13
5264456,11
5265080,12
5265708,16
5266332,14
5266956,12
5267584,11
5268200,15
5268832,17
5269452,24
5270076,22
5270708,16
5271328,17
5271956,16
5272588,10
5273208,11
5273836,11
5274460,11
5275092,11
5275720,11
5276336,12
5276968,15
5277588,15
5278216,17
5278844,15
5279464,13
5280092,12
5280716,11
5281340,10
5281968,10
5282584,12
5283212,17
5283836,16
5284464,18
5285092,25
5285716,23
5286344,18
5286976,15
5287592,16
5288220,13
5288844,10
5289472,10
5290104,10
5290720,11
5291348,12
5291972,13
5292596,12
5293228,12
5293848,14
5294476,15
5295100,14
5295728,14
5296356,11
5296980,10
5297612,10
5298240,15
5298856,14
5299488,12
5300112,16
5300740,19
5301372,23
5301992,28
5302620,27
5303244,22
5303868,17
5304500,10
5305120,12
5305748,13
5306380,10
5307000,13
5307628,15
5308252,20
5308884,15
5309512,11
5310132,14
5310760,15
5311388,17
5312012,21
5312640,17
5313256,13
5313888,11
5314512,12
5315136,15
5315764,13
5316384,11
5317012,21
5317644,24
5318264,27
5318896,23
5319520,16
5320148,14
5320780,10
5321400,11
5322032,13
5322656,11
5323280,12
5323908,17
5324528,19
5325160,15
5325780,13
5326404,13
5327032,13
5327648,14
5328280,14
5328908,12
5329528,14
5330156,13
5330780,11
5331408,11
5332036,10
5332656,13
5333284,13
5333908,17
5334536,22
5335164,20
5335784,15
5336412,14
5337036,15
5337660,11
5338288,11
5338904,14
5339536,13
5340164,13
5340784,16
5341412,12
5342036,10
5342668,10
5343296,13
5343920,14
5344552,13
5345176,14
5345800,11
5346428,10
5347048,10
5347676,12
5348300,12
5348924,11
5349556,10
5350176,14
5350808,21
5351436,22
5352056,21
5352684,17
5353308,20
5353940,17
5354568,11
5355188,10
5355816,10
5356440,11
5357068,18
5357696,30
5358316,28
5358944,19
5359568,14
5360192,14
5360820,13
5361440,15
5362068,15
5362700,10
5363320,17
5363948,24
5364572,33
5365204,36
5365832,28
5366456,23
5367084,16
5367708,13
5368332,14
5368960,14
5369584,15
5370212,16
5370840,16
5371464,15
5372092,11
5372712,11
5373344,13
5373972,16
5374592,13
5375224,12
5375848,12
5376480,15
5377108,16
5377728,17
5378356,14
5378980,12
5379604,11
5380232,11
5380848,12
5381480,11
5382104,13
5382728,13
5383356,12
5383976,14
5384604,19
5385236,24
5385856,28
5386484,22
5387108,20
5387740,16
5388368,16
5388988,14
5389616,11
5390240,11
5390864,11
5391492,11
5392112,11
5392740,13
5393364,13
5393988,16
5394620,16
5395240,15
5395868,13
5396500,10
5397120,16
5397748,13
5398372,11
5399004,11
5399636,10
5400256,12
5400884,12
5401512,14
5402136,17
5402764,14
5403384,15
5404012,12
5404636,12
5405264,12
5405892,10
5406512,12
5407144,15
5407772,10
5408392,13
5409020,12
5409644,15
5410272,14
5410900,13
5411520,13
5412148,13
5412772,13
5413396,12
5414028,12
5414648,15
5415276,11
5415900,12
5416524,12
5417156,14
5417776,15
5418404,19
5419036,18
5419656,17
5420284,14
5420908,11
5421540,10
5422172,10
5422792,12
5423424,16
5424048,15
5424668,11
5425300,10
5425920,12
5426548,14
5427176,17
5427800,15
5428428,13
5429048,16
5429676,19
5430308,15
5430928,14
5431556,11
5432184,11
5432812,11
5433444,14
5434064,18
5434692,26
5435316,28
5435944,23
5436572,18
5437192,15
5437824,11
5438448,11
5439072,11
5439704,12
5440328,15
5440956,11
5441584,12
5442208,14
5442836,14
5443460,17
5444092,17
5444720,14
5445336,14
5445968,13
5446592,12
5447212,11
5447844,10
5448464,18
5449092,14
5449716,15
5450340,19
5450968,17
5451592,30
5452220,24
5452852,24
5453472,23
5454100,13
5454724,11
5455352,10
5455984,12
5456600,13
5457228,11
5457852,11
5458476,10
5459108,10
5459728,15
5460356,17
5460980,15
5461604,15
5462236,13
5462860,10
5463488,13
5464120,18
5464740,21
5465368,16
5465992,12
5466620,25
5467252,34
5467872,28
5468504,22
5469124,24
5469748,26
5470380,19
5471000,13
5471632,11
5472260,15
5472880,25
5473508,25
5474132,21
5474764,24
5475396,28
5476016,18
5476644,13
5477268,17
5477896,24
5478528,21
5479144,13
5479772,11
5480396,11
5481020,10
5481652,10
5482272,12
5482900,13
5483532,18
5484152,24
5484784,21
5485408,16
5486036,17
5486668,24
5487288,19
5487920,11
5488544,11
5489168,11
5489796,12
5490416,11
5491044,10
5491668,16
5492292,22
5492924,24
5493544,19
5494176,15
5494804,18
5495424,24
5496052,22
5496676,18
5497308,10
5497940,19
5498560,32
5499188,24
5499816,12
5500440,19
5501072,30
5501688,31
5502320,24
5502944,19
5503568,15
5504200,10
5504816,13
5505444,19
5506076,18
5506696,11
5507324,17
5507948,23
5508580,27
5509212,20
5509832,15
5510460,15
5511084,13
5511708,14
5512340,10
5512960,10
5513588,11
5514216,12
5514840,19
5515472,21
5516088,13
5516720,14
5517352,29
5517972,35
5518600,35
5519228,29
5519856,25
5520488,19
5521104,11
5521736,10
5522360,16
5522984,15
5523616,18
5524232,15
5524864,15
5525488,11
5526112,12
5526744,15
5527368,17
5527996,14
5528628,16
5529248,16
5529880,11
5530504,11
5531132,12
5531764,11
5532384,11
5533012,13
5533636,18
5534260,17
5534892,16
5535512,13
5536144,15
5536768,14
5537392,23
5538020,21
5538644,17
5539276,15
5539908,10
5540528,12
5541156,11
5541780,11
5542408,11
5543036,14
5543656,15
5544288,15
5544912,15
5545536,14
5546168,10
5546784,14
5547416,16
5548044,10
5548664,12
5549296,15
5549920,12
5550552,14
5551180,18
5551800,28
5552432,20
5553056,14
5553680,14
5554308,11
5554928,12
5555560,13
5556184,12
5556808,17
5557436,12
5558056,11
5558688,14
5559320,11
5559936,15
5560568,15
5561192,15
5561824,15
5562456,16
5563072,17
5563704,13
5564328,12
5564952,10
5565584,10
5566200,12
5566832,12
5567460,11
5568084,15
5568712,13
5569336,15
5569968,15
5570596,15
5571216,11
5571844,10
5572468,10
5573100,10
5573728,11
5574352,14
5574984,17
5575608,14
5576232,14
5576860,17
5577480,15
5578112,13
5578736,15
5579360,11
5579992,11
5580616,13
5581248,19
5581876,14
5582496,12
5583124,13
5583752,15
5584380,15
5585012,26
5585632,32
5586260,21
5586888,16
5587512,13
5588140,13
5588760,11
5589392,10
5590020,15
5590640,21
5591272,19
5591896,16
5592528,11
5593156,13
5593776,14
5594404,14
5595028,14
5595656,11
5596288,11
5596904,11
5597532,13
5598160,17
5598784,18
5599416,18
5600036,17
5600664,17
5601292,22
5601912,18
5602540,15
5603164,14
5603796,14
5604428,10
5605048,12
5605676,11
5606304,20
5606928,18
5607556,10
5608176,12
5608804,13
5609428,17
5610052,17
5610684,16
5611304,14
5611936,15
5612564,14
5613184,11
5613812,11
5614440,11
5615068,14
5615700,13
5616320,11
5616948,11
5617572,15
5618200,25
5618828,24
5619448,18
5620076,15
5620700,11
5621328,13
5621956,18
5622576,16
5623204,11
5623836,14
5624456,14
5625084,14
5625712,11
5626340,13
5626972,12
5627592,13
5628224,14
5628848,14
5629472,11
5630104,11
5630720,10
5631352,12
5631976,12
5632604,11
5633232,10
5633856,13
5634484,14
5635116,14
5635736,15
5636364,17
5636988,15
5637620,18
5638248,18
5638872,20
5639500,19
5640124,11
5640748,13
5641380,16
5642000,15
5642628,14
5643252,14
5643876,15
5644508,16
5645132,21
5645760,17
5646388,11
5647008,12
5647636,13
5648264,16
5648892,15
5649520,12
5650144,13
5650772,13
5651400,21
5652024,25
5652652,26
5653272,27
5653900,20
5654524,12
5655152,12
5655780,11
5656408,11
5657036,10
5657668,15
5658288,18
5658916,15
5659540,17
5660168,15
5660796,13
5661416,17
5662048,15
5662672,12
5663296,11
5663924,11
5664544,15
5665172,16
5665804,11
5666424,16
5667052,28
5667676,26
5668308,17
5668940,12
5669560,15
5670192,17
5670816,16
5671440,11
5672068,10
5672688,11
5673320,11
5673944,13
5674568,13
5675196,10
5675816,18
5676448,15
5677076,14
5677696,15
5678328,13
5678952,13
5679580,12
5680212,12
5680832,13
5681460,11
5682084,11
5682708,11
5683340,12
5683960,12
5684588,17
5685212,15
5685836,15
5686468,18
5687088,18
5687716,13
5688348,10
5688968,11
5689596,11
5690224,10
5690852,12
5691484,16
5692104,13
5692736,11
5693360,13
5693984,13
5694616,14
5695232,15
5695864,13
5696488,11
5697112,11
5697740,10
5698360,13
5698988,11
5699620,14
5700240,11
5700868,15
5701492,18
5702124,16
5702756,15
5703376,17
5704008,21
5704628,19
5705256,13
5705884,10
5706504,11
5707136,11
5707760,12
5708384,12
5709016,11
5709640,16
5710268,17
5710900,15
5711520,14
5712152,13
5712776,14
5713408,13
5714040,10
5714656,12
5715288,13
5715912,19
5716536,19
5717164,11
5717784,12
5718416,15
5719044,16
5719664,22
5720296,31
5720920,36
5721552,31
5722184,19
5722800,11
5723432,11
5724056,11
5724684,12
5725312,11
5725936,11
5726568,15
5727192,18
5727816,18
5728448,13
5729072,13
5729704,13
5730332,14
5730952,18
5731584,22
5732212,14
5732844,11
5733476,11
5734096,11
5734728,15
5735352,15
5735976,13
5736604,14
5737224,15
5737852,19
5738476,17
5739100,12
5739732,11
5740356,15
5740988,20
5741616,16
5742236,12
5742864,12
5743488,14
5744116,17
5744748,15
5745368,17
5745996,18
5746620,15
5747244,13
5747876,16
5748496,19
5749124,20
5749748,15
5750376,14
5751004,18
5751632,25
5752260,22
5752892,19
5753512,17
5754144,15
5754768,11
5755400,10
5756028,10
5756648,12
5757280,11
5757904,15
5758528,18
5759160,12
5759780,14
5760412,13
5761040,15
5761656,15
5762284,13
5762908,16
5763536,14
5764168,12
5764784,12
5765412,15
5766036,13
5766660,11
5767292,10
5767912,15
5768540,19
5769164,18
5769788,21
5770420,16
5771040,15
5771668,20
5772300,22
5772920,20
5773548,11
5774172,11
5774804,12
5775432,12
5776052,12
5776680,16
5777304,17
5777924,15
5778556,14
5779176,13
5779808,14
5780432,15
5781056,13
5781684,10
5782304,14
5782936,15
5783564,16
5784184,18
5784812,16
5785440,13
5786068,13
5786700,14
5787320,15
5787948,16
5788572,19
5789196,16
5789828,12
5790448,11
5791076,12
5791704,13
5792328,11
5792956,14
5793576,14
5794204,13
5794836,14
5795456,15
5796088,12
5796708,11
5797340,10
5797972,10
5798592,11
5799220,11
5799844,12
5800468,12
5801100,14
5801720,19
5802348,17
5802972,15
5803596,16
5804228,20
5804848,21
5805476,13
5806108,10
5806728,14
5807356,16
5807984,21
5808616,18
5809244,14
5809864,14
5810496,14
5811120,14
5811744,15
5812376,14
5812992,13
5813620,19
5814248,25
5814872,34
5815504,38
5816120,24
5816752,12
5817380,16
5818000,15
5818628,13
5819252,14
5819884,14
5820512,14
5821136,12
5821768,11
5822392,10
5823016,12
5823648,12
5824264,10
5824896,12
5825520,13
5826144,11
5826772,14
5827396,20
5828028,19
5828656,14
5829280,11
5829908,12
5830536,12
5831164,11
5831796,10
5832416,13
5833044,14
5833672,15
5834296,16
5834924,20
5835544,21
5836176,24
5836804,24
5837424,24
5838052,11
5838676,10
5839308,10
5839940,10
5840560,11
5841188,11
5841812,11
5842440,12
5843068,14
5843688,15
5844316,14
5844940,13
5845564,13
5846196,10
5846816,10
5847444,11
5848076,11
5848696,13
5849324,13
5849952,12
5850580,12
5851212,16
5851832,19
5852464,17
5853088,14
5853712,15
5854344,17
5854960,15
5855592,13
5856216,12
5856840,11
5857472,10
5858088,12
5858720,13
5859348,10
5859968,14
5860600,14
5861224,16
5861852,14
5862484,10
5863104,11
5863732,11
5864360,12
5864984,13
5865612,10
5866232,12
5866864,16
5867488,18
5868112,24
5868744,20
5869360,16
5869992,13
5870624,13
5871240,10
5871872,12
5872500,14
5873128,13
5873760,12
5874380,13
5875012,11
5875636,14
5876264,13
5876892,12
5877512,14
5878144,16
5878768,16
5879392,12
5880024,11
5880648,13
5881276,15
5881908,13
5882528,11
5883160,11
5883784,11
5884416,17
5885048,26
5885664,22
5886296,19
5886924,17
5887548,15
5888180,16
5888800,12
5889428,10
5890056,10
5890680,11
5891308,10
5891936,10
5892564,10
5893196,14
5893816,19
5894448,18
5895072,16
5895696,13
5896324,11
5896944,16
5897576,19
5898200,14
5898824,13
5899452,13
5900072,14
5900700,16
5901332,18
5901952,17
5902584,13
5903208,15
5903836,13
5904468,10
5905088,11
5905716,11
5906340,13
5906968,10
5907596,12
5908216,12
5908844,11
5909468,11
5910092,13
5910724,15
5911344,15
5911976,14
5912608,11
5913224,12
5913856,11
5914480,11
5915108,16
5915740,23
5916360,23
5916992,13
5917616,19
5918240,29
5918872,24
5919488,23
5920120,22
5920740,26
5921364,23
5921996,18
5922616,15
5923244,14
5923876,12
5924496,14
5925124,10
5925748,10
5926380,13
5927012,14
5927632,19
5928264,24
5928888,22
5929512,17
5930144,11
5930760,10
5931392,10
5932016,13
5932640,18
5933272,19
5933896,19
5934528,23
5935156,23
5935776,15
5936408,15
5937032,15
5937664,11
5938292,10
5938912,11
5939544,12
5940168,15
5940788,11
5941420,10
5942040,13
5942668,15
5943292,18
5943920,18
5944552,13
5945176,16
5945804,15
5946436,10
5947056,12
5947684,11
5948308,11
5948936,15
5949564,17
5950184,26
5950816,33
5951440,33
5952064,19
5952692,14
5953312,15
5953940,13
5954572,10
5955192,11
5955824,11
5956448,16
5957076,22
5957708,21
5958328,13
5958960,15
5959584,20
5960208,16
5960836,13
5961456,14
5962088,13
5962712,11
5963336,12
5963968,13
5964584,14
5965216,14
5965844,11
5966464,11
5967092,15
5967720,15
5968348,17
5968980,14
5969600,15
5970228,14
5970856,11
5971480,11
5972108,11
5972728,12
5973360,19
5973984,21
5974608,16
5975240,11
5975856,11
5976488,17
5977116,20
5977736,24
5978368,25
5978992,15
5979624,14
5980252,10
5980872,11
5981500,11
5982128,13
5982752,11
5983380,11
5984000,15
5984628,19
5985252,15
5985880,15
5986508,17
5987128,19
5987760,14
5988388,13
5989008,10
5989640,11
5990264,12
5990896,11
5991524,11
5992144,15
5992772,13
5993400,15
5994024,13
5994656,14
5995272,14
5995904,15
5996528,15
5997152,13
5997784,11
5998408,12
5999040,14
5999668,12
6000288,11
6000920,12
6001544,15
6002176,17
6002804,16
6003424,16
6004052,15
6004680,11
6005304,11
6005932,11
6006552,13
6007184,12
6007812,10
6008432,12
6009064,15
6009688,16
6010316,15
6010948,14
6011568,15
6012200,20
6012824,21
6013448,15
6014076,11
6014696,11
6015328,11
6015956,16
6016580,24
6017212,26
6017832,27
6018464,19
6019092,14
6019712,13
6020344,13
6020968,13
6021600,11
6022228,11
6022848,12
6023476,10
6024104,13
6024728,19
6025356,18
6025976,11
6026608,15
6027232,16
6027856,15
6028488,13
6029104,11
6029736,11
6030364,14
6030984,15
6031616,15
6032240,12
6032868,13
6033500,16
6034120,22
6034752,25
6035376,21
6036000,16
6036632,14
6037248,16
6037880,17
6038504,13
6039128,10
6039760,14
6040380,14
6041008,17
6041640,16
6042264,16
6042892,13
6043516,14
6044148,19
6044780,18
6045400,15
6046032,12
6046656,14
6047280,12
6047912,11
6048528,11
6049160,13
6049784,15
6050408,14
6051040,17
6051664,24
6052296,25
6052924,20
6053544,20
6054176,21
6054800,15
6055432,11
6056060,13
6056680,21
6057312,25
6057936,23
6058560,14
6059192,11
6059812,16
6060444,19
6061076,16
6061696,14
6062328,12
6062952,13
6063584,15
6064212,10
6064832,12
6065460,13
6066088,11
6066712,12
6067344,14
6067960,22
6068592,29
6069216,33
6069840,31
6070468,24
6071088,15
6071720,10
6072352,11
6072968,14
6073596,14
6074224,16
6074856,19
6075488,15
6076104,13
6076736,12
6077364,14
6077988,17
6078620,15
6079240,11
6079872,10
6080500,10
6081124,16
6081756,24
6082380,24
6083012,23
6083640,26
6084260,23
6084888,20
6085512,15
6086144,16
6086772,15
6087392,12
6088024,13
6088644,11
6089272,11
6089900,11
6090520,14
6091152,14
6091780,16
6092400,15
6093032,15
6093656,15
6094284,15
6094916,14
6095536,14
6096168,11
6096792,11
6097416,12
6098048,11
6098664,11
6099296,13
6099920,11
6100544,15
6101176,21
6101792,17
6102424,15
6103056,15
6103672,15
6104304,11
6104928,10
6105560,11
6106192,10
6106808,14
6107440,15
6108064,11
6108688,20
6109320,24
6109936,20
6110568,19
6111192,19
6111816,14
6112452,10
6113072,12
6113704,11
6114336,12
6114952,12
6115584,12
6116212,12
6116844,13
6117472,15
6118096,17
6118728,15
6119352,17
6119980,22
6120612,15
6121232,11
6121864,10
6122488,11
6123112,12
6123744,17
6124368,15
6125000,11
6125628,10
6126248,14
6126880,14
6127504,15
6128136,14
6128768,15
6129384,12
6130016,10
6130640,16
6131264,23
6131896,22
6132516,13
6133148,11
6133780,12
6134400,12
6135032,15
6135656,13
6136288,15
6136920,14
6137540,19
6138172,13
6138800,11
6139424,11
6140056,10
6140676,13
6141308,19
6141936,14
6142560,11
6143192,13
6143820,13
6144452,14
6145080,14
6145704,12
6146332,12
6146956,15
6147584,15
6148216,14
6148832,11
6149464,15
6150084,22
6150708,24
6151340,22
6151960,15
6152588,14
6153212,14
6153840,13
6154468,12
6155092,13
6155724,10
6156356,18
6156976,16
6157604,11
6158228,11
6158856,13
6159484,11
6160104,15
6160732,18
6161356,21
6161980,14
6162612,11
6163232,11
6163860,13
6164492,10
6165112,11
6165740,11
6166364,12
6166996,12
6167628,18
6168248,21
6168876,15
6169500,18
6170128,21
6170756,15
6171376,11
6172004,11
6172628,15
6173256,21
6173884,13
6174504,11
6175136,11
6175764,10
6176384,14
6177012,17
6177636,37
6178268,29
6178900,15
6179520,12
6180148,20
6180776,28
6181400,31
6182032,22
6182648,15
6183280,14
6183904,11
6184528,11
6185160,17
6185776,19
6186404,17
6187036,14
6187656,11
6188284,11
6188912,11
6189540,11
6190172,10
6190792,12
6191424,11
6192048,11
6192672,10
6193304,13
6193920,13
6194552,15
6195176,15
6195804,11
6196436,12
6197060,11
6197692,11
6198320,11
6198940,12
6199572,11
6200196,14
6200828,22
6201456,22
6202080,17
6202708,14
6203336,19
6203960,12
6204592,16
6205212,16
6205840,11
6206472,10
6207092,10
6207724,12
6208348,14
6208976,10
6209608,17
6210224,14
6210856,18
6211480,20
6212104,19
6212736,14
6213352,19
6213984,11
6214612,13
6215236,15
6215868,16
6216488,21
6217116,37
6217748,29
6218368,25
6219000,22
6219624,23
6220256,27
6220884,24
6221504,24
6222136,15
6222760,13
6223384,17
6224016,28
6224632,35
6225264,32
6225888,13
6226516,13
6227144,14
6227768,15
6228396,17
6229028,24
6229648,17
6230280,11
6230904,13
6231536,11
6232164,13
6232784,11
6233416,11
6234040,13
6234664,17
6235296,13
6235912,15
6236544,17
6237168,27
6237792,17
6238424,13
6239048,15
6239680,15
6240312,11
6240928,11
6241556,12
6242184,13
6242812,12
6243444,14
6244064,19
6244692,17
6245320,15
6245944,11
6246576,13
6247192,12
6247820,21
6248444,20
6249072,25
6249700,25
6250324,15
6250956,13
6251588,13
6252208,15
6252836,19
6253460,15
6254088,11
6254716,10
6255336,11
6255968,12
6256592,12
6257216,11
6257844,10
6258464,18
6259096,18
6259724,15
6260344,15
6260976,14
6261600,13
6262228,17
6262860,23
