tempo_arduino_micro_s,valor_ADC
500,11
1004,14
1504,20
2000,26
2508,33
3000,24
3508,12
4000,14
4504,12
5000,20
5500,14
6000,22
6500,14
7000,10
7500,15
8000,32
8500,51
9000,32
9500,12
10000,46
10508,95
11028,100
11608,55
12124,15
12652,18
13172,28
13700,24
14220,25
14748,18
15268,35
15788,30
16308,20
16828,13
17348,12
17868,13
18388,13
18908,15
19428,12
19948,16
20468,26
20988,29
21516,32
22036,36
22564,41
23084,44
23612,26
24132,20
24660,14
25180,44
25708,63
26228,28
26756,24
27276,38
27804,37
28324,36
28852,19
29372,12
29900,30
30420,20
30948,10
31468,18
31996,16
32520,16
33044,34
33564,53
34092,64
34612,48
35140,23
35660,27
36188,34
36708,42
37236,33
37756,28
38284,16
38804,14
39324,18
39844,19
40364,17
40884,13
41404,11
41924,16
42444,23
42964,12
43484,28
44004,21
44524,14
45044,11
45564,10
46092,11
46612,11
47140,11
47660,14
48188,22
48708,33
49236,33
49756,30
50284,23
50804,22
51332,15
51852,22
52380,37
52900,45
53428,31
53948,18
54476,11
54996,23
55524,32
56044,41
56572,39
57092,12
57620,33
58140,42
58668,36
59188,22
59716,17
60236,23
60764,32
61288,28
61812,21
62332,17
62860,22
63380,22
63900,19
64424,11
64940,15
65460,12
65980,13
66500,14
67020,12
67540,14
68060,17
68580,16
69100,14
69620,10
70140,10
70668,12
71188,10
71716,11
72236,13
72764,11
73284,10
73812,11
74332,12
74860,12
75380,11
75908,11
76432,11
76956,11
77476,14
78004,20
78524,29
79052,52
79576,62
80100,67
80620,41
81148,12
81668,18
82196,58
82716,82
83244,70
83764,59
84292,13
84812,36
85340,47
85860,47
86388,55
86912,42
87436,29
87956,83
88476,86
88996,51
89516,30
90040,32
90556,28
91076,13
91596,11
92116,13
92640,12
93156,11
93676,11
94196,10
94716,10
95244,13
95764,10
96292,17
96812,21
97340,12
97860,12
98388,11
98912,15
99436,21
99960,22
100484,18
101048,12
101632,20
102200,11
102784,9
103300,11
103880,12
104456,11
105024,17
105600,31
106168,58
106744,61
107312,20
107896,29
108464,56
109040,76
109624,91
110192,38
110776,15
111344,11
111928,17
112500,16
113080,16
113648,42
114224,54
114808,42
115376,14
115960,29
116528,21
117112,11
117684,14
118256,19
118840,16
119408,10
119992,11
120564,15
121144,15
121712,11
122296,13
122864,11
123444,21
124024,33
124592,26
125176,12
125744,19
126328,43
126896,43
127472,21
128056,11
128624,10
129200,10
129768,11
130344,12
130912,11
131496,11
132064,12
132640,12
133224,13
133792,17
134368,15
134936,14
135520,10
136088,11
136664,13
137240,16
137808,18
138392,21
138960,30
139544,63
140112,89
140696,73
141268,43
141840,16
142424,47
142992,95
143576,113
144196,64
144772,40
145344,26
145920,14
146504,12
147072,12
147656,15
148224,19
148808,14
149376,13
149952,13
150524,11
151096,12
151680,22
152248,24
152832,13
153404,16
153984,25
154552,24
155128,11
155712,17
156280,11
156864,16
157432,13
158016,15
158588,18
159168,17
159740,15
160316,12
160896,25
161464,31
162048,17
162616,13
163200,13
163768,26
164344,16
164928,11
165496,11
166072,13
166640,15
167224,17
167792,13
168368,20
168936,32
169504,27
170088,13
170656,14
171232,20
171800,55
172384,84
172952,106
173580,83
174156,39
174728,13
175304,36
175876,73
176456,95
177024,85
177608,81
178184,116
178804,68
179380,11
179952,12
180528,18
181096,15
181672,31
182244,42
182816,20
183400,14
183968,19
184552,24
185120,23
185704,11
186272,12
186848,11
187432,12
188000,11
188584,16
189156,19
189736,19
190308,10
190888,13
191456,11
192036,11
192616,11
193184,12
193768,11
194336,13
194920,19
195488,16
196064,11
196648,11
197216,11
197800,18
198368,12
198952,17
199524,26
200104,38
200672,35
201248,14
201832,29
202404,48
202984,57
203556,38
204136,19
204708,11
205284,38
205864,45
206432,37
207008,54
207576,80
208160,65
208728,20
209304,18
209872,16
210448,58
211032,111
211656,97
212232,29
212800,11
213384,10
213952,11
214528,17
215112,21
215680,13
216264,20
216832,16
217416,22
217988,32
218568,41
219144,31
219716,13
220296,10
220864,11
221448,10
222016,11
222600,9
223120,12
223696,25
224272,30
224840,26
225424,24
225992,24
226576,16
227144,23
227728,36
228300,22
228876,17
229456,14
230024,18
230608,11
231176,14
231760,17
232328,27
232912,23
233488,23
234056,13
234640,21
235208,29
235792,31
236364,22
236944,15
237512,14
238092,12
238672,27
239244,26
239824,29
240396,48
240976,42
241544,27
242128,14
242704,18
243276,33
243856,41
244424,58
245008,53
245580,23
246160,18
246736,74
247312,78
247896,63
248468,31
249048,13
249616,32
250200,62
250772,49
251348,26
251928,14
252500,11
253080,26
253652,35
254232,12
254804,25
255384,25
255956,11
256532,28
257112,54
257680,28
258264,13
258832,16
259408,11
259976,13
260560,12
261136,14
261704,12
262280,13
262848,12
263432,12
264000,24
264584,35
265152,18
265728,14
266312,22
266880,35
267464,81
268032,89
268616,49
269188,33
269768,117
270396,106
271016,55
271592,12
272164,15
272744,13
273312,15
273888,15
274472,14
275044,11
275624,13
276196,15
276776,15
277348,16
277928,11
278496,11
279072,10
279656,19
280228,26
280808,30
281376,29
281960,20
282528,13
283104,23
283688,24
284256,12
284840,14
285408,23
285992,23
286564,15
287144,14
287716,11
288292,28
288872,50
289440,43
290024,12
290592,32
291176,51
291748,31
292324,14
292904,22
293472,48
294056,49
294628,40
295208,45
295776,29
296360,16
296928,74
297508,96
298088,75
298660,50
299240,24
299812,13
300392,13
300964,20
301536,16
302120,14
302692,27
303272,14
303844,13
304424,11
305004,11
305584,32
306156,52
306732,56
307312,37
307884,12
308464,25
309036,39
309616,54
310188,65
310764,52
311344,26
311916,19
312496,42
313068,37
313648,20
314216,11
314800,12
315372,11
315948,13
316528,15
317100,11
317680,11
318260,14
318840,15
319412,19
319988,23
320572,42
321140,81
321720,42
322288,18
322872,11
323440,14
324024,21
324592,32
325172,15
325752,13
326324,13
326904,16
327476,22
328056,12
328624,12
329192,13
329776,14
330344,12
330920,26
331488,14
332072,12
332640,21
333224,12
333792,13
334360,18
334944,44
335512,49
336096,25
336664,46
337240,29
337808,11
338384,13
338968,11
339536,33
340120,56
340688,90
341272,84
341844,63
342424,25
342992,71
343572,115
344204,130
344824,125
345448,31
346020,18
346592,18
347176,22
347748,11
348328,19
348896,42
349480,57
350048,45
350632,39
351204,37
351780,14
352360,47
352932,90
353512,67
354084,49
354664,28
355232,11
355808,11
356392,14
356964,15
357544,14
358116,20
358696,20
359272,15
359856,13
360428,31
361000,35
361584,21
362156,14
362736,11
363308,14
363888,19
364460,18
365036,13
365616,14
366184,19
366768,11
367340,18
367920,11
368492,12
369072,19
369640,27
370216,22
370800,11
371372,11
371952,26
372524,35
373104,29
373676,18
374252,12
374832,15
375404,18
375984,26
376556,36
377136,41
377708,49
378288,43
378860,29
379436,11
380016,32
380588,59
381168,64
381740,39
382320,22
382900,29
383476,26
384056,12
384628,26
385208,32
385776,31
386360,42
386932,58
387512,92
388084,50
388656,30
389240,70
389808,52
390392,11
390964,48
391544,18
392116,13
392692,44
393272,98
393844,27
394424,40
394992,36
395576,31
396148,38
396728,34
397308,23
397884,22
398464,26
399036,13
399616,58
400196,64
400776,27
401344,22
401924,33
402504,26
403076,29
403656,42
404228,41
404808,12
405376,15
405960,16
406536,24
407108,27
407688,16
408260,27
408840,15
409412,15
409992,14
410568,13
411136,20
411712,24
412280,32
412864,54
413432,70
414016,89
414584,67
415168,23
415740,26
416316,46
416896,54
417464,92
418048,118
418668,33
419244,30
419816,13
420396,44
420976,36
421544,11
422128,18
422696,16
423280,17
423848,16
424424,11
425008,19
425576,26
426160,23
426728,14
427312,27
427884,16
428464,12
429036,13
429612,31
430192,37
430764,35
431344,40
431916,42
432496,27
433072,14
433652,11
434232,15
434804,11
435384,10
435952,13
436536,25
437104,23
437688,14
438260,35
438836,45
439416,47
439988,47
440568,47
441144,30
441728,39
442296,74
442876,97
443456,51
444028,13
444608,51
445180,27
445760,21
446328,48
446912,41
447484,16
448060,33
448640,16
449208,17
449792,32
450364,14
450944,35
451512,40
452092,30
452672,14
453244,34
453824,54
454396,38
454976,26
455556,45
456136,33
456712,27
457284,54
457864,96
458436,53
459016,15
459588,30
460168,32
460740,41
461316,36
461896,17
462468,26
463048,43
463616,30
464200,21
464768,21
465352,23
465928,15
466496,51
467080,68
467652,46
468232,13
468804,41
469384,64
469956,110
470584,68
471160,33
471732,11
472312,19
472884,14
473464,11
474036,14
474612,16
475192,11
475764,17
476344,19
476916,13
477496,27
478068,24
478648,13
479228,12
479804,13
480384,42
480956,59
481536,24
482108,64
482688,20
483256,15
483836,22
484416,33
484988,54
485568,18
486140,19
486720,27
487296,22
487880,18
488456,58
489028,52
489608,34
490176,18
490760,14
491340,11
491920,17
492496,11
493072,19
493656,14
494228,14
494808,23
495376,27
495960,26
496532,12
497108,11
497688,18
498256,17
498840,15
499412,15
499992,13
500564,12
501144,11
501716,11
502292,12
502872,11
503444,11
504024,9
504544,10
505120,13
505692,15
506272,17
506844,18
507420,26
508000,21
508572,18
509152,31
509732,26
510312,14
510892,23
511468,11
512052,11
512620,15
513200,29
513768,35
514352,14
514920,18
515504,12
516076,14
516648,26
517232,38
517800,20
518384,12
518956,42
519536,59
520108,37
520680,14
521264,79
521836,89
522416,16
522984,24
523568,18
524136,11
524720,21
525292,29
525864,33
526448,22
527016,25
527600,54
528172,46
528752,20
529320,20
529900,27
530480,30
531052,18
531632,13
532204,20
532784,14
533356,12
533936,13
534508,12
535084,11
535664,14
536236,11
536816,17
537388,14
537968,15
538536,27
539112,40
539696,27
540268,18
540848,26
541416,26
542000,21
542572,21
543152,51
543724,65
544300,69
544880,42
545448,18
546032,45
546604,25
547184,13
547756,11
548332,22
548912,53
549484,66
550064,35
550636,17
551216,11
551788,22
552368,30
552940,28
553516,47
554096,72
554668,89
555248,88
555820,87
556400,27
556980,65
557556,114
558188,62
558756,15
559336,17
559908,63
560488,81
561068,50
561644,14
562224,17
562796,16
563376,17
563948,28
564528,17
565096,11
565680,15
566252,19
566828,14
567408,13
567980,15
568560,23
569136,39
569720,49
570288,46
570868,25
571448,21
572020,69
572600,48
573172,37
573752,35
574332,25
574912,26
575496,12
576068,14
576648,17
577216,22
577800,13
578368,32
578952,67
579524,53
580096,14
580680,23
581252,74
581832,47
582404,11
582984,36
583556,82
584136,42
584720,34
585292,11
585872,16
586444,54
587024,85
587596,19
588176,27
588756,75
589332,79
589912,45
590484,18
591064,38
591636,27
592216,34
592796,27
593372,14
593952,29
594524,26
595104,28
595676,14
596256,11
596828,27
597408,34
597980,22
598556,71
599136,75
599712,39
600288,14
600868,15
601448,18
602028,20
602604,11
603184,16
603756,13
604336,11
604908,42
605488,68
606060,46
606640,36
607220,16
607796,28
608380,54
608952,44
609528,18
610108,46
610688,34
611268,31
611844,62
612424,31
612996,15
613576,12
614152,11
614732,14
615304,19
615888,14
616464,17
617036,30
617616,26
618184,14
618768,22
619340,41
619920,62
620500,39
621076,15
621656,13
622228,10
622808,13
623388,21
623968,17
624540,12
625116,12
625696,14
626268,15
626848,22
627420,22
628000,21
628572,26
629152,17
629724,26
630300,23
630880,17
631452,14
632032,26
632612,14
633192,33
633772,71
634348,87
634928,67
635500,35
636080,13
636652,17
637232,22
637812,21
638392,15
638972,20
639552,29
640132,19
640700,19
641280,13
641848,18
642432,12
643000,14
643580,36
644160,27
644728,14
645312,11
645880,30
646464,45
647032,46
647616,65
648188,72
648764,56
649344,48
649916,14
650496,81
651068,148
651700,119
652328,32
652900,12
653480,10
654052,14
654632,18
655212,24
655792,24
656372,11
656944,18
657528,13
658096,12
658680,63
659248,43
659832,11
660404,11
660976,19
661560,30
662132,27
662712,15
663284,11
663864,14
664436,18
665016,19
665588,17
666164,58
666744,146
667364,141
667992,81
668564,26
669136,140
669772,229
670388,105
671020,15
671588,26
672168,11
672736,11
673304,11
673888,22
674456,26
675040,13
675612,15
676192,27
676760,51
677340,37
677920,24
678492,40
679072,34
679640,30
680224,12
680792,30
681376,52
681944,99
682520,82
683104,34
683676,19
684256,16
684824,14
685408,15
685980,42
686556,60
687136,81
687708,85
688288,67
688860,20
689440,15
690012,26
690592,39
691164,27
691740,13
692320,47
692892,80
693472,52
694044,19
694624,9
695144,10
695720,11
696300,12
696876,12
697456,11
698028,14
698608,13
699180,12
699760,13
700332,13
700908,11
701488,14
702060,10
702640,16
703212,18
703792,28
704372,29
704952,17
705524,11
706100,11
706680,18
707248,15
707832,18
708404,15
708984,19
709556,27
710132,12
710712,17
711284,20
711864,38
712436,44
713016,19
713588,13
714168,14
714748,12
715324,13
715904,47
716480,70
717056,44
717636,14
718216,44
718788,37
719364,25
719944,36
720516,79
721096,18
721668,12
722248,21
722816,28
723400,19
723976,23
724548,12
725128,12
725700,12
726280,14
726860,16
727440,19
728020,16
728592,21
729176,20
729748,13
730328,12
730900,11
731480,15
732052,20
732628,12
733208,16
733780,15
734360,18
734932,21
735512,31
736092,24
736672,17
737244,14
737820,37
738400,47
738968,32
739552,12
740124,18
740704,15
741276,14
741852,14
742432,29
743004,25
743584,25
744156,38
744736,13
745308,20
745888,37
746460,38
747036,47
747616,53
748188,12
748768,39
749340,44
749920,47
750492,33
751068,12
751648,34
752224,35
752800,42
753368,40
753952,31
754524,15
755104,14
755684,29
756260,57
756840,54
757412,45
757992,19
758572,49
759152,63
759724,63
760300,46
760880,22
761452,11
762032,23
762604,13
763184,35
763764,47
764344,48
764924,44
765500,23
766080,12
766652,30
767236,27
767812,59
768396,86
768968,75
769544,22
770128,74
770700,138
771332,119
771956,35
772532,76
773108,30
773684,40
774264,60
774836,52
775416,25
775988,15
776568,14
777148,41
777724,57
778304,33
778876,22
779456,19
780028,11
780608,33
781180,40
781760,20
782332,37
782908,34
783488,17
784060,47
784640,41
785208,14
785792,27
786364,42
786940,31
787520,13
788092,19
788672,33
789244,62
789824,59
790396,57
790980,38
791560,31
792136,39
792712,31
793288,45
793864,88
794444,88
795024,81
795596,32
796172,54
796752,118
797376,108
798008,63
798580,43
799160,27
799740,16
800320,12
800896,23
801464,34
802048,31
802620,21
803200,11
803768,18
804348,21
804928,29
805500,35
806080,28
806652,21
807232,13
807804,11
808384,27
808956,34
809532,35
810112,30
810684,13
811264,11
811844,19
812424,19
812996,13
813572,12
814152,20
814724,12
815304,24
815876,22
816456,55
817036,41
817616,19
818200,43
818772,63
819356,49
819924,24
820504,11
821072,19
821648,26
822216,35
822792,39
823376,37
823944,18
824528,12
825096,12
825680,13
826248,25
826824,33
827400,37
827968,45
828552,41
829124,29
829704,32
830272,63
830856,61
831428,20
832004,18
832584,32
833152,22
833736,25
834304,29
834888,13
835456,17
836040,26
836616,17
837188,27
837768,78
838340,91
838920,29
839496,22
840080,40
840648,54
841216,94
841800,70
842368,37
842952,19
843524,11
844104,22
844676,28
845256,12
845832,38
846404,46
846984,40
847556,22
848136,17
848704,56
849288,71
849856,15
850436,30
851016,17
851588,43
852168,74
852740,100
853372,119
853996,119
854620,26
855196,127
855820,203
856448,125
857072,33
857640,18
858224,14
858796,38
859376,99
859956,87
860536,40
861116,16
861692,60
862272,114
862896,75
863472,15
864044,13
864624,16
865196,11
865772,13
866352,20
866924,13
867504,22
868076,27
868656,35
869228,46
869808,48
870380,18
870956,12
871536,24
872108,34
872688,58
873260,62
873840,41
874408,21
874984,43
875568,26
876140,24
876720,24
877292,12
877872,12
878444,11
879024,16
879596,24
880172,25
880752,19
881320,24
881904,21
882476,16
883056,44
883628,30
884204,15
884784,10
885356,11
885936,10
886508,12
887088,9
887608,10
888184,13
888756,20
889332,18
889912,14
890484,12
891064,12
891636,19
892216,19
892788,15
893368,11
893948,16
894524,27
895104,27
895680,16
896256,18
896832,14
897416,12
897988,26
898564,33
899144,32
899716,16
900296,13
900868,26
901448,24
902016,11
902600,12
903176,11
903748,11
904328,10
904896,11
905480,12
906052,10
906632,12
907204,17
907780,25
908360,27
908932,19
909512,15
910084,37
910664,25
911236,11
911816,23
912400,29
912972,18
913552,18
914124,31
914704,25
915276,32
915856,29
916428,30
917004,18
917584,12
918156,11
918736,11
919316,21
919896,43
920476,40
921052,22
921632,12
922204,15
922784,11
923356,16
923936,15
924508,21
925088,21
925660,12
926236,16
926816,22
927388,11
927968,22
928540,30
929120,23
929692,23
930268,18
930848,39
931420,109
932052,96
932620,51
933200,25
933772,17
934352,25
934940,12
935512,11
936088,14
936660,23
937240,19
937812,24
938392,39
938964,54
939540,40
940120,34
940692,26
941272,17
941852,23
942432,13
943012,21
943588,24
944168,17
944740,13
945320,18
945892,35
946472,16
947052,63
947636,82
948212,24
948788,46
949368,100
949992,63
950572,82
951148,109
951780,86
952360,24
952932,18
953512,10
954088,15
954664,13
955236,10
955816,14
956396,12
956972,22
957552,16
958128,33
958704,39
959284,25
959868,27
960444,23
961016,11
961600,14
962168,19
962752,41
963324,19
963904,10
964476,27
965056,41
965628,36
966204,18
966784,14
967356,41
967936,43
968516,25
969096,25
969668,27
970244,30
970824,16
971396,11
971976,13
972552,13
973128,16
973708,25
974288,19
974864,16
975436,57
976016,60
976588,54
977168,35
977740,14
978320,11
978900,12
979476,11
980056,12
980628,10
981208,11
981788,10
982368,13
982948,15
983524,19
984104,11
984676,11
985256,14
985828,19
986408,21
986976,28
987560,24
988132,11
988708,27
989288,42
989860,30
990440,12
991012,13
991592,19
992172,12
992748,26
993328,21
993900,15
994480,13
995052,11
995632,14
996212,18
996792,13
997364,14
997940,14
998520,12
999092,14
999672,14
1000244,12
1000868,19
1001496,33
1002120,16
1002748,24
1003372,43
1004000,57
1004628,36
1005248,29
1005876,70
1006500,51
1007124,45
1007752,13
1008368,21
1009000,35
1009620,23
1010244,12
1010872,12
1011492,25
1012120,27
1012748,56
1013368,39
1013996,11
1014620,30
1015252,62
1015880,56
1016496,45
1017128,13
1017752,19
1018376,24
1019004,36
1019624,26
1020252,13
1020876,11
1021500,11
1022132,10
1022752,9
1023332,11
1023960,18
1024584,17
1025212,22
1025828,35
1026456,29
1027084,39
1027700,31
1028332,12
1028952,32
1029580,39
1030208,14
1030824,11
1031452,15
1032076,18
1032704,13
1033332,12
1033952,27
1034580,31
1035200,16
1035824,13
1036452,23
1037072,24
1037700,23
1038320,22
1038944,17
1039572,14
1040196,14
1040824,13
1041452,12
1042072,17
1042700,12
1043320,19
1043948,15
1044580,24
1045196,41
1045824,13
1046448,19
1047068,21
1047696,27
1048320,12
1048948,25
1049568,58
1050192,57
1050824,31
1051440,39
1052068,28
1052696,10
1053312,16
1053944,20
1054568,16
1055196,11
1055824,10
1056444,12
1057072,25
1057692,49
1058316,54
1058944,31
1059560,21
1060192,14
1060812,17
1061436,39
1062064,59
1062688,58
1063316,29
1063944,17
1064564,11
1065192,13
1065816,12
1066444,13
1067072,14
1067688,18
1068316,22
1068940,11
1069568,11
1070196,10
1070816,13
1071444,10
1072068,11
1072688,18
1073316,22
1073936,28
1074564,23
1075188,12
1075812,13
1076440,11
1077060,13
1077692,12
1078320,14
1078936,12
1079568,19
1080188,32
1080820,35
1081448,45
1082064,22
1082692,19
1083316,22
1083940,18
1084568,28
1085184,56
1085816,42
1086436,11
1087060,11
1087688,12
1088312,11
1088940,13
1089568,48
1090184,70
1090812,30
1091436,12
1092064,17
1092692,22
1093312,27
1093940,25
1094564,18
1095184,10
1095816,24
1096432,23
1097060,13
1097684,12
1098308,10
1098936,12
1099552,15
1100180,17
1100812,12
1101428,20
1102060,26
1102684,11
1103312,35
1103940,27
1104560,15
1105188,11
1105812,18
1106440,32
1107068,34
1107688,21
1108316,13
1108940,30
1109564,40
1110192,12
1110816,20
1111444,13
1112076,12
1112696,11
1113324,11
1113948,11
1114580,19
1115208,27
1115828,12
1116456,13
1117080,12
1117704,19
1118332,12
1118952,19
1119580,13
1120208,19
1120828,23
1121460,22
1122080,14
1122708,11
1123336,14
1123956,30
1124584,34
1125208,34
1125836,17
1126468,10
1127084,11
1127712,14
1128336,17
1128964,19
1129592,23
1130212,23
1130840,21
1131464,12
1132088,11
1132716,14
1133336,14
1133964,15
1134588,13
1135216,18
1135844,22
1136468,24
1137100,31
1137728,21
1138344,12
1138976,26
1139600,34
1140228,19
1140856,16
1141480,16
1142108,12
1142732,11
1143356,16
1143988,22
1144608,59
1145236,47
1145868,16
1146488,39
1147116,82
1147740,78
1148372,51
1149000,28
1149616,13
1150244,25
1150868,11
1151492,13
1152124,16
1152740,11
1153372,10
1153992,24
1154616,36
1155244,36
1155864,35
1156492,27
1157112,15
1157736,51
1158368,17
1158992,32
1159620,69
1160248,34
1160872,11
1161500,12
1162124,10
1162752,10
1163380,26
1164000,35
1164628,24
1165252,17
1165876,13
1166504,12
1167128,34
1167756,56
1168380,37
1169008,16
1169636,28
1170260,16
1170888,11
1171516,16
1172136,13
1172764,16
1173388,24
1174020,15
1174648,18
1175272,21
1175900,15
1176524,12
1177148,10
1177780,11
1178400,47
1179028,84
1179656,82
1180276,60
1180904,16
1181528,40
1182156,80
1182788,82
1183408,16
1184036,48
1184660,57
1185284,17
1185912,44
1186536,53
1187164,47
1187788,33
1188416,22
1189044,10
1189664,15
1190292,15
1190924,18
1191544,12
1192172,13
1192796,15
1193428,13
1194056,10
1194676,10
1195304,13
1195928,16
1196552,11
1197180,11
1197800,16
1198428,17
1199052,13
1199676,14
1200308,12
1200928,12
1201556,11
1202188,12
1202808,23
1203436,19
1204060,15
1204688,11
1205320,11
1205936,19
1206564,14
1207188,12
1207816,12
1208444,16
1209064,18
1209692,12
1210316,12
1210940,16
1211568,17
1212188,17
1212816,17
1213444,11
1214064,11
1214692,11
1215316,15
1215948,23
1216580,51
1217200,68
1217828,61
1218452,35
1219080,13
1219708,40
1220328,74
1220956,76
1221580,45
1222204,13
1222836,20
1223456,20
1224084,37
1224716,23
1225336,33
1225964,87
1226588,69
1227220,46
1227848,11
1228472,27
1229104,19
1229724,17
1230348,16
1230976,19
1231600,22
1232228,19
1232852,13
1233472,11
1234104,11
1234720,18
1235348,16
1235976,22
1236600,41
1237228,38
1237852,26
1238480,10
1239112,12
1239728,33
1240356,33
1240980,16
1241604,14
1242232,13
1242856,12
1243484,16
1244108,18
1244732,17
1245364,15
1245984,22
1246612,60
1247244,47
1247864,20
1248492,13
1249116,17
1249748,39
1250376,66
1250992,76
1251624,56
1252248,31
1252872,16
1253500,22
1254120,12
1254748,12
1255372,13
1255996,16
1256628,30
1257248,29
1257876,13
1258508,14
1259128,20
1259756,19
1260380,11
1261012,10
1261640,11
1262264,11
1262892,14
1263516,13
1264140,13
1264772,18
1265392,23
1266020,21
1266644,19
1267268,14
1267900,10
1268520,11
1269148,18
1269780,16
1270400,12
1271028,10
1271652,11
1272284,12
1272912,12
1273532,13
1274160,13
1274784,13
1275412,12
1276040,19
1276660,23
1277288,23
1277916,21
1278540,14
1279172,10
1279792,12
1280424,12
1281052,10
1281668,17
1282296,32
1282920,36
1283548,17
1284176,17
1284792,22
1285420,19
1286044,15
1286664,12
1287296,20
1287912,13
1288540,11
1289164,14
1289784,11
1290416,18
1291032,33
1291660,21
1292284,12
1292904,14
1293532,21
1294156,19
1294784,13
1295416,13
1296032,15
1296660,31
1297284,42
1297912,12
1298540,22
1299160,15
1299788,13
1300412,22
1301036,24
1301664,28
1302288,13
1302916,22
1303540,11
1304164,13
1304792,11
1305416,32
1306048,15
1306676,12
1307296,29
1307924,44
1308548,36
1309180,18
1309808,16
1310424,20
1311056,18
1311676,13
1312300,11
1312928,14
1313548,11
1314180,10
1314800,13
1315420,21
1316052,24
1316672,25
1317300,13
1317928,20
1318552,27
1319180,23
1319804,18
1320432,11
1321060,19
1321676,32
1322308,36
1322928,12
1323548,12
1324180,16
1324800,14
1325424,36
1326048,59
1326672,35
1327300,18
1327920,13
1328548,23
1329176,37
1329800,29
1330428,18
1331052,12
1331680,25
1332308,14
1332928,13
1333556,33
1334176,22
1334800,12
1335428,18
1336048,19
1336676,10
1337296,11
1337920,12
1338548,11
1339168,11
1339796,11
1340424,14
1341048,13
1341676,11
1342300,11
1342928,12
1343556,12
1344176,19
1344804,19
1345424,11
1346052,10
1346680,14
1347296,13
1347924,12
1348548,17
1349172,13
1349800,15
1350416,47
1351044,34
1351668,30
1352292,25
1352920,12
1353540,41
1354172,57
1354800,40
1355416,19
1356048,11
1356668,14
1357300,21
1357928,26
1358544,28
1359172,24
1359796,11
1360420,19
1361048,19
1361664,24
1362292,25
1362916,19
1363536,12
1364164,18
1364780,25
1365412,38
1366040,31
1366656,15
1367284,13
1367908,17
1368536,18
1369168,20
1369784,19
1370412,21
1371036,27
1371660,23
1372288,26
1372904,25
1373532,22
1374156,15
1374780,13
1375408,13
1376024,43
1376652,55
1377276,29
1377904,12
1378532,23
1379156,30
1379788,23
1380416,11
1381032,30
1381664,36
1382288,29
1382916,26
1383548,29
1384168,33
1384796,24
1385420,11
1386044,20
1386672,20
1387288,24
1387916,25
1388540,16
1389168,12
1389796,10
1390420,13
1391048,13
1391680,12
1392296,20
1392924,16
1393548,11
1394176,10
1394808,12
1395424,13
1396052,11
1396676,11
1397296,11
1397928,11
1398544,29
1399172,38
1399796,26
1400420,13
1401048,20
1401672,23
1402300,29
1402928,16
1403552,15
1404180,23
1404804,14
1405432,14
1406060,10
1406680,12
1407308,13
1407932,16
1408560,21
1409188,12
1409808,21
1410436,23
1411060,23
1411684,20
1412312,14
1412936,47
1413564,67
1414196,54
1414816,26
1415444,12
1416068,26
1416696,44
1417324,27
1417944,11
1418572,12
1419196,13
1419820,19
1420448,23
1421072,12
1421700,13
1422324,14
1422948,14
1423580,15
1424200,21
1424832,17
1425460,14
1426080,15
1426708,11
1427332,11
1427960,20
1428592,18
1429208,11
1429836,22
1430460,23
1431084,11
1431716,15
1432336,16
1432964,16
1433588,12
1434216,13
1434844,13
1435468,15
1436096,16
1436724,14
1437344,26
1437972,26
1438596,20
1439224,22
1439856,23
1440472,18
1441100,12
1441724,12
1442348,13
1442976,23
1443592,15
1444224,16
1444844,28
1445468,26
1446096,16
1446712,21
1447340,19
1447972,23
1448592,21
1449220,16
1449844,27
1450472,28
1451100,19
1451720,14
1452348,19
1452972,29
1453596,23
1454228,14
1454848,12
1455476,11
1456100,11
1456724,11
1457352,25
1457968,15
1458596,13
1459228,31
1459848,30
1460476,17
1461100,33
1461728,34
1462356,22
1462976,13
1463604,17
1464228,20
1464852,19
1465480,15
1466104,20
1466732,12
1467356,30
1467980,43
1468612,42
1469232,37
1469860,13
1470492,42
1471112,59
1471744,53
1472368,43
1472996,19
1473624,17
1474248,22
1474876,40
1475500,31
1476124,12
1476752,18
1477368,25
1477996,16
1478620,11
1479244,38
1479876,39
1480496,22
1481124,12
1481752,16
1482368,15
1483000,13
1483624,15
1484252,18
1484880,16
1485500,11
1486132,11
1486752,10
1487376,13
1488004,11
1488620,13
1489252,18
1489872,13
1490496,13
1491128,12
1491744,16
1492372,12
1493004,12
1493624,14
1494252,15
1494876,14
1495508,39
1496136,33
1496760,19
1497388,38
1498012,35
1498636,14
1499264,19
1499884,41
1500512,36
1501136,12
1501760,17
1502388,11
1503008,15
1503636,18
1504268,10
1504888,12
1505516,11
1506140,11
1506768,12
1507400,23
1508016,12
1508648,21
1509272,23
1509896,20
1510524,11
1511144,13
1511772,12
1512396,17
1513020,13
1513652,14
1514272,16
1514900,31
1515532,50
1516152,45
1516780,17
1517408,28
1518036,51
1518668,76
1519288,30
1519916,33
1520544,49
1521168,48
1521796,38
1522416,21
1523044,21
1523668,47
1524292,64
1524924,52
1525544,18
1526176,21
1526804,20
1527424,12
1528052,21
1528676,17
1529308,21
1529936,36
1530560,24
1531188,15
1531816,12
1532440,14
1533072,12
1533688,28
1534320,14
1534944,34
1535568,11
1536200,19
1536816,19
1537444,23
1538072,10
1538688,12
1539316,13
1539940,20
1540568,22
1541196,12
1541816,27
1542444,23
1543068,34
1543692,19
1544320,13
1544936,15
1545564,12
1546188,12
1546812,17
1547444,11
1548064,23
1548692,18
1549324,14
1549944,18
1550572,21
1551196,17
1551828,12
1552460,10
1553080,11
1553708,13
1554332,12
1554956,11
1555588,10
1556208,11
1556836,18
1557460,19
1558084,12
1558712,26
1559332,43
1559960,41
1560588,26
1561208,12
1561836,21
1562460,45
1563088,42
1563720,11
1564336,13
1564964,25
1565588,21
1566216,13
1566844,14
1567464,12
1568092,23
1568716,17
1569340,19
1569968,19
1570584,11
1571216,11
1571840,10
1572464,15
1573092,14
1573716,13
1574348,14
1574980,12
1575600,14
1576228,16
1576852,11
1577480,23
1578108,26
1578728,18
1579356,11
1579980,11
1580608,15
1581236,15
1581856,21
1582484,16
1583116,22
1583736,25
1584368,20
1584992,14
1585620,11
1586252,12
1586872,30
1587504,21
1588124,13
1588748,11
1589380,11
1590000,13
1590628,12
1591252,17
1591876,18
1592508,22
1593128,18
1593756,16
1594388,22
1595008,18
1595636,11
1596264,12
1596892,16
1597524,24
1598144,23
1598772,13
1599400,13
1600024,12
1600648,12
1601268,11
1601896,12
1602520,11
1603144,39
1603772,40
1604392,13
1605020,28
1605648,34
1606272,13
1606900,13
1607524,16
1608152,15
1608780,32
1609400,18
1610028,38
1610652,56
1611276,34
1611904,18
1612524,27
1613152,30
1613776,32
1614396,13
1615028,34
1615648,54
1616276,39
1616908,16
1617528,12
1618156,25
1618780,12
1619408,13
1620040,10
1620656,11
1621284,14
1621908,17
1622536,22
1623164,16
1623784,14
1624412,15
1625036,12
1625660,12
1626288,14
1626904,16
1627536,11
1628164,18
1628784,12
1629412,14
1630036,25
1630668,38
1631300,58
1631920,68
1632552,60
1633176,17
1633800,53
1634428,89
1635048,81
1635676,58
1636304,15
1636928,11
1637556,10
1638176,26
1638808,42
1639432,39
1640052,21
1640680,19
1641304,29
1641932,19
1642560,11
1643172,15
1643804,11
1644424,27
1645052,50
1645680,63
1646296,38
1646924,13
1647544,11
1648168,19
1648796,16
1649412,12
1650044,17
1650664,15
1651284,20
1651912,16
1652536,10
1653164,14
1653792,22
1654408,17
1655036,22
1655660,22
1656288,13
1656916,26
1657536,12
1658164,27
1658788,34
1659412,14
1660040,35
1660656,61
1661284,37
1661908,35
1662528,20
1663160,13
1663776,12
1664404,11
1665032,12
1665648,41
1666276,65
1666896,69
1667524,37
1668152,36
1668768,64
1669400,69
1670020,27
1670648,16
1671276,32
1671896,33
1672524,20
1673144,48
1673768,89
1674396,60
1675016,13
1675644,19
1676268,26
1676892,18
1677520,13
1678136,11
1678764,11
1679392,11
1680008,10
1680636,11
1681260,18
1681888,19
1682516,14
1683136,35
1683764,45
1684384,33
1685008,19
1685636,12
1686256,24
1686884,39
1687504,47
1688128,28
1688756,11
1689376,12
1690004,19
1690632,33
1691248,27
1691876,14
1692500,14
1693128,16
1693756,18
1694376,17
1695004,12
1695628,13
1696256,13
1696884,24
1697500,30
1698132,22
1698752,26
1699376,26
1700004,11
1700620,24
1701252,14
1701872,48
1702496,60
1703124,16
1703748,18
1704376,21
1705004,16
1705624,16
1706252,36
1706872,14
1707504,44
1708132,48
1708752,20
1709380,15
1710004,15
1710628,27
1711256,31
1711880,26
1712508,37
1713132,50
1713756,13
1714388,23
1715012,28
1715640,34
1716272,26
1716888,23
1717516,18
1718140,14
1718772,37
1719400,35
1720020,29
1720648,27
1721268,14
1721892,11
1722524,10
1723144,12
1723772,16
1724396,24
1725020,21
1725648,21
1726264,13
1726892,24
1727524,30
1728144,11
1728772,42
1729396,35
1730024,12
1730652,20
1731272,12
1731900,12
1732520,15
1733144,12
1733776,12
1734392,15
1735024,17
1735644,20
1736268,23
1736900,14
1737520,24
1738148,17
1738780,26
1739400,38
1740028,49
1740652,40
1741284,29
1741912,18
1742528,21
1743156,12
1743780,11
1744404,15
1745032,13
1745648,19
1746276,21
1746900,11
1747524,12
1748152,12
1748768,11
1749400,11
1750028,12
1750648,16
1751276,18
1751900,28
1752532,44
1753160,45
1753780,57
1754408,42
1755032,22
1755656,24
1756284,47
1756904,39
1757532,26
1758156,18
1758780,26
1759412,20
1760032,12
1760660,24
1761288,15
1761904,11
1762532,30
1763156,46
1763784,44
1764416,46
1765032,19
1765660,20
1766284,29
1766916,48
1767544,51
1768160,43
1768788,17
1769412,27
1770036,45
1770664,53
1771280,35
1771908,28
1772532,35
1773156,25
1773784,17
1774408,15
1775036,12
1775668,15
1776288,14
1776916,11
1777540,14
1778172,11
1778800,11
1779416,10
1780048,15
1780672,13
1781296,12
1781924,14
1782544,16
1783172,25
1783796,34
1784420,32
1785052,15
1785672,28
1786304,26
1786932,11
1787552,12
1788180,10
1788804,17
1789432,18
1790064,12
1790684,16
1791316,15
1791940,13
1792564,11
1793192,25
1793816,28
1794444,14
1795068,12
1795692,11
1796320,15
1796944,16
1797572,15
1798200,16
1798824,13
1799452,11
1800076,13
1800704,18
1801336,21
1801952,20
1802580,15
1803204,19
1803828,15
1804456,15
1805072,12
1805700,27
1806324,38
1806944,29
1807576,19
1808196,20
1808828,17
1809456,24
1810072,32
1810700,23
1811324,16
1811952,13
1812584,24
1813200,14
1813828,34
1814452,38
1815076,14
1815704,59
1816320,56
1816952,45
1817576,67
1818200,53
1818828,36
1819448,27
1820076,21
1820708,10
1821328,12
1821956,13
1822580,13
1823212,12
1823840,13
1824464,19
1825092,15
1825716,14
1826340,11
1826968,17
1827588,19
1828216,16
1828840,19
1829460,25
1830092,18
1830712,13
1831340,12
1831972,10
1832592,12
1833220,17
1833844,25
1834476,22
1835104,26
1835724,23
1836352,13
1836976,12
1837600,13
1838228,14
1838848,27
1839476,26
1840104,12
1840724,13
1841356,16
1841976,41
1842604,44
1843236,11
1843852,27
1844480,18
1845104,15
1845732,38
1846364,26
1846984,13
1847612,11
1848236,12
1848860,15
1849488,12
1850104,15
1850732,24
1851356,21
1851980,11
1852612,12
1853232,13
1853860,15
1854492,48
1855112,37
1855740,27
1856364,53
1856996,53
1857624,30
1858240,12
1858868,12
1859492,11
1860116,12
1860744,12
1861364,11
1861992,11
1862616,12
1863240,11
1863868,11
1864488,22
1865116,33
1865744,36
1866368,37
1866996,44
1867620,25
1868248,13
1868880,38
1869496,44
1870124,48
1870748,36
1871372,22
1872000,29
1872616,20
1873248,13
1873872,20
1874496,19
1875124,24
1875744,15
1876372,29
1877004,41
1877624,41
1878252,22
1878880,67
1879508,63
1880140,34
1880760,13
1881388,37
1882016,48
1882636,37
1883268,40
1883888,29
1884516,13
1885140,29
1885764,32
1886392,16
1887016,11
1887644,12
1888276,16
1888896,13
1889524,23
1890148,28
1890776,46
1891408,38
1892024,14
1892656,21
1893280,12
1893904,11
1894532,12
1895152,11
1895780,12
1896404,24
1897028,25
1897656,26
1898272,29
1898900,41
1899532,14
1900152,47
1900780,69
1901408,41
1902036,31
1902668,20
1903288,29
1903916,60
1904544,63
1905168,34
1905796,11
1906416,40
1907044,69
1907672,51
1908296,38
1908924,27
1909544,33
1910176,47
1910804,51
1911424,11
1912056,29
1912680,42
1913308,29
1913940,30
1914560,15
1915192,17
1915816,15
1916440,19
1917072,18
1917688,11
1918320,24
1918944,30
1919568,22
1920200,14
1920816,16
1921444,53
1922072,48
1922688,14
1923320,18
1923940,21
1924572,11
1925200,15
1925816,10
1926448,11
1927068,11
1927692,11
1928320,11
1928936,12
1929564,15
1930188,12
1930812,13
1931444,16
1932064,11
1932692,18
1933324,22
1933944,14
1934572,15
1935196,39
1935828,33
1936460,21
1937080,16
1937708,11
1938332,10
1938956,12
1939588,14
1940208,15
1940836,27
1941460,29
1942084,30
1942716,22
1943336,11
1943964,26
1944596,29
1945216,24
1945848,12
1946468,12
1947100,14
1947728,21
1948344,38
1948976,40
1949600,37
1950220,13
1950852,46
1951472,78
1952104,52
1952724,11
1953348,28
1953976,43
1954600,41
1955228,22
1955860,22
1956480,69
1957108,85
1957732,46
1958364,38
1958996,37
1959616,14
1960244,31
1960868,33
1961492,20
1962124,16
1962744,11
1963372,11
1964000,13
1964624,15
1965252,14
1965872,13
1966504,13
1967132,22
1967752,21
1968380,11
1969004,10
1969632,10
1970260,11
1970880,15
1971508,17
1972132,15
1972756,15
1973384,15
1974000,12
1974632,13
1975256,15
1975876,11
1976508,12
1977128,12
1977756,15
1978384,10
1979008,11
1979636,11
1980260,15
1980892,25
1981520,11
1982136,15
1982764,33
1983388,32
1984012,15
1984644,10
1985264,11
1985892,13
1986516,15
1987140,11
1987768,30
1988392,27
1989020,12
1989652,10
1990272,13
1990900,13
1991524,15
1992156,15
1992784,38
1993408,69
1994036,66
1994664,40
1995288,12
1995916,59
1996536,90
1997168,75
1997788,20
1998412,22
1999040,24
1999664,15
2000292,24
2000924,24
2001544,27
2002172,19
2002796,13
2003424,26
2004056,28
2004672,21
2005300,13
2005924,19
2006548,17
2007180,14
2007800,13
2008428,13
2009052,13
2009676,15
2010304,14
2010920,22
2011548,25
2012180,22
2012800,11
2013428,11
2014052,11
2014680,20
2015312,22
2015928,25
2016560,36
2017184,23
2017808,16
2018436,14
2019056,11
2019684,11
2020308,33
2020932,45
2021564,30
2022184,17
2022816,12
2023444,18
2024064,42
2024692,46
2025316,25
2025948,12
2026576,34
2027192,50
2027824,38
2028448,12
2029072,12
2029700,14
2030320,16
2030948,13
2031576,15
2032200,15
2032828,29
2033448,35
2034076,32
2034708,26
2035328,13
2035956,21
2036580,29
2037212,27
2037844,20
2038464,21
2039092,21
2039716,20
2040344,17
2040972,12
2041592,13
2042224,13
2042848,15
2043472,18
2044104,26
2044720,24
2045352,32
2045980,47
2046600,49
2047232,25
2047856,15
2048488,46
2049116,66
2049732,25
2050360,14
2050984,13
2051604,48
2052232,56
2052852,26
2053480,26
2054104,37
2054724,23
2055352,16
2055976,13
2056604,23
2057232,35
2057848,29
2058476,19
2059100,11
2059728,11
2060356,24
2060976,20
2061604,20
2062224,27
2062852,17
2063480,16
2064104,33
2064732,47
2065352,39
2065976,13
2066604,42
2067224,33
2067852,13
2068472,16
2069096,21
2069724,36
2070348,34
2070976,22
2071608,15
2072224,24
2072852,34
2073476,26
2074108,23
2074736,12
2075352,23
2075980,22
2076604,25
2077228,20
2077856,13
2078480,21
2079108,27
2079732,19
2080356,19
2080984,32
2081604,34
2082232,19
2082860,13
2083480,13
2084108,17
2084732,24
2085360,13
2085988,30
2086608,37
2087236,14
2087856,14
2088480,11
2089108,11
2089724,11
2090352,14
2090976,28
2091600,25
2092228,16
2092848,11
2093476,11
2094104,14
2094720,11
2095348,11
2095972,21
2096604,29
2097232,33
2097848,29
2098476,22
2099100,17
2099724,30
2100352,23
2100976,12
2101604,17
2102228,27
2102848,27
2103480,30
2104096,22
2104724,38
2105352,78
2105976,68
2106604,51
2107228,13
2107856,12
2108488,15
2109104,11
2109732,11
2110356,15
2110984,19
2111612,12
2112232,20
2112860,22
2113484,19
2114104,12
2114736,34
2115352,49
2115980,40
2116604,16
2117232,24
2117860,45
2118484,38
2119112,27
2119740,25
2120360,15
2120988,44
2121612,38
2122240,26
2122868,16
2123488,13
2124116,37
2124740,17
2125368,11
2125996,14
2126616,15
2127244,15
2127868,12
2128496,12
2129124,16
2129748,12
2130380,19
2131008,31
2131624,48
2132252,50
2132876,20
2133504,20
2134136,42
2134752,29
2135380,14
2136004,17
2136628,16
2137256,14
2137876,26
2138504,33
2139128,21
2139752,21
2140380,21
2141004,12
2141632,19
2142260,26
2142880,33
2143508,11
2144132,18
2144760,39
2145392,29
2146008,11
2146636,31
2147260,15
2147884,13
2148512,27
2149128,23
2149760,33
2150384,25
2151008,13
2151636,30
2152260,33
2152892,11
2153520,18
2154136,29
2154768,17
2155392,17
2156020,28
2156648,12
2157272,12
2157900,12
2158524,15
2159148,19
2159780,36
2160400,37
2161028,24
2161652,19
2162276,51
2162904,28
2163528,13
2164156,11
2164784,13
2165408,37
2166036,35
2166660,21
2167292,24
2167920,23
2168540,23
2169168,18
2169792,11
2170416,11
2171044,16
2171664,26
2172292,28
2172916,28
2173540,22
2174172,12
2174796,21
2175424,17
2176056,12
2176668,16
2177300,15
2177920,11
2178548,10
2179176,14
2179800,21
2180428,15
2181052,12
2181676,15
2182304,16
2182928,20
2183556,19
2184180,19
2184804,35
2185432,29
2186056,12
2186684,17
2187316,14
2187936,11
2188564,20
2189188,18
2189820,12
2190448,31
2191068,30
2191696,25
2192320,21
2192944,11
2193572,44
2194192,63
2194820,44
2195444,15
2196068,11
2196700,13
2197324,17
2197952,18
2198580,17
2199200,12
2199828,13
2200452,14
2201084,12
2201716,10
2202336,11
2202964,9
2203536,13
2204164,11
2204796,10
2205416,20
2206044,19
2206672,19
2207296,24
2207924,38
2208544,18
2209172,23
2209804,32
2210424,14
2211052,14
2211676,19
2212308,20
2212936,11
2213560,31
2214188,41
2214812,27
2215436,15
2216068,11
2216688,12
2217316,16
2217940,11
2218564,15
2219192,12
2219816,19
2220444,18
2221076,11
2221696,21
2222324,32
2222948,24
2223580,13
2224208,20
2224832,17
2225460,12
2226084,16
2226708,11
2227340,12
2227960,15
2228588,13
2229212,11
2229836,11
2230468,10
2231088,12
2231716,12
2232348,11
2232968,15
2233596,12
2234224,17
2234852,14
2235484,16
2236104,28
2236736,21
2237360,19
2237984,26
2238616,15
2239232,26
2239864,42
2240488,40
2241108,13
2241740,23
2242360,52
2242988,98
2243620,70
2244240,37
2244868,19
2245492,11
2246120,15
2246752,17
2247368,20
2248000,17
2248624,12
2249248,11
2249876,26
2250496,28
2251124,18
2251752,14
2252376,12
2253008,24
2253624,39
2254252,37
2254880,23
2255496,16
2256128,12
2256748,14
2257380,11
2258008,11
2258624,12
2259252,12
2259876,10
2260500,11
2261128,12
2261744,13
2262376,16
2263000,16
2263624,11
2264252,12
2264872,15
2265500,17
2266132,15
2266752,13
2267380,11
2268004,14
2268636,23
2269264,35
2269884,28
2270512,13
2271136,10
2271760,24
2272392,23
2273008,15
2273636,12
2274260,12
2274884,30
2275516,34
2276136,26
2276764,11
2277396,16
2278016,27
2278644,32
2279268,30
2279900,13
2280528,16
2281152,32
2281780,54
2282404,32
2283028,13
2283660,12
2284280,18
2284908,15
2285532,25
2286156,28
2286788,22
2287408,17
2288036,11
2288668,12
2289288,15
2289916,35
2290540,33
2291172,19
2291804,20
2292424,21
2293052,18
2293680,13
2294304,12
2294932,11
2295552,13
2296180,23
2296804,13
2297428,19
2298060,34
2298680,29
2299308,19
2299940,28
2300560,49
2301188,13
2301816,17
2302444,21
2303076,23
2303696,14
2304328,11
2304948,23
2305572,19
2306200,19
2306824,20
2307452,14
2308076,12
2308700,11
2309328,10
2309944,11
2310576,11
2311204,10
2311824,18
2312452,21
2313076,11
2313708,14
2314336,16
2314952,15
2315584,13
2316208,12
2316832,17
2317460,10
2318080,11
2318708,15
2319332,15
2319956,31
2320588,52
2321208,52
2321836,29
2322468,12
2323088,31
2323716,47
2324340,53
2324972,61
2325600,45
2326216,27
2326848,12
2327472,22
2328096,27
2328724,18
2329344,16
2329972,15
2330596,13
2331220,20
2331852,12
2332472,13
2333100,12
2333732,14
2334352,13
2334984,13
2335608,18
2336236,12
2336864,12
2337488,16
2338116,11
2338740,14
2339364,20
2339992,28
2340616,16
2341244,15
2341868,17
2342492,17
2343124,33
2343748,54
2344376,49
2345004,11
2345624,21
2346252,16
2346876,11
2347508,18
2348136,18
2348760,12
2349392,15
2350016,13
2350640,12
2351268,14
2351888,19
2352520,19
2353144,15
2353768,14
2354396,18
2355024,20
2355656,16
2356284,11
2356904,14
2357532,12
2358156,12
2358788,12
2359420,17
2360040,21
2360668,14
2361292,12
2361916,11
2362548,10
2363168,24
2363796,23
2364428,12
2365048,16
2365676,12
2366300,51
2366932,64
2367564,26
2368184,11
2368812,10
2369436,13
2370060,17
2370688,18
2371312,16
2371940,12
2372564,13
2373188,14
2373820,12
2374440,25
2375068,41
2375700,40
2376320,23
2376948,17
2377572,21
2378204,16
2378832,16
2379456,28
2380084,27
2380712,29
2381336,24
2381964,19
2382584,38
2383212,36
2383836,21
2384464,11
2385092,22
2385712,41
2386340,31
2386972,17
2387592,12
2388220,11
2388844,11
2389476,19
2390104,26
2390728,21
2391360,28
2391984,23
2392608,18
2393240,16
2393856,31
2394488,52
2395112,81
2395736,39
2396368,11
2396984,15
2397612,12
2398244,15
2398864,21
2399496,15
2400120,14
2400748,23
2401380,31
2402000,40
2402628,34
2403252,25
2403876,12
2404504,34
2405128,56
2405756,46
2406384,16
2407008,14
2407636,16
2408260,14
2408892,13
2409520,22
2410136,12
2410768,21
2411392,12
2412020,24
2412652,34
2413272,25
2413900,11
2414528,17
2415152,16
2415780,13
2416400,12
2417028,21
2417652,31
2418276,31
2418908,16
2419532,14
2420160,19
2420792,21
2421408,13
2422036,19
2422664,12
2423292,23
2423924,22
2424544,22
2425172,27
2425800,25
2426424,12
2427052,12
2427672,13
2428300,15
2428928,18
2429552,28
2430184,19
2430808,11
2431440,17
2432068,16
2432688,16
2433316,14
2433940,18
2434564,32
2435196,46
2435816,35
2436448,18
2437072,19
2437696,19
2438324,28
2438944,42
2439572,39
2440204,50
2440824,35
2441452,21
2442076,21
2442708,12
2443340,12
2443960,16
2444592,11
2445216,16
2445840,12
2446468,11
2447088,11
2447720,23
2448344,21
2448968,16
2449596,14
2450216,13
2450848,11
2451476,10
2452096,15
2452724,19
2453352,17
2453980,11
2454612,10
2455232,11
2455864,11
2456488,12
2457112,12
2457744,13
2458360,13
2458988,12
2459612,14
2460236,12
2460864,29
2461480,16
2462108,11
2462736,10
2463360,13
2463988,12
2464612,16
2465240,18
2465872,11
2466488,12
2467116,13
2467740,15
2468364,33
2468996,33
2469616,15
2470244,21
2470868,15
2471492,11
2472120,10
2472744,25
2473372,26
2474004,21
2474624,14
2475252,11
2475876,12
2476508,17
2477136,32
2477760,37
2478388,19
2479012,12
2479640,17
2480268,30
2480888,32
2481516,13
2482140,12
2482764,13
2483392,13
2484016,11
2484644,11
2485272,14
2485892,18
2486520,11
2487144,11
2487772,15
2488404,16
2489024,12
2489652,14
2490276,24
2490900,24
2491528,16
2492148,10
2492776,15
2493400,23
2494024,27
2494652,26
2495272,25
2495904,17
2496532,28
2497152,49
2497780,45
2498404,35
2499036,23
2499664,14
2500284,14
2500912,13
2501536,13
2502160,37
2502788,33
2503408,16
2504036,11
2504660,29
2505284,34
2505916,25
2506536,13
2507164,21
2507796,14
2508416,19
2509048,43
2509668,30
2510300,40
2510928,39
2511552,16
2512180,61
2512804,65
2513428,40
2514060,33
2514680,28
2515308,17
2515932,11
2516556,15
2517188,20
2517808,15
2518440,17
2519068,27
2519688,35
2520316,26
2520944,15
2521572,12
2522204,12
2522824,11
2523452,18
2524080,25
2524704,21
2525332,16
2525952,16
2526584,15
2527208,12
2527832,11
2528464,11
2529080,11
2529712,13
2530340,11
2530960,16
2531592,13
2532216,17
2532844,28
2533476,48
2534096,51
2534728,23
2535352,21
2535976,52
2536608,59
2537224,65
2537856,37
2538480,15
2539104,11
2539736,21
2540360,24
2540988,25
2541620,12
2542240,16
2542868,13
2543492,17
2544124,20
2544756,16
2545376,23
2546004,15
2546628,16
2547256,50
2547884,79
2548504,72
2549136,38
2549764,27
2550384,32
2551016,35
2551640,35
2552272,22
2552904,13
2553520,10
2554152,13
2554780,11
2555404,17
2556036,22
2556656,26
2557288,41
2557912,25
2558536,11
2559168,10
2559792,23
2560428,25
2561056,18
2561672,13
2562300,11
2562920,11
2563548,16
2564180,18
2564796,15
2565428,19
2566052,33
2566672,28
2567300,16
2567920,11
2568548,10
2569172,16
2569792,15
2570424,11
2571040,12
2571668,16
2572296,21
2572912,29
2573544,28
2574164,15
2574796,24
2575424,37
2576040,38
2576668,22
2577292,11
2577920,10
2578552,21
2579168,14
2579796,14
2580420,16
2581044,16
2581676,39
2582296,50
2582924,41
2583548,25
2584176,14
2584804,19
2585428,82
2586060,79
2586688,59
2587304,36
2587932,11
2588556,14
2589188,20
2589816,28
2590432,24
2591064,19
2591688,16
2592312,11
2592940,17
2593560,23
2594188,13
2594812,10
2595440,11
2596068,14
2596692,11
2597320,12
2597952,13
2598572,12
2599200,13
2599824,13
2600452,13
2601084,10
2601704,11
2602332,19
2602956,24
2603580,15
2604208,20
2604824,15
2605452,13
2606076,12
2606704,19
2607332,12
2607956,13
2608588,16
2609220,23
2609840,28
2610468,13
2611092,11
2611720,11
2612348,11
2612968,21
2613596,53
2614220,57
2614844,37
2615476,15
2616096,14
2616724,24
2617356,36
2617976,18
2618604,10
2619228,35
2619860,35
2620488,10
2621112,13
2621744,12
2622364,16
2622988,24
2623616,18
2624240,25
2624868,14
2625488,21
2626108,26
2626740,23
2627356,19
2627988,11
2628616,34
2629232,51
2629860,34
2630484,31
2631112,19
2631740,16
2632360,12
2632988,19
2633608,19
2634236,11
2634868,10
2635488,12
2636116,11
2636740,16
2637364,17
2637992,11
2638616,16
2639244,20
2639868,12
2640496,12
2641124,11
2641748,11
2642376,13
2643004,18
2643624,16
2644252,14
2644872,11
2645500,11
2646132,14
2646752,17
2647380,16
2648004,20
2648624,14
2649256,13
2649872,16
2650500,10
2651124,16
2651748,11
2652376,15
2653000,11
2653628,40
2654256,47
2654880,42
2655508,21
2656132,13
2656760,12
2657392,12
2658008,33
2658636,30
2659260,12
2659884,18
2660512,10
2661128,12
2661760,12
2662384,14
2663008,23
2663636,24
2664260,21
2664888,18
2665516,22
2666136,19
2666764,12
2667388,28
2668016,56
2668644,46
2669264,14
2669892,13
2670516,12
2671136,20
2671768,51
2672384,31
2673016,12
2673636,12
2674260,21
2674888,34
2675504,28
2676136,20
2676764,12
2677384,22
2678012,22
2678636,26
2679264,30
2679896,16
2680512,12
2681140,13
2681764,15
2682388,14
2683016,20
2683636,12
2684264,21
2684888,12
2685508,10
2686140,16
2686760,18
2687388,65
2688020,67
2688636,38
2689264,12
2689888,31
2690516,47
2691144,48
2691768,27
2692396,16
2693020,52
2693644,60
2694272,26
2694892,12
2695520,12
2696144,11
2696764,11
2697396,18
2698016,25
2698644,15
2699272,12
2699896,15
2700524,24
2701148,17
2701780,15
2702408,40
2703024,48
2703656,26
2704280,12
2704900,17
2705532,32
2706152,36
2706780,28
2707404,19
2708028,13
2708656,10
2709272,14
2709904,20
2710532,23
2711152,19
2711780,17
2712404,11
2713036,24
2713664,15
2714284,16
2714916,25
2715540,14
2716164,34
2716796,32
2717416,18
2718044,13
2718668,11
2719292,13
2719924,12
2720544,17
2721172,17
2721800,10
2722424,17
2723052,30
2723676,28
2724304,31
2724936,23
2725552,23
2726180,13
2726804,12
2727428,14
2728060,12
2728680,11
2729308,11
2729932,12
2730552,11
2731184,13
2731800,21
2732432,25
2733060,18
2733680,11
2734308,14
2734932,19
2735564,26
2736192,31
2736808,14
2737440,11
2738060,12
2738692,16
2739320,35
2739944,37
2740572,20
2741196,27
2741820,13
2742448,57
2743064,68
2743696,19
2744324,21
2744944,26
2745572,20
2746196,25
2746824,24
2747456,14
2748072,11
2748704,14
2749328,19
2749956,33
2750588,32
2751208,22
2751836,12
2752464,14
2753084,32
2753716,27
2754336,13
2754964,11
2755596,10
2756216,12
2756844,17
2757468,23
2758096,15
2758728,10
2759344,11
2759976,17
2760600,19
2761224,14
2761852,11
2762472,17
2763100,23
2763728,22
2764352,13
2764980,13
2765600,16
2766228,16
2766856,17
2767476,22
2768104,15
2768728,19
2769356,15
2769984,15
2770608,15
2771236,10
2771860,12
2772484,12
2773116,12
2773736,15
2774368,12
2774992,16
2775616,17
2776244,21
2776864,19
2777492,15
2778124,17
2778744,21
2779372,12
2779996,25
2780628,22
2781260,17
2781880,14
2782508,24
2783136,27
2783760,17
2784392,28
2785008,29
2785636,32
2786260,17
2786884,13
2787512,16
2788132,17
2788760,12
2789388,19
2790008,35
2790636,16
2791260,13
2791892,19
2792520,11
2793136,25
2793768,13
2794392,13
2795016,53
2795648,83
2796264,19
2796892,38
2797516,45
2798140,29
2798772,16
2799392,17
2800020,41
2800652,30
2801272,25
2801900,21
2802524,12
2803156,10
2803784,10
2804408,14
2805036,11
2805660,12
2806284,19
2806916,14
2807536,12
2808164,12
2808788,11
2809412,11
2810044,12
2810664,12
2811292,17
2811924,10
2812544,14
2813172,19
2813800,21
2814428,27
2815060,42
2815680,32
2816312,18
2816932,11
2817556,20
2818184,74
2818808,56
2819436,11
2820060,21
2820684,12
2821312,18
2821928,11
2822560,28
2823188,18
2823808,13
2824436,23
2825060,12
2825688,23
2826320,34
2826936,41
2827564,29
2828188,26
2828812,55
2829440,33
2830056,12
2830684,32
2831308,20
2831932,14
2832564,16
2833184,18
2833812,36
2834444,32
2835064,14
2835692,25
2836316,21
2836948,61
2837580,56
2838200,25
2838828,23
2839452,30
2840076,45
2840708,28
2841328,14
2841956,23
2842580,24
2843204,16
2843832,12
2844456,13
2845084,20
2845716,22
2846336,13
2846968,12
2847588,16
2848220,13
2848848,14
2849472,20
2850100,14
2850724,10
2851348,13
2851976,13
2852600,13
2853228,10
2853852,28
2854476,41
2855108,22
2855728,18
2856356,31
2856988,46
2857608,50
2858236,33
2858860,12
2859492,23
2860124,36
2860744,38
2861376,33
2862000,21
2862624,13
2863256,14
2863872,19
2864504,13
2865128,19
2865752,30
2866384,16
2867000,30
2867632,33
2868264,17
2868880,11
2869508,17
2870132,14
2870760,12
2871388,12
2872008,13
2872636,11
2873260,18
2873884,28
2874512,25
2875132,13
2875760,16
2876384,12
2877008,14
2877636,10
2878256,16
2878884,29
2879516,38
2880136,26
2880764,12
2881384,19
2882016,34
2882644,50
2883264,37
2883892,17
2884512,27
2885136,21
2885764,12
2886384,13
2887012,19
2887636,13
2888260,11
2888888,11
2889504,12
2890136,15
2890764,13
2891384,13
2892012,14
2892636,15
2893268,12
2893896,38
2894512,61
2895144,53
2895768,16
2896388,11
2897020,10
2897640,13
2898268,21
2898892,28
2899516,20
2900144,11
2900760,15
2901392,13
2902024,31
2902640,41
2903268,34
2903892,30
2904524,13
2905152,41
2905772,37
2906400,15
2907024,23
2907652,24
2908284,16
2908904,14
2909532,16
2910156,11
2910780,11
2911412,23
2912032,21
2912660,13
2913292,10
2913912,11
2914540,12
2915164,13
2915796,22
2916428,20
2917048,23
2917676,16
2918304,15
2918928,26
2919556,19
2920176,11
2920804,15
2921428,23
2922052,25
2922680,15
2923304,13
2923932,21
2924564,30
2925184,32
2925812,27
2926436,19
2927068,16
2927700,10
2928320,11
2928948,11
2929572,19
2930196,19
2930828,16
2931448,15
2932076,13
2932700,13
2933324,14
2933956,40
2934576,59
2935204,59
2935836,41
2936456,12
2937084,49
2937708,83
2938340,59
2938972,42
2939592,21
2940224,12
2940848,11
2941472,14
2942100,19
2942720,17
2943348,16
2943976,21
2944600,28
2945232,31
2945848,34
2946480,22
2947108,18
2947728,17
2948356,55
2948984,55
2949612,38
2950240,38
2950864,15
2951492,28
2952116,22
2952740,12
2953368,15
2953992,27
2954620,22
2955244,17
2955868,11
2956500,11
2957124,14
2957752,16
2958380,11
2959000,11
2959628,11
2960252,11
2960884,10
2961512,11
2962128,14
2962760,12
2963384,11
2964008,14
2964636,12
2965256,33
2965884,25
2966508,19
2967132,11
2967764,14
2968388,31
2969016,52
2969648,33
2970264,12
2970892,11
2971516,10
2972144,11
2972776,12
2973392,13
2974020,16
2974644,19
2975268,15
2975900,12
2976520,11
2977148,11
2977772,13
2978396,11
2979024,17
2979652,17
2980280,14
2980908,12
2981528,20
2982156,25
2982784,33
2983412,19
2984044,30
2984664,47
2985292,31
2985916,11
2986540,15
2987172,16
2987792,19
2988420,13
2989048,21
2989672,24
2990300,13
2990924,13
2991556,11
2992184,10
2992808,10
2993436,11
2994060,16
2994692,31
2995324,36
2995944,41
2996572,46
2997196,34
2997820,14
2998452,34
2999072,50
2999704,37
3000332,23
3000952,13
3001580,11
3002208,45
3002836,51
3003468,14
3004088,16
3004716,10
3005344,12
3005968,19
3006600,22
3007216,19
3007848,15
3008472,14
3009096,11
3009724,14
3010344,21
3010976,14
3011604,21
3012224,26
3012852,30
3013480,15
3014108,19
3014740,29
3015360,23
3015988,21
3016616,12
3017240,25
3017868,24
3018488,37
3019116,32
3019744,29
3020368,23
3021000,11
3021616,13
3022244,11
3022876,12
3023496,12
3024128,11
3024752,12
3025380,11
3026012,10
3026632,12
3027264,12
3027888,11
3028512,24
3029140,45
3029760,48
3030392,32
3031016,13
3031640,14
3032272,16
3032892,16
3033520,11
3034152,14
3034772,11
3035400,15
3036028,10
3036656,20
3037288,33
3037908,45
3038540,31
3039164,12
3039788,16
3040420,12
3041040,17
3041668,12
3042292,19
3042916,20
3043548,18
3044172,19
3044800,12
3045432,33
3046052,51
3046680,37
3047304,26
3047936,16
3048568,12
3049184,12
3049816,11
3050440,11
3051064,11
3051692,14
3052312,13
3052944,11
3053572,10
3054192,11
3054824,29
3055448,32
3056076,17
3056708,17
3057328,49
3057956,37
3058584,21
3059208,16
3059836,24
3060456,24
3061088,17
3061712,19
3062336,13
3062968,11
3063584,22
3064216,24
3064848,36
3065464,49
3066096,40
3066720,26
3067352,12
3067984,10
3068600,12
3069232,17
3069860,19
3070484,21
3071116,13
3071740,10
3072372,17
3072992,12
3073616,13
3074244,12
3074864,11
3075492,10
3076120,10
3076744,11
3077372,11
3077996,11
3078628,15
3079256,23
3079872,29
3080504,37
3081128,17
3081752,24
3082380,24
3083000,16
3083628,19
3084252,13
3084876,10
3085504,11
3086128,11
3086756,10
3087388,12
3088008,11
3088636,16
3089260,13
3089892,24
3090520,25
3091140,31
3091772,28
3092396,11
3093020,17
3093648,38
3094272,44
3094900,39
3095528,20
3096152,23
3096780,46
3097400,48
3098032,21
3098660,12
3099280,13
3099908,13
3100532,14
3101164,17
3101796,10
3102416,17
3103044,22
3103672,19
3104296,17
3104924,19
3105544,15
3106176,28
3106800,43
3107424,31
3108052,28
3108676,18
3109308,17
3109940,34
3110560,39
3111188,47
3111816,49
3112448,21
3113076,12
3113696,13
3114324,15
3114948,12
3115572,32
3116204,26
3116824,29
3117452,11
3118076,15
3118704,12
3119336,20
3119960,18
3120592,15
3121220,11
3121840,17
3122468,27
3123096,13
3123720,31
3124348,58
3124968,63
3125596,21
3126220,19
3126844,31
3127476,31
3128096,37
3128724,32
3129356,30
3129976,26
3130604,29
3131228,22
3131860,23
3132492,27
3133112,25
3133744,23
3134368,19
3134992,12
3135624,14
3136240,12
3136872,12
3137496,11
3138120,14
3138748,12
3139368,13
3139996,18
3140628,23
3141248,39
3141876,25
3142504,11
3143132,11
3143764,10
3144384,15
3145012,11
3145636,13
3146264,12
3146892,12
3147512,13
3148144,13
3148768,13
3149392,23
3150024,13
3150644,12
3151272,10
3151904,13
3152524,11
3153156,18
3153780,24
3154412,10
3155040,10
3155664,20
3156292,16
3156920,19
3157544,19
3158176,18
3158792,15
3159424,15
3160048,19
3160672,15
3161304,24
3161928,25
3162556,33
3163188,30
3163808,24
3164440,12
3165064,32
3165696,51
3166324,44
3166944,24
3167576,15
3168200,11
3168824,17
3169452,51
3170072,65
3170704,57
3171332,37
3171952,17
3172584,35
3173208,83
3173840,54
3174472,35
3175088,44
3175716,58
3176344,49
3176968,26
3177596,26
3178216,25
3178848,18
3179472,14
3180096,13
3180728,18
3181344,15
3181976,13
3182608,15
3183224,13
3183856,15
3184484,16
3185112,12
3185744,13
3186364,10
3186996,29
3187620,49
3188244,53
3188876,39
3189496,26
3190128,14
3190752,40
3191376,49
3192008,52
3192628,42
3193256,21
3193888,10
3194512,24
3195144,37
3195772,36
3196400,19
3197032,11
3197652,19
3198284,25
3198908,30
3199536,29
3200168,11
3200780,47
3201412,35
3202032,38
3202656,43
3203284,13
3203908,11
3204536,11
3205164,10
3205784,33
3206412,35
3207032,21
3207664,27
3208292,11
3208912,23
3209540,11
3210164,17
3210788,20
3211416,36
3212040,42
3212668,24
3213292,15
3213916,12
3214548,30
3215172,52
3215800,41
3216428,26
3217048,14
3217676,10
3218300,13
3218928,17
3219560,13
3220176,10
3220808,11
3221428,11
3222056,11
3222684,11
3223304,22
3223932,31
3224560,29
3225180,19
3225812,12
3226436,23
3227064,36
3227692,22
3228312,12
3228940,11
3229564,19
3230196,17
3230824,12
3231448,13
3232076,12
3232700,25
3233324,47
3233956,21
3234576,11
3235204,12
3235828,15
3236452,11
3237084,10
3237708,13
3238336,19
3238968,12
3239588,17
3240216,19
3240840,13
3241468,15
3242100,15
3242720,15
3243348,33
3243972,20
3244600,15
3245228,14
3245848,16
3246476,11
3247100,11
3247728,13
3248356,34
3248984,23
3249612,12
3250240,32
3250860,24
3251488,19
3252112,26
3252744,39
3253372,27
3253992,11
3254624,11
3255248,21
3255872,29
3256504,31
3257120,27
3257748,17
3258380,12
3259000,16
3259628,32
3260256,46
3260884,49
3261516,40
3262136,16
3262768,31
3263392,66
3264016,42
3264644,18
3265264,15
3265892,24
3266520,18
3267144,15
3267772,32
3268392,36
3269024,53
3269652,34
3270272,12
3270904,12
3271528,26
3272160,38
3272788,30
3273408,33
3274040,16
3274664,15
3275288,14
3275920,38
3276540,23
3277168,14
3277792,18
3278412,12
3279040,13
3279660,11
3280292,12
3280920,16
3281536,13
3282164,15
3282784,19
3283412,16
3284040,18
3284656,15
3285284,12
3285904,30
3286532,26
3287164,13
3287780,17
3288412,12
3289032,12
3289656,12
3290284,32
3290904,41
3291532,15
3292152,65
3292776,75
3293404,52
3294028,36
3294656,25
3295288,14
3295904,23
3296532,13
3297156,15
3297784,22
3298416,13
3299032,15
3299660,27
3300284,26
3300904,22
3301532,14
3302152,25
3302780,21
3303404,12
3304028,19
3304656,38
3305272,49
3305900,29
3306532,14
3307152,13
3307780,14
3308404,21
3309032,31
3309664,27
3310280,17
3310908,12
3311532,35
3312156,42
3312788,19
3313408,14
3314036,14
3314660,19
3315284,16
3315912,16
3316532,13
3317160,17
3317788,12
3318408,11
3319036,14
3319660,18
3320288,11
3320920,16
3321536,26
3322164,27
3322788,25
3323412,35
3324044,17
3324664,39
3325292,34
3325916,27
3326540,29
3327172,10
3327792,29
3328424,37
3329052,20
3329668,13
3330300,17
3330920,27
3331552,28
3332180,16
3332800,15
3333428,37
3334052,31
3334672,11
3335304,13
3335920,47
3336548,35
3337172,11
3337796,15
3338424,33
3339040,46
3339668,56
3340300,51
3340920,17
3341548,63
3342172,81
3342800,64
3343428,40
3344048,31
3344676,20
3345296,17
3345924,13
3346556,12
3347176,17
3347804,25
3348428,28
3349052,25
3349684,16
3350304,14
3350932,15
3351564,10
3352184,13
3352812,19
3353436,19
3354068,14
3354696,12
3355320,25
3355948,32
3356576,14
3357196,21
3357828,12
3358448,11
3359076,12
3359700,16
3360324,31
3360952,34
3361576,12
3362204,29
3362832,33
3363448,34
3364080,30
3364700,18
3365328,27
3365960,46
3366576,36
3367204,27
3367828,26
3368452,16
3369084,12
3369704,10
3370332,10
3370956,11
3371576,11
3372208,21
3372824,18
3373452,16
3374076,18
3374704,13
3375332,33
3375960,20
3376588,11
3377220,18
3377840,25
3378468,34
3379092,37
3379720,13
3380348,16
3380968,14
3381596,31
3382220,42
3382844,22
3383472,17
3384088,20
3384716,10
3385340,22
3385968,35
3386596,27
3387220,22
3387848,11
3388476,18
3389096,43
3389724,29
3390348,12
3390980,20
3391608,40
3392228,38
3392856,17
3393476,37
3394100,38
3394732,31
3395352,19
3395980,43
3396604,44
3397232,25
3397860,11
3398484,14
3399112,14
3399744,13
3400360,12
3400988,37
3401612,24
3402240,12
3402868,26
3403488,35
3404116,26
3404740,27
3405364,13
3405996,66
3406616,67
3407244,40
3407868,31
3408496,20
3409124,15
3409748,12
3410376,12
3411008,10
3411624,16
3412256,20
3412880,17
3413508,12
3414136,23
3414760,16
3415388,24
3416012,38
3416636,15
3417268,82
3417888,44
3418516,11
3419148,22
3419768,23
3420396,11
3421020,35
3421652,34
3422280,23
3422904,20
3423532,18
3424156,15
3424780,13
3425412,10
3426032,21
3426660,27
3427284,29
3427908,29
3428540,13
3429160,41
3429788,34
3430420,33
3431040,27
3431668,16
3432292,11
3432924,13
3433552,15
3434172,15
3434804,14
3435428,11
3436052,13
3436680,10
3437304,12
3437932,16
3438560,14
3439184,12
3439812,12
3440432,34
3441064,17
3441692,10
3442312,16
3442940,17
3443564,27
3444192,14
3444824,11
3445440,14
3446068,16
3446692,11
3447316,14
3447948,24
3448568,17
3449196,15
3449820,19
3450444,17
3451076,15
3451696,23
3452324,47
3452956,46
3453576,23
3454204,16
3454832,12
3455460,23
3456092,16
3456708,17
3457340,11
3457964,57
3458584,79
3459216,67
3459832,35
3460460,13
3461084,81
3461708,132
3462392,108
3463060,56
3463684,31
3464312,14
3464932,33
3465560,35
3466184,28
3466808,31
3467436,29
3468056,13
3468684,18
3469308,10
3469936,22
3470564,33
3471188,30
3471820,11
3472452,11
3473072,17
3473700,20
3474324,22
3474952,28
3475580,13
3476200,11
3476828,11
3477452,19
3478076,17
3478708,10
3479328,17
3479960,33
3480588,34
3481208,26
3481840,13
3482460,17
3483088,20
3483720,12
3484336,13
3484964,19
3485588,21
3486212,11
3486844,13
3487464,11
3488092,19
3488716,41
3489340,24
3489968,16
3490584,12
3491212,54
3491836,72
3492464,15
3493092,13
3493716,12
3494348,11
3494980,10
3495600,11
3496228,13
3496852,11
3497480,13
3498108,12
3498728,12
3499356,18
3499984,49
3500608,40
3501240,32
3501856,16
3502488,57
3503116,58
3503736,20
3504368,20
3504992,33
3505620,32
3506252,26
3506872,13
3507504,19
3508128,13
3508752,23
3509380,26
3510000,22
3510628,11
3511256,13
3511880,13
3512508,15
3513128,12
3513760,14
3514388,20
3515008,29
3515640,36
3516264,25
3516892,14
3517524,13
3518144,11
3518776,25
3519400,41
3520024,32
3520652,29
3521272,12
3521900,39
3522528,51
3523152,30
3523780,17
3524400,20
3525028,33
3525660,18
3526280,13
3526908,19
3527532,25
3528164,31
3528792,20
3529412,14
3530040,12
3530664,14
3531288,22
3531916,20
3532536,13
3533168,23
3533788,26
3534412,24
3535040,20
3535664,13
3536292,11
3536924,10
3537544,11
3538172,12
3538796,21
3539428,21
3540056,20
3540680,13
3541308,13
3541932,12
3542556,12
3543188,10
3543808,21
3544436,25
3545060,29
3545684,27
3546316,23
3546936,20
3547564,15
3548196,12
3548816,25
3549444,39
3550068,46
3550700,33
3551332,14
3551952,36
3552584,17
3553208,19
3553832,22
3554460,12
3555080,11
3555712,22
3556336,25
3556960,13
3557588,12
3558216,12
3558848,12
3559476,17
3560096,36
3560724,25
3561348,17
3561980,25
3562612,14
3563232,12
3563864,13
3564484,15
3565108,14
3565740,36
3566360,23
3566988,11
3567616,13
3568240,25
3568868,38
3569492,24
3570124,11
3570756,23
3571376,33
3572004,29
3572628,14
3573256,18
3573888,13
3574504,15
3575132,19
3575760,13
3576384,17
3577016,33
3577632,22
3578264,12
3578896,23
3579512,24
3580144,21
3580768,27
3581400,25
3582032,18
3582652,20
3583280,49
3583908,45
3584532,40
3585164,13
3585784,17
3586412,12
3587036,13
3587660,11
3588288,23
3588912,17
3589540,17
3590172,25
3590792,29
3591420,24
3592044,12
3592676,16
3593304,14
3593928,13
3594556,17
3595180,21
3595808,18
3596436,12
3597056,19
3597684,34
3598308,35
3598936,34
3599564,36
3600184,20
3600812,37
3601440,31
3602064,12
3602692,33
3603316,38
3603948,57
3604576,67
3605200,38
3605828,22
3606452,36
3607072,34
3607704,19
3608320,14
3608948,11
3609572,11
3610196,12
3610828,14
3611448,11
3612076,13
3612708,11
3613328,19
3613956,15
3614580,13
3615212,18
3615840,18
3616460,11
3617088,17
3617712,11
3618332,15
3618964,25
3619584,19
3620212,10
3620836,12
3621460,17
3622088,18
3622712,14
3623340,15
3623972,34
3624592,23
3625220,11
3625844,11
3626476,15
3627104,28
3627724,38
3628352,26
3628976,12
3629600,32
3630228,30
3630848,15
3631476,15
3632100,20
3632724,13
3633356,22
3633976,14
3634604,13
3635236,11
3635856,19
3636484,25
3637108,24
3637736,12
3638368,11
3638988,14
3639616,15
3640240,11
3640864,12
3641492,11
3642112,13
3642740,19
3643368,11
3643988,11
3644620,11
3645240,12
3645868,13
3646500,16
3647120,33
3647752,17
3648376,17
3649004,24
3649632,11
3650248,15
3650880,19
3651504,25
3652128,38
3652756,34
3653376,35
3654004,32
3654628,16
3655252,21
3655884,42
3656504,28
3657132,17
3657764,43
3658384,51
3659012,29
3659640,13
3660268,31
3660900,44
3661520,69
3662148,78
3662772,37
3663396,14
3664028,13
3664648,13
3665276,19
3665900,19
3666528,13
3667156,14
3667780,16
3668412,11
3669044,13
3669664,11
3670296,11
3670920,17
3671552,11
3672180,11
3672800,16
3673428,19
3674056,11
3674680,14
3675312,17
3675928,15
3676560,10
3677188,12
3677808,24
3678440,39
3679064,33
3679692,30
3680324,44
3680944,50
3681572,15
3682200,64
3682824,89
3683452,76
3684072,37
3684700,11
3685328,17
3685952,17
3686584,18
3687200,19
3687828,11
3688456,22
3689072,13
3689700,19
3690324,21
3690952,23
3691580,14
3692200,33
3692828,21
3693452,36
3694080,54
3694708,38
3695328,13
3695956,21
3696584,19
3697208,34
3697836,18
3698456,12
3699084,15
3699708,10
3700336,47
3700964,58
3701588,27
3702220,11
3702848,14
3703472,10
3704100,10
3704728,10
3705352,17
3705980,14
3706600,19
3707228,25
3707852,18
3708476,14
3709108,10
3709728,18
3710356,15
3710988,11
3711608,32
3712240,52
3712860,61
3713492,32
3714120,20
3714740,70
3715368,67
3715992,15
3716616,15
3717244,12
3717864,33
3718492,25
3719116,10
3719740,13
3720372,18
3720992,12
3721620,12
3722252,10
3722872,13
3723500,16
3724128,17
3724756,35
3725388,39
3726008,28
3726636,13
3727264,26
3727888,25
3728516,30
3729136,37
3729764,28
3730388,13
3731016,33
3731644,48
3732264,37
3732892,12
3733524,11
3734144,16
3734776,11
3735400,11
3736028,17
3736660,28
3737280,17
3737912,13
3738536,27
3739160,31
3739788,18
3740408,13
3741036,13
3741660,19
3742288,13
3742916,19
3743536,34
3744168,41
3744796,23
3745416,13
3746044,14
3746672,15
3747300,16
3747932,24
3748552,39
3749184,38
3749808,24
3750432,12
3751060,12
3751680,36
3752308,35
3752936,20
3753560,12
3754192,11
3754808,15
3755440,14
3756072,19
3756688,33
3757320,30
3757948,15
3758576,10
3759208,10
3759828,13
3760460,11
3761084,21
3761708,20
3762336,29
3762960,25
3763592,15
3764216,13
3764840,13
3765468,21
3766092,39
3766724,33
3767356,17
3767976,32
3768608,22
3769232,15
3769860,15
3770492,12
3771112,13
3771744,17
3772368,26
3772992,19
3773624,22
3774240,40
3774868,39
3775500,18
3776120,15
3776752,33
3777376,31
3778004,18
3778636,17
3779256,26
3779884,18
3780508,12
3781132,13
3781764,18
3782384,35
3783016,40
3783640,37
3784264,15
3784892,31
3785512,90
3786144,73
3786776,41
3787392,24
3788024,12
3788648,20
3789280,23
3789908,22
3790528,20
3791156,12
3791784,33
3792408,44
3793036,31
3793656,15
3794284,51
3794912,17
3795536,36
3796164,26
3796784,13
3797416,21
3798048,26
3798664,21
3799296,19
3799920,25
3800552,43
3801180,40
3801800,36
3802428,19
3803052,22
3803680,48
3804308,45
3804928,23
3805556,21
3806184,21
3806808,13
3807436,19
3808056,54
3808684,65
3809316,37
3809936,15
3810564,12
3811188,16
3811820,15
3812452,20
3813072,30
3813704,28
3814328,27
3814952,12
3815584,12
3816204,33
3816832,17
3817456,27
3818084,16
3818712,47
3819340,69
3819972,46
3820600,17
3821224,16
3821856,22
3822480,17
3823108,16
3823740,12
3824360,16
3824992,23
3825616,16
3826240,17
3826872,33
3827492,40
3828120,22
3828752,18
3829372,20
3830004,13
3830628,12
3831260,14
3831892,20
3832512,22
3833144,25
3833768,14
3834396,21
3835024,14
3835648,16
3836280,31
3836904,25
3837528,13
3838160,22
3838780,21
3839412,12
3840044,14
3840660,33
3841292,35
3841912,21
3842544,13
3843172,10
3843792,11
3844420,11
3845044,11
3845668,14
3846300,14
3846920,26
3847548,25
3848172,22
3848796,26
3849428,12
3850052,16
3850684,13
3851312,41
3851928,63
3852560,43
3853184,17
3853812,15
3854444,29
3855064,27
3855692,23
3856316,21
3856940,14
3857572,12
3858192,28
3858820,37
3859444,15
3860068,13
3860700,16
3861324,18
3861952,11
3862584,19
3863204,22
3863832,14
3864456,17
3865084,25
3865716,26
3866336,29
3866964,33
3867588,19
3868212,17
3868844,40
3869464,69
3870092,51
3870720,20
3871344,12
3871976,17
3872600,16
3873228,13
3873860,20
3874480,11
3875108,12
3875736,16
3876360,15
3876988,13
3877608,24
3878236,34
3878864,16
3879488,19
3880120,12
3880736,13
3881368,12
3881996,20
3882616,21
3883248,21
3883872,25
3884500,11
3885132,14
3885752,21
3886384,21
3887008,18
3887632,22
3888264,52
3888880,16
3889512,39
3890136,33
3890760,31
3891392,42
3892008,31
3892636,19
3893268,13
3893888,24
3894516,21
3895140,33
3895772,35
3896404,10
3897024,27
3897652,25
3898276,14
3898900,15
3899532,40
3900152,36
3900784,21
3901408,13
3902032,15
3902664,11
3903280,29
3903912,13
3904544,17
3905160,15
3905788,13
3906412,12
3907044,12
3907676,14
3908296,12
3908928,19
3909552,48
3910176,40
3910808,14
3911424,43
3912056,59
3912680,33
3913304,25
3913932,14
3914552,23
3915184,19
3915816,20
3916432,11
3917064,21
3917688,41
3918316,53
3918948,20
3919568,13
3920200,22
3920824,38
3921448,29
3922076,20
3922696,29
3923324,13
3923948,39
3924576,35
3925204,15
3925828,11
3926460,21
3927092,36
3927712,23
3928344,13
3928968,27
3929596,27
3930228,30
3930848,38
3931480,27
3932104,12
3932728,14
3933360,16
3933976,12
3934604,21
3935232,12
3935856,31
3936488,37
3937108,23
3937740,11
3938368,12
3938992,17
3939620,15
3940248,25
3940872,39
3941500,34
3942120,32
3942752,22
3943372,13
3943996,11
3944628,10
3945248,12
3945876,26
3946508,34
3947128,36
3947760,29
3948380,12
3949012,41
3949644,40
3950264,11
3950892,28
3951520,31
3952144,21
3952772,12
3953392,23
3954020,24
3954644,16
3955268,20
3955900,12
3956520,19
3957148,15
3957780,12
3958400,11
3959028,24
3959652,16
3960284,16
3960916,12
3961536,13
3962168,13
3962792,17
3963416,14
3964044,14
3964664,26
3965296,47
3965920,41
3966544,21
3967176,10
3967796,14
3968428,14
3969056,19
3969672,12
3970304,16
3970928,19
3971556,37
3972188,36
3972808,20
3973436,13
3974064,14
3974688,11
3975316,34
3975936,50
3976568,52
3977188,49
3977816,13
3978444,16
3979064,26
3979696,19
3980324,11
3980944,16
3981572,23
3982200,31
3982828,16
3983460,33
3984080,25
3984708,28
3985332,23
3985956,12
3986588,10
3987208,30
3987836,55
3988464,33
3989088,16
3989716,22
3990344,24
3990976,14
3991608,13
3992224,56
3992856,69
3993484,25
3994112,10
3994744,11
3995364,48
3995992,66
3996616,45
3997240,13
3997872,12
3998488,12
3999120,17
3999748,31
4000368,18
4000996,10
4001620,10
4002248,22
4002876,18
4003496,13
4004124,18
4004748,29
4005380,11
4006008,12
4006624,11
4007256,12
4007880,12
4008504,13
4009132,16
4009752,17
4010380,16
4011004,20
4011632,30
4012260,12
4012884,16
4013516,14
4014148,11
4014768,21
4015396,17
4016020,11
4016644,39
4017276,48
4017896,62
4018524,63
4019148,22
4019776,79
4020404,66
4021024,41
4021652,13
4022284,18
4022904,23
4023532,16
4024156,13
4024788,17
4025420,38
4026040,41
4026668,35
4027292,44
4027916,71
4028548,14
4029168,50
4029796,47
4030420,23
4031048,15
4031676,14
4032296,12
4032928,17
4033556,24
4034176,15
4034804,11
4035428,19
4036060,16
4036688,15
4037308,27
4037936,14
4038560,13
4039184,24
4039812,17
4040432,15
4041060,20
4041684,15
4042308,14
4042940,10
4043560,11
4044188,13
4044820,18
4045440,12
4046068,13
4046692,19
4047324,14
4047952,12
4048572,15
4049200,22
4049824,15
4050448,12
4051080,29
4051700,36
4052328,27
4052952,10
4053576,15
4054208,13
4054824,33
4055456,25
4056084,13
4056704,16
4057332,15
4057960,11
4058588,14
4059220,31
4059840,53
4060468,51
4061092,47
4061720,31
4062348,18
4062968,14
4063596,64
4064224,85
4064848,67
4065476,31
4066096,24
4066724,53
4067356,62
4067976,13
4068608,52
4069232,83
4069860,62
4070492,32
4071112,29
4071744,13
4072368,21
4072992,16
4073620,25
4074240,56
4074868,48
4075496,19
4076120,24
4076752,27
4077368,23
4078000,14
4078632,65
4079248,117
4079932,89
4080552,19
4081180,13
4081808,18
4082432,22
4083064,23
4083688,43
4084312,55
4084944,46
4085560,27
4086192,37
4086824,39
4087440,14
4088072,31
4088696,33
4089328,33
4089956,40
4090576,42
4091208,42
4091832,41
4092456,33
4093088,24
4093708,25
4094336,88
4094964,101
4095640,69
4096272,23
4096892,55
4097520,145
4098200,104
4098864,24
4099492,43
4100120,20
4100736,12
4101364,31
4101988,16
4102616,11
4103244,14
4103860,23
4104492,11
4105112,15
4105736,16
4106364,20
4106980,46
4107612,37
4108232,20
4108856,11
4109484,10
4110100,19
4110732,34
4111352,30
4111980,35
4112608,38
4113232,15
4113860,66
4114488,76
4115112,67
4115740,40
4116364,12
4116996,44
4117624,101
4118292,100
4118968,85
4119596,28
4120216,77
4120844,147
4121520,90
4122136,13
4122764,29
4123384,21
4124012,36
4124636,78
4125260,60
4125888,48
4126504,18
4127132,44
4127764,16
4128384,14
4129012,11
4129636,15
4130264,31
4130892,18
4131512,13
4132140,17
4132764,12
4133388,47
4134016,54
4134640,20
4135268,15
4135892,13
4136516,21
4137144,39
4137768,23
4138396,31
4139024,19
4139648,34
4140276,35
4140900,21
4141528,10
4142160,20
4142776,51
4143404,20
4144028,15
4144652,13
4145280,16
4145896,31
4146528,19
4147152,33
4147776,39
4148404,32
4149024,15
4149652,30
4150280,50
4150904,87
4151532,65
4152156,13
4152788,20
4153416,17
4154036,19
4154664,11
4155288,12
4155912,35
4156540,21
4157160,13
4157788,25
4158412,24
4159036,11
4159668,34
4160288,96
4160916,21
4161544,29
4162160,37
4162792,14
4163412,23
4164044,54
4164672,41
4165288,23
4165916,75
4166540,112
4167220,14
4167844,50
4168464,11
4169092,39
4169716,56
4170340,60
4170968,33
4171592,22
4172220,23
4172852,12
4173472,45
4174100,62
4174724,31
4175352,16
4175980,25
4176600,17
4177228,13
4177852,21
4178476,13
4179104,34
4179728,48
4180356,12
4180980,19
4181604,20
4182232,33
4182856,36
4183484,12
4184116,14
4184736,17
4185364,17
4185988,16
4186616,11
4187248,25
4187864,32
4188492,18
4189116,19
4189740,14
4190372,14
4190992,12
4191620,37
4192248,31
4192868,11
4193496,18
4194120,24
4194752,27
4195380,24
4196000,17
4196628,13
4197252,18
4197884,22
4198512,30
4199136,28
4199764,19
4200388,10
4201008,13
4201636,28
4202256,13
4202884,15
4203504,17
4204132,31
4204760,41
4205384,25
4206012,18
4206644,12
4207264,15
4207892,38
4208516,34
4209148,15
4209776,15
4210392,19
4211024,59
4211648,65
4212272,56
4212900,35
4213520,25
4214148,13
4214772,25
4215396,26
4216028,11
4216652,23
4217280,23
4217908,17
4218528,28
4219156,22
4219780,37
4220412,26
4221040,16
4221664,17
4222292,12
4222916,15
4223540,23
4224172,15
4224788,30
4225420,15
4226044,22
4226664,15
4227296,16
4227916,17
4228548,17
4229176,13
4229800,26
4230428,12
4231052,26
4231680,44
4232308,43
4232928,21
4233556,12
4234184,35
4234808,39
4235436,28
4236056,15
4236684,11
4237308,16
4237936,22
4238564,13
4239188,24
4239820,30
4240452,12
4241072,29
4241700,31
4242324,33
4242948,15
4243580,32
4244200,24
4244828,12
4245452,20
4246076,49
4246708,83
4247328,35
4247956,16
4248588,11
4249208,13
4249836,27
4250460,19
4251092,11
4251720,18
4252340,16
4252968,13
4253592,28
4254216,46
4254844,16
4255464,32
4256096,17
4256716,56
4257340,16
4257972,32
4258592,20
4259220,12
4259852,10
4260472,16
4261100,40
4261724,53
4262352,48
4262984,26
4263600,12
4264232,29
4264856,65
4265476,88
4266108,16
4266728,11
4267356,11
4267980,11
4268604,23
4269236,10
4269856,13
4270484,15
4271116,16
4271736,42
4272364,57
4272988,27
4273620,11
4274248,11
4274868,19
4275496,26
4276120,24
4276744,35
4277372,58
4277992,46
4278620,14
4279244,72
4279868,97
4280500,58
4281120,47
4281748,65
4282376,34
4283000,11
4283628,16
4284252,20
4284884,11
4285512,20
4286128,10
4286760,11
4287384,21
4288008,35
4288636,32
4289256,23
4289884,13
4290508,16
4291132,32
4291764,22
4292384,22
4293012,18
4293644,15
4294264,25
4294892,21
4295516,51
4296148,46
4296780,23
4297400,22
4298032,12
4298656,13
4299280,27
4299908,30
4300528,22
4301160,13
4301780,13
4302404,15
4303036,38
4303656,14
4304284,43
4304916,53
4305536,55
4306164,101
4306840,63
4307460,13
4308092,33
4308712,93
4309340,162
4310024,72
4310640,13
4311268,12
4311892,12
4312524,15
4313156,13
4313776,19
4314404,28
4315028,22
4315656,16
4316284,42
4316904,65
4317532,70
4318156,47
4318784,15
4319412,62
4320032,24
4320660,51
4321292,82
4321912,15
4322540,26
4323164,19
4323796,14
4324424,10
4325048,26
4325676,38
4326300,37
4326928,25
4327556,30
4328176,68
4328804,73
4329428,51
4330052,31
4330684,12
4331304,20
4331932,29
4332564,34
4333184,29
4333812,17
4334436,13
4335068,16
4335700,14
4336320,31
4336948,35
4337572,25
4338200,37
4338828,22
4339448,13
4340076,22
4340700,25
4341328,21
4341956,28
4342576,13
4343204,15
4343836,10
4344456,18
4345084,23
4345708,12
4346340,17
4346968,14
4347592,39
4348224,68
4348848,40
4349468,12
4350100,50
4350720,74
4351352,79
4351976,83
4352600,48
4353232,22
4353848,17
4354476,15
4355108,14
4355728,12
4356356,23
4356980,20
4357612,17
4358240,18
4358860,21
4359488,37
4360112,38
4360736,28
4361364,12
4361984,26
4362612,32
4363236,39
4363860,32
4364492,16
4365112,16
4365740,15
4366372,22
4366992,47
4367620,43
4368244,17
4368876,17
4369504,41
4370124,61
4370752,17
4371376,35
4372000,17
4372632,14
4373248,13
4373880,15
4374504,25
4375128,27
4375756,16
4376376,11
4377004,11
4377636,12
4378256,14
4378884,16
4379508,40
4380140,51
4380772,63
4381392,61
4382024,37
4382648,17
4383272,76
4383904,94
4384520,78
4385152,61
4385776,29
4386400,13
4387028,15
4387652,11
4388284,21
4388912,47
4389536,71
4390168,30
4390792,13
4391424,25
4392052,28
4392672,31
4393304,35
4393928,43
4394552,30
4395184,15
4395800,25
4396432,15
4397064,28
4397680,36
4398312,39
4398936,34
4399568,18
4400196,54
4400816,57
4401444,21
4402068,31
4402696,49
4403324,27
4403944,34
4404572,50
4405196,92
4405820,113
4406500,81
4407120,31
4407748,146
4408432,128
4409100,29
4409728,11
4410348,13
4410972,16
4411604,19
4412228,12
4412860,19
4413488,12
4414112,42
4414744,57
4415368,50
4415996,15
4416628,73
4417248,127
4417928,63
4418552,15
4419176,14
4419808,24
4420432,22
4421060,11
4421692,10
4422312,18
4422944,17
4423568,12
4424200,29
4424828,50
4425448,46
4426076,26
4426700,12
4427324,32
4427956,22
4428576,12
4429204,13
4429836,18
4430456,30
4431084,13
4431708,23
4432340,24
4432972,22
4433592,14
4434224,15
4434848,17
4435472,15
4436100,11
4436720,21
4437348,26
4437976,27
4438600,35
4439228,24
4439848,14
4440476,26
4441108,61
4441728,70
4442356,47
4442980,13
4443612,31
4444244,64
4444864,91
4445492,91
4446116,80
4446744,17
4447372,80
4447992,93
4448624,49
4449248,52
4449872,68
4450504,51
4451120,15
4451752,12
4452380,25
4453000,45
4453632,53
4454256,38
4454888,14
4455516,16
4456136,20
4456764,20
4457388,35
4458016,57
4458644,20
4459264,26
4459896,16
4460520,23
4461144,17
4461772,17
4462392,44
4463024,55
4463656,19
4464272,11
4464904,12
4465528,12
4466160,14
4466788,11
4467408,11
4468040,11
4468664,18
4469288,48
4469916,39
4470536,24
4471168,19
4471792,43
4472416,12
4473044,37
4473672,65
4474300,14
4474932,18
4475552,12
4476184,14
4476808,17
4477436,25
4478068,41
4478688,54
4479320,64
4479948,40
4480572,20
4481204,24
4481824,17
4482452,15
4483084,58
4483704,86
4484332,76
4484956,40
4485588,22
4486216,12
4486840,11
4487468,16
4488092,11
4488716,12
4489348,11
4489968,13
4490596,16
4491220,11
4491844,16
4492476,36
4493096,54
4493724,15
4494356,68
4494976,53
4495608,29
4496232,15
4496860,28
4497492,54
4498112,49
4498740,28
4499368,14
4499992,11
4500620,15
4501240,15
4501868,11
4502496,11
4503120,25
4503752,25
4504368,11
4505000,16
4505632,12
4506248,13
4506876,11
4507500,11
4508128,11
4508756,13
4509376,19
4510004,13
4510628,19
4511252,17
4511884,11
4512504,15
4513132,18
4513756,17
4514380,18
4515012,45
4515632,90
4516264,116
4516944,113
4517612,36
4518236,43
4518864,101
4519540,170
4520216,137
4520892,50
4521512,19
4522144,16
4522760,19
4523388,16
4524016,16
4524640,11
4525268,11
4525892,17
4526524,10
4527152,12
4527776,13
4528404,11
4529028,16
4529660,12
4530288,24
4530912,15
4531544,44
4532168,14
4532788,40
4533420,42
4534040,34
4534672,25
4535296,17
4535920,17
4536552,21
4537176,15
4537804,31
4538436,46
4539056,39
4539688,13
4540312,30
4540936,26
4541568,13
4542184,11
4542816,17
4543440,56
4544064,53
4544692,30
4545312,21
4545940,15
4546572,24
4547192,44
4547824,37
4548448,46
4549076,29
4549708,24
4550328,16
4550960,14
4551584,24
4552208,54
4552836,52
4553456,39
4554088,25
4554712,19
4555336,13
4555968,21
4556588,17
4557216,17
4557848,20
4558464,12
4559096,11
4559720,13
4560352,11
4560980,11
4561600,19
4562228,19
4562852,21
4563480,15
4564108,14
4564728,14
4565356,13
4565984,23
4566608,38
4567240,12
4567856,12
4568488,12
4569116,24
4569736,18
4570364,12
4570988,11
4571620,23
4572252,16
4572872,13
4573500,12
4574128,13
4574752,21
4575384,17
4576000,16
4576632,11
4577256,15
4577880,19
4578512,30
4579128,21
4579760,13
4580392,24
4581008,30
4581640,19
4582268,16
4582896,16
4583528,18
4584148,27
4584776,42
4585404,44
4586028,30
4586660,16
4587280,11
4587912,11
4588536,12
4589160,17
4589788,19
4590412,17
4591044,23
4591672,30
4592296,29
4592924,29
4593548,21
4594180,12
4594812,32
4595432,14
4596060,52
4596684,58
4597312,49
4597940,30
4598560,41
4599188,93
4599820,78
4600440,58
4601068,60
4601696,42
4602324,12
4602956,19
4603576,15
4604208,11
4604832,12
4605456,13
4606084,12
4606704,13
4607336,11
4607960,10
4608588,14
4609216,18
4609832,13
4610460,13
4611088,16
4611712,14
4612340,17
4612964,19
4613596,14
4614224,16
4614844,12
4615472,24
4616096,12
4616720,24
4617348,20
4617968,36
4618596,31
4619220,15
4619844,15
4620476,10
4621096,13
4621724,15
4622356,20
4622976,18
4623604,12
4624228,17
4624860,31
4625488,29
4626112,13
4626740,44
4627364,43
4627988,17
4628620,10
4629240,12
4629868,16
4630492,17
4631116,17
4631748,16
4632368,15
4632996,14
4633628,10
4634248,11
4634876,10
4635500,11
4636132,12
4636764,12
4637384,14
4638016,16
4638640,16
4639264,18
4639892,12
4640512,12
4641140,17
4641764,28
4642388,14
4643020,13
4643640,25
4644268,32
4644900,30
4645520,49
4646148,47
4646772,28
4647404,22
4648032,43
4648656,67
4649284,65
4649908,25
4650532,16
4651164,38
4651784,50
4652416,36
4653040,17
4653664,27
4654292,58
4654916,51
4655548,33
4656180,26
4656800,21
4657428,21
4658052,15
4658684,21
4659316,20
4659936,11
4660564,11
4661188,21
4661812,31
4662444,22
4663064,21
4663692,13
4664320,36
4664944,54
4665576,33
4666200,11
4666828,33
4667460,58
4668080,34
4668712,11
4669336,13
4669960,56
4670588,75
4671208,35
4671840,16
4672464,12
4673088,12
4673716,12
4674336,21
4674964,20
4675596,10
4676216,23
4676844,20
4677468,11
4678100,14
4678732,17
4679352,21
4679984,17
4680608,15
4681232,14
4681860,25
4682480,25
4683108,13
4683736,11
4684360,19
4684988,18
4685608,17
4686236,17
4686868,12
4687488,12
4688116,13
4688740,13
4689372,13
4690000,12
4690624,13
4691252,33
4691876,41
4692500,35
4693132,32
4693752,16
4694384,29
4695008,74
4695632,72
4696264,49
4696880,33
4697512,20
4698144,11
4698760,11
4699392,25
4700016,28
4700648,27
4701276,16
4701896,15
4702528,22
4703152,17
4703776,37
4704408,43
4705032,42
4705664,39
4706288,44
4706912,33
4707544,15
4708168,35
4708800,28
4709428,10
4710048,24
4710680,20
4711304,15
4711936,12
4712568,18
4713184,15
4713812,14
4714440,17
4715064,13
4715692,12
4716312,19
4716944,43
4717572,38
4718192,36
4718824,57
4719448,43
4720080,26
4720708,12
4721328,30
4721956,38
4722584,44
4723208,59
4723836,70
4724456,38
4725088,13
4725712,12
4726336,13
4726968,12
4727584,10
4728216,12
4728848,11
4729464,14
4730096,15
4730720,15
4731352,13
4731980,35
4732600,48
4733232,32
4733856,11
4734480,34
4735112,45
4735732,33
4736364,18
4736988,11
4737612,17
4738240,26
4738860,39
4739488,34
4740120,30
4740740,12
4741368,33
4741992,26
4742624,25
4743252,32
4743872,23
4744504,22
4745128,20
4745752,16
4746384,25
4747000,27
4747632,25
4748256,27
4748880,14
4749508,34
4750128,55
4750760,38
4751392,11
4752008,19
4752636,23
4753260,28
4753892,12
4754524,30
4755144,49
4755776,39
4756400,27
4757024,19
4757656,10
4758272,11
4758904,11
4759528,12
4760152,13
4760784,13
4761400,13
4762032,12
4762664,13
4763280,12
4763912,20
4764536,21
4765164,17
4765796,11
4766416,19
4767044,29
4767672,18
4768296,11
4768924,11
4769544,15
4770176,20
4770800,21
4771424,23
4772056,17
4772680,12
4773308,16
4773940,14
4774560,15
4775188,19
4775816,33
4776444,29
4777076,27
4777696,13
4778324,22
4778952,34
4779576,25
4780208,15
4780824,12
4781452,20
4782084,27
4782704,12
4783336,28
4783960,42
4784592,61
4785224,68
4785844,39
4786472,13
4787100,43
4787724,78
4788356,106
4789028,83
4789656,43
4790288,17
4790908,12
4791536,16
4792164,13
4792796,14
4793428,10
4794048,24
4794680,24
4795304,12
4795928,17
4796560,12
4797180,13
4797812,14
4798436,12
4799060,11
4799692,30
4800312,33
4800944,12
4801572,14
4802192,35
4802820,29
4803444,12
4804076,36
4804704,30
4805324,29
4805952,17
4806576,21
4807200,15
4807832,15
4808448,20
4809080,13
4809704,15
4810328,11
4810956,16
4811576,20
4812208,14
4812836,37
4813456,20
4814084,12
4814708,17
4815336,28
4815968,32
4816588,25
4817216,12
4817840,21
4818464,13
4819092,22
4819712,49
4820340,37
4820968,11
4821588,17
4822220,24
4822840,12
4823468,16
4824100,24
4824720,15
4825348,14
4825976,10
4826604,12
4827236,15
4827856,38
4828488,15
4829112,12
4829736,29
4830364,26
4830984,32
4831616,24
4832240,16
4832864,12
4833496,37
4834120,40
4834748,60
4835380,74
4836000,60
4836628,31
4837252,61
4837884,102
4838568,28
4839184,13
4839812,13
4840436,20
4841060,12
4841692,30
4842316,49
4842944,39
4843576,12
4844196,16
4844824,17
4845448,12
4846076,51
4846708,36
4847328,16
4847960,27
4848584,20
4849208,24
4849836,11
4850456,11
4851088,41
4851716,52
4852336,61
4852968,35
4853592,13
4854224,18
4854852,14
4855472,32
4856104,25
4856728,12
4857352,22
4857984,21
4858600,27
4859232,11
4859856,32
4860480,57
4861112,41
4861732,37
4862360,15
4862992,14
4863616,14
4864248,12
4864872,21
4865500,12
4866132,26
4866752,48
4867380,49
4868004,33
4868628,26
4869260,12
4869880,11
4870508,11
4871136,22
4871760,14
4872388,16
4873008,25
4873640,30
4874268,12
4874888,47
4875516,92
4876144,97
4876772,31
4877404,14
4878024,13
4878656,17
4879280,24
4879904,32
4880536,48
4881152,33
4881784,30
4882408,23
4883032,30
4883660,23
4884280,17
4884908,53
4885540,79
4886160,83
4886792,62
4887416,27
4888044,21
4888676,20
4889296,16
4889928,15
4890548,36
4891176,67
4891808,57
4892424,64
4893056,62
4893680,52
4894304,54
4894936,27
4895560,21
4896192,21
4896820,14
4897440,18
4898068,23
4898696,30
4899324,14
4899956,10
4900576,31
4901208,37
4901832,12
4902456,40
4903084,73
4903704,38
4904336,12
4904968,14
4905584,12
4906216,18
4906840,29
4907472,39
4908104,30
4908724,16
4909356,13
4909980,21
4910608,12
4911240,16
4911860,21
4912492,13
4913116,37
4913744,61
4914376,78
4914996,63
4915628,34
4916256,11
4916872,36
4917504,25
4918128,23
4918756,12
4919384,34
4920008,61
4920636,38
4921260,12
4921884,12
4922512,18
4923136,33
4923764,29
4924388,14
4925012,14
4925644,10
4926264,23
4926892,25
4927524,14
4928144,25
4928772,44
4929396,43
4930024,27
4930652,18
4931272,67
4931900,71
4932524,55
4933148,58
4933776,27
4934400,63
4935028,14
4935652,74
4936280,85
4936908,80
4937528,40
4938156,13
4938788,14
4939408,13
4940036,21
4940664,27
4941292,34
4941924,24
4942544,23
4943172,43
4943800,76
4944424,27
4945052,61
4945672,57
4946300,25
4946924,13
4947552,12
4948180,14
4948804,11
4949432,12
4950064,21
4950684,18
4951316,22
4951940,18
4952572,45
4953200,36
4953820,15
4954448,11
4955076,11
4955700,14
4956332,14
4956952,18
4957580,28
4958212,24
4958832,34
4959464,41
4960088,13
4960716,21
4961344,11
4961968,21
4962596,34
4963220,41
4963844,29
4964476,88
4965096,76
4965728,49
4966352,17
4966976,57
4967604,65
4968224,35
4968852,12
4969484,16
4970104,21
4970732,13
4971356,64
4971988,23
4972620,12
4973240,33
4973868,53
4974496,46
4975116,12
4975748,18
4976368,27
4976996,28
4977620,28
4978244,13
4978876,26
4979496,32
4980124,60
4980756,30
4981376,26
4982008,13
4982632,32
4983260,40
4983892,50
4984512,27
4985144,18
4985768,28
4986392,82
4987024,125
4987692,96
4988320,16
4988948,16
4989568,12
4990200,14
4990824,13
4991456,13
4992088,23
4992704,29
4993332,14
4993956,21
4994580,12
4995212,18
4995832,24
4996464,29
4997088,23
4997712,33
4998344,25
4998960,36
4999588,57
5000220,31
5000840,12
5001468,21
5002092,23
5002724,27
5003356,26
5003976,15
5004608,12
5005232,15
5005856,12
5006488,16
5007104,13
5007736,11
5008360,13
5008984,22
5009612,12
5010232,25
5010864,33
5011492,18
5012112,15
5012744,44
5013368,35
5014000,16
5014628,11
5015248,12
5015880,21
5016504,36
5017128,25
5017760,22
5018376,12
5019004,24
5019632,25
5020256,19
5020884,32
5021508,33
5022140,12
5022772,12
5023392,13
5024024,27
5024644,29
5025276,19
5025908,32
5026528,44
5027160,23
5027784,14
5028408,11
5029036,36
5029656,44
5030288,13
5030920,12
5031536,23
5032168,22
5032792,17
5033424,11
5034056,20
5034672,35
5035304,31
5035932,23
5036556,29
5037188,24
5037808,37
5038440,31
5039064,13
5039692,26
5040320,32
5040944,23
5041572,53
5042204,22
5042824,18
5043456,20
5044080,23
5044708,11
5045340,47
5045960,59
5046592,39
5047216,15
5047840,17
5048472,20
5049088,16
5049720,15
5050344,12
5050968,11
5051600,10
5052216,31
5052848,45
5053480,27
5054096,16
5054728,19
5055352,13
5055984,12
5056616,18
5057236,12
5057868,22
5058492,11
5059116,23
5059748,43
5060368,39
5061000,16
5061624,49
5062248,55
5062880,17
5063504,33
5064136,47
5064768,102
5065436,111
5066116,60
5066736,25
5067364,67
5067996,136
5068672,149
5069356,80
5069984,54
5070604,49
5071232,16
5071860,60
5072484,23
5073116,13
5073740,17
5074372,38
5075004,13
5075624,13
5076256,12
5076880,14
5077512,19
5078144,31
5078764,17
5079396,18
5080020,12
5080644,25
5081276,16
5081896,13
5082528,24
5083160,25
5083776,32
5084408,30
5085032,17
5085664,21
5086296,32
5086916,54
5087544,46
5088172,23
5088796,25
5089428,50
5090048,106
5090732,84
5091360,12
5091976,11
5092608,25
5093236,50
5093868,91
5094500,90
5095120,50
5095752,13
5096376,38
5097000,72
5097632,23
5098248,25
5098880,13
5099504,49
5100128,57
5100760,73
5101388,106
5102072,60
5102696,37
5103316,52
5103948,24
5104576,14
5105200,16
5105832,30
5106452,34
5107084,32
5107716,25
5108336,11
5108968,17
5109596,11
5110228,20
5110860,48
5111480,51
5112116,19
5112740,30
5113368,13
5114000,28
5114620,46
5115252,40
5115876,15
5116504,41
5117136,47
5117756,22
5118388,11
5119024,34
5119644,71
5120276,61
5120900,23
5121528,53
5122156,36
5122776,46
5123404,19
5124024,13
5124648,15
5125276,12
5125896,20
5126524,37
5127148,18
5127768,45
5128400,15
5129016,49
5129644,13
5130272,42
5130896,61
5131524,39
5132148,16
5132776,59
5133408,165
5134076,128
5134752,25
5135380,57
5136000,37
5136628,19
5137252,13
5137880,16
5138508,19
5139128,15
5139760,15
5140380,40
5141008,66
5141636,54
5142256,22
5142884,17
5143508,35
5144132,63
5144764,58
5145384,34
5146016,19
5146644,22
5147264,39
5147892,14
5148516,42
5149148,33
5149776,21
5150396,17
5151024,36
5151652,18
5152276,17
5152904,18
5153524,12
5154152,24
5154776,25
5155400,24
5156028,12
5156648,30
5157276,51
5157908,70
5158528,62
5159156,24
5159784,44
5160412,15
5161044,31
5161664,11
5162292,60
5162916,51
5163540,15
5164168,27
5164788,38
5165416,77
5166040,24
5166664,22
5167292,21
5167912,90
5168544,149
5169224,47
5169848,30
5170476,27
5171104,14
5171728,19
5172356,26
5172976,20
5173604,35
5174228,47
5174852,39
5175484,14
5176104,11
5176732,22
5177364,18
5177984,12
5178612,12
5179236,13
5179868,17
5180500,11
5181120,13
5181752,14
5182376,17
5183000,23
5183632,19
5184248,16
5184880,11
5185500,20
5186124,57
5186756,70
5187376,62
5188004,28
5188636,20
5189256,32
5189884,27
5190508,18
5191140,11
5191772,11
5192392,13
5193020,11
5193644,11
5194268,15
5194900,22
5195520,13
5196152,19
5196776,21
5197400,34
5198032,28
5198652,31
5199280,28
5199912,43
5200532,38
5201164,36
5201788,62
5202416,16
5203048,34
5203664,41
5204292,72
5204916,84
5205540,34
5206172,18
5206792,64
5207424,84
5208048,55
5208672,16
5209300,86
5209924,105
5210604,54
5211232,98
5211848,16
5212476,57
5213104,27
5213728,15
5214356,12
5214976,13
5215608,22
5216232,14
5216856,28
5217484,34
5218104,16
5218732,12
5219364,11
5219984,15
5220616,11
5221240,13
5221872,15
5222500,19
5223120,32
5223748,12
5224372,11
5224996,21
5225624,17
5226248,13
5226876,17
5227500,34
5228128,55
5228756,46
5229380,47
5230012,13
5230644,65
5231264,95
5231896,31
5232520,11
5233152,13
5233780,13
5234400,14
5235028,10
5235656,32
5236280,70
5236912,87
5237528,71
5238160,29
5238788,27
5239408,97
5240040,73
5240664,19
5241292,17
5241924,26
5242544,62
5243176,48
5243800,33
5244424,21
5245052,11
5245672,15
5246300,19
5246924,28
5247548,29
5248180,24
5248796,19
5249428,35
5250056,20
5250672,34
5251300,26
5251924,28
5252552,15
5253180,37
5253800,29
5254428,24
5255048,36
5255680,56
5256308,37
5256928,30
5257556,24
5258180,15
5258804,14
5259432,19
5260056,19
5260684,48
5261308,68
5261936,40
5262564,36
5263188,61
5263820,52
5264448,25
5265064,20
5265696,12
5266320,14
5266948,19
5267576,33
5268200,27
5268828,27
5269452,87
5270076,57
5270704,12
5271328,11
5271956,22
5272588,31
5273208,19
5273836,34
5274460,65
5275092,109
5275772,98
5276392,25
5277020,69
5277644,62
5278268,81
5278900,112
5279572,89
5280200,21
5280828,14
5281448,24
5282076,12
5282700,12
5283328,11
5283956,10
5284576,23
5285204,25
5285828,10
5286448,15
5287076,21
5287696,15
5288324,27
5288944,19
5289568,24
5290200,18
5290824,11
5291452,10
5292084,10
5292704,17
5293332,19
5293956,26
5294588,29
5295216,20
5295840,15
5296468,17
5297092,14
5297716,73
5298348,90
5298968,85
5299596,21
5300220,54
5300848,113
5301528,98
5302148,23
5302776,26
5303404,43
5304024,50
5304652,21
5305276,12
5305900,14
5306532,12
5307152,12
5307780,13
5308408,11
5309032,19
5309660,23
5310284,25
5310916,27
5311544,16
5312168,11
5312796,14
5313420,26
5314052,17
5314680,22
5315300,39
5315928,41
5316552,16
5317176,13
5317804,18
5318424,12
5319052,26
5319676,29
5320304,18
5320932,12
5321560,19
5322188,25
5322820,20
5323440,17
5324072,45
5324696,23
5325320,36
5325948,54
5326568,25
5327196,61
5327820,100
5328496,18
5329116,29
5329740,35
5330372,38
5331000,22
5331620,59
5332248,33
5332872,21
5333500,21
5334132,38
5334752,80
5335380,37
5336004,21
5336628,13
5337256,14
5337880,15
5338508,22
5339132,16
5339760,15
5340388,11
5341012,27
5341644,39
5342272,33
5342892,21
5343520,12
5344144,23
5344772,30
5345404,14
5346024,16
5346652,13
5347276,12
5347900,12
5348528,17
5349148,12
5349776,11
5350404,11
5351024,14
5351652,23
5352276,31
5352908,18
5353536,25
5354160,38
5354788,25
5355416,26
5356040,19
5356668,12
5357288,20
5357916,20
5358544,13
5359168,33
5359796,11
5360416,29
5361044,45
5361676,54
5362296,37
5362924,18
5363548,13
5364180,37
5364808,73
5365432,47
5366064,27
5366688,32
5367308,25
5367940,20
5368560,67
5369188,63
5369812,51
5370436,13
5371068,56
5371688,119
5372368,55
5373000,25
5373616,45
5374244,67
5374872,56
5375496,16
5376128,47
5376744,126
5377424,83
5378040,13
5378664,15
5379292,14
5379916,18
5380544,26
5381172,22
5381792,17
5382420,34
5383044,27
5383672,17
5384304,25
5384920,27
5385548,11
5386176,31
5386800,59
5387428,28
5388048,13
5388676,12
5389300,17
5389924,15
5390556,12
5391180,21
5391812,19
5392440,29
5393060,35
5393688,27
5394312,13
5394940,29
5395572,32
5396192,15
5396820,39
5397444,21
5398068,22
5398700,10
5399320,12
5399952,11
5400580,10
5401200,14
5401828,17
5402452,11
5403084,14
5403716,11
5404336,16
5404964,24
5405588,39
5406216,49
5406844,44
5407464,27
5408092,11
5408716,29
5409340,12
5409968,11
5410584,14
5411216,78
5411840,114
5412516,78
5413140,35
5413764,48
5414396,145
5415080,128
5415748,62
5416376,43
5417004,16
5417624,36
5418252,14
5418876,11
5419508,11
5420140,12
5420760,13
5421392,35
5422016,33
5422640,18
5423268,11
5423888,15
5424520,11
5425144,13
5425768,14
5426396,13
5427024,21
5427656,20
5428284,16
5428904,11
5429532,17
5430156,15
5430788,25
5431416,16
5432040,15
5432668,24
5433292,21
5433916,12
5434548,29
5435168,26
5435800,12
5436428,19
5437048,10
5437680,25
5438304,21
5438932,16
5439564,13
5440184,11
5440812,15
5441436,11
5442060,13
5442688,10
5443304,12
5443932,21
5444556,47
5445180,62
5445808,46
5446432,17
5447060,28
5447692,39
5448312,37
5448940,38
5449564,33
5450196,29
5450824,18
5451440,10
5452072,23
5452696,36
5453320,35
5453948,27
5454568,14
5455196,53
5455820,59
5456448,13
5457076,12
5457696,11
5458324,29
5458956,40
5459576,14
5460204,14
5460828,23
5461460,11
5462088,22
5462708,30
5463336,33
5463960,86
5464584,56
5465212,46
5465832,30
5466460,13
5467084,11
5467708,11
5468340,17
5468960,11
5469588,23
5470220,20
5470840,43
5471468,21
5472096,19
5472724,43
5473356,36
5473976,38
5474604,24
5475228,20
5475852,38
5476484,46
5477104,19
5477736,11
5478360,16
5478984,45
5479612,30
5480232,13
5480860,15
5481492,28
5482112,26
5482740,17
5483368,28
5483996,27
5484628,28
5485248,29
5485876,12
5486504,27
5487128,33
5487756,21
5488376,14
5489004,16
5489628,15
5490252,17
5490884,43
5491504,56
5492132,37
5492764,36
5493384,31
5494016,17
5494640,11
5495268,18
5495900,38
5496520,28
5497148,13
5497776,13
5498400,13
5499028,11
5499648,10
5500276,11
5500904,11
5501528,11
5502156,16
5502776,23
5503408,27
5504040,34
5504656,25
5505284,21
5505908,14
5506540,25
5507168,12
5507792,19
5508424,21
5509048,29
5509672,11
5510300,30
5510920,43
5511552,29
5512176,37
5512800,55
5513428,41
5514056,17
5514684,41
5515316,86
5515936,67
5516568,51
5517192,38
5517824,15
5518452,38
5519072,74
5519704,61
5520328,22
5520952,82
5521580,74
5522200,38
5522832,23
5523460,12
5524080,11
5524708,13
5525336,17
5525964,12
5526596,13
5527216,26
5527848,29
5528472,13
5529096,23
5529728,23
5530344,30
5530972,31
5531596,15
5532220,9
5532800,18
5533424,32
5534052,28
5534680,32
5535304,29
5535932,28
5536552,12
5537180,17
5537812,28
5538432,23
5539060,14
5539688,12
5540316,41
5540948,68
5541568,48
5542200,23
5542824,14
5543448,24
5544076,18
5544696,12
5545328,16
5545952,15
5546576,12
5547204,11
5547824,13
5548456,11
5549084,10
5549704,22
5550336,26
5550960,31
5551592,14
5552220,14
5552840,21
5553468,12
5554096,16
5554720,21
5555352,42
5555968,24
5556600,13
5557224,11
5557848,11
5558480,11
5559096,17
5559728,33
5560360,36
5560976,15
5561604,59
5562228,66
5562860,37
5563492,30
5564112,53
5564744,21
5565368,46
5565992,23
5566624,16
5567244,71
5567876,100
5568560,27
5569176,12
5569808,19
5570432,29
5571064,29
5571692,32
5572312,15
5572944,18
5573568,18
5574192,22
5574820,16
5575440,15
5576072,11
5576692,13
5577320,25
5577948,39
5578572,45
5579204,55
5579832,82
5580456,65
5581088,36
5581712,22
5582340,73
5582972,108
5583644,69
5584272,22
5584896,11
5585520,12
5586152,31
5586776,13
5587404,34
5588036,14
5588656,18
5589284,19
5589912,31
5590536,37
5591168,26
5591784,18
5592416,80
5593040,71
5593664,59
5594292,30
5594912,36
5595544,24
5596172,12
5596792,12
5597424,17
5598048,33
5598680,23
5599312,15
5599928,25
5600560,38
5601184,29
5601812,17
5602440,14
5603056,24
5603688,24
5604312,19
5604936,20
5605564,18
5606184,14
5606816,16
5607444,21
5608064,35
5608692,22
5609316,23
5609948,30
5610580,18
5611200,13
5611828,13
5612456,16
5613080,26
5613708,12
5614328,56
5614960,19
5615584,16
5616208,15
5616836,24
5617456,16
5618084,17
5618716,26
5619336,26
5619964,15
5620588,11
5621220,12
5621852,18
5622472,13
5623100,38
5623728,56
5624352,57
5624980,32
5625600,11
5626228,42
5626856,83
5627480,88
5628112,63
5628728,43
5629360,22
5629992,13
5630612,26
5631240,21
5631868,18
5632500,15
5633128,15
5633744,11
5634376,12
5635000,12
5635624,14
5636252,44
5636872,41
5637500,30
5638124,25
5638748,14
5639380,13
5640004,26
5640632,36
5641260,54
5641880,41
5642508,23
5643132,22
5643764,26
5644392,12
5645016,20
5645644,13
5646268,15
5646892,24
5647524,12
5648144,17
5648772,29
5649396,59
5650020,53
5650652,15
5651276,16
5651904,39
5652536,63
5653156,63
5653784,20
5654408,25
5655036,11
5655668,14
5656288,23
5656916,24
5657544,26
5658168,78
5658796,27
5659416,15
5660044,14
5660668,14
5661296,15
5661924,12
5662548,19
5663180,26
5663812,34
5664432,53
5665060,63
5665684,36
5666308,17
5666940,42
5667560,73
5668192,63
5668812,22
5669436,15
5670068,12
5670688,12
5671316,13
5671948,14
5672568,30
5673200,32
5673824,13
5674452,20
5675084,12
5675704,27
5676332,24
5676960,19
5677584,32
5678212,55
5678832,32
5679464,28
5680088,26
5680712,12
5681340,24
5681960,40
5682588,49
5683220,20
5683840,12
5684468,27
5685092,33
5685724,30
5686352,18
5686972,16
5687604,41
5688228,37
5688852,18
5689480,22
5690100,14
5690732,11
5691356,15
5691980,22
5692612,24
5693232,19
5693864,23
5694492,34
5695112,33
5695744,20
5696368,16
5696996,14
5697628,37
5698248,49
5698876,41
5699500,38
5700128,26
5700756,14
5701376,12
5702008,13
5702632,12
5703256,20
5703888,40
5704504,44
5705132,40
5705764,13
5706384,11
5707016,28
5707640,48
5708272,53
5708900,59
5709520,23
5710148,69
5710776,128
5711452,148
5712132,73
5712752,21
5713384,25
5714012,14
5714632,33
5715264,34
5715888,11
5716512,13
5717144,15
5717760,13
5718392,25
5719016,17
5719640,19
5720272,21
5720892,15
5721524,14
5722156,12
5722776,17
5723408,17
5724032,15
5724664,13
5725296,16
5725912,23
5726544,15
5727168,11
5727796,12
5728428,14
5729048,18
5729680,14
5730308,11
5730928,14
5731560,18
5732184,19
5732816,17
5733448,12
5734068,11
5734700,34
5735324,29
5735948,16
5736576,10
5737192,12
5737824,13
5738448,12
5739072,11
5739700,13
5740320,15
5740948,13
5741580,11
5742200,13
5742828,12
5743452,15
5744084,24
5744712,16
5745336,13
5745964,12
5746588,12
5747212,19
5747844,16
5748464,22
5749096,11
5749720,16
5750344,29
5750976,66
5751592,110
5752276,121
5752956,81
5753576,23
5754208,137
5754892,210
5755564,74
5756192,22
5756816,41
5757444,93
5758076,78
5758696,44
5759328,17
5759952,10
5760580,17
5761208,26
5761824,21
5762452,17
5763084,18
5763704,25
5764332,13
5764956,20
5765588,26
5766216,35
5766836,44
5767464,54
5768088,34
5768712,17
5769340,10
5769960,30
5770588,56
5771212,69
5771836,20
5772468,66
5773088,100
5773768,91
5774396,68
5775016,17
5775648,72
5776272,59
5776900,42
5777528,34
5778148,35
5778776,36
5779400,32
5780024,33
5780652,17
5781272,13
5781900,11
5782524,10
5783152,14
5783780,11
5784408,13
5785036,10
5785668,24
5786288,45
5786916,64
5787540,48
5788168,14
5788796,25
5789416,49
5790048,57
5790672,56
5791296,21
5791924,10
5792544,12
5793172,13
5793804,10
5794424,11
5795052,20
5795680,38
5796308,38
5796940,14
5797560,16
5798188,45
5798816,68
5799440,61
5800068,18
5800688,11
5801316,11
5801940,16
5802564,19
5803196,22
5803816,18
5804448,11
5805076,12
5805696,13
5806324,13
5806952,16
5807580,15
5808212,12
5808832,19
5809460,40
5810084,39
5810712,21
5811340,19
5811960,45
5812588,46
5813216,59
5813840,24
5814468,24
5815088,15
5815720,30
5816348,51
5816968,53
5817596,31
5818224,14
5818852,32
5819484,34
5820104,32
5820736,49
5821360,44
5821984,31
5822616,17
5823232,11
5823864,11
5824488,11
5825112,19
5825740,12
5826360,19
5826992,19
5827620,12
5828240,13
5828868,17
5829492,18
5830124,15
5830756,13
5831376,17
5832008,20
5832632,15
5833256,11
5833888,28
5834504,47
5835136,31
5835760,31
5836388,66
5837016,64
5837640,40
5838272,16
5838900,17
5839520,35
5840148,39
5840772,18
5841404,12
5842032,27
5842656,37
5843284,45
5843908,34
5844532,15
5845164,19
5845784,30
5846416,27
5847036,18
5847664,15
5848296,38
5848920,29
5849548,24
5850180,12
5850800,12
5851428,10
5852056,21
5852680,17
5853312,16
5853928,13
5854560,11
5855184,17
5855808,31
5856440,24
5857060,11
5857688,12
5858320,12
5858940,17
5859568,13
5860192,12
5860820,22
5861452,19
5862072,13
5862704,13
5863328,19
5863952,17
5864584,11
5865200,15
5865828,11
5866456,11
5867080,20
5867708,26
5868328,30
5868960,54
5869588,43
5870208,22
5870840,15
5871464,19
5872096,47
5872724,66
5873344,41
5873976,21
5874600,11
5875224,26
5875852,39
5876472,41
5877104,24
5877728,12
5878356,12
5878988,38
5879608,27
5880240,45
5880868,73
5881488,51
5882120,22
5882744,11
5883376,12
5884008,10
5884624,16
5885256,13
5885880,11
5886504,17
5887136,21
5887756,25
5888388,25
5889012,20
5889636,13
5890264,15
5890888,16
5891520,26
5892148,24
5892768,19
5893400,14
5894024,19
5894656,12
5895284,11
5895904,17
5896536,21
5897160,24
5897784,20
5898416,17
5899032,14
5899660,13
5900284,14
5900912,19
5901540,14
5902164,37
5902796,26
5903424,10
5904048,29
5904676,14
5905300,15
5905928,36
5906556,12
5907176,32
5907808,13
5908432,39
5909056,41
5909684,31
5910304,27
5910936,20
5911564,31
5912184,37
5912816,35
5913440,24
5914072,13
5914700,24
5915320,29
5915952,20
5916576,12
5917200,15
5917832,20
5918448,12
5919080,15
5919704,15
5920328,18
5920956,16
5921576,14
5922204,14
5922836,14
5923456,18
5924084,47
5924708,78
5925340,55
5925972,38
5926592,13
5927220,39
5927844,70
5928472,87
5929100,54
5929720,31
5930348,12
5930976,14
5931600,15
5932228,15
5932848,12
5933476,10
5934108,10
5934728,11
5935360,11
5935984,12
5936616,11
5937248,12
5937864,17
5938496,15
5939120,17
5939744,21
5940376,13
5940992,12
5941624,29
5942248,29
5942872,12
5943500,27
5944120,27
5944748,31
5945380,15
5946000,13
5946628,12
5947252,19
5947884,31
5948516,31
5949136,14
5949768,29
5950392,19
5951016,25
5951648,17
5952264,18
5952896,16
5953520,53
5954144,81
5954772,56
5955400,34
5956028,29
5956660,17
5957280,11
5957908,11
5958536,25
5959164,45
5959796,42
5960416,31
5961044,13
5961668,24
5962292,23
5962924,12
5963544,11
5964176,12
5964804,40
5965424,41
5966052,36
5966676,32
5967308,11
5967940,42
5968560,65
5969188,53
5969816,18
5970440,12
5971068,18
5971688,26
5972316,31
5972944,21
5973568,13
5974200,10
5974820,15
5975448,21
5976080,13
5976700,20
5977328,22
5977956,29
5978584,50
5979216,14
5979840,16
5980472,12
5981096,33
5981720,64
5982352,57
5982968,20
5983600,45
5984224,112
5984900,84
5985528,17
5986152,10
5986780,12
5987412,11
5988032,17
5988664,20
5989288,13
5989912,13
5990544,11
5991160,14
5991792,21
5992416,19
5993040,17
5993668,19
5994288,19
5994920,12
5995548,23
5996168,25
5996796,29
5997424,16
5998056,11
5998688,12
5999304,12
5999936,12
6000564,12
6001188,10
6001820,12
6002440,11
6003068,12
6003696,16
6004320,13
6004948,14
6005576,22
6006204,23
6006836,14
6007456,13
6008088,11
6008712,18
6009340,15
6009972,11
6010592,11
6011224,12
6011848,12
6012472,15
6013104,13
6013724,14
6014352,21
6014984,54
6015608,50
6016240,25
6016864,12
6017496,11
6018124,14
6018744,24
6019372,33
6020000,48
6020624,49
6021252,34
6021872,13
6022504,33
6023128,51
6023752,52
6024380,51
6025000,33
6025632,11
6026260,22
6026880,23
6027508,37
6028136,42
6028768,24
6029400,12
6030016,14
6030648,14
6031272,45
6031896,50
6032528,17
6033148,12
6033780,18
6034404,28
6035028,24
6035660,10
6036280,13
6036912,11
6037540,11
6038160,13
6038792,41
6039416,44
6040048,59
6040680,38
6041296,33
6041928,60
6042552,56
6043176,60
6043808,58
6044432,38
6045064,41
6045688,44
6046312,29
6046944,37
6047568,40
6048200,39
6048828,30
6049448,19
6050076,11
6050704,11
6051332,10
6051964,11
6052584,19
6053216,18
6053840,13
6054464,15
6055092,21
6055712,26
6056344,22
6056972,11
6057592,17
6058224,17
6058848,12
6059480,18
6060112,40
6060732,67
6061364,65
6061992,49
6062616,19
6063248,36
6063868,55
6064500,48
6065124,38
6065748,33
6066380,42
6067000,42
6067632,24
6068264,10
6068880,11
6069508,11
6070136,14
6070764,13
6071396,18
6072016,25
6072648,12
6073272,15
6073896,27
6074528,11
6075144,18
6075776,27
6076404,15
6077028,12
6077660,12
6078284,31
6078916,46
6079548,27
6080168,12
6080800,25
6081424,29
6082052,24
6082684,11
6083304,16
6083932,24
6084556,32
6085184,12
6085812,30
6086432,47
6087060,35
6087692,26
6088312,14
6088944,18
6089568,34
6090200,32
6090828,34
6091448,18
6092080,17
6092704,24
6093328,16
6093960,10
6094580,12
6095208,18
6095832,16
6096460,13
6097088,12
6097712,14
6098344,20
6098972,14
6099592,13
6100224,12
6100848,10
6101476,11
6102108,17
6102728,14
6103360,19
6103984,28
6104608,19
6105240,13
6105856,24
6106488,44
6107112,60
6107736,52
6108368,25
6108988,24
6109620,69
6110248,117
6110924,76
6111552,15
6112176,12
6112800,26
6113432,41
6114052,32
6114684,25
6115308,14
6115932,49
6116564,60
6117192,38
6117820,12
6118452,29
6119072,37
6119704,12
6120328,45
6120960,32
6121588,11
6122208,15
6122840,16
6123468,11
6124092,11
6124724,24
6125344,19
6125976,13
6126608,17
6127228,26
6127860,11
6128484,13
6129116,18
6129748,12
6130368,11
6131000,17
6131628,16
6132252,10
6132884,22
6133504,11
6134136,42
6134760,47
6135388,13
6136020,18
6136644,44
6137276,54
6137908,62
6138528,39
6139160,32
6139788,18
6140420,70
6141052,78
6141676,15
6142308,14
6142932,21
6143560,15
6144192,11
6144808,30
6145436,26
6146068,12
6146688,18
6147316,27
6147940,27
6148568,20
6149200,17
6149816,13
6150444,13
6151068,20
6151692,31
6152324,42
6152944,35
6153572,16
6154200,12
6154824,13
6155452,14
6156072,25
6156700,53
6157332,52
6157952,20
6158584,12
6159208,15
6159836,45
6160468,64
6161088,39
6161716,15
6162340,13
6162968,15
6163596,12
6164216,23
6164844,57
6165468,65
6166092,32
6166724,16
6167344,46
6167972,58
6168604,39
6169224,12
6169856,11
6170476,12
6171108,12
6171740,12
6172360,13
6172988,13
6173612,13
6174236,10
6174868,14
6175488,25
6176120,40
6176740,33
6177364,18
6177996,14
6178616,13
6179244,13
6179876,12
6180496,28
6181124,54
6181748,66
6182380,37
6183012,15
6183632,69
6184264,121
6184940,24
6185560,17
6186192,29
6186808,31
6187440,29
6188068,14
6188688,25
6189320,40
6189944,37
6190576,17
6191204,10
6191824,23
6192456,18
6193080,26
6193704,35
6194336,18
6194952,15
6195584,39
6196212,54
6196836,40
6197464,28
6198088,11
6198716,10
6199348,20
6199968,15
6200600,11
6201224,14
6201856,11
6202484,15
6203104,12
6203736,15
6204360,26
6204984,20
6205616,12
6206232,19
6206864,33
6207492,34
6208112,15
6208744,11
6209368,11
6209996,17
6210628,20
6211248,21
6211876,15
6212504,13
6213128,13
6213756,19
6214376,19
6215008,12
6215636,11
6216260,11
6216892,12
6217512,23
6218144,13
6218776,12
6219396,25
6220028,14
6220652,11
6221284,13
6221912,12
6222536,11
6223168,20
6223792,20
6224420,11
6225052,17
6225672,13
6226304,33
6226928,27
6227552,17
6228180,17
6228808,13
6229436,24
6230068,12
6230688,15
6231320,61
6231944,57
6232576,53
6233208,27
6233824,10
6234456,14
6235080,11
6235704,12
6236336,12
6236952,12
6237584,22
6238216,22
6238832,12
6239464,11
6240092,11
6240720,17
6241348,12
6241968,16
6242596,28
6243220,12
6243848,33
6244476,44
6245096,40
6245728,23
6246352,24
6246976,48
6247608,39
6248224,25
6248856,23
6249484,46
6250104,43
6250732,23
6251360,10
6251988,12
6252620,10
6253240,20
6253868,16
6254496,11
6255120,23
6255752,25
6256368,18
6257000,15
6257624,11
6258248,10
6258876,13
6259496,18
6260128,17
6260756,16
6261376,19
6262008,19
6262632,22
