tempo_arduino_micro_s,valor_ADC
500,10
1004,10
1504,11
2000,10
2508,9
3000,10
3508,10
4000,10
4504,11
5000,13
5500,14
6000,14
6500,14
7004,14
7500,12
8000,11
8500,11
9000,11
9500,12
10000,12
10516,10
11036,14
11564,16
12084,12
12612,12
13132,14
13660,15
14180,16
14708,17
15228,18
15756,20
16276,21
16796,18
17316,17
17836,10
18356,11
18876,16
19396,17
19916,16
20436,12
20956,12
21476,13
21996,14
22516,17
23036,15
23564,14
24084,14
24612,13
25132,12
25660,11
26180,17
26708,23
27228,22
27756,17
28276,15
28804,14
29324,12
29852,15
30372,14
30900,15
31420,16
31948,16
32468,14
32996,12
33516,11
34044,13
34564,11
35092,10
35612,12
36140,16
36660,21
37188,12
37708,10
38236,14
38760,15
39284,15
39804,15
40332,14
40852,13
41372,13
41892,12
42412,10
42932,11
43452,16
43972,23
44492,20
45012,12
45532,11
46052,16
46572,22
47092,23
47612,28
48140,20
48660,18
49188,19
49708,14
50236,12
50756,10
51284,11
51804,10
52332,9
52792,10
53332,10
53852,10
54380,10
54900,14
55428,13
55948,13
56476,14
56996,14
57524,12
58044,10
58572,10
59092,13
59620,12
60140,10
60668,11
61188,11
61716,10
62236,13
62764,14
63284,19
63812,16
64336,17
64860,16
65380,15
65908,14
66428,12
66956,10
67476,10
67996,12
68516,16
69036,12
69556,12
70076,14
70600,16
71116,11
71640,14
72160,14
72676,14
73196,13
73716,15
74236,15
74764,12
75284,10
75812,11
76336,11
76860,11
77380,11
77908,15
78428,12
78956,14
79480,20
80004,25
80524,23
81052,21
81572,21
82100,17
82620,15
83148,10
83668,10
84196,10
84716,12
85244,13
85764,10
86292,10
86812,11
87340,11
87860,14
88388,15
88908,14
89436,14
89960,13
90484,13
91004,11
91532,12
92052,13
92572,13
93092,13
93612,10
94132,12
94652,18
95172,11
95696,13
96216,14
96732,18
97252,16
97776,16
98292,17
98812,16
99340,14
99860,10
100388,10
100952,11
101536,11
102108,11
102688,13
103256,11
103832,10
104400,15
104976,16
105552,14
106120,13
106696,14
107264,14
107848,14
108416,13
108992,13
109560,13
110128,12
110712,13
111280,19
111864,17
112436,12
113016,13
113584,20
114160,32
114744,32
115312,33
115896,23
116464,14
117048,11
117616,12
118200,13
118768,14
119344,12
119928,11
120500,10
121080,11
121648,15
122232,17
122804,15
123376,14
123960,14
124528,11
125112,11
125684,11
126264,11
126832,11
127416,10
127988,12
128564,15
129144,15
129712,16
130288,19
130856,19
131440,16
132008,16
132584,12
133160,11
133728,11
134304,14
134872,13
135456,11
136024,11
136608,10
137176,13
137752,16
138336,14
138904,14
139488,13
140060,14
140640,13
141208,12
141784,14
142368,11
142940,14
143520,11
144088,11
144672,12
145240,12
145816,16
146384,18
146964,15
147544,19
148112,19
148696,20
149264,19
149848,21
150416,19
150992,16
151576,13
152148,14
152728,14
153300,11
153880,10
154448,10
155032,14
155604,14
156176,15
156760,14
157332,14
157912,10
158484,12
159064,11
159636,13
160212,14
160792,11
161360,12
161944,14
162512,17
163096,17
163668,21
164248,20
164816,17
165384,16
165960,15
166528,11
167112,11
167680,9
168204,12
168776,11
169352,13
169920,17
170496,13
171072,11
171640,18
172224,19
172792,14
173376,14
173944,14
174528,10
175096,11
175672,11
176256,11
176824,11
177408,10
177976,11
178560,17
179128,22
179708,22
180288,18
180856,19
181440,17
182008,17
182592,17
183160,18
183744,19
184316,13
184892,11
185472,14
186040,19
186624,16
187192,11
187776,11
188344,15
188920,14
189504,15
190072,14
190656,15
191228,12
191808,10
192380,11
192960,12
193528,10
194096,11
194680,14
195248,15
195832,18
196404,25
196984,23
197552,15
198132,15
198712,15
199284,11
199864,15
200432,11
201016,10
201584,13
202168,18
202740,18
203316,15
203896,11
204468,10
205048,13
205616,15
206192,17
206760,17
207336,13
207912,13
208480,11
209064,11
209632,13
210208,13
210776,14
211360,13
211928,12
212496,13
213080,16
213648,17
214232,13
214804,14
215384,14
215952,10
216532,13
217112,14
217684,14
218264,13
218832,12
219408,11
219976,11
220560,11
221128,11
221704,14
222288,18
222860,22
223440,16
224012,15
224592,15
225160,11
225744,10
226320,11
226888,11
227472,13
228040,13
228624,14
229192,14
229776,17
230344,17
230924,14
231504,16
232076,16
232656,12
233224,14
233808,15
234376,11
234960,10
235536,12
236104,11
236688,11
237260,11
237840,11
238408,13
238992,13
239564,16
240140,15
240720,15
241288,11
241872,11
242444,11
243024,11
243596,10
244176,10
244752,11
245324,11
245904,12
246472,18
247056,14
247624,16
248208,19
248776,18
249352,15
249936,11
250504,10
251088,11
251656,11
252240,9
252756,10
253336,10
253908,13
254484,14
255064,15
255636,14
256216,14
256792,14
257368,14
257936,11
258512,10
259088,10
259656,12
260240,16
260808,14
261384,11
261952,12
262536,18
263104,26
263680,24
264264,19
264832,22
265416,19
265988,21
266568,13
267136,12
267712,11
268280,10
268856,11
269440,14
270008,13
270584,10
271152,11
271736,13
272308,14
272880,17
273464,16
274032,14
274616,10
275188,10
275768,13
276348,11
276928,16
277496,19
278076,17
278656,11
279228,12
279808,24
280380,28
280960,24
281528,19
282108,15
282688,13
283256,11
283840,11
284412,11
284992,11
285560,10
286144,11
286716,12
287292,10
287872,11
288444,14
289024,13
289592,14
290176,13
290744,12
291320,12
291904,12
292472,10
293056,11
293628,13
294208,11
294780,11
295360,11
295928,12
296508,14
297088,14
297656,15
298240,17
298808,25
299392,24
299964,20
300540,14
301120,10
301692,19
302272,19
302844,11
303424,11
303996,14
304580,18
305160,18
305732,14
306312,14
306884,13
307464,13
308032,11
308616,10
309188,11
309764,12
310344,17
310916,15
311496,12
312068,12
312648,12
313216,18
313800,15
314376,14
314948,14
315528,14
316100,11
316680,11
317260,11
317840,15
318420,11
318996,10
319576,14
320148,18
320728,15
321296,14
321880,13
322448,16
323024,16
323608,14
324176,11
324760,13
325332,14
325912,11
326484,12
327064,11
327636,12
328212,14
328792,15
329360,12
329944,15
330512,22
331096,21
331664,24
332240,26
332824,26
333392,21
333968,11
334536,13
335120,17
335688,19
336272,17
336840,13
337416,10
338000,14
338568,13
339144,15
339716,18
340296,18
340864,13
341448,11
342024,14
342592,11
343176,11
343748,13
344328,12
344896,11
345480,13
346052,18
346624,21
347208,15
347776,15
348360,14
348928,15
349512,12
350080,13
350664,16
351240,15
351812,10
352392,11
352964,12
353544,13
354112,12
354696,12
355268,14
355840,14
356424,14
356996,14
357576,14
358148,13
358728,13
359304,11
359888,11
360464,13
361032,13
361616,13
362184,15
362768,19
363340,21
363920,23
364492,17
365064,15
365648,14
366216,11
366800,10
367368,13
367952,13
368524,11
369104,9
369624,12
370192,15
370776,15
371348,13
371928,13
372496,17
373080,15
373652,16
374228,14
374808,14
375380,10
375960,11
376532,13
377112,13
377684,13
378264,19
378836,24
379412,22
379992,19
380564,14
381144,13
381716,14
382296,19
382868,21
383444,22
384024,21
384596,14
385176,10
385748,10
386328,15
386900,16
387480,13
388052,15
388624,14
389208,13
389776,14
390360,14
390932,12
391512,9
392032,11
392608,11
393180,12
393756,11
394336,11
394908,10
395488,13
396060,14
396640,19
397212,19
397788,18
398368,15
398940,14
399520,11
400092,10
400672,11
401240,13
401824,13
402396,11
402972,10
403552,11
404124,10
404704,13
405276,15
405856,13
406428,15
407000,15
407584,11
408156,12
408736,11
409308,12
409888,11
410464,9
410988,11
411560,15
412128,14
412712,13
413280,19
413864,21
414432,16
415016,13
415584,14
416168,11
416736,16
417304,15
417888,11
418456,11
419040,15
419608,15
420192,10
420760,15
421336,18
421920,17
422488,15
423072,14
423640,16
424224,13
424792,14
425376,10
425944,11
426520,11
427104,11
427676,11
428256,12
428824,11
429408,11
429980,18
430556,22
431136,24
431708,24
432288,24
432856,24
433440,17
434008,15
434592,9
435112,10
435684,11
436264,15
436832,18
437416,23
437988,24
438568,19
439136,15
439720,13
440292,16
440868,15
441448,18
442020,17
442600,13
443168,11
443752,10
444324,11
444900,11
445480,13
446052,14
446632,19
447204,17
447784,13
448356,13
448936,15
449504,15
450084,13
450664,14
451232,14
451816,11
452388,11
452968,11
453536,13
454116,11
454696,14
455268,15
455848,14
456416,15
457000,14
457568,11
458152,10
458724,11
459300,10
459880,10
460452,11
461032,12
461608,11
462192,15
462760,13
463336,14
463920,14
464492,16
465072,16
465644,17
466224,18
466796,14
467376,9
467896,10
468468,12
469048,15
469620,15
470200,11
470772,11
471352,13
471932,15
472512,16
473096,15
473668,14
474248,12
474816,11
475400,10
475972,10
476552,11
477132,11
477708,10
478288,11
478860,14
479440,14
480012,15
480592,14
481164,15
481744,13
482320,12
482892,10
483472,13
484044,10
484624,12
485196,13
485776,9
486296,9
486816,13
487384,15
487960,13
488544,14
489116,14
489696,13
490264,14
490848,11
491420,11
491996,10
492576,10
493148,11
493728,16
494300,18
494880,16
495448,18
496032,21
496600,22
497180,18
497760,14
498332,15
498912,13
499484,11
500064,9
500584,11
501160,9
501680,12
502252,15
502832,14
503404,10
503984,11
504556,13
505136,13
505708,15
506288,16
506860,14
507436,11
508016,11
508588,10
509168,9
509688,10
510264,13
510836,12
511416,12
511996,11
512576,17
513152,21
513720,19
514304,19
514872,16
515456,13
516024,11
516600,14
517184,13
517752,11
518336,11
518908,10
519488,13
520060,13
520640,12
521208,11
521784,14
522368,14
522936,15
523520,14
524088,12
524672,10
525244,14
525816,11
526400,11
526968,11
527552,15
528124,13
528704,12
529272,12
529856,16
530428,16
531004,15
531584,16
532156,18
532736,17
533308,11
533888,9
534408,9
534932,10
535508,10
536084,10
536664,14
537236,16
537816,9
538332,13
538912,13
539480,14
540064,13
540636,14
541212,11
541792,11
542364,11
542944,11
543524,10
544104,9
544620,11
545200,15
545772,18
546344,19
546928,17
547500,15
548080,14
548648,14
549232,14
549804,12
550380,10
550960,10
551532,12
552112,18
552684,21
553264,16
553836,11
554416,15
554988,13
555564,14
556144,14
556716,15
557296,19
557876,22
558456,15
559036,15
559612,28
560192,26
560764,18
561344,17
561916,17
562496,18
563076,19
563656,22
564240,18
564808,18
565392,16
565964,11
566544,10
567116,11
567696,9
568216,11
568788,10
569368,10
569940,10
570520,10
571092,10
571672,14
572252,14
572832,13
573404,14
573980,12
574560,11
575132,11
575712,10
576284,10
576864,10
577432,11
578012,11
578592,11
579160,18
579744,22
580316,19
580896,16
581468,16
582048,14
582620,11
583196,10
583776,10
584348,13
584928,13
585500,13
586080,11
586660,10
587236,11
587816,13
588388,14
588968,15
589540,15
590120,15
590692,11
591272,10
591852,11
592428,12
593008,13
593580,10
594160,11
594740,11
595320,11
595892,12
596468,15
597048,15
597620,20
598200,18
598772,15
599352,12
599932,12
600512,10
601096,11
601668,12
602248,11
602820,11
603400,11
603980,10
604560,11
605140,14
605716,13
606296,14
606872,15
607448,15
608028,12
608608,11
609180,12
609756,10
610336,11
610908,11
611488,15
612060,15
612640,17
613220,17
613800,14
614380,14
614956,14
615536,14
616108,11
616688,10
617256,10
617840,11
618412,10
618988,11
619568,11
620140,11
620720,10
621292,13
621872,13
622444,14
623024,15
623596,15
624172,15
624752,13
625324,12
625904,11
626476,10
627056,12
627636,16
628212,12
628792,11
629364,14
629944,16
630516,19
631096,27
631676,24
632256,16
632840,10
633412,10
633992,10
634568,10
635144,12
635724,12
636304,12
636884,12
637460,16
638040,18
638612,15
639192,14
639772,14
640356,14
640928,11
641504,11
642088,11
642656,11
643240,12
643808,11
644392,13
644964,19
645544,21
646116,18
646692,17
647272,15
647844,15
648424,14
648992,14
649576,12
650148,13
650724,10
651304,11
651876,14
652456,17
653028,20
653608,19
654180,12
654760,19
655332,22
655908,17
656488,14
657056,14
657632,12
658200,14
658784,10
659352,13
659928,11
660512,11
661080,12
661664,19
662232,19
662816,21
663384,22
663968,20
664540,15
665116,15
665696,12
666264,16
666840,15
667408,11
667992,9
668512,15
669088,19
669656,13
670232,10
670816,11
671384,15
671968,13
672540,14
673120,14
673688,14
674264,10
674848,11
675420,11
676000,11
676568,13
677144,14
677712,12
678296,13
678868,13
679440,12
680024,16
680592,15
681176,14
681744,14
682328,16
682896,15
683472,11
684056,10
684628,10
685208,10
685776,11
686360,10
686932,11
687512,10
688084,13
688656,14
689240,14
689812,15
690392,13
690964,11
691544,13
692112,12
692692,12
693272,12
693844,11
694424,11
694992,11
695576,13
696148,16
696728,16
697296,16
697872,17
698456,15
699028,11
699608,9
700128,10
700704,11
701276,10
701856,18
702436,15
703012,10
703592,14
704168,13
704744,15
705316,15
705896,13
706468,14
707044,14
707624,11
708196,13
708776,13
709348,13
709928,11
710500,11
711080,11
711652,13
712228,12
712808,12
713380,15
713960,15
714540,14
715120,15
715700,12
716276,11
716856,11
717428,12
718008,10
718580,11
719160,10
719732,11
720312,12
720884,11
721456,16
722040,16
722608,16
723192,13
723764,15
724344,10
724916,11
725492,16
726072,19
726644,13
727224,10
727796,11
728376,11
728948,20
729528,28
730100,19
730676,14
731256,14
731828,15
732408,13
732988,11
733568,10
734140,13
734716,15
735300,15
735872,10
736452,10
737020,12
737600,16
738176,14
738760,13
739336,15
739908,14
740488,15
741056,10
741640,14
742212,14
742792,15
743372,13
743948,11
744528,12
745100,17
745680,21
746248,22
746832,22
747404,19
747984,16
748568,15
749140,14
749720,12
750292,10
750872,14
751452,11
752032,11
752612,10
753188,12
753768,10
754340,12
754920,14
755500,15
756080,14
756660,16
757236,14
757816,11
758388,12
758968,11
759540,12
760120,15
760700,13
761280,11
761864,12
762436,18
763016,26
763588,26
764168,22
764748,20
765328,18
765908,12
766484,11
767064,10
767636,10
768220,10
768792,11
769376,10
769944,11
770520,11
771104,10
771676,13
772256,17
772828,19
773408,17
773980,12
774560,11
775140,13
775716,14
776296,12
776868,11
777448,9
777968,10
778544,14
779124,13
779704,17
780276,20
780852,18
781432,15
782004,14
782584,12
783156,11
783736,11
784316,14
784892,14
785472,13
786044,10
786624,10
787196,10
787780,12
788356,13
788936,16
789520,14
790092,14
790672,11
791244,10
791824,11
792404,11
792984,9
793504,10
794076,10
794656,11
795228,11
795808,16
796380,22
796960,20
797540,17
798120,16
798700,15
799276,14
799856,13
800432,13
801008,10
801576,11
802160,10
802732,11
803308,11
803888,10
804456,11
805040,14
805612,14
806192,15
806764,14
807344,11
807916,11
808492,11
809072,12
809644,10
810224,15
810796,12
811376,15
811956,14
812532,11
813112,14
813684,13
814264,14
814836,15
815416,14
815996,11
816580,12
817160,10
817732,10
818312,11
818888,12
819464,13
820040,12
820616,12
821184,14
821760,14
822344,14
822912,15
823496,14
824064,11
824648,10
825216,10
825800,10
826376,11
826944,14
827528,22
828096,20
828680,11
829252,15
829832,24
830400,31
830976,33
831560,25
832132,22
832712,17
833280,12
833864,10
834432,11
835016,13
835592,16
836164,18
836744,15
837316,10
837896,13
838468,13
839048,13
839616,14
840196,14
840776,11
841344,11
841928,11
842496,12
843080,13
843652,15
844232,15
844808,15
845376,11
845952,11
846524,14
847104,13
847676,14
848256,15
848824,14
849400,11
849984,11
850552,10
851136,10
851708,10
852288,9
852808,10
853384,10
853956,11
854532,12
855112,11
855684,14
856264,14
856836,14
857416,11
857988,11
858568,11
859144,10
859716,12
860296,11
860868,11
861448,13
862016,16
862600,18
863172,22
863748,23
864328,20
864896,17
865480,14
866048,13
866632,13
867204,11
867784,11
868360,13
868932,11
869512,16
870084,13
870664,11
871240,14
871824,14
872396,14
872972,14
873552,14
874124,10
874704,10
875276,10
875856,10
876428,11
877008,12
877584,13
878156,11
878736,12
879308,19
879888,24
880468,24
881048,20
881616,18
882192,15
882776,14
883348,16
883928,15
884500,12
885080,10
885652,14
886228,13
886808,11
887380,12
887960,13
888532,14
889112,13
889684,14
890264,15
890836,13
891412,13
891992,14
892564,10
893144,11
893724,11
894304,11
894884,11
895460,13
896040,15
896612,21
897192,19
897764,21
898344,21
898916,18
899496,13
900068,11
900644,11
901224,13
901792,13
902376,15
902948,20
903528,19
904100,11
904676,15
905256,15
905828,14
906408,15
906976,17
907560,12
908132,10
908712,11
909292,11
909868,11
910448,11
911020,11
911600,11
912180,13
912760,20
913332,24
913908,22
914488,16
915060,16
915640,15
916212,14
916792,13
917364,11
917944,11
918524,10
919100,10
919680,14
920252,13
920832,11
921412,13
921996,14
922572,14
923148,15
923728,14
924300,12
924880,11
925448,11
926032,11
926604,11
927184,13
927760,14
928332,12
928912,16
929484,14
930064,17
930636,19
931216,19
931788,18
932364,15
932944,12
933516,10
934096,11
934676,11
935256,9
935776,10
936352,11
936932,10
937508,12
938088,16
938660,13
939240,15
939820,19
940400,18
940980,15
941556,14
942136,11
942708,10
943288,10
943860,11
944440,15
945020,17
945600,19
946172,21
946748,24
947328,19
947900,15
948480,14
949052,12
949632,11
950212,10
950788,10
951368,11
951940,11
952524,12
953096,15
953672,13
954252,12
954832,17
955416,17
955992,15
956572,14
957144,13
957720,10
958300,11
958884,11
959460,11
960036,11
960616,11
961188,15
961768,14
962340,17
962920,17
963488,15
964068,14
964648,16
965220,15
965800,11
966372,11
966952,14
967532,12
968112,10
968692,10
969268,12
969848,15
970420,13
971000,12
971572,13
972152,14
972732,14
973308,14
973888,11
974460,11
975040,10
975612,11
976192,11
976772,12
977352,15
977928,14
978500,15
979080,15
979652,20
980232,19
980804,15
981384,13
981956,15
982532,13
983112,13
983684,10
984264,10
984836,14
985416,16
985988,20
986568,17
987144,13
987716,11
988296,14
988868,15
989448,15
990020,15
990600,11
991180,10
991756,11
992336,11
992908,13
993488,9
994008,11
994584,11
995156,11
995736,13
996316,17
996892,16
997472,15
998044,15
998624,16
999204,16
999784,17
1000356,14
1000976,11
1001604,13
1002220,14
1002852,11
1003476,11
1004100,11
1004728,13
1005344,16
1005976,20
1006604,17
1007224,14
1007852,12
1008476,11
1009104,17
1009736,26
1010352,26
1010980,20
1011604,13
1012228,13
1012860,17
1013480,21
1014108,20
1014732,17
1015356,15
1015984,12
1016608,12
1017236,10
1017868,10
1018488,11
1019116,11
1019740,12
1020372,11
1021000,11
1021620,15
1022248,19
1022872,15
1023496,15
1024128,10
1024740,12
1025368,15
1025988,14
1026612,11
1027240,11
1027852,11
1028480,11
1029104,14
1029724,17
1030356,17
1030976,17
1031604,18
1032236,14
1032856,11
1033484,11
1034104,11
1034736,11
1035364,10
1035984,11
1036612,11
1037236,10
1037856,13
1038484,13
1039104,14
1039732,14
1040356,13
1040976,11
1041604,10
1042220,11
1042852,10
1043480,11
1044096,11
1044724,14
1045344,16
1045976,18
1046604,18
1047220,19
1047852,18
1048472,17
1049096,12
1049724,10
1050340,11
1050968,12
1051592,17
1052216,13
1052844,12
1053460,11
1054092,11
1054712,14
1055336,13
1055968,14
1056588,14
1057220,11
1057848,11
1058464,11
1059092,11
1059716,11
1060344,11
1060972,11
1061592,16
1062220,17
1062844,27
1063468,28
1064096,17
1064712,17
1065340,15
1065964,14
1066584,12
1067216,10
1067832,11
1068460,10
1069088,13
1069704,16
1070336,14
1070956,11
1071588,13
1072216,14
1072832,13
1073464,13
1074084,11
1074708,12
1075340,10
1075956,11
1076588,11
1077208,11
1077828,11
1078460,10
1079080,15
1079708,18
1080336,16
1080952,18
1081580,18
1082204,17
1082832,14
1083464,10
1084080,11
1084708,12
1085332,13
1085956,11
1086588,10
1087208,10
1087836,11
1088460,13
1089080,13
1089712,13
1090328,13
1090956,11
1091580,11
1092208,11
1092836,11
1093460,12
1094088,13
1094716,18
1095336,15
1095964,13
1096588,13
1097216,13
1097848,16
1098464,15
1099092,15
1099716,16
1100340,11
1100972,11
1101592,10
1102220,10
1102844,11
1103472,11
1104100,12
1104724,13
1105352,14
1105984,17
1106600,18
1107228,13
1107852,11
1108480,11
1109108,10
1109728,11
1110356,11
1110980,12
1111604,11
1112236,12
1112856,23
1113484,21
1114108,20
1114736,18
1115364,16
1115988,12
1116620,10
1117248,9
1117820,10
1118452,10
1119076,11
1119708,13
1120340,10
1120960,11
1121588,16
1122212,17
1122836,14
1123464,14
1124080,14
1124712,13
1125336,11
1125960,11
1126588,10
1127204,11
1127832,11
1128464,11
1129080,12
1129708,19
1130332,17
1130960,17
1131588,14
1132208,19
1132836,19
1133460,11
1134084,10
1134716,12
1135336,13
1135964,13
1136592,11
1137216,12
1137844,12
1138464,14
1139092,14
1139724,12
1140344,15
1140972,17
1141596,18
1142228,14
1142856,11
1143476,11
1144104,15
1144728,19
1145352,17
1145980,15
1146600,19
1147228,17
1147852,15
1148476,20
1149104,21
1149724,16
1150352,12
1150980,10
1151600,13
1152228,13
1152852,11
1153480,11
1154108,14
1154728,15
1155356,14
1155980,13
1156608,14
1157236,11
1157856,11
1158484,12
1159104,14
1159728,15
1160360,12
1160976,11
1161604,11
1162228,12
1162848,24
1163480,27
1164104,19
1164732,14
1165364,12
1165984,10
1166612,13
1167236,11
1167868,11
1168496,10
1169112,11
1169740,12
1170364,11
1170988,13
1171616,14
1172240,16
1172868,16
1173492,14
1174116,10
1174744,12
1175368,14
1175996,15
1176628,14
1177248,15
1177876,11
1178500,13
1179132,19
1179760,26
1180376,21
1181008,15
1181632,15
1182252,11
1182884,11
1183504,11
1184132,13
1184756,11
1185380,11
1186012,12
1186632,11
1187264,11
1187892,14
1188512,13
1189140,14
1189764,14
1190392,14
1191024,11
1191640,14
1192268,15
1192892,13
1193516,13
1194148,11
1194768,12
1195396,11
1196020,19
1196644,16
1197276,14
1197900,14
1198532,15
1199160,15
1199784,13
1200412,11
1201036,12
1201668,11
1202296,10
1202912,11
1203544,11
1204168,11
1204788,14
1205420,15
1206040,15
1206668,15
1207292,14
1207920,12
1208548,13
1209172,11
1209804,10
1210432,11
1211048,11
1211676,11
1212300,11
1212932,15
1213560,14
1214184,13
1214812,15
1215436,24
1216060,25
1216692,16
1217312,12
1217940,9
1218512,9
1219084,10
1219716,14
1220336,14
1220964,12
1221588,14
1222212,14
1222844,14
1223464,15
1224092,11
1224724,10
1225344,11
1225972,13
1226596,11
1227228,11
1227856,12
1228480,18
1229108,16
1229732,15
1230356,17
1230984,15
1231600,14
1232232,12
1232852,13
1233476,11
1234104,10
1234728,11
1235356,10
1235984,11
1236604,13
1237232,11
1237856,14
1238484,13
1239112,15
1239736,15
1240364,13
1240988,10
1241612,14
1242240,12
1242856,11
1243484,12
1244108,11
1244732,14
1245360,18
1245984,17
1246612,18
1247244,14
1247864,13
1248492,14
1249116,12
1249748,11
1250376,10
1250992,10
1251624,13
1252248,13
1252872,11
1253500,11
1254120,13
1254748,17
1255372,19
1255996,15
1256628,14
1257248,14
1257876,11
1258508,10
1259128,11
1259756,11
1260380,11
1261012,11
1261640,12
1262264,15
1262892,17
1263516,15
1264140,15
1264772,14
1265392,13
1266020,13
1266644,12
1267268,10
1267900,10
1268520,13
1269148,13
1269780,10
1270400,11
1271028,13
1271652,14
1272284,14
1272912,17
1273532,14
1274160,11
1274784,11
1275412,11
1276040,10
1276664,11
1277292,11
1277920,15
1278544,13
1279172,10
1279792,14
1280424,16
1281052,15
1281668,14
1282296,14
1282920,11
1283548,10
1284176,10
1284792,11
1285420,12
1286044,15
1286668,12
1287296,10
1287912,16
1288540,13
1289164,14
1289784,14
1290416,12
1291032,12
1291660,11
1292284,11
1292904,10
1293532,11
1294156,14
1294784,15
1295412,16
1296032,17
1296660,20
1297280,15
1297908,15
1298540,15
1299160,11
1299788,11
1300412,12
1301036,12
1301664,10
1302288,11
1302916,11
1303540,13
1304164,11
1304792,13
1305420,14
1306048,14
1306676,14
1307296,13
1307924,11
1308548,10
1309180,10
1309808,13
1310424,11
1311056,12
1311676,13
1312300,13
1312928,16
1313548,17
1314180,17
1314800,16
1315420,14
1316052,16
1316672,13
1317300,10
1317928,10
1318544,10
1319172,11
1319796,12
1320424,11
1321056,13
1321668,13
1322296,14
1322920,14
1323540,13
1324172,10
1324792,11
1325420,10
1326044,12
1326668,20
1327296,15
1327912,14
1328540,13
1329172,12
1329792,18
1330420,14
1331044,13
1331672,14
1332300,11
1332916,15
1333548,13
1334168,10
1334792,12
1335420,12
1336040,11
1336668,10
1337288,11
1337908,13
1338540,14
1339160,16
1339788,14
1340412,12
1341040,12
1341668,12
1342288,12
1342920,11
1343548,10
1344168,11
1344796,11
1345416,11
1346048,14
1346676,15
1347292,18
1347924,17
1348544,15
1349168,10
1349796,10
1350416,13
1351044,14
1351668,10
1352288,13
1352920,16
1353540,16
1354172,12
1354800,13
1355416,14
1356044,14
1356668,13
1357296,10
1357924,11
1358544,11
1359172,11
1359796,12
1360420,11
1361048,11
1361664,13
1362292,14
1362912,21
1363536,17
1364164,14
1364780,15
1365412,11
1366040,12
1366656,11
1367288,13
1367908,11
1368540,10
1369168,10
1369784,10
1370412,11
1371036,13
1371660,13
1372288,14
1372912,13
1373540,14
1374164,11
1374784,15
1375416,14
1376032,14
1376660,13
1377288,13
1377904,12
1378532,12
1379156,13
1379788,16
1380416,14
1381036,14
1381664,15
1382288,11
1382916,11
1383548,10
1384168,11
1384796,11
1385420,9
1385992,10
1386620,11
1387240,13
1387868,15
1388492,13
1389116,16
1389744,17
1390364,12
1390992,11
1391620,10
1392240,11
1392868,11
1393492,11
1394120,11
1394748,11
1395368,14
1395996,19
1396620,21
1397248,19
1397876,18
1398496,20
1399124,17
1399748,12
1400372,10
1401000,15
1401616,15
1402244,13
1402868,12
1403492,10
1404120,11
1404744,13
1405372,14
1406004,14
1406624,16
1407252,15
1407876,11
1408508,10
1409136,11
1409752,19
1410384,17
1411004,13
1411628,10
1412260,16
1412880,25
1413508,26
1414132,20
1414756,19
1415384,15
1416008,10
1416636,11
1417264,10
1417880,10
1418512,10
1419132,11
1419764,12
1420392,10
1421016,13
1421644,13
1422268,14
1422892,14
1423520,13
1424140,11
1424768,13
1425392,14
1426016,13
1426644,10
1427268,12
1427896,13
1428524,14
1429144,16
1429772,17
1430396,17
1431028,17
1431660,14
1432280,11
1432908,9
1433484,9
1434068,10
1434700,10
1435320,12
1435948,16
1436572,17
1437196,15
1437824,14
1438440,14
1439072,15
1439696,18
1440316,16
1440948,11
1441568,11
1442196,11
1442824,12
1443440,12
1444068,13
1444692,19
1445320,24
1445948,22
1446568,19
1447196,14
1447820,14
1448448,13
1449076,14
1449696,12
1450324,11
1450944,10
1451568,10
1452200,11
1452816,12
1453444,10
1454068,11
1454692,13
1455320,17
1455944,18
1456572,15
1457204,14
1457824,18
1458452,16
1459076,14
1459708,11
1460336,23
1460952,31
1461580,30
1462204,25
1462828,21
1463456,15
1464080,14
1464708,15
1465332,12
1465956,11
1466584,12
1467208,15
1467836,15
1468468,14
1469088,11
1469716,11
1470340,15
1470972,18
1471604,15
1472224,15
1472852,15
1473476,14
1474100,11
1474728,10
1475352,11
1475980,10
1476604,10
1477224,11
1477856,11
1478476,12
1479108,17
1479736,19
1480352,18
1480984,17
1481604,15
1482232,13
1482864,10
1483480,13
1484108,15
1484732,15
1485356,11
1485988,10
1486608,14
1487236,11
1487860,13
1488484,14
1489112,13
1489732,16
1490364,15
1490992,10
1491612,13
1492240,17
1492864,15
1493492,11
1494120,10
1494744,12
1495372,14
1495996,25
1496620,25
1497252,22
1497872,17
1498500,17
1499124,15
1499748,12
1500376,10
1501000,9
1501580,11
1502212,10
1502832,11
1503460,10
1504084,13
1504716,15
1505344,14
1505960,16
1506592,17
1507216,18
1507844,17
1508472,10
1509096,12
1509728,11
1510352,13
1510976,13
1511604,16
1512224,17
1512852,18
1513484,18
1514104,18
1514732,17
1515360,16
1515988,14
1516620,10
1517240,12
1517868,11
1518492,11
1519116,11
1519748,11
1520368,11
1520996,13
1521620,15
1522244,14
1522872,14
1523496,14
1524124,12
1524756,16
1525376,15
1526004,11
1526628,11
1527260,11
1527888,14
1528512,19
1529140,17
1529764,14
1530388,15
1531020,16
1531640,19
1532268,16
1532896,14
1533520,15
1534148,13
1534768,12
1535400,11
1536028,11
1536644,15
1537272,13
1537896,15
1538524,15
1539152,14
1539776,16
1540404,15
1541028,13
1541652,11
1542280,11
1542900,11
1543528,14
1544152,18
1544776,23
1545404,22
1546024,16
1546652,14
1547284,14
1547904,15
1548532,15
1549156,14
1549788,17
1550416,21
1551032,16
1551664,12
1552288,11
1552908,14
1553540,12
1554160,14
1554788,15
1555412,15
1556036,14
1556668,14
1557288,11
1557916,11
1558544,13
1559168,11
1559796,10
1560420,11
1561052,14
1561680,16
1562296,13
1562924,14
1563548,14
1564172,15
1564800,17
1565416,12
1566044,10
1566668,10
1567292,10
1567924,10
1568544,13
1569172,14
1569804,11
1570424,11
1571052,15
1571676,16
1572308,14
1572936,14
1573560,14
1574188,12
1574816,14
1575436,16
1576068,14
1576688,14
1577316,11
1577940,11
1578564,11
1579196,12
1579816,15
1580444,15
1581076,16
1581696,17
1582324,16
1582948,14
1583580,11
1584212,12
1584832,12
1585460,13
1586084,17
1586708,13
1587340,10
1587960,13
1588588,13
1589212,14
1589836,15
1590468,15
1591088,26
1591716,17
1592348,10
1592968,17
1593596,21
1594224,19
1594852,27
1595484,28
1596104,28
1596736,21
1597360,17
1597984,17
1598616,12
1599232,11
1599864,11
1600488,13
1601108,13
1601736,10
1602360,11
1602988,10
1603616,10
1604232,13
1604860,13
1605484,13
1606112,15
1606740,14
1607360,11
1607988,10
1608612,11
1609232,11
1609864,16
1610480,11
1611108,13
1611732,13
1612356,15
1612984,18
1613604,16
1614236,16
1614864,18
1615480,18
1616112,15
1616736,12
1617364,10
1617992,11
1618616,11
1619244,10
1619868,12
1620488,11
1621116,14
1621736,16
1622364,13
1622988,14
1623612,13
1624244,10
1624864,14
1625492,14
1626124,10
1626744,11
1627372,13
1627996,14
1628628,16
1629256,18
1629880,17
1630508,15
1631132,14
1631756,16
1632388,16
1633008,15
1633636,11
1634260,12
1634884,11
1635512,10
1636136,17
1636764,19
1637396,19
1638016,14
1638648,13
1639268,14
1639896,15
1640524,10
1641140,11
1641768,11
1642388,11
1643012,11
1643640,15
1644256,13
1644884,12
1645504,15
1646124,22
1646752,19
1647372,17
1648000,16
1648624,15
1649248,11
1649876,11
1650496,11
1651124,11
1651752,15
1652376,22
1653004,25
1653624,10
1654256,16
1654884,14
1655500,15
1656132,14
1656756,14
1657376,11
1658004,10
1658624,17
1659252,19
1659872,12
1660496,11
1661124,10
1661744,11
1662372,17
1663000,18
1663624,17
1664252,16
1664872,17
1665500,14
1666128,13
1666748,13
1667376,10
1668000,11
1668620,12
1669248,13
1669868,10
1670500,10
1671120,15
1671740,13
1672372,13
1672992,16
1673620,15
1674248,11
1674864,11
1675492,11
1676116,11
1676744,10
1677372,10
1677992,17
1678620,20
1679244,21
1679872,21
1680500,19
1681116,16
1681748,14
1682368,11
1682988,10
1683620,11
1684236,16
1684868,16
1685488,17
1686108,21
1686740,11
1687360,14
1687988,14
1688616,13
1689240,14
1689868,15
1690492,10
1691120,11
1691748,11
1692368,12
1692996,11
1693616,15
1694240,15
1694868,12
1695488,11
1696116,14
1696736,16
1697360,17
1697988,18
1698608,18
1699236,11
1699864,10
1700480,11
1701108,11
1701732,11
1702360,10
1702988,14
1703608,11
1704236,13
1704860,16
1705480,19
1706112,15
1706728,15
1707356,10
1707980,13
1708604,14
1709236,12
1709856,11
1710484,11
1711112,14
1711736,16
1712364,21
1712988,26
1713616,21
1714248,14
1714864,14
1715492,10
1716116,11
1716740,12
1717372,10
1717992,11
1718620,10
1719244,10
1719868,10
1720500,10
1721116,13
1721748,14
1722376,14
1722992,14
1723624,12
1724244,11
1724876,13
1725504,10
1726120,11
1726748,10
1727372,13
1728000,12
1728628,15
1729248,25
1729876,22
1730500,16
1731120,16
1731752,17
1732368,15
1733000,17
1733624,11
1734244,10
1734876,10
1735500,10
1736128,13
1736756,12
1737376,12
1738004,13
1738628,16
1739260,14
1739888,14
1740504,11
1741136,11
1741756,10
1742380,10
1743012,10
1743632,14
1744260,17
1744884,15
1745508,15
1746136,19
1746760,19
1747388,18
1748016,16
1748632,12
1749264,11
1749888,11
1750516,10
1751144,10
1751768,11
1752396,14
1753020,15
1753644,13
1754272,13
1754892,15
1755520,17
1756144,15
1756768,22
1757396,22
1758020,15
1758652,11
1759284,10
1759904,16
1760536,14
1761156,18
1761788,19
1762416,21
1763032,21
1763664,16
1764284,15
1764908,14
1765536,10
1766160,11
1766788,10
1767412,10
1768036,12
1768664,12
1769284,10
1769916,11
1770544,10
1771160,13
1771792,13
1772416,15
1773044,15
1773672,14
1774296,13
1774924,11
1775548,13
1776172,14
1776800,10
1777424,13
1778052,12
1778676,13
1779300,19
1779928,23
1780552,22
1781180,21
1781812,16
1782432,11
1783060,10
1783684,11
1784312,13
1784940,13
1785560,11
1786188,10
1786812,11
1787436,13
1788068,12
1788688,14
1789316,14
1789944,15
1790568,11
1791196,11
1791824,11
1792456,10
1793084,12
1793704,11
1794332,11
1794956,11
1795584,13
1796212,17
1796832,20
1797460,16
1798084,15
1798708,10
1799336,10
1799956,10
1800584,11
1801208,10
1801832,11
1802460,11
1803080,15
1803712,13
1804340,14
1804960,15
1805588,14
1806208,14
1806840,13
1807468,10
1808088,10
1808716,10
1809336,10
1809960,11
1810588,11
1811208,13
1811836,13
1812460,17
1813084,17
1813712,16
1814328,16
1814960,15
1815588,14
1816208,15
1816836,12
1817460,10
1818092,10
1818720,10
1819336,13
1819964,13
1820588,15
1821212,17
1821840,16
1822464,15
1823092,16
1823716,13
1824340,11
1824968,10
1825584,10
1826216,11
1826844,11
1827464,12
1828092,14
1828716,17
1829344,22
1829976,18
1830592,18
1831224,16
1831844,13
1832468,11
1833100,10
1833720,10
1834348,11
1834972,11
1835596,11
1836228,14
1836848,15
1837476,13
1838108,12
1838728,15
1839356,17
1839984,17
1840612,12
1841244,18
1841864,15
1842492,11
1843116,11
1843744,11
1844372,10
1844992,12
1845620,12
1846244,13
1846864,14
1847492,14
1848112,17
1848740,21
1849368,17
1849988,11
1850616,11
1851240,11
1851868,11
1852496,11
1853116,11
1853744,14
1854368,16
1854992,14
1855620,14
1856240,15
1856868,14
1857492,15
1858112,14
1858744,10
1859360,17
1859988,13
1860620,11
1861240,17
1861868,21
1862492,23
1863120,23
1863752,22
1864368,21
1864996,15
1865620,11
1866244,11
1866872,11
1867496,13
1868124,13
1868748,14
1869372,11
1870004,14
1870624,14
1871252,13
1871884,14
1872504,14
1873132,14
1873756,12
1874388,11
1875016,10
1875640,13
1876268,11
1876892,10
1877516,11
1878148,12
1878768,16
1879396,18
1880020,18
1880644,17
1881276,14
1881896,12
1882524,14
1883156,16
1883776,14
1884404,11
1885028,19
1885660,16
1886288,14
1886904,10
1887536,14
1888160,13
1888780,15
1889412,16
1890032,15
1890660,11
1891284,10
1891908,11
1892536,10
1893160,12
1893788,13
1894420,16
1895040,17
1895668,18
1896292,21
1896920,17
1897548,13
1898168,15
1898796,12
1899420,10
1900044,11
1900676,18
1901296,21
1901924,13
1902552,10
1903176,11
1903804,10
1904424,14
1905052,14
1905684,14
1906304,14
1906932,13
1907556,14
1908188,11
1908816,10
1909440,11
1910068,11
1910692,12
1911316,14
1911948,18
1912568,28
1913196,25
1913824,19
1914448,16
1915076,13
1915696,12
1916324,11
1916956,12
1917576,13
1918208,15
1918832,14
1919464,11
1920096,12
1920708,12
1921340,14
1921960,17
1922584,14
1923216,14
1923832,13
1924460,14
1925084,11
1925708,11
1926336,11
1926960,11
1927588,12
1928220,12
1928840,14
1929468,22
1930092,23
1930720,24
1931348,21
1931968,16
1932596,12
1933224,10
1933844,13
1934476,14
1935096,13
1935724,14
1936348,18
1936972,13
1937604,14
1938224,14
1938852,15
1939484,14
1940104,14
1940732,12
1941356,12
1941988,10
1942620,10
1943240,13
1943868,11
1944492,17
1945116,16
1945748,18
1946368,21
1946996,15
1947620,14
1948244,21
1948872,15
1949488,10
1950120,10
1950748,10
1951368,11
1951996,11
1952624,15
1953252,19
1953884,14
1954504,14
1955132,15
1955760,17
1956384,20
1957012,18
1957632,16
1958260,12
1958888,13
1959508,12
1960140,10
1960760,13
1961388,16
1962020,20
1962640,22
1963268,19
1963892,16
1964524,15
1965156,12
1965776,11
1966404,11
1967028,11
1967652,10
1968280,11
1968896,11
1969528,13
1970148,14
1970772,17
1971404,14
1972024,15
1972652,16
1973280,14
1973896,10
1974528,11
1975152,11
1975780,12
1976412,11
1977032,11
1977660,12
1978284,11
1978908,11
1979536,14
1980152,14
1980784,14
1981408,18
1982032,22
1982660,19
1983280,17
1983908,13
1984540,11
1985160,13
1985788,15
1986412,11
1987040,11
1987672,14
1988288,15
1988916,14
1989540,14
1990164,12
1990796,10
1991416,11
1992044,11
1992668,11
1993292,11
1993924,10
1994544,12
1995172,15
1995804,18
1996424,17
1997052,16
1997676,15
1998308,15
1998936,14
1999556,13
2000184,11
2000804,10
2001428,10
2002056,12
2002680,14
2003308,13
2003932,12
2004556,14
2005184,14
2005800,14
2006428,13
2007060,10
2007680,10
2008308,10
2008932,11
2009560,15
2010188,19
2010808,18
2011436,15
2012060,15
2012684,17
2013316,16
2013936,15
2014564,15
2015188,15
2015812,11
2016444,10
2017064,10
2017692,11
2018320,10
2018944,16
2019572,12
2020196,13
2020828,13
2021456,14
2022076,14
2022704,16
2023328,23
2023952,15
2024580,12
2025200,11
2025828,11
2026452,10
2027076,12
2027708,10
2028328,16
2028956,21
2029588,21
2030208,20
2030836,19
2031460,19
2032092,17
2032720,14
2033344,11
2033972,15
2034596,17
2035224,13
2035852,10
2036472,11
2037104,11
2037728,16
2038352,19
2038984,20
2039600,18
2040232,15
2040864,11
2041480,13
2042112,13
2042736,13
2043364,11
2043996,14
2044616,19
2045248,21
2045872,24
2046496,18
2047128,17
2047744,16
2048376,15
2048996,11
2049616,11
2050244,11
2050860,11
2051488,13
2052116,10
2052732,11
2053364,10
2053984,13
2054612,15
2055240,14
2055856,15
2056484,14
2057104,10
2057732,11
2058360,11
2058980,11
2059612,11
2060232,15
2060856,13
2061480,11
2062100,11
2062732,16
2063352,15
2063976,13
2064604,15
2065228,17
2065856,15
2066484,10
2067104,11
2067732,12
2068356,13
2068984,17
2069612,12
2070232,10
2070860,13
2071484,13
2072108,13
2072736,14
2073352,16
2073980,13
2074604,11
2075228,11
2075856,13
2076472,17
2077100,12
2077732,10
2078352,11
2078980,14
2079604,15
2080232,15
2080864,17
2081480,20
2082108,18
2082728,11
2083348,13
2083980,12
2084600,11
2085228,11
2085848,11
2086472,11
2087100,11
2087720,15
2088348,14
2088976,14
2089592,13
2090220,12
2090844,11
2091472,11
2092100,11
2092720,12
2093348,11
2093972,12
2094596,13
2095228,11
2095848,18
2096476,17
2097100,14
2097724,14
2098352,16
2098968,21
2099600,21
2100220,18
2100848,13
2101476,10
2102096,12
2102728,12
2103356,10
2103976,12
2104604,14
2105228,15
2105860,14
2106488,14
2107104,11
2107732,10
2108356,11
2108980,11
2109612,10
2110232,11
2110860,12
2111484,11
2112112,11
2112740,18
2113364,18
2113992,19
2114620,18
2115240,15
2115868,12
2116492,11
2117120,11
2117748,10
2118368,12
2118996,11
2119620,10
2120244,11
2120876,14
2121496,17
2122124,16
2122748,14
2123376,14
2124004,14
2124628,11
2125260,11
2125888,11
2126504,11
2127136,12
2127760,11
2128388,11
2129020,16
2129640,21
2130268,23
2130892,24
2131516,20
2132144,15
2132760,17
2133388,18
2134012,12
2134640,11
2135268,14
2135892,19
2136520,18
2137152,11
2137768,17
2138396,16
2139020,15
2139648,14
2140280,10
2140896,10
2141528,12
2142148,11
2142772,10
2143404,12
2144024,15
2144652,15
2145276,11
2145904,25
2146532,26
2147156,20
2147788,15
2148420,16
2149040,16
2149668,16
2150292,13
2150920,10
2151548,10
2152168,11
2152796,14
2153420,14
2154044,13
2154672,13
2155288,15
2155920,17
2156544,13
2157168,12
2157796,11
2158420,10
2159048,11
2159680,13
2160296,18
2160928,16
2161548,15
2162180,17
2162808,16
2163428,13
2164056,15
2164680,16
2165300,11
2165932,12
2166552,11
2167180,11
2167804,10
2168432,12
2169060,11
2169684,12
2170312,12
2170944,17
2171560,14
2172192,14
2172816,15
2173444,12
2174072,11
2174692,11
2175320,12
2175944,15
2176568,11
2177196,12
2177816,11
2178444,12
2179068,15
2179696,15
2180324,17
2180948,19
2181576,20
2182208,21
2182824,21
2183452,12
2184076,11
2184704,10
2185336,10
2185952,10
2186580,11
2187204,11
2187828,13
2188456,15
2189080,15
2189708,15
2190332,10
2190960,11
2191588,10
2192212,10
2192844,10
2193472,10
2194088,11
2194720,12
2195344,11
2195972,15
2196604,16
2197224,18
2197852,16
2198476,18
2199100,17
2199732,12
2200352,12
2200980,11
2201612,12
2202228,11
2202860,11
2203484,10
2204112,13
2204744,13
2205360,16
2205992,19
2206616,16
2207240,12
2207868,12
2208488,11
2209116,10
2209740,10
2210364,11
2210996,16
2211616,14
2212244,12
2212876,20
2213496,21
2214124,16
2214748,17
2215376,17
2216008,12
2216624,11
2217252,10
2217876,10
2218500,11
2219132,16
2219752,13
2220380,11
2221004,13
2221632,19
2222260,25
2222880,22
2223508,18
2224140,12
2224760,11
2225388,18
2226012,31
2226644,28
2227272,19
2227896,17
2228524,21
2229148,24
2229772,23
2230404,20
2231024,19
2231656,17
2232280,12
2232904,14
2233532,18
2234152,23
2234780,20
2235412,22
2236032,21
2236664,17
2237288,13
2237916,14
2238548,22
2239168,20
2239800,19
2240424,16
2241048,19
2241676,18
2242296,18
2242924,17
2243548,12
2244172,15
2244800,16
2245416,12
2246048,15
2246676,16
2247296,22
2247924,14
2248548,13
2249180,13
2249808,13
2250432,20
2251060,17
2251684,11
2252308,10
2252940,10
2253560,12
2254188,14
2254808,12
2255432,15
2256060,13
2256680,16
2257308,12
2257936,13
2258552,14
2259184,13
2259808,11
2260436,11
2261068,10
2261688,12
2262316,19
2262940,28
2263564,25
2264196,15
2264816,15
2265444,11
2266068,10
2266692,11
2267320,10
2267944,15
2268572,11
2269204,12
2269824,15
2270452,16
2271076,13
2271708,14
2272340,14
2272960,17
2273588,13
2274212,15
2274836,19
2275468,11
2276088,36
2276716,29
2277340,19
2277964,12
2278596,11
2279216,14
2279844,15
2280476,16
2281096,17
2281724,21
2282348,16
2282980,13
2283608,10
2284232,20
2284860,23
2285484,18
2286108,15
2286740,12
2287360,15
2287988,14
2288616,15
2289240,14
2289868,14
2290488,11
2291116,16
2291748,14
2292368,14
2292996,19
2293624,21
2294252,19
2294884,18
2295504,12
2296132,30
2296756,23
2297380,24
2298012,27
2298632,29
2299260,23
2299884,13
2300508,10
2301140,10
2301764,10
2302392,11
2303024,10
2303640,10
2304272,15
2304892,13
2305524,15
2306152,14
2306768,28
2307396,26
2308020,16
2308644,11
2309272,10
2309888,12
2310520,16
2311140,19
2311764,28
2312396,32
2313016,28
2313644,16
2314276,13
2314896,14
2315524,10
2316148,10
2316776,10
2317408,11
2318024,11
2318656,13
2319280,11
2319904,11
2320536,14
2321152,20
2321780,20
2322404,32
2323028,34
2323660,18
2324280,13
2324908,19
2325540,24
2326160,27
2326788,23
2327412,15
2328044,11
2328672,11
2329292,13
2329920,13
2330544,17
2331168,23
2331796,30
2332416,29
2333044,17
2333668,11
2334292,13
2334924,14
2335544,11
2336172,12
2336800,12
2337424,15
2338052,14
2338676,14
2339304,15
2339936,14
2340552,11
2341180,11
2341804,10
2342428,10
2343060,10
2343680,11
2344308,11
2344932,12
2345556,13
2346188,26
2346808,25
2347436,18
2348068,14
2348688,11
2349316,11
2349944,14
2350572,13
2351204,10
2351824,18
2352456,16
2353080,11
2353704,15
2354336,23
2354952,21
2355584,17
2356208,15
2356832,13
2357460,10
2358084,14
2358712,11
2359344,13
2359960,16
2360592,13
2361216,17
2361844,21
2362476,24
2363096,21
2363724,15
2364352,15
2364976,13
2365604,12
2366224,11
2366852,16
2367480,17
2368104,13
2368732,15
2369356,17
2369984,11
2370616,13
2371232,14
2371864,13
2372488,15
2373116,14
2373748,10
2374368,12
2375000,11
2375624,12
2376248,14
2376876,15
2377496,15
2378124,13
2378752,12
2379376,14
2380004,13
2380628,14
2381260,15
2381892,14
2382512,25
2383140,20
2383768,12
2384392,10
2385020,10
2385640,11
2386268,11
2386892,15
2387516,17
2388148,18
2388768,19
2389396,14
2390028,12
2390648,17
2391276,19
2391904,16
2392536,11
2393164,11
2393784,11
2394412,12
2395036,13
2395664,19
2396296,18
2396912,14
2397540,19
2398168,14
2398792,15
2399420,24
2400040,22
2400668,11
2401296,10
2401920,11
2402548,10
2403172,12
2403804,10
2404432,15
2405052,19
2405680,15
2406304,13
2406932,11
2407560,11
2408176,13
2408808,15
2409432,13
2410056,13
2410684,13
2411304,15
2411932,16
2412564,16
2413184,16
2413812,14
2414440,14
2415068,11
2415700,10
2416320,17
2416948,15
2417572,15
2418196,12
2418828,12
2419448,16
2420076,14
2420700,21
2421324,19
2421956,13
2422576,15
2423204,13
2423836,10
2424456,11
2425084,11
2425708,11
2426340,11
2426972,11
2427592,12
2428220,13
2428844,16
2429468,22
2430100,18
2430720,15
2431348,20
2431976,11
2432600,18
2433232,12
2433848,15
2434480,17
2435108,14
2435728,13
2436356,10
2436984,13
2437612,14
2438244,13
2438864,15
2439492,18
2440120,21
2440740,15
2441372,12
2441992,19
2442620,15
2443248,15
2443868,13
2444500,18
2445124,24
2445756,29
2446384,20
2447008,16
2447640,14
2448264,14
2448892,14
2449524,10
2450144,11
2450772,11
2451400,11
2452024,13
2452652,14
2453272,12
2453904,13
2454532,12
2455152,13
2455784,13
2456408,14
2457036,12
2457668,13
2458284,13
2458912,10
2459536,12
2460164,11
2460792,10
2461416,11
2462044,15
2462668,24
2463292,23
2463924,15
2464544,15
2465172,16
2465800,18
2466424,12
2467052,10
2467676,14
2468304,21
2468936,18
2469552,13
2470180,11
2470804,15
2471428,16
2472060,16
2472680,15
2473308,12
2473932,11
2474556,13
2475188,11
2475808,15
2476436,11
2477068,16
2477688,13
2478316,22
2478940,25
2479572,24
2480200,16
2480824,15
2481452,18
2482076,17
2482700,14
2483328,10
2483952,13
2484580,11
2485204,16
2485828,16
2486456,10
2487072,13
2487700,13
2488332,16
2488952,19
2489580,19
2490204,13
2490836,10
2491464,12
2492088,11
2492716,14
2493344,19
2493968,23
2494596,17
2495216,24
2495844,24
2496472,20
2497096,19
2497724,14
2498344,11
2498972,13
2499604,10
2500224,11
2500852,9
2501424,11
2502052,14
2502684,14
2503304,14
2503932,17
2504556,14
2505188,14
2505820,12
2506440,14
2507068,10
2507692,11
2508316,14
2508948,18
2509568,19
2510196,13
2510820,11
2511444,11
2512076,12
2512696,16
2513324,17
2513956,18
2514576,18
2515204,15
2515828,11
2516460,11
2517092,10
2517712,11
2518344,11
2518968,10
2519592,11
2520224,11
2520840,15
2521468,17
2522096,14
2522716,13
2523348,16
2523972,16
2524604,11
2525236,13
2525856,13
2526488,11
2527112,13
2527740,11
2528372,18
2528992,25
2529620,21
2530244,21
2530868,15
2531500,14
2532120,13
2532752,10
2533380,11
2534000,10
2534632,11
2535256,13
2535884,12
2536516,14
2537136,14
2537768,13
2538392,15
2539016,15
2539648,14
2540264,14
2540896,12
2541520,16
2542144,16
2542772,10
2543392,11
2544024,11
2544652,11
2545272,16
2545904,17
2546528,16
2547160,23
2547788,24
2548408,19
2549040,15
2549664,12
2550288,11
2550920,13
2551536,14
2552168,14
2552792,11
2553416,11
2554048,17
2554668,14
2555296,18
2555928,17
2556548,13
2557180,11
2557804,10
2558436,10
2559068,10
2559688,10
2560320,11
2560944,13
2561564,16
2562196,18
2562816,15
2563444,14
2564064,15
2564684,22
2565316,20
2565936,13
2566564,12
2567192,12
2567808,11
2568436,10
2569060,10
2569688,11
2570316,11
2570936,15
2571564,19
2572188,15
2572808,14
2573436,10
2574056,12
2574684,13
2575308,16
2575932,11
2576564,10
2577184,12
2577812,15
2578440,20
2579064,24
2579692,22
2580316,20
2580948,22
2581576,16
2582192,13
2582820,15
2583444,10
2584068,17
2584700,11
2585320,11
2585948,19
2586572,26
2587196,21
2587824,14
2588440,24
2589072,27
2589700,19
2590320,11
2590948,10
2591572,15
2592204,14
2592832,11
2593448,11
2594076,10
2594700,10
2595332,17
2595960,21
2596576,17
2597208,17
2597832,17
2598456,17
2599084,14
2599704,11
2600332,10
2600956,12
2601584,17
2602212,18
2602836,13
2603468,15
2604096,20
2604720,19
2605348,14
2605972,16
2606600,17
2607228,19
2607848,20
2608476,11
2609100,13
2609724,15
2610356,11
2610976,17
2611608,25
2612236,24
2612856,23
2613484,17
2614108,18
2614740,16
2615368,10
2615984,10
2616616,11
2617240,13
2617864,11
2618492,10
2619112,11
2619744,11
2620368,11
2620992,15
2621620,14
2622236,15
2622868,15
2623496,12
2624112,11
2624740,11
2625364,10
2625992,11
2626620,10
2627236,13
2627864,18
2628488,23
2629116,23
2629744,16
2630368,16
2630996,17
2631620,14
2632244,15
2632872,17
2633488,13
2634120,10
2634744,11
2635364,11
2635996,10
2636620,11
2637248,13
2637880,14
2638496,17
2639124,17
2639748,16
2640376,11
2641004,14
2641624,12
2642252,12
2642872,14
2643496,11
2644124,11
2644744,11
2645372,17
2645992,19
2646616,19
2647248,17
2647864,15
2648492,10
2649120,10
2649744,12
2650372,11
2650996,11
2651624,15
2652252,14
2652872,13
2653500,11
2654124,13
2654744,13
2655376,14
2655992,15
2656624,12
2657244,12
2657868,15
2658500,18
2659120,21
2659748,17
2660380,12
2661000,12
2661628,11
2662252,17
2662884,17
2663512,17
2664128,19
2664756,18
2665380,13
2666000,11
2666628,14
2667248,14
2667876,11
2668496,10
2669120,11
2669748,10
2670368,11
2670996,13
2671624,13
2672248,14
2672876,15
2673500,13
2674128,13
2674756,12
2675376,13
2676004,11
2676628,14
2677252,14
2677884,14
2678504,17
2679132,20
2679756,16
2680380,15
2681008,18
2681624,26
2682252,21
2682876,12
2683504,11
2684132,16
2684756,14
2685388,11
2686016,10
2686632,11
2687264,15
2687888,14
2688520,16
2689148,26
2689768,27
2690396,11
2691016,14
2691640,11
2692272,10
2692888,13
2693516,11
2694140,11
2694768,16
2695396,17
2696020,20
2696648,25
2697276,21
2697896,18
2698524,16
2699148,13
2699776,10
2700408,15
2701024,19
2701656,18
2702280,13
2702904,11
2703532,12
2704152,13
2704780,15
2705404,15
2706024,14
2706656,11
2707276,13
2707908,12
2708536,11
2709152,11
2709784,11
2710408,11
2711036,11
2711668,14
2712288,23
2712916,22
2713540,17
2714168,15
2714796,12
2715416,12
2716044,13
2716668,12
2717296,14
2717924,12
2718548,11
2719180,11
2719808,10
2720432,11
2721060,14
2721684,15
2722308,15
2722936,14
2723560,12
2724188,11
2724812,10
2725432,11
2726064,12
2726680,12
2727312,11
2727932,18
2728560,20
2729188,22
2729812,19
2730440,15
2731068,14
2731688,12
2732316,11
2732940,13
2733572,11
2734200,15
2734816,11
2735448,10
2736072,11
2736692,11
2737324,13
2737944,15
2738572,14
2739196,14
2739824,14
2740452,12
2741076,11
2741708,10
2742336,11
2742960,10
2743588,13
2744216,12
2744840,12
2745468,12
2746088,18
2746716,19
2747340,15
2747964,13
2748596,10
2749216,12
2749844,13
2750476,13
2751096,15
2751724,15
2752352,11
2752980,10
2753608,10
2754232,14
2754860,15
2755484,16
2756108,14
2756740,11
2757360,16
2757988,13
2758612,12
2759236,15
2759868,12
2760488,15
2761116,14
2761748,12
2762368,16
2762996,18
2763620,21
2764252,19
2764884,14
2765500,10
2766132,13
2766756,12
2767376,12
2768008,13
2768624,15
2769252,13
2769876,11
2770500,12
2771128,13
2771752,14
2772380,13
2773012,12
2773632,11
2774260,10
2774888,11
2775516,10
2776148,10
2776768,11
2777396,14
2778024,17
2778644,22
2779276,22
2779896,21
2780528,23
2781148,20
2781772,15
2782404,10
2783024,11
2783656,11
2784284,10
2784904,11
2785532,11
2786156,11
2786788,11
2787416,13
2788032,13
2788664,15
2789288,14
2789908,12
2790540,10
2791160,11
2791788,11
2792412,11
2793036,11
2793664,12
2794288,12
2794916,11
2795548,18
2796168,21
2796796,17
2797420,15
2798052,15
2798684,14
2799304,13
2799936,11
2800560,16
2801184,13
2801812,11
2802432,11
2803060,10
2803684,11
2804308,13
2804940,14
2805560,14
2806188,14
2806820,12
2807440,12
2808068,11
2808692,11
2809320,11
2809952,12
2810568,11
2811200,16
2811824,20
2812448,20
2813076,16
2813696,15
2814324,15
2814952,12
2815576,12
2816208,10
2816824,12
2817452,12
2818080,15
2818696,17
2819324,12
2819948,12
2820576,13
2821208,13
2821824,14
2822452,14
2823076,13
2823700,10
2824328,10
2824944,11
2825572,11
2826196,10
2826820,12
2827452,12
2828072,15
2828700,17
2829332,18
2829952,17
2830580,14
2831204,13
2831836,12
2832464,10
2833088,11
2833716,14
2834340,21
2834964,18
2835596,10
2836216,15
2836844,17
2837468,14
2838092,13
2838720,14
2839344,15
2839972,11
2840604,10
2841224,10
2841852,11
2842476,15
2843108,19
2843736,16
2844356,11
2844984,11
2845608,16
2846232,16
2846860,16
2847480,15
2848108,15
2848732,11
2849356,11
2849984,12
2850604,10
2851232,14
2851860,14
2852480,13
2853108,11
2853732,13
2854364,17
2854996,14
2855616,15
2856248,13
2856868,15
2857492,18
2858124,12
2858744,11
2859376,11
2860000,11
2860624,13
2861252,16
2861872,16
2862504,15
2863132,14
2863752,17
2864384,20
2865008,15
2865636,13
2866268,10
2866888,11
2867520,13
2868140,10
2868764,12
2869392,16
2870012,14
2870640,13
2871264,13
2871888,14
2872516,14
2873136,14
2873764,11
2874392,10
2875016,12
2875644,11
2876268,11
2876900,11
2877528,16
2878148,18
2878776,20
2879400,17
2880024,16
2880652,14
2881268,15
2881900,11
2882520,11
2883144,16
2883776,10
2884392,11
2885020,12
2885652,12
2886272,12
2886900,11
2887524,14
2888152,15
2888784,16
2889400,15
2890028,11
2890652,10
2891276,13
2891904,20
2892524,17
2893152,12
2893776,14
2894396,20
2895028,21
2895648,23
2896276,17
2896908,15
2897528,18
2898156,18
2898780,13
2899408,11
2900040,10
2900656,15
2901284,19
2901908,17
2902536,18
2903164,14
2903784,14
2904412,14
2905036,15
2905664,15
2906292,14
2906912,11
2907540,13
2908172,16
2908792,13
2909420,14
2910044,11
2910676,12
2911308,12
2911928,13
2912560,16
2913180,16
2913808,16
2914436,15
2915056,12
2915684,11
2916308,10
2916932,12
2917564,15
2918184,11
2918816,11
2919444,10
2920064,11
2920692,15
2921316,13
2921944,13
2922576,16
2923192,11
2923824,12
2924448,13
2925072,13
2925700,11
2926320,12
2926948,11
2927576,12
2928200,15
2928828,18
2929448,17
2930076,16
2930708,14
2931328,16
2931956,13
2932580,10
2933212,13
2933840,17
2934464,15
2935092,15
2935716,16
2936344,10
2936972,24
2937592,26
2938224,16
2938848,15
2939472,17
2940104,13
2940720,11
2941352,11
2941980,11
2942600,11
2943232,13
2943856,15
2944488,13
2945116,14
2945736,21
2946364,22
2946988,21
2947616,19
2948244,12
2948864,11
2949492,10
2950116,10
2950740,15
2951368,11
2951992,11
2952620,11
2953252,12
2953872,15
2954500,13
2955124,15
2955756,14
2956384,12
2957008,12
2957636,13
2958260,12
2958884,11
2959516,11
2960136,11
2960764,12
2961388,12
2962012,17
2962640,19
2963260,15
2963888,15
2964516,14
2965136,11
2965764,12
2966388,10
2967020,10
2967648,11
2968272,12
2968900,11
2969528,12
2970152,12
2970780,15
2971400,15
2972028,14
2972652,14
2973276,11
2973904,12
2974528,12
2975156,10
2975788,10
2976408,13
2977036,14
2977660,11
2978288,15
2978920,24
2979536,23
2980164,19
2980788,17
2981412,15
2982044,11
2982664,14
2983292,10
2983916,14
2984540,11
2985172,11
2985796,14
2986424,11
2987052,16
2987672,21
2988300,19
2988928,15
2989556,14
2990188,10
2990808,11
2991436,11
2992060,13
2992684,13
2993312,12
2993936,15
2994564,17
2995188,20
2995816,20
2996444,15
2997068,15
2997700,16
2998328,18
2998948,14
2999576,10
3000204,11
3000832,11
3001460,10
3002080,11
3002708,13
3003332,13
3003960,13
3004588,16
3005208,15
3005836,15
3006464,12
3007088,11
3007720,12
3008344,12
3008972,11
3009604,10
3010224,11
3010856,11
3011480,12
3012104,17
3012732,16
3013352,14
3013984,17
3014608,18
3015232,18
3015860,13
3016480,13
3017108,10
3017740,14
3018360,24
3018992,24
3019616,17
3020244,12
3020876,14
3021496,15
3022124,14
3022748,14
3023372,17
3024004,16
3024624,11
3025252,11
3025880,13
3026504,13
3027136,12
3027752,13
3028384,13
3029016,18
3029632,15
3030264,18
3030888,21
3031520,23
3032148,17
3032768,14
3033400,12
3034024,11
3034648,11
3035276,11
3035896,13
3036528,11
3037152,14
3037776,15
3038408,14
3039024,15
3039656,15
3040288,10
3040904,11
3041532,11
3042156,11
3042788,11
3043420,12
3044040,12
3044668,11
3045292,11
3045920,13
3046548,14
3047168,15
3047796,15
3048424,13
3049048,16
3049676,13
3050296,11
3050928,11
3051556,10
3052176,11
3052804,13
3053428,11
3054060,13
3054692,14
3055312,13
3055944,13
3056568,15
3057192,18
3057824,17
3058440,10
3059072,12
3059696,19
3060320,25
3060952,21
3061576,13
3062208,16
3062836,14
3063456,20
3064088,28
3064712,21
3065344,11
3065972,11
3066592,11
3067224,11
3067848,10
3068472,13
3069104,11
3069724,11
3070356,12
3070988,15
3071608,14
3072244,14
3072864,14
3073492,12
3074120,16
3074744,16
3075372,12
3075996,11
3076620,12
3077248,13
3077868,11
3078496,11
3079120,15
3079744,21
3080372,22
3080992,22
3081620,23
3082248,15
3082872,11
3083500,11
3084124,10
3084756,10
3085384,10
3086008,13
3086636,11
3087260,13
3087888,15
3088516,14
3089136,15
3089764,15
3090388,12
3091012,13
3091644,16
3092264,18
3092892,12
3093524,10
3094144,11
3094772,11
3095400,16
3096028,21
3096660,16
3097280,17
3097908,15
3098532,11
3099156,11
3099788,11
3100408,11
3101036,12
3101664,13
3102288,24
3102916,12
3103536,16
3104168,16
3104796,14
3105416,15
3106044,14
3106672,11
3107300,11
3107932,10
3108552,11
3109184,12
3109808,13
3110432,12
3111060,11
3111680,12
3112308,15
3112936,17
3113560,20
3114192,18
3114808,17
3115436,13
3116068,13
3116688,15
3117320,11
3117944,11
3118572,10
3119204,11
3119824,10
3120456,14
3121080,14
3121704,15
3122332,15
3122952,13
3123584,17
3124204,16
3124828,11
3125460,10
3126084,11
3126712,12
3127340,14
3127960,15
3128592,17
3129216,19
3129844,14
3130476,16
3131096,17
3131728,11
3132352,11
3132976,13
3133604,10
3134224,15
3134856,12
3135480,11
3136104,12
3136732,11
3137356,15
3137988,15
3138616,15
3139236,15
3139864,13
3140488,11
3141116,11
3141748,10
3142368,11
3143000,11
3143624,12
3144248,16
3144876,17
3145496,19
3146128,17
3146756,18
3147376,24
3148008,18
3148632,15
3149264,11
3149892,10
3150512,15
3151144,18
3151768,21
3152392,18
3153024,17
3153640,17
3154272,13
3154896,15
3155520,14
3156148,13
3156768,13
3157400,13
3158028,10
3158648,13
3159280,11
3159904,13
3160532,12
3161164,21
3161784,27
3162412,27
3163036,25
3163664,22
3164296,18
3164912,12
3165540,13
3166168,15
3166792,15
3167424,11
3168040,10
3168672,12
3169300,12
3169920,11
3170548,13
3171176,15
3171808,15
3172440,14
3173060,12
3173688,10
3174316,17
3174940,16
3175572,10
3176192,17
3176820,13
3177448,14
3178072,22
3178700,19
3179320,18
3179952,23
3180580,19
3181200,15
3181832,11
3182456,11
3183088,12
3183716,13
3184336,14
3184968,11
3185592,11
3186216,12
3186848,10
3187464,14
3188096,15
3188720,14
3189344,15
3189976,11
3190600,11
3191232,11
3191860,15
3192480,11
3193112,13
3193736,16
3194368,13
3195000,13
3195620,20
3196248,21
3196876,20
3197500,18
3198132,16
3198752,12
3199384,11
3200016,10
3200632,10
3201260,10
3201884,10
3202512,13
3203140,14
3203760,20
3204388,16
3205012,14
3205636,15
3206268,14
3206888,12
3207516,11
3208140,10
3208764,10
3209392,11
3210012,11
3210640,13
3211264,18
3211888,20
3212516,21
3213140,21
3213772,22
3214400,21
3215016,10
3215648,19
3216272,17
3216900,12
3217528,10
3218152,11
3218780,12
3219404,11
3220028,11
3220656,14
3221280,14
3221908,14
3222540,16
3223160,15
3223788,15
3224412,14
3225044,12
3225676,12
3226296,19
3226924,12
3227548,20
3228172,27
3228800,25
3229416,23
3230044,20
3230672,15
3231296,13
3231924,10
3232544,10
3233172,11
3233804,18
3234424,16
3235052,11
3235676,12
3236308,11
3236936,13
3237560,14
3238188,13
3238812,14
3239436,15
3240068,10
3240688,15
3241316,17
3241940,18
3242564,16
3243192,14
3243816,13
3244444,11
3245076,10
3245696,16
3246324,21
3246948,23
3247580,19
3248212,10
3248832,17
3249460,12
3250084,12
3250708,15
3251340,12
3251960,11
3252588,10
3253212,10
3253836,14
3254468,14
3255088,16
3255716,20
3256348,16
3256968,14
3257596,15
3258224,12
3258852,11
3259484,12
3260104,11
3260736,11
3261360,11
3261984,16
3262616,18
3263232,18
3263864,19
3264488,18
3265112,16
3265740,11
3266360,11
3266992,11
3267620,14
3268240,15
3268868,11
3269492,11
3270124,13
3270756,12
3271376,14
3272008,13
3272632,16
3273256,12
3273888,11
3274504,10
3275136,11
3275760,10
3276388,11
3277016,13
3277640,12
3278268,12
3278896,19
3279512,16
3280140,16
3280760,17
3281388,16
3282016,10
3282636,12
3283264,17
3283888,17
3284508,11
3285136,10
3285752,12
3286380,11
3287004,16
3287628,15
3288256,15
3288872,14
3289500,14
3290128,13
3290752,17
3291380,12
3292000,15
3292632,19
3293260,11
3293880,16
3294508,14
3295132,16
3295756,22
3296384,23
3297000,22
3297628,19
3298252,19
3298876,13
3299504,10
3300120,9
3300700,10
3301328,11
3301948,11
3302580,14
3303196,17
3303828,21
3304456,16
3305072,14
3305704,14
3306324,12
3306952,10
3307584,12
3308200,11
3308828,10
3309452,11
3310080,12
3310708,12
3311328,15
3311956,20
3312584,20
3313208,16
3313836,14
3314456,17
3315084,13
3315708,16
3316336,13
3316964,11
3317588,11
3318220,10
3318848,13
3319464,18
3320096,15
3320720,15
3321348,14
3321976,14
3322600,16
3323228,11
3323852,10
3324476,11
3325104,12
3325728,11
3326356,11
3326988,10
3327608,11
3328240,13
3328860,14
3329488,17
3330116,18
3330736,20
3331364,27
3331984,30
3332612,22
3333244,10
3333864,11
3334492,11
3335112,10
3335736,10
3336368,10
3336984,13
3337612,13
3338236,15
3338860,15
3339488,15
3340112,11
3340740,10
3341372,10
3341992,13
3342620,11
3343244,14
3343872,16
3344504,16
3345120,13
3345748,13
3346372,14
3346996,17
3347624,21
3348248,21
3348876,13
3349500,10
3350128,13
3350756,17
3351380,12
3352012,10
3352640,10
3353260,10
3353888,15
3354512,20
3355140,21
3355772,18
3356392,12
3357020,10
3357644,13
3358268,15
3358900,15
3359520,18
3360148,14
3360776,10
3361392,13
3362020,17
3362644,19
3363272,18
3363900,16
3364520,15
3365148,15
3365772,12
3366400,11
3367028,11
3367648,11
3368276,10
3368900,10
3369524,11
3370152,11
3370768,15
3371400,17
3372024,13
3372648,15
3373276,14
3373900,13
3374532,11
3375160,10
3375776,11
3376408,13
3377032,13
3377660,14
3378292,15
3378912,22
3379540,19
3380164,15
3380788,16
3381416,12
3382032,15
3382664,12
3383284,11
3383908,13
3384540,13
3385160,10
3385792,12
3386420,10
3387040,20
3387668,27
3388292,27
3388920,19
3389552,13
3390168,15
3390796,17
3391420,16
3392044,13
3392672,11
3393288,11
3393920,16
3394540,15
3395164,11
3395796,14
3396420,16
3397048,22
3397676,23
3398296,21
3398924,15
3399548,16
3400180,11
3400808,10
3401424,9
3402004,11
3402632,16
3403260,13
3403888,15
3404512,21
3405140,20
3405764,14
3406388,12
3407016,10
3407636,11
3408264,12
3408888,13
3409508,11
3410140,13
3410764,13
3411392,18
3412020,23
3412640,20
3413268,15
3413892,15
3414524,16
3415152,18
3415768,17
3416400,15
3417024,10
3417648,11
3418276,10
3418896,13
3419524,13
3420148,12
3420772,14
3421404,17
3422028,16
3422660,15
3423288,11
3423908,10
3424536,10
3425160,12
3425792,14
3426420,13
3427040,15
3427668,19
3428292,21
3428916,18
3429548,12
3430168,14
3430800,14
3431420,11
3432048,11
3432676,10
3433300,11
3433932,10
3434560,11
3435180,11
3435808,11
3436432,11
3437064,13
3437692,14
3438312,15
3438944,13
3439568,14
3440192,11
3440820,11
3441440,11
3442068,11
3442696,10
3443312,11
3443944,13
3444568,16
3445196,19
3445824,20
3446448,16
3447076,17
3447700,15
3448324,11
3448956,12
3449576,11
3450208,10
3450832,10
3451456,11
3452084,12
3452704,11
3453336,13
3453964,16
3454584,16
3455212,14
3455840,14
3456468,11
3457100,10
3457720,11
3458348,10
3458972,11
3459596,11
3460228,10
3460848,12
3461476,14
3462100,22
3462724,22
3463352,24
3463972,26
3464600,23
3465232,11
3465848,12
3466480,11
3467100,12
3467732,15
3468364,18
3468984,11
3469612,11
3470236,14
3470860,15
3471492,13
3472112,14
3472740,17
3473364,13
3473988,11
3474620,11
3475240,11
3475868,11
3476500,12
3477120,12
3477748,12
3478376,20
3479004,25
3479636,22
3480256,23
3480888,21
3481512,17
3482136,12
3482764,10
3483384,15
3484012,11
3484636,11
3485260,15
3485888,13
3486508,11
3487136,14
3487764,14
3488384,15
3489012,19
3489636,18
3490264,12
3490892,14
3491512,15
3492140,13
3492764,12
3493388,13
3494020,14
3494640,17
3495268,18
3495892,17
3496516,16
3497148,15
3497768,16
3498396,10
3499028,14
3499648,22
3500276,20
3500900,11
3501532,11
3502164,15
3502784,11
3503412,16
3504036,17
3504660,17
3505292,16
3505912,13
3506544,21
3507168,27
3507792,23
3508420,18
3509040,13
3509668,11
3510300,12
3510920,11
3511552,13
3512176,16
3512808,15
3513436,17
3514056,15
3514688,13
3515312,11
3515936,21
3516568,17
3517184,10
3517816,12
3518444,13
3519068,15
3519696,14
3520324,14
3520952,14
3521580,14
3522200,14
3522828,13
3523452,10
3524080,10
3524712,11
3525328,13
3525956,12
3526580,11
3527204,12
3527832,12
3528456,13
3529084,19
3529708,19
3530332,15
3530960,14
3531584,12
3532212,11
3532844,10
3533460,10
3534092,12
3534716,12
3535344,11
3535976,10
3536596,12
3537224,14
3537848,14
3538472,15
3539100,13
3539720,13
3540348,10
3540972,13
3541596,13
3542228,11
3542852,13
3543484,15
3544112,14
3544736,12
3545364,19
3545988,20
3546620,21
3547252,28
3547872,31
3548504,28
3549124,15
3549748,10
3550380,12
3551000,13
3551632,15
3552260,13
3552880,10
3553508,13
3554136,14
3554764,14
3555396,13
3556016,14
3556644,13
3557268,11
3557896,11
3558524,12
3559144,11
3559772,11
3560400,12
3561024,12
3561652,12
3562272,16
3562900,17
3563532,18
3564152,15
3564780,13
3565408,11
3566036,11
3566668,18
3567288,17
3567916,11
3568544,20
3569168,15
3569796,11
3570416,15
3571044,13
3571672,15
3572296,15
3572928,11
3573544,12
3574176,11
3574804,14
3575424,16
3576056,15
3576680,13
3577308,15
3577940,18
3578560,23
3579192,19
3579816,15
3580440,15
3581072,15
3581688,13
3582320,11
3582944,10
3583568,10
3584200,10
3584824,13
3585452,14
3586080,10
3586696,11
3587328,13
3587948,19
3588580,17
3589208,13
3589832,12
3590460,15
3591084,17
3591708,11
3592336,10
3592960,12
3593588,11
3594212,11
3594840,13
3595468,19
3596088,21
3596716,16
3597348,14
3597968,11
3598600,11
3599224,13
3599852,13
3600484,14
3601104,12
3601732,11
3602356,16
3602980,15
3603612,16
3604232,15
3604860,15
3605484,16
3606108,12
3606736,11
3607360,15
3607988,13
3608616,10
3609240,11
3609868,11
3610492,11
3611120,13
3611748,17
3612368,19
3612996,18
3613620,21
3614244,25
3614872,16
3615496,11
3616124,16
3616748,13
3617372,17
3618000,21
3618616,21
3619244,10
3619872,22
3620496,21
3621124,23
3621748,21
3622376,18
3623008,11
3623628,10
3624256,11
3624880,11
3625504,11
3626132,10
3626752,12
3627380,11
3628004,11
3628628,14
3629260,14
3629880,16
3630508,15
3631140,14
3631760,17
3632392,16
3633016,13
3633644,10
3634276,10
3634896,11
3635524,11
3636148,11
3636772,13
3637404,12
3638024,14
3638652,14
3639276,13
3639900,9
3640480,12
3641112,12
3641740,12
3642364,12
3642992,14
3643620,12
3644244,12
3644876,13
3645504,17
3646128,18
3646756,15
3647380,15
3648008,15
3648636,12
3649256,12
3649884,11
3650508,12
3651132,14
3651764,16
3652384,13
3653012,11
3653644,12
3654264,14
3654892,14
3655520,14
3656148,13
3656780,10
3657400,13
3658028,11
3658656,12
3659280,11
3659908,11
3660528,13
3661160,18
3661780,17
3662404,19
3663036,16
3663656,19
3664288,17
3664916,12
3665536,11
3666168,11
3666792,12
3667420,13
3668052,12
3668672,15
3669300,13
3669924,11
3670548,13
3671180,14
3671800,16
3672432,15
3673056,11
3673680,13
3674308,10
3674928,11
3675556,13
3676188,14
3676808,16
3677436,17
3678064,14
3678696,17
3679324,14
3679944,14
3680576,13
3681200,12
3681828,12
3682456,13
3683076,11
3683704,10
3684332,12
3684956,20
3685584,13
3686208,12
3686840,15
3687468,18
3688088,19
3688716,20
3689340,17
3689968,11
3690596,10
3691216,15
3691844,16
3692468,15
3693092,14
3693720,12
3694344,13
3694972,14
3695596,18
3696220,17
3696852,17
3697472,15
3698104,11
3698732,11
3699352,13
3699980,11
3700604,11
3701236,12
3701864,14
3702488,13
3703116,11
3703740,14
3704364,13
3704996,14
3705616,15
3706244,17
3706868,16
3707492,10
3708124,11
3708748,11
3709380,11
3710008,14
3710632,17
3711264,14
3711888,16
3712520,15
3713148,15
3713768,20
3714396,19
3715020,13
3715644,11
3716276,13
3716896,15
3717524,13
3718156,12
3718776,11
3719404,11
3720028,11
3720660,13
3721288,14
3721912,15
3722544,15
3723168,14
3723792,11
3724420,11
3725040,12
3725668,12
3726292,16
3726916,16
3727548,11
3728168,12
3728796,14
3729428,15
3730048,15
3730676,16
3731300,17
3731932,18
3732560,24
3733184,28
3733812,20
3734436,12
3735060,13
3735692,25
3736312,21
3736944,17
3737568,17
3738192,14
3738820,15
3739440,15
3740068,15
3740700,13
3741320,11
3741948,13
3742576,12
3743204,13
3743836,14
3744456,16
3745088,17
3745712,17
3746336,15
3746968,15
3747584,15
3748216,11
3748840,10
3749464,10
3750092,12
3750712,13
3751344,11
3751972,10
3752592,13
3753224,11
3753848,13
3754476,13
3755108,14
3755728,14
3756360,15
3756984,13
3757608,11
3758240,10
3758856,13
3759488,13
3760112,21
3760736,18
3761364,13
3761992,16
3762620,15
3763252,16
3763872,17
3764500,16
3765124,11
3765756,10
3766388,10
3767008,11
3767640,11
3768264,13
3768888,10
3769516,10
3770136,13
3770764,14
3771392,16
3772016,17
3772644,14
3773272,14
3773900,10
3774532,11
3775152,11
3775784,11
3776408,13
3777032,18
3777660,17
3778280,24
3778908,25
3779536,23
3780160,21
3780788,16
3781408,11
3782040,11
3782668,11
3783288,11
3783916,11
3784544,10
3785172,10
3785804,11
3786424,11
3787052,15
3787680,16
3788304,15
3788936,14
3789552,15
3790180,15
3790804,11
3791428,11
3792060,10
3792680,15
3793308,15
3793940,10
3794560,22
3795188,29
3795816,23
3796444,19
3797076,17
3797696,16
3798328,17
3798952,12
3799576,11
3800208,10
3800824,10
3801456,11
3802080,15
3802704,14
3803336,11
3803952,13
3804584,13
3805212,14
3805832,14
3806464,12
3807088,11
3807720,11
3808352,13
3808968,11
3809596,11
3810224,13
3810848,11
3811476,10
3812096,18
3812724,19
3813352,15
3813976,15
3814608,11
3815224,12
3815852,14
3816484,12
3817104,11
3817736,10
3818360,12
3818988,11
3819620,10
3820240,16
3820868,15
3821492,24
3822120,16
3822748,13
3823368,12
3824000,12
3824624,11
3825248,11
3825880,11
3826504,11
3827136,14
3827768,15
3828384,22
3829016,21
3829644,16
3830272,14
3830904,14
3831528,12
3832160,11
3832784,11
3833408,11
3834040,12
3834660,14
3835288,10
3835920,11
3836540,12
3837172,14
3837800,16
3838428,16
3839060,14
3839680,11
3840316,14
3840936,15
3841560,12
3842192,11
3842808,11
3843436,11
3844060,11
3844684,14
3845312,18
3845936,17
3846564,16
3847196,14
3847816,12
3848444,11
3849068,10
3849700,11
3850328,12
3850952,11
3851580,14
3852204,17
3852828,14
3853456,13
3854076,13
3854704,14
3855328,15
3855952,15
3856584,11
3857200,11
3857828,11
3858460,10
3859080,12
3859708,19
3860332,13
3860964,12
3861592,20
3862216,25
3862844,21
3863468,20
3864096,17
3864724,10
3865344,11
3865976,10
3866600,10
3867220,10
3867852,10
3868472,11
3869104,10
3869732,10
3870352,13
3870984,16
3871608,14
3872236,16
3872868,14
3873488,11
3874116,11
3874740,11
3875364,11
3875996,11
3876616,13
3877244,13
3877872,19
3878496,22
3879124,16
3879748,14
3880380,14
3881012,12
3881632,12
3882260,11
3882884,10
3883516,11
3884148,12
3884768,13
3885400,11
3886024,14
3886648,15
3887276,22
3887896,18
3888528,15
3889160,13
3889776,15
3890408,15
3891032,14
3891664,19
3892292,18
3892912,13
3893540,11
3894164,12
3894792,11
3895420,13
3896040,15
3896668,18
3897292,16
3897916,19
3898548,12
3899168,11
3899800,11
3900428,14
3901048,12
3901680,11
3902304,11
3902932,10
3903564,14
3904184,16
3904812,14
3905436,14
3906060,13
3906692,14
3907312,15
3907940,16
3908568,13
3909192,15
3909820,11
3910440,12
3911068,11
3911700,15
3912320,15
3912948,17
3913576,21
3914204,15
3914836,10
3915456,11
3916088,11
3916712,11
3917336,11
3917968,11
3918588,11
3919216,14
3919844,12
3920468,16
3921100,16
3921720,15
3922352,14
3922980,11
3923600,11
3924228,11
3924856,12
3925484,10
3926116,10
3926736,11
3927368,17
3927992,25
3928616,32
3929248,31
3929868,19
3930496,14
3931120,16
3931744,13
3932376,16
3933000,12
3933628,12
3934260,12
3934880,12
3935508,13
3936132,12
3936764,14
3937392,14
3938012,14
3938640,15
3939264,15
3939888,11
3940516,10
3941136,12
3941764,12
3942388,11
3943016,18
3943644,15
3944268,11
3944900,14
3945528,19
3946148,18
3946776,21
3947400,25
3948028,22
3948660,16
3949280,15
3949908,15
3950536,11
3951160,11
3951792,10
3952408,13
3953036,13
3953660,14
3954288,15
3954916,21
3955544,24
3956172,14
3956804,10
3957424,11
3958056,15
3958680,13
3959304,11
3959932,12
3960552,26
3961180,30
3961808,31
3962432,26
3963060,13
3963680,18
3964308,15
3964940,14
3965560,20
3966192,11
3966816,12
3967448,15
3968076,11
3968696,10
3969324,11
3969948,11
3970572,13
3971200,14
3971824,14
3972452,14
3973080,11
3973704,11
3974332,14
3974952,11
3975580,11
3976212,10
3976832,11
3977460,12
3978084,17
3978716,20
3979348,18
3979968,18
3980600,19
3981224,21
3981848,13
3982476,10
3983096,14
3983728,16
3984352,12
3984976,11
3985604,11
3986224,11
3986856,14
3987484,13
3988104,15
3988736,14
3989360,13
3989988,11
3990620,10
3991240,10
3991872,11
3992496,11
3993120,11
3993752,11
3994368,12
3994996,18
3995624,24
3996248,22
3996876,16
3997496,15
3998128,12
3998756,12
3999376,15
4000008,12
4000628,10
4001256,11
4001888,11
4002504,13
4003132,10
4003756,15
4004380,15
4005012,14
4005632,14
4006260,13
4006884,11
4007508,11
4008140,10
4008760,11
4009388,13
4010020,12
4010640,12
4011268,13
4011892,18
4012524,20
4013156,20
4013776,19
4014404,15
4015028,18
4015652,17
4016284,10
4016904,11
4017532,14
4018156,21
4018780,17
4019412,10
4020036,14
4020664,15
4021292,14
4021912,13
4022540,14
4023164,11
4023796,9
4024376,12
4025000,13
4025628,10
4026252,13
4026880,13
4027508,10
4028128,15
4028756,22
4029384,19
4030008,16
4030636,14
4031256,11
4031888,11
4032516,10
4033136,11
4033764,12
4034388,13
4035020,19
4035648,18
4036272,11
4036900,13
4037524,13
4038152,17
4038780,18
4039400,17
4040028,14
4040652,11
4041276,10
4041908,10
4042528,12
4043156,13
4043788,10
4044408,14
4045036,19
4045660,21
4046292,21
4046920,20
4047544,18
4048172,15
4048796,15
4049420,11
4050052,12
4050672,17
4051300,17
4051924,13
4052552,11
4053180,11
4053800,15
4054432,15
4055060,13
4055680,13
4056308,11
4056932,11
4057564,11
4058196,10
4058816,12
4059444,11
4060072,11
4060696,13
4061324,13
4061944,15
4062576,14
4063200,16
4063824,17
4064456,11
4065072,11
4065704,13
4066332,9
4066900,10
4067532,10
4068152,13
4068784,12
4069412,11
4070032,16
4070664,15
4071288,15
4071916,14
4072548,14
4073168,10
4073800,15
4074424,24
4075048,19
4075676,11
4076296,11
4076928,12
4077552,17
4078176,21
4078804,22
4079428,20
4080060,14
4080692,14
4081312,12
4081944,11
4082568,11
4083196,10
4083828,10
4084448,12
4085080,16
4085704,14
4086328,11
4086960,14
4087576,13
4088208,14
4088840,14
4089456,13
4090088,11
4090712,11
4091344,12
4091976,15
4092596,14
4093228,12
4093852,12
4094476,13
4095108,13
4095728,13
4096364,17
4096984,21
4097604,19
4098232,12
4098848,11
4099476,12
4100104,15
4100720,11
4101348,13
4101972,21
4102600,16
4103228,12
4103844,14
4104476,17
4105096,16
4105724,15
4106356,10
4106976,12
4107604,11
4108224,10
4108848,11
4109476,12
4110096,12
4110724,12
4111348,12
4111968,15
4112600,13
4113224,15
4113852,15
4114480,13
4115104,11
4115732,10
4116356,13
4116988,11
4117616,13
4118232,15
4118860,11
4119484,10
4120108,14
4120736,13
4121352,14
4121984,14
4122604,12
4123228,11
4123856,11
4124480,11
4125108,10
4125736,10
4126360,12
4126988,11
4127612,14
4128240,19
4128872,21
4129488,21
4130116,19
4130740,17
4131360,13
4131992,11
4132608,10
4133236,11
4133860,17
4134484,18
4135112,17
4135732,13
4136360,11
4136988,16
4137608,17
4138236,15
4138860,15
4139488,11
4140116,10
4140736,11
4141364,11
4141988,11
4142612,11
4143244,12
4143864,14
4144492,21
4145116,25
4145740,24
4146372,20
4146992,20
4147620,16
4148252,10
4148872,11
4149500,13
4150124,13
4150752,10
4151384,11
4152000,14
4152628,15
4153252,12
4153876,13
4154508,14
4155128,14
4155756,14
4156384,11
4157008,11
4157636,12
4158256,12
4158884,11
4159516,10
4160136,12
4160764,13
4161388,11
4162016,22
4162644,18
4163260,22
4163892,22
4164512,25
4165136,21
4165764,18
4166384,13
4167012,11
4167636,11
4168260,13
4168888,11
4169504,11
4170136,14
4170764,14
4171384,18
4172012,21
4172636,17
4173268,11
4173896,12
4174512,17
4175144,17
4175768,17
4176392,17
4177020,11
4177640,12
4178268,13
4178892,14
4179516,14
4180144,13
4180760,15
4181388,16
4182012,18
4182640,17
4183268,11
4183892,10
4184520,10
4185148,10
4185768,11
4186396,11
4187020,13
4187652,14
4188280,15
4188896,14
4189524,11
4190148,11
4190772,10
4191400,14
4192024,15
4192652,13
4193276,16
4193904,16
4194532,15
4195156,22
4195788,25
4196420,20
4197040,17
4197668,14
4198296,12
4198920,11
4199548,10
4200168,11
4200796,11
4201420,11
4202044,11
4202672,11
4203288,13
4203916,14
4204540,14
4205168,15
4205796,14
4206420,11
4207048,11
4207680,12
4208296,12
4208924,12
4209548,11
4210180,11
4210808,11
4211424,11
4212056,15
4212680,17
4213304,15
4213932,16
4214552,17
4215180,13
4215804,10
4216432,12
4217060,13
4217684,11
4218316,10
4218944,10
4219568,11
4220196,14
4220820,14
4221444,13
4222076,14
4222696,12
4223328,11
4223952,12
4224576,13
4225204,12
4225824,14
4226452,12
4227080,11
4227704,12
4228332,15
4228956,15
4229588,16
4230216,16
4230836,19
4231464,18
4232088,12
4232712,13
4233340,17
4233960,15
4234588,11
4235212,14
4235836,13
4236468,12
4237088,14
4237716,14
4238348,14
4238968,16
4239596,11
4240220,11
4240852,12
4241480,14
4242096,13
4242728,11
4243348,12
4243972,13
4244604,15
4245224,20
4245852,22
4246476,17
4247100,14
4247732,16
4248352,17
4248980,16
4249612,10
4250228,9
4250808,10
4251432,11
4252060,11
4252692,10
4253312,13
4253940,15
4254568,15
4255196,15
4255828,12
4256448,13
4257076,15
4257700,10
4258324,10
4258956,10
4259576,11
4260208,13
4260828,15
4261452,17
4262080,17
4262696,19
4263328,21
4263956,18
4264576,14
4265204,10
4265828,12
4266456,12
4267088,13
4267704,12
4268332,11
4268956,11
4269580,11
4270212,12
4270832,13
4271460,14
4272084,14
4272708,11
4273336,12
4273960,11
4274588,12
4275220,11
4275840,14
4276468,13
4277092,17
4277720,23
4278352,23
4278972,17
4279600,13
4280224,14
4280848,14
4281480,16
4282096,14
4282724,11
4283348,10
4283972,11
4284604,12
4285224,14
4285852,14
4286484,12
4287104,14
4287736,17
4288360,17
4288988,14
4289616,14
4290240,12
4290868,12
4291492,12
4292116,11
4292748,10
4293368,12
4293996,11
4294624,12
4295244,15
4295876,14
4296496,15
4297124,13
4297756,10
4298376,11
4299008,17
4299632,19
4300260,15
4300892,11
4301512,11
4302140,15
4302764,17
4303388,16
4304016,14
4304632,15
4305260,13
4305884,13
4306508,11
4307140,10
4307760,12
4308388,13
4309020,10
4309640,13
4310268,12
4310896,12
4311524,14
4312156,14
4312776,16
4313404,14
4314032,17
4314656,25
4315284,22
4315904,21
4316536,17
4317160,12
4317784,13
4318412,15
4319032,12
4319664,11
4320296,14
4320912,14
4321540,13
4322164,14
4322796,12
4323424,11
4324044,11
4324672,15
4325296,13
4325920,11
4326548,10
4327168,15
4327796,14
4328420,14
4329044,14
4329672,15
4330296,17
4330924,19
4331556,16
4332176,14
4332804,11
4333428,11
4334060,11
4334688,12
4335312,12
4335944,11
4336568,13
4337192,15
4337824,15
4338440,15
4339068,18
4339696,19
4340320,15
4340948,11
4341572,11
4342204,17
4342836,16
4343456,14
4344084,14
4344708,19
4345340,25
4345968,22
4346592,17
4347220,14
4347844,11
4348468,11
4349100,10
4349720,11
4350348,11
4350980,10
4351600,10
4352232,11
4352852,12
4353484,14
4354112,14
4354728,14
4355360,15
4355984,12
4356612,10
4357244,10
4357864,11
4358492,11
4359116,10
4359740,11
4360372,11
4360992,12
4361620,15
4362252,14
4362872,13
4363500,15
4364124,16
4364756,15
4365384,18
4366008,17
4366636,11
4367260,9
4367832,11
4368468,10
4369088,11
4369716,11
4370340,16
4370968,15
4371596,16
4372216,18
4372844,12
4373468,10
4374092,11
4374724,10
4375344,11
4375976,11
4376604,10
4377224,11
4377856,18
4378480,26
4379108,19
4379740,16
4380360,15
4380988,13
4381616,11
4382240,11
4382868,10
4383488,10
4384116,10
4384740,9
4385312,11
4385948,11
4386568,14
4387196,13
4387820,13
4388448,14
4389076,13
4389700,11
4390332,10
4390964,12
4391584,14
4392216,17
4392840,13
4393468,12
4394100,22
4394720,26
4395352,23
4395976,20
4396600,18
4397232,16
4397848,12
4398480,10
4399108,10
4399728,10
4400360,11
4400984,11
4401612,10
4402244,12
4402864,11
4403496,14
4404116,15
4404740,14
4405372,14
4405992,15
4406620,15
4407244,11
4407868,11
4408500,10
4409120,11
4409748,13
4410380,19
4411000,24
4411628,21
4412256,19
4412884,21
4413516,18
4414136,18
4414764,15
4415392,12
4416016,11
4416644,14
4417264,14
4417892,14
4418516,11
4419140,10
4419772,11
4420392,15
4421024,14
4421652,14
4422272,19
4422904,15
4423528,10
4424156,11
4424788,10
4425408,15
4426036,16
4426660,12
4427284,13
4427916,13
4428536,15
4429164,15
4429788,15
4430412,16
4431040,19
4431664,24
4432292,22
4432924,18
4433544,11
4434176,13
4434800,11
4435428,10
4436056,11
4436680,16
4437308,15
4437932,15
4438560,15
4439188,12
4439808,11
4440440,11
4441064,11
4441688,11
4442316,10
4442936,12
4443564,13
4444196,10
4444816,15
4445444,17
4446068,18
4446700,17
4447332,15
4447952,11
4448584,16
4449208,16
4449832,14
4450460,10
4451080,12
4451712,17
4452336,15
4452960,12
4453588,14
4454216,15
4454848,15
4455476,14
4456096,11
4456724,12
4457348,11
4457980,11
4458612,10
4459232,13
4459864,17
4460488,14
4461112,13
4461740,14
4462360,15
4462992,17
4463620,14
4464240,15
4464868,18
4465492,19
4466124,17
4466756,12
4467376,11
4468004,11
4468628,11
4469256,13
4469884,15
4470504,14
4471136,15
4471760,15
4472384,15
4473016,10
4473632,10
4474264,12
4474896,10
4475512,13
4476144,12
4476768,11
4477400,14
4478032,21
4478652,33
4479280,28
4479908,17
4480532,15
4481164,11
4481784,11
4482412,10
4483036,10
4483660,12
4484292,13
4484912,15
4485540,15
4486172,12
4486792,13
4487420,15
4488044,14
4488672,14
4489304,12
4489920,10
4490552,12
4491176,13
4491800,14
4492432,17
4493048,16
4493676,15
4494300,16
4494928,21
4495556,19
4496176,19
4496804,17
4497436,13
4498056,12
4498684,13
4499312,11
4499940,12
4500572,12
4501192,14
4501824,12
4502448,14
4503072,17
4503704,13
4504320,15
4504952,15
4505576,15
4506204,11
4506832,16
4507448,19
4508080,17
4508708,10
4509328,17
4509956,23
4510580,27
4511212,30
4511844,28
4512464,23
4513092,17
4513716,14
4514340,12
4514972,11
4515592,11
4516224,10
4516844,16
4517468,20
4518100,21
4518724,19
4519352,11
4519984,15
4520604,16
4521232,15
4521856,13
4522484,13
4523116,10
4523736,10
4524364,16
4524988,12
4525612,11
4526244,10
4526864,11
4527492,15
4528116,26
4528740,25
4529372,22
4529996,21
4530624,18
4531256,13
4531872,10
4532504,11
4533128,13
4533756,17
4534388,16
4535008,17
4535640,14
4536264,11
4536888,14
4537516,14
4538136,17
4538768,15
4539392,12
4540016,10
4540648,11
4541272,11
4541904,11
4542532,10
4543152,11
4543784,11
4544408,11
4545032,16
4545660,14
4546280,15
4546912,19
4547532,25
4548156,23
4548788,14
4549408,10
4550036,11
4550668,11
4551288,12
4551920,12
4552544,11
4553172,13
4553804,13
4554424,14
4555052,14
4555680,14
4556304,13
4556936,12
4557552,12
4558180,13
4558808,11
4559432,13
4560060,14
4560680,16
4561308,17
4561940,26
4562560,23
4563188,18
4563816,15
4564444,12
4565076,12
4565696,14
4566328,12
4566952,12
4567576,12
4568208,10
4568824,10
4569452,13
4570080,17
4570704,13
4571332,15
4571952,17
4572584,13
4573212,10
4573832,11
4574464,11
4575088,11
4575720,11
4576352,12
4576968,13
4577596,20
4578224,22
4578848,19
4579480,16
4580096,14
4580724,15
4581352,13
4581976,13
4582608,11
4583224,10
4583856,11
4584488,10
4585104,10
4585736,11
4586360,11
4586992,13
4587624,14
4588240,14
4588868,15
4589492,11
4590116,12
4590748,10
4591368,11
4591996,11
4592624,11
4593248,11
4593876,11
4594504,12
4595132,17
4595764,19
4596384,21
4597016,18
4597640,14
4598268,11
4598900,10
4599520,12
4600152,10
4600776,11
4601400,13
4602028,11
4602648,11
4603276,14
4603904,14
4604528,18
4605160,21
4605784,19
4606416,13
4607044,10
4607664,15
4608296,17
4608916,16
4609540,20
4610172,18
4610792,19
4611420,17
4612044,16
4612668,14
4613296,14
4613912,14
4614544,11
4615168,10
4615792,12
4616420,11
4617044,10
4617676,10
4618304,11
4618920,10
4619552,11
4620176,13
4620804,13
4621432,14
4622056,15
4622684,13
4623312,19
4623936,15
4624564,10
4625184,11
4625812,13
4626444,11
4627064,18
4627696,19
4628320,24
4628948,25
4629580,16
4630200,15
4630828,13
4631456,15
4632080,11
4632708,10
4633328,11
4633960,11
4634580,11
4635204,12
4635836,10
4636456,13
4637084,13
4637716,14
4638336,15
4638968,15
4639592,14
4640220,11
4640852,10
4641472,11
4642100,11
4642724,13
4643348,15
4643976,10
4644600,11
4645228,13
4645852,14
4646476,15
4647108,16
4647728,15
4648356,11
4648988,12
4649608,11
4650236,12
4650860,16
4651492,16
4652120,10
4652744,11
4653376,13
4654000,14
4654624,13
4655252,13
4655872,11
4656504,11
4657128,11
4657752,13
4658384,11
4659000,13
4659632,17
4660260,20
4660880,19
4661508,20
4662132,17
4662764,21
4663392,20
4664016,21
4664644,17
4665268,11
4665892,10
4666524,14
4667144,18
4667776,19
4668400,18
4669024,15
4669656,11
4670280,14
4670908,16
4671540,20
4672160,17
4672788,10
4673412,11
4674044,15
4674672,16
4675288,15
4675920,15
4676544,14
4677168,14
4677796,14
4678416,20
4679044,17
4679668,16
4680296,17
4680924,17
4681548,12
4682180,13
4682808,12
4683432,11
4684064,10
4684688,11
4685316,11
4685948,10
4686568,15
4687196,14
4687824,13
4688448,15
4689076,14
4689696,12
4690324,10
4690956,12
4691576,15
4692204,13
4692828,15
4693460,13
4694092,11
4694712,13
4695344,13
4695968,14
4696592,15
4697224,18
4697840,13
4698472,11
4699096,12
4699720,9
4700300,12
4700924,15
4701556,12
4702180,10
4702804,11
4703436,13
4704056,16
4704688,17
4705316,14
4705936,11
4706568,13
4707192,11
4707824,11
4708456,10
4709072,11
4709704,11
4710332,12
4710960,13
4711588,16
4712208,19
4712836,19
4713460,20
4714088,17
4714716,13
4715340,10
4715972,11
4716604,11
4717224,13
4717852,13
4718480,12
4719108,10
4719740,12
4720360,13
4720992,15
4721616,15
4722240,14
4722868,10
4723488,11
4724116,11
4724748,10
4725368,13
4726000,12
4726624,13
4727252,14
4727884,16
4728504,18
4729136,15
4729760,17
4730384,22
4731016,19
4731632,14
4732264,12
4732888,10
4733512,10
4734144,11
4734764,10
4735392,10
4736024,10
4736648,15
4737276,18
4737900,16
4738532,15
4739164,10
4739784,11
4740416,13
4741040,15
4741664,17
4742292,11
4742912,12
4743544,21
4744168,23
4744792,24
4745424,23
4746044,18
4746672,14
4747304,14
4747924,11
4748556,12
4749180,9
4749760,12
4750392,19
4751012,12
4751644,11
4752268,10
4752896,11
4753524,15
4754144,21
4754772,17
4755400,15
4756024,11
4756652,10
4757272,10
4757904,11
4758532,10
4759152,11
4759784,11
4760408,14
4761036,19
4761668,20
4762288,19
4762916,19
4763540,15
4764168,12
4764796,10
4765416,10
4766048,11
4766672,11
4767296,11
4767928,11
4768544,10
4769176,11
4769808,14
4770424,14
4771056,14
4771680,17
4772312,14
4772940,11
4773560,10
4774192,11
4774816,12
4775440,13
4776072,12
4776688,12
4777320,11
4777944,21
4778568,30
4779200,30
4779816,27
4780448,23
4781080,18
4781696,11
4782328,10
4782952,12
4783584,13
4784216,17
4784832,16
4785464,12
4786088,11
4786712,15
4787344,14
4787960,13
4788592,15
4789216,13
4789840,11
4790472,11
4791088,11
4791720,11
4792352,10
4792976,12
4793608,12
4794232,14
4794864,17
4795492,18
4796112,17
4796744,16
4797372,13
4797996,11
4798628,11
4799248,11
4799880,10
4800508,10
4801136,11
4801764,11
4802388,10
4803020,15
4803648,21
4804272,21
4804900,15
4805524,14
4806152,11
4806780,11
4807400,13
4808028,11
4808652,11
4809276,12
4809908,12
4810528,12
4811156,14
4811788,15
4812408,14
4813040,14
4813660,13
4814292,13
4814920,16
4815540,19
4816168,19
4816792,11
4817416,13
4818044,12
4818664,11
4819292,10
4819916,13
4820540,14
4821172,15
4821792,17
4822424,13
4823052,10
4823672,11
4824304,12
4824928,15
4825556,12
4826188,11
4826808,13
4827436,13
4828064,16
4828688,19
4829316,14
4829936,15
4830568,15
4831192,13
4831816,11
4832448,10
4833064,10
4833696,11
4834324,11
4834944,11
4835572,12
4836200,12
4836828,14
4837460,14
4838080,16
4838712,15
4839336,11
4839960,11
4840588,11
4841208,13
4841836,11
4842460,11
4843084,15
4843716,20
4844336,18
4844964,23
4845596,18
4846216,14
4846848,17
4847472,12
4848100,10
4848732,10
4849352,11
4849984,11
4850608,11
4851232,10
4851860,11
4852480,11
4853108,14
4853736,14
4854360,14
4854992,14
4855608,13
4856240,10
4856872,10
4857488,10
4858120,11
4858744,13
4859376,11
4860004,14
4860624,15
4861256,18
4861880,22
4862504,19
4863136,15
4863756,14
4864388,10
4865012,10
4865636,10
4866264,11
4866888,11
4867516,10
4868148,11
4868768,15
4869400,13
4870024,13
4870652,14
4871284,14
4871904,14
4872536,11
4873160,12
4873784,11
4874416,10
4875032,12
4875664,11
4876292,10
4876912,11
4877540,11
4878164,18
4878796,19
4879428,20
4880048,21
4880676,19
4881300,17
4881928,17
4882556,18
4883176,17
4883808,11
4884432,14
4885056,14
4885684,15
4886304,18
4886936,18
4887564,18
4888184,17
4888812,14
4889440,11
4890068,13
4890700,20
4891320,22
4891952,17
4892576,13
4893200,13
4893832,14
4894448,12
4895080,19
4895704,19
4896328,16
4896956,16
4897576,15
4898208,12
4898836,10
4899456,11
4900088,11
4900712,19
4901344,27
4901972,24
4902592,11
4903224,16
4903848,17
4904472,15
4905104,16
4905720,12
4906352,11
4906976,12
4907600,14
4908232,10
4908848,12
4909480,13
4910112,11
4910728,12
4911360,17
4911988,19
4912620,19
4913252,18
4913872,18
4914508,13
4915132,13
4915760,12
4916388,10
4917008,13
4917636,13
4918260,13
4918884,11
4919512,11
4920140,13
4920768,14
4921396,14
4922016,15
4922644,13
4923268,13
4923896,13
4924528,11
4925144,12
4925776,13
4926400,13
4927024,11
4927652,14
4928272,21
4928900,19
4929524,18
4930148,16
4930776,14
4931400,12
4932028,11
4932660,10
4933280,11
4933908,10
4934532,13
4935164,15
4935792,12
4936416,15
4937044,13
4937668,13
4938292,14
4938920,14
4939544,11
4940172,11
4940796,10
4941424,12
4942056,14
4942680,12
4943308,11
4943940,13
4944560,16
4945188,17
4945812,16
4946440,17
4947068,20
4947688,18
4948316,13
4948940,11
4949564,12
4950196,14
4950816,12
4951448,11
4952076,10
4952696,11
4953328,15
4953952,14
4954580,15
4955212,16
4955832,13
4956464,13
4957088,11
4957712,18
4958344,14
4958960,11
4959592,12
4960216,13
4960840,15
4961468,21
4962088,20
4962716,22
4963348,22
4963968,18
4964596,11
4965220,11
4965852,11
4966484,10
4967104,14
4967732,13
4968356,13
4968980,12
4969608,12
4970232,14
4970860,13
4971484,14
4972112,14
4972740,10
4973360,13
4973988,14
4974620,10
4975240,11
4975872,12
4976496,12
4977124,11
4977756,11
4978376,15
4979008,15
4979632,19
4980256,20
4980884,18
4981504,16
4982136,10
4982760,13
4983384,15
4984012,10
4984632,11
4985264,11
4985892,10
4986512,13
4987144,15
4987768,16
4988400,16
4989028,12
4989648,11
4990276,11
4990904,13
4991528,14
4992160,13
4992776,12
4993404,12
4994028,15
4994656,21
4995284,21
4995908,17
4996540,15
4997168,14
4997792,11
4998420,11
4999044,11
4999676,14
5000304,12
5000928,11
5001556,11
5002184,11
5002808,12
5003436,14
5004056,15
5004688,14
5005316,14
5005936,11
5006568,11
5007192,10
5007824,11
5008452,10
5009072,12
5009700,12
5010328,11
5010952,17
5011584,26
5012200,23
5012832,16
5013456,15
5014080,11
5014712,14
5015328,11
5015960,11
5016592,10
5017212,11
5017844,10
5018464,12
5019096,11
5019724,13
5020344,14
5020972,14
5021596,13
5022224,13
5022852,10
5023472,11
5024104,11
5024728,11
5025352,13
5025980,12
5026600,16
5027228,17
5027860,20
5028480,17
5029108,14
5029736,15
5030368,15
5031000,11
5031616,11
5032248,11
5032872,11
5033496,11
5034128,10
5034744,11
5035376,11
5036004,10
5036628,12
5037260,13
5037880,15
5038512,17
5039144,16
5039760,11
5040392,12
5041016,12
5041648,11
5042276,18
5042896,21
5043528,17
5044152,18
5044776,19
5045404,14
5046024,14
5046656,15
5047280,14
5047904,14
5048536,12
5049160,10
5049788,10
5050420,10
5051040,11
5051672,11
5052296,12
5052928,13
5053560,22
5054176,18
5054808,14
5055436,19
5056060,17
5056692,10
5057312,12
5057944,11
5058572,10
5059192,11
5059824,12
5060448,13
5061080,15
5061708,19
5062328,15
5062960,15
5063584,15
5064208,10
5064840,11
5065460,11
5066088,11
5066716,13
5067340,16
5067972,10
5068592,10
5069224,10
5069856,14
5070476,13
5071108,14
5071732,14
5072364,12
5072996,12
5073616,11
5074248,11
5074872,12
5075496,11
5076128,11
5076748,11
5077376,16
5078004,19
5078628,15
5079260,15
5079884,17
5080516,15
5081148,14
5081768,13
5082396,13
5083024,11
5083652,11
5084284,10
5084904,14
5085532,11
5086160,13
5086784,16
5087416,14
5088032,14
5088664,14
5089296,11
5089912,12
5090544,16
5091168,14
5091800,13
5092432,11
5093052,11
5093680,11
5094308,13
5094932,21
5095564,21
5096184,18
5096816,18
5097440,15
5098064,11
5098696,10
5099316,10
5099948,11
5100580,13
5101200,15
5101832,16
5102456,11
5103088,14
5103720,14
5104340,15
5104972,14
5105596,13
5106224,11
5106856,12
5107476,12
5108108,10
5108732,10
5109360,11
5109992,11
5110620,11
5111252,15
5111884,18
5112504,22
5113136,23
5113764,23
5114388,22
5115024,16
5115644,10
5116276,10
5116900,10
5117528,11
5118160,10
5118780,13
5119412,17
5120044,23
5120660,24
5121288,15
5121912,16
5122540,11
5123168,10
5123792,15
5124420,15
5125044,11
5125668,18
5126296,22
5126916,30
5127544,34
5128168,27
5128788,17
5129420,14
5130040,15
5130668,14
5131300,14
5131920,15
5132548,11
5133172,10
5133804,12
5134432,19
5135048,19
5135680,13
5136304,13
5136928,14
5137556,14
5138176,15
5138804,14
5139428,11
5140052,11
5140684,10
5141304,11
5141932,11
5142564,10
5143184,13
5143812,13
5144436,13
5145068,17
5145696,14
5146320,16
5146948,15
5147572,14
5148196,12
5148824,10
5149448,10
5150076,11
5150700,11
5151328,11
5151956,11
5152584,13
5153212,17
5153844,16
5154464,14
5155092,14
5155720,12
5156348,11
5156980,12
5157600,15
5158228,12
5158856,11
5159480,11
5160108,11
5160728,13
5161356,15
5161980,18
5162608,23
5163236,19
5163860,19
5164492,15
5165120,18
5165736,16
5166368,13
5166992,11
5167620,11
5168252,14
5168872,12
5169500,11
5170124,13
5170748,14
5171380,14
5172000,17
5172628,15
5173256,12
5173880,11
5174508,10
5175132,11
5175764,12
5176392,11
5177016,11
5177644,16
5178268,23
5178892,18
5179524,15
5180144,16
5180776,13
5181400,11
5182024,12
5182652,10
5183272,11
5183904,11
5184532,10
5185152,11
5185780,11
5186404,13
5187036,14
5187668,14
5188288,15
5188916,13
5189540,12
5190168,15
5190796,11
5191416,13
5192048,17
5192668,15
5193292,17
5193924,19
5194544,23
5195176,21
5195804,18
5196424,17
5197056,16
5197680,12
5198308,11
5198940,10
5199560,11
5200192,10
5200812,11
5201436,11
5202068,10
5202688,12
5203316,13
5203940,14
5204564,14
5205192,16
5205812,12
5206440,15
5207072,19
5207688,15
5208316,11
5208940,13
5209572,16
5210204,22
5210824,27
5211456,25
5212080,15
5212704,15
5213336,14
5213952,15
5214584,14
5215208,15
5215832,15
5216464,10
5217080,10
5217712,10
5218340,11
5218960,14
5219592,13
5220216,13
5220844,13
5221476,14
5222096,13
5222728,11
5223348,11
5223976,16
5224604,16
5225224,11
5225852,14
5226476,20
5227100,24
5227732,16
5228356,16
5228988,15
5229616,14
5230240,15
5230868,14
5231496,12
5232128,11
5232756,10
5233376,11
5234004,11
5234628,14
5235256,14
5235884,11
5236504,14
5237132,14
5237760,14
5238384,15
5239016,11
5239640,12
5240272,11
5240904,11
5241520,19
5242152,21
5242776,20
5243400,17
5244028,15
5244648,18
5245276,17
5245900,16
5246524,17
5247152,16
5247776,17
5248408,11
5249032,10
5249656,12
5250284,15
5250904,20
5251532,18
5252164,10
5252784,12
5253412,14
5254036,13
5254660,13
5255292,14
5255912,12
5256540,11
5257164,10
5257788,10
5258416,11
5259032,10
5259664,13
5260292,12
5260912,15
5261540,19
5262164,24
5262792,28
5263424,25
5264040,16
5264668,10
5265292,11
5265920,13
5266548,12
5267168,11
5267796,11
5268420,14
5269044,15
5269676,14
5270296,14
5270924,14
5271548,14
5272176,15
5272804,12
5273428,10
5274060,11
5274688,12
5275312,11
5275940,11
5276564,11
5277188,11
5277820,16
5278440,17
5279068,17
5279692,16
5280316,15
5280948,16
5281568,11
5282196,11
5282828,13
5283448,11
5284076,11
5284700,11
5285328,11
5285956,11
5286576,13
5287204,14
5287824,15
5288452,18
5289084,14
5289704,11
5290332,14
5290956,13
5291580,14
5292208,14
5292824,11
5293456,13
5294076,14
5294704,24
5295332,19
5295960,18
5296588,17
5297220,14
5297840,12
5298468,13
5299092,18
5299720,14
5300348,10
5300968,11
5301596,10
5302220,13
5302844,16
5303476,14
5304096,14
5304724,15
5305356,15
5305976,14
5306604,11
5307228,11
5307860,11
5308488,11
5309104,10
5309736,13
5310360,13
5310984,16
5311616,22
5312232,21
5312860,15
5313484,15
5314108,15
5314740,12
5315360,11
5315988,11
5316620,12
5317240,11
5317868,11
5318492,11
5319124,11
5319756,14
5320376,17
5321004,16
5321628,15
5322252,13
5322884,10
5323504,11
5324136,13
5324760,11
5325384,11
5326012,12
5326632,13
5327260,13
5327888,19
5328504,24
5329136,22
5329760,17
5330388,22
5331016,21
5331636,13
5332264,11
5332888,13
5333508,11
5334140,10
5334760,11
5335388,11
5336012,13
5336636,13
5337264,14
5337888,15
5338516,15
5339148,11
5339768,13
5340396,10
5341020,10
5341652,10
5342280,12
5342904,15
5343532,14
5344156,12
5344780,23
5345412,26
5346032,29
5346660,23
5347284,20
5347908,15
5348536,12
5349160,12
5349788,12
5350420,10
5351040,11
5351668,13
5352292,13
5352924,14
5353552,14
5354172,14
5354804,14
5355428,13
5356052,10
5356680,10
5357304,12
5357932,14
5358560,11
5359180,13
5359812,16
5360432,16
5361060,19
5361692,20
5362312,15
5362940,14
5363568,14
5364196,12
5364828,10
5365448,11
5366076,10
5366700,10
5367324,11
5367956,10
5368576,13
5369204,13
5369828,13
5370452,14
5371084,14
5371704,14
5372332,14
5372964,15
5373584,11
5374216,14
5374840,17
5375468,17
5376100,16
5376716,16
5377348,20
5377968,18
5378592,15
5379224,14
5379840,16
5380468,15
5381092,15
5381716,11
5382348,10
5382968,14
5383596,18
5384228,14
5384848,11
5385476,11
5386100,16
5386732,13
5387360,16
5387980,16
5388608,15
5389232,11
5389856,12
5390484,11
5391104,11
5391732,11
5392360,12
5392980,13
5393612,14
5394232,17
5394860,23
5395492,18
5396112,16
5396740,16
5397364,14
5397996,13
5398628,18
5399248,14
5399876,12
5400504,11
5401128,11
5401756,12
5402376,12
5403004,13
5403628,15
5404252,15
5404884,14
5405508,13
5406136,11
5406768,10
5407384,11
5408016,10
5408636,11
5409268,11
5409896,11
5410512,13
5411144,16
5411768,19
5412392,20
5413020,16
5413640,17
5414268,13
5414896,11
5415516,10
5416148,10
5416772,10
5417404,13
5418032,16
5418652,15
5419280,11
5419904,15
5420532,15
5421164,15
5421784,20
5422412,16
5423036,10
5423664,17
5424292,12
5424912,11
5425540,13
5426168,13
5426792,17
5427424,22
5428044,22
5428676,16
5429304,14
5429920,17
5430552,17
5431176,13
5431804,11
5432436,10
5433056,15
5433684,14
5434308,12
5434932,11
5435564,10
5436184,14
5436812,13
5437436,14
5438064,13
5438696,14
5439320,13
5439952,13
5440584,11
5441200,11
5441828,11
5442452,11
5443076,11
5443708,10
5444328,11
5444956,17
5445580,20
5446204,25
5446836,18
5447456,12
5448084,12
5448712,13
5449336,11
5449964,11
5450588,13
5451216,10
5451848,10
5452464,11
5453092,14
5453716,14
5454340,14
5454972,14
5455592,13
5456220,13
5456844,12
5457468,11
5458100,14
5458720,15
5459348,13
5459980,14
5460600,17
5461228,18
5461852,19
5462484,15
5463112,14
5463732,13
5464360,10
5464984,14
5465608,16
5466240,16
5466856,11
5467488,10
5468112,12
5468736,19
5469364,19
5469984,16
5470616,18
5471244,15
5471864,15
5472496,11
5473120,12
5473748,11
5474380,10
5475000,11
5475632,14
5476256,12
5476880,13
5477508,11
5478128,15
5478760,17
5479384,18
5480008,21
5480636,22
5481256,18
5481884,11
5482516,12
5483136,15
5483768,15
5484392,13
5485020,11
5485652,10
5486272,13
5486900,14
5487528,15
5488152,18
5488780,15
5489400,12
5490028,11
5490652,11
5491276,11
5491908,10
5492528,13
5493156,11
5493788,12
5494408,17
5495036,17
5495660,19
5496292,21
5496924,18
5497544,17
5498176,11
5498800,11
5499424,16
5500056,16
5500672,15
5501304,12
5501928,11
5502552,11
5503184,13
5503804,14
5504436,14
5505064,14
5505680,11
5506312,11
5506936,10
5507564,10
5508196,10
5508816,12
5509444,11
5510068,11
5510696,17
5511324,20
5511944,16
5512576,15
5513200,15
5513824,17
5514452,14
5515080,11
5515708,13
5516340,14
5516960,12
5517588,11
5518216,11
5518844,13
5519476,14
5520096,14
5520724,17
5521348,19
5521972,18
5522604,10
5523224,11
5523852,12
5524476,16
5525104,15
5525736,12
5526360,14
5526992,13
5527624,14
5528240,18
5528872,18
5529496,16
5530120,15
5530752,13
5531368,14
5532000,16
5532624,14
5533248,11
5533876,11
5534496,15
5535124,12
5535756,10
5536376,15
5537004,14
5537628,14
5538260,15
5538888,17
5539508,16
5540136,11
5540764,10
5541388,11
5542016,10
5542640,19
5543268,21
5543892,18
5544520,17
5545148,16
5545768,17
5546396,15
5547028,14
5547648,11
5548280,11
5548904,11
5549532,11
5550164,11
5550784,16
5551416,15
5552040,12
5552664,12
5553292,13
5553912,13
5554544,15
5555168,15
5555792,12
5556424,10
5557044,10
5557672,11
5558304,10
5558928,12
5559560,13
5560184,11
5560816,13
5561444,18
5562064,22
5562696,28
5563320,23
5563944,17
5564576,10
5565192,11
5565824,11
5566452,13
5567076,12
5567708,11
5568332,11
5568964,11
5569592,14
5570212,14
5570844,15
5571468,13
5572096,14
5572728,12
5573344,11
5573976,12
5574600,13
5575224,11
5575852,11
5576472,11
5577100,12
5577728,16
5578352,18
5578984,18
5579608,16
5580236,15
5580868,12
5581488,13
5582116,11
5582740,11
5583368,13
5583996,12
5584616,13
5585248,11
5585872,12
5586496,14
5587124,14
5587744,14
5588376,15
5589004,11
5589624,13
5590256,14
5590880,14
5591512,11
5592140,11
5592760,11
5593392,15
5594016,22
5594640,24
5595268,19
5595888,20
5596520,16
5597144,15
5597768,14
5598400,10
5599016,10
5599648,11
5600280,9
5600844,12
5601476,14
5602096,13
5602724,13
5603356,14
5603976,15
5604604,14
5605228,18
5605860,15
5606492,10
5607112,11
5607740,10
5608364,11
5608988,11
5609620,10
5610240,12
5610868,13
5611492,15
5612120,19
5612748,22
5613368,21
5613996,17
5614628,12
5615248,11
5615880,10
5616504,10
5617132,10
5617764,10
5618384,11
5619016,12
5619640,16
5620264,15
5620892,13
5621512,15
5622144,14
5622768,11
5623392,11
5624024,13
5624648,13
5625276,11
5625908,10
5626528,11
5627160,11
5627784,14
5628416,18
5629044,20
5629664,21
5630296,19
5630920,17
5631544,13
5632176,10
5632792,11
5633420,11
5634044,14
5634672,14
5635300,12
5635924,13
5636552,15
5637180,15
5637800,15
5638428,13
5639052,13
5639680,18
5640312,18
5640928,15
5641556,11
5642180,11
5642804,13
5643436,13
5644056,12
5644684,14
5645308,14
5645936,15
5646564,15
5647188,20
5647820,20
5648452,14
5649072,12
5649700,13
5650324,16
5650952,19
5651580,15
5652200,14
5652828,15
5653452,16
5654076,16
5654708,14
5655328,20
5655956,17
5656588,12
5657208,12
5657836,10
5658460,10
5659092,11
5659720,17
5660344,20
5660972,22
5661596,19
5662224,16
5662852,17
5663472,17
5664104,12
5664724,10
5665348,13
5665980,11
5666600,11
5667228,11
5667860,10
5668480,11
5669108,11
5669732,14
5670364,15
5670996,14
5671616,15
5672248,12
5672872,10
5673496,11
5674124,11
5674744,12
5675376,12
5676000,12
5676624,17
5677256,20
5677872,22
5678504,21
5679132,18
5679752,17
5680384,13
5681008,12
5681636,11
5682268,10
5682888,11
5683516,11
5684140,11
5684764,11
5685396,12
5686016,15
5686644,15
5687268,13
5687892,13
5688524,14
5689144,11
5689772,11
5690404,11
5691024,11
5691656,11
5692280,12
5692908,15
5693540,14
5694160,11
5694788,13
5695416,16
5696040,16
5696668,16
5697288,15
5697916,10
5698540,11
5699168,13
5699796,14
5700420,12
5701052,10
5701684,10
5702304,11
5702936,15
5703560,15
5704192,14
5704820,14
5705440,13
5706072,11
5706696,12
5707320,13
5707952,13
5708572,14
5709200,11
5709832,12
5710452,11
5711080,15
5711708,16
5712340,16
5712968,14
5713592,15
5714224,12
5714848,10
5715472,11
5716104,11
5716720,11
5717352,11
5717976,12
5718600,14
5719232,13
5719848,13
5720480,15
5721108,14
5721728,17
5722360,14
5722984,11
5723616,13
5724244,12
5724864,11
5725492,15
5726120,13
5726744,13
5727376,13
5727992,16
5728628,17
5729252,16
5729876,17
5730508,11
5731128,10
5731760,10
5732392,10
5733016,12
5733648,11
5734276,11
5734908,13
5735536,11
5736160,14
5736788,13
5737412,14
5738036,15
5738668,12
5739288,11
5739916,11
5740540,10
5741168,12
5741796,11
5742420,13
5743052,11
5743684,14
5744304,20
5744932,24
5745556,27
5746184,21
5746812,16
5747432,12
5748060,12
5748684,13
5749308,14
5749940,12
5750560,11
5751188,11
5751820,10
5752440,12
5753068,13
5753696,15
5754324,13
5754956,16
5755576,13
5756208,10
5756832,11
5757456,12
5758084,11
5758704,12
5759336,15
5759960,10
5760588,22
5761216,29
5761832,21
5762464,17
5763092,14
5763712,13
5764340,10
5764964,11
5765596,11
5766224,10
5766840,11
5767472,12
5768096,13
5768720,12
5769348,12
5769968,15
5770596,14
5771220,15
5771844,13
5772476,11
5773096,12
5773724,11
5774356,10
5774976,11
5775608,11
5776228,11
5776860,12
5777488,17
5778108,20
5778736,20
5779360,20
5779984,16
5780612,15
5781232,14
5781860,10
5782484,11
5783108,11
5783740,12
5784360,14
5784988,13
5785620,12
5786240,15
5786868,16
5787492,15
5788120,14
5788748,12
5789368,12
5789996,11
5790624,11
5791248,12
5791876,10
5792496,11
5793124,11
5793748,11
5794372,14
5795004,17
5795624,21
5796252,23
5796884,19
5797504,13
5798132,10
5798760,11
5799388,10
5800020,10
5800640,12
5801268,11
5801892,11
5802516,11
5803148,12
5803768,15
5804396,16
5805024,16
5805648,11
5806276,11
5806896,10
5807524,11
5808156,12
5808776,16
5809404,16
5810032,16
5810660,25
5811292,24
5811912,19
5812540,17
5813168,16
5813792,13
5814420,11
5815040,11
5815668,12
5816296,13
5816920,11
5817548,11
5818168,12
5818796,11
5819428,16
5820048,19
5820676,15
5821304,14
5821932,14
5822564,11
5823184,11
5823816,11
5824440,11
5825064,11
5825692,12
5826312,13
5826944,12
5827568,15
5828192,17
5828820,15
5829444,15
5830076,14
5830708,10
5831328,12
5831960,12
5832584,14
5833216,18
5833844,13
5834464,13
5835096,17
5835720,12
5836344,13
5836976,14
5837592,15
5838220,15
5838848,14
5839472,16
5840100,12
5840724,11
5841356,13
5841984,15
5842604,15
5843232,14
5843856,13
5844484,19
5845116,16
5845736,19
5846368,18
5846992,15
5847616,13
5848244,12
5848864,11
5849492,11
5850124,18
5850744,19
5851376,15
5852000,16
5852628,16
5853260,14
5853880,15
5854512,14
5855136,15
5855760,10
5856392,10
5857008,11
5857640,11
5858264,11
5858888,13
5859516,16
5860136,13
5860768,13
5861396,18
5862016,17
5862648,14
5863272,15
5863900,11
5864532,10
5865152,12
5865784,12
5866408,11
5867032,11
5867664,16
5868280,12
5868912,12
5869536,17
5870160,17
5870788,15
5871408,14
5872040,13
5872668,11
5873288,12
5873920,11
5874544,11
5875176,11
5875808,11
5876428,12
5877056,15
5877684,21
5878308,19
5878940,18
5879560,17
5880192,17
5880816,11
5881440,11
5882072,11
5882696,11
5883328,11
5883956,10
5884576,13
5885208,12
5885832,12
5886464,19
5887096,20
5887716,16
5888348,13
5888972,11
5889596,13
5890224,15
5890844,11
5891476,11
5892104,11
5892728,13
5893360,11
5893984,13
5894612,21
5895244,19
5895864,19
5896496,17
5897120,21
5897744,19
5898376,10
5898992,14
5899620,12
5900244,11
5900868,10
5901500,10
5902120,11
5902748,13
5903380,12
5904000,15
5904628,13
5905252,12
5905884,10
5906516,10
5907136,12
5907768,12
5908392,13
5909016,12
5909644,16
5910264,19
5910896,20
5911520,21
5912144,19
5912776,14
5913392,14
5914024,12
5914652,11
5915272,12
5915904,12
5916528,11
5917156,11
5917788,10
5918408,12
5919040,11
5919664,13
5920288,14
5920916,13
5921536,14
5922164,11
5922788,11
5923412,11
5924044,10
5924664,11
5925292,11
5925924,10
5926544,11
5927172,13
5927800,19
5928428,20
5929060,22
5929680,23
5930308,19
5930932,14
5931556,11
5932188,11
5932808,16
5933436,22
5934064,21
5934688,17
5935320,12
5935944,13
5936576,18
5937208,19
5937824,17
5938456,15
5939080,15
5939712,21
5940340,22
5940960,19
5941588,16
5942212,14
5942836,15
5943468,14
5944088,16
5944716,19
5945340,16
5945968,16
5946596,14
5947220,13
5947852,11
5948484,10
5949104,15
5949736,16
5950360,13
5950984,13
5951616,12
5952232,13
5952864,15
5953488,15
5954112,15
5954740,14
5955360,13
5955988,13
5956620,10
5957240,10
5957868,12
5958496,11
5959124,12
5959756,16
5960376,18
5961004,20
5961628,17
5962252,18
5962884,14
5963504,15
5964136,11
5964760,12
5965384,14
5966012,10
5966632,11
5967264,10
5967892,11
5968512,12
5969144,13
5969768,17
5970396,18
5971028,14
5971648,15
5972280,11
5972904,11
5973528,11
5974160,10
5974776,14
5975408,17
5976032,16
5976656,19
5977288,22
5977904,27
5978536,21
5979168,17
5979784,16
5980416,12
5981040,10
5981672,12
5982304,14
5982920,14
5983552,11
5984176,11
5984800,13
5985428,13
5986048,16
5986676,16
5987304,16
5987928,17
5988556,15
5989176,12
5989808,12
5990436,12
5991056,11
5991684,13
5992308,15
5992940,19
5993572,21
5994192,24
5994824,20
5995448,17
5996072,16
5996704,17
5997320,13
5997952,11
5998576,12
5999200,11
5999832,12
6000456,11
6001088,11
6001716,10
6002336,12
6002968,13
6003592,15
6004220,14
6004852,14
6005472,13
6006104,11
6006728,14
6007352,14
6007984,10
6008600,13
6009232,15
6009864,15
6010480,17
6011112,23
6011736,17
6012368,15
6013000,16
6013616,17
6014248,13
6014872,11
6015496,10
6016128,14
6016752,15
6017380,11
6018008,11
6018632,15
6019260,18
6019880,15
6020508,15
6021140,16
6021760,15
6022388,10
6023016,11
6023648,11
6024276,12
6024896,15
6025528,13
6026152,11
6026776,17
6027408,26
6028024,27
6028656,24
6029280,21
6029904,17
6030536,14
6031152,15
6031784,10
6032416,10
6033036,14
6033668,11
6034292,11
6034924,15
6035552,12
6036176,13
6036808,14
6037432,14
6038056,15
6038688,11
6039308,11
6039936,10
6040564,12
6041188,11
6041820,11
6042444,11
6043076,19
6043708,24
6044328,28
6044956,19
6045584,16
6046212,14
6046844,13
6047464,11
6048096,11
6048720,11
6049344,11
6049972,10
6050592,11
6051224,12
6051852,10
6052472,12
6053104,13
6053728,13
6054360,15
6054992,14
6055612,12
6056240,11
6056868,10
6057492,10
6058124,10
6058744,11
6059376,11
6060000,12
6060624,15
6061256,21
6061876,19
6062508,17
6063136,16
6063760,13
6064392,11
6065016,12
6065648,11
6066276,13
6066896,11
6067528,11
6068152,12
6068776,11
6069408,15
6070024,14
6070656,15
6071280,13
6071904,13
6072536,17
6073160,17
6073792,11
6074420,11
6075040,11
6075672,11
6076296,19
6076928,23
6077560,21
6078176,15
6078808,16
6079432,15
6080056,14
6080688,10
6081304,11
6081932,10
6082556,10
6083184,11
6083816,10
6084440,13
6085068,11
6085700,11
6086320,16
6086952,17
6087576,21
6088200,21
6088828,11
6089448,12
6090080,13
6090704,11
6091328,11
6091960,11
6092580,11
6093208,13
6093840,14
6094460,15
6095088,14
6095712,14
6096344,14
6096972,14
6097592,18
6098224,17
6098848,15
6099472,13
6100104,11
6100720,10
6101352,13
6101976,11
6102600,14
6103232,15
6103852,16
6104480,15
6105112,15
6105732,11
6106360,11
6106988,11
6107616,11
6108248,11
6108868,13
6109496,19
6110124,19
6110748,20
6111380,18
6112000,16
6112632,17
6113256,15
6113884,11
6114516,10
6115140,11
6115772,12
6116404,13
6117024,14
6117656,11
6118280,11
6118912,13
6119544,14
6120164,14
6120792,14
6121416,13
6122044,11
6122676,11
6123296,11
6123928,11
6124560,11
6125176,13
6125808,12
6126436,14
6127064,18
6127696,21
6128320,20
6128952,18
6129576,15
6130200,12
6130832,10
6131456,10
6132088,12
6132716,11
6133340,11
6133972,11
6134600,11
6135232,11
6135864,17
6136484,14
6137112,14
6137740,14
6138372,14
6139004,15
6139624,13
6140256,11
6140884,12
6141508,11
6142140,12
6142764,25
6143396,29
6144028,26
6144644,25
6145276,21
6145896,14
6146528,15
6147156,12
6147776,15
6148404,12
6149028,10
6149652,11
6150284,10
6150904,11
6151532,10
6152156,11
6152784,13
6153412,14
6154032,16
6154660,16
6155292,12
6155912,11
6156544,13
6157168,13
6157796,12
6158428,13
6159048,18
6159676,21
6160304,19
6160928,21
6161556,18
6162176,17
6162804,15
6163428,14
6164052,11
6164684,10
6165304,11
6165932,11
6166564,14
6167184,16
6167812,16
6168440,12
6169068,12
6169700,15
6170320,15
6170948,14
6171572,16
6172196,21
6172828,14
6173448,11
6174076,16
6174704,18
6175328,18
6175960,11
6176584,12
6177212,14
6177844,19
6178464,19
6179096,22
6179720,20
6180352,20
6180980,17
6181600,15
6182228,11
6182856,15
6183480,18
6184112,16
6184728,15
6185360,13
6185988,14
6186608,13
6187236,17
6187864,16
6188492,14
6189124,16
6189744,15
6190376,11
6191000,11
6191624,13
6192256,13
6192872,11
6193504,12
6194128,18
6194752,18
6195384,16
6196000,17
6196628,17
6197260,18
6197880,17
6198508,11
6199136,12
6199764,17
6200396,18
6201016,22
6201648,15
6202272,11
6202896,13
6203524,14
6204144,17
6204776,19
6205400,19
6206028,16
6206656,12
6207280,12
6207912,11
6208544,12
6209160,14
6209788,17
6210416,18
6211044,15
6211676,14
6212296,16
6212928,15
6213552,12
6214176,11
6214808,10
6215424,11
6216056,10
6216680,10
6217308,12
6217936,14
6218560,13
6219192,15
6219824,14
6220440,13
6221072,14
6221696,13
6222328,13
6222960,14
6223580,13
6224212,11
6224836,11
6225460,12
6226092,10
6226712,13
6227340,15
6227968,18
6228592,20
6229220,16
6229848,14
6230476,11
6231108,11
6231728,11
6232360,11
6232984,11
6233608,10
6234236,11
6234856,12
6235488,12
6236112,15
6236736,14
6237368,15
6237988,15
6238620,11
6239248,15
6239872,12
6240504,11
6241128,11
6241760,12
6242388,12
6243008,12
6243640,11
6244264,17
6244888,21
6245516,19
6246136,17
6246768,15
6247392,11
6248016,11
6248644,10
6249264,11
6249892,11
6250524,10
6251144,13
6251776,14
6252400,15
6253028,13
6253660,12
6254280,16
6254908,16
6255536,17
6256160,15
6256788,14
6257408,15
6258036,11
6258664,11
6259288,11
6259916,10
6260536,13
6261164,15
6261796,14
6262416,15
6263044,15
