tempo_arduino_micro_s,valor_ADC
500,11
1004,12
1504,12
2000,12
2508,11
3000,10
3508,13
4000,16
4508,17
5000,18
5500,20
6000,18
6500,16
7004,15
7500,15
8000,17
8500,18
9000,20
9500,21
10000,23
10516,24
11036,23
11564,18
12084,19
12612,18
13132,17
13660,14
14180,15
14708,14
15228,15
15756,14
16276,14
16796,11
17316,11
17836,10
18356,12
18876,15
19396,17
19916,14
20436,14
20956,13
21476,16
21996,18
22516,17
23036,16
23564,15
24084,15
24612,15
25132,16
25660,21
26180,24
26708,21
27228,19
27756,18
28276,20
28804,18
29324,14
29852,11
30372,11
30900,15
31420,15
31948,16
32472,16
32996,16
33516,13
34044,12
34564,11
35092,10
35612,11
36140,10
36660,12
37188,12
37708,20
38236,22
38760,17
39284,16
39804,17
40332,14
40852,17
41372,18
41892,18
42412,17
42932,17
43452,16
43972,13
44492,13
45012,12
45532,11
46052,11
46572,13
47092,16
47612,16
48140,15
48660,16
49188,16
49708,14
50236,12
50756,13
51284,10
51804,11
52332,12
52852,17
53380,14
53900,15
54428,15
54948,16
55476,15
55996,14
56524,14
57044,15
57572,16
58096,18
58620,20
59140,20
59668,21
60188,20
60716,16
61240,19
61764,19
62284,14
62812,12
63332,11
63860,14
64384,14
64908,14
65428,14
65948,15
66468,15
66988,12
67508,10
68028,14
68548,13
69068,11
69588,13
70108,16
70628,19
71148,19
71668,20
72192,17
72716,14
73236,16
73764,18
74284,18
74812,20
75332,16
75860,11
76384,11
76908,15
77428,21
77956,23
78476,16
79004,13
79528,12
80052,11
80572,15
81100,14
81620,15
82148,15
82668,14
83196,14
83720,11
84244,10
84764,12
85292,12
85812,13
86340,13
86860,15
87388,18
87908,15
88436,15
88956,18
89484,14
90004,15
90524,16
91044,18
91564,17
92084,17
92604,17
93124,19
93644,20
94164,19
94684,18
95204,17
95724,13
96248,12
96764,13
97292,15
97812,14
98340,16
98860,15
99388,15
99908,13
100436,12
101000,11
101584,10
102156,11
102736,11
103304,14
103880,18
104456,18
105024,13
105600,14
106168,14
106744,17
107312,17
107896,16
108464,17
109040,19
109624,24
110192,27
110768,30
111336,24
111920,20
112492,16
113072,11
113640,13
114216,15
114792,14
115364,15
115944,14
116512,14
117096,13
117664,11
118240,11
118824,10
119392,14
119976,15
120548,17
121128,17
121696,16
122280,15
122848,14
123428,15
124008,15
124576,15
125152,13
125720,13
126304,16
126876,19
127452,15
128032,14
128600,16
129176,17
129744,14
130320,15
130888,17
131472,14
132040,14
132616,13
133192,14
133760,11
134344,11
134912,11
135496,9
136016,13
136592,16
137160,19
137736,17
138320,13
138888,16
139472,15
140044,15
140624,14
141196,16
141776,18
142352,20
142924,24
143504,26
144072,23
144656,21
145224,21
145800,13
146368,11
146944,11
147528,14
148096,15
148680,15
149248,16
149832,13
150400,11
150984,10
151560,12
152132,10
152712,11
153284,11
153864,13
154432,11
155016,13
155584,18
156164,16
156744,16
157316,15
157896,16
158468,17
159048,21
159620,24
160200,23
160776,18
161344,17
161920,22
162488,17
163064,14
163632,15
164216,15
164784,13
165352,16
165936,15
166504,15
167088,11
167656,11
168232,11
168800,11
169376,12
169944,14
170520,15
171096,14
171664,15
172248,16
172816,15
173400,15
173968,15
174548,16
175128,14
175696,19
176280,21
176848,20
177432,13
178000,11
178584,9
179100,10
179676,11
180256,15
180824,14
181408,15
181976,14
182560,15
183128,14
183712,11
184284,11
184856,10
185440,11
186008,11
186592,14
187160,17
187744,15
188312,14
188888,17
189472,14
190040,15
190624,15
191196,16
191776,14
192356,13
192936,18
193504,21
194080,19
194664,15
195232,14
195816,16
196388,18
196968,17
197536,19
198116,18
198696,15
199268,15
199848,11
200416,10
201000,10
201568,10
202152,11
202724,13
203296,15
203880,16
204452,16
205032,13
205600,15
206176,14
206744,15
207312,15
207888,15
208456,11
209040,13
209608,14
210184,17
210752,18
211336,19
211904,19
212480,17
213064,15
213632,15
214216,15
214788,14
215368,15
215936,17
216520,13
217096,11
217664,11
218248,11
218816,11
219392,14
219960,17
220544,15
221112,13
221692,16
222272,15
222844,15
223424,16
223996,17
224576,16
225152,14
225736,17
226312,16
226880,15
227464,19
228032,27
228616,23
229184,15
229768,11
230336,14
230916,15
231496,16
232064,17
232648,18
233216,11
233800,12
234368,14
234952,14
235528,13
236096,11
236680,13
237252,15
237832,17
238404,15
238984,14
239556,15
240132,14
240712,17
241280,16
241864,14
242436,15
243016,17
243588,18
244168,15
244744,18
245316,18
245896,15
246464,14
247048,15
247616,19
248200,17
248768,15
249344,15
249928,13
250496,14
251080,14
251652,12
252232,13
252804,16
253384,19
253960,21
254532,18
255112,13
255684,14
256264,16
256840,16
257416,17
257984,16
258552,19
259128,24
259696,20
260280,17
260848,16
261432,14
262000,11
262584,11
263152,9
263672,13
264248,14
264816,15
265400,18
265968,15
266552,12
267120,10
267704,11
268272,11
268848,11
269432,14
270000,16
270584,17
271152,14
271736,12
272308,14
272880,16
273464,18
274032,16
274616,15
275184,16
275768,19
276348,25
276928,21
277496,18
278076,14
278656,12
279224,12
279808,11
280380,15
280960,13
281528,15
282108,15
282688,15
283256,12
283840,10
284408,11
284992,12
285560,14
286144,13
286716,16
287292,19
287872,19
288444,15
289024,14
289592,15
290176,15
290744,18
291320,19
291904,24
292472,22
293056,20
293628,19
294208,15
294780,14
295360,13
295928,12
296508,10
297088,15
297656,15
298240,15
298808,15
299392,15
299964,11
300540,11
301120,12
301692,13
302272,14
302844,17
303424,21
303996,22
304580,24
305160,18
305732,14
306312,14
306884,16
307464,18
308032,14
308616,12
309188,13
309764,17
310344,25
310916,26
311496,28
312068,19
312648,14
313216,20
313800,27
314376,32
314948,24
315528,16
316100,16
316680,13
317260,11
317840,11
318420,11
318996,15
319576,16
320152,21
320728,21
321296,22
321880,19
322448,18
323024,16
323608,15
324176,15
324760,11
325332,16
325912,25
326484,24
327064,21
327636,24
328212,22
328792,22
329360,24
329944,17
330512,18
331096,16
331664,16
332240,16
332824,19
333392,19
333968,15
334536,16
335120,19
335688,20
336272,23
336840,24
337416,16
338000,16
338568,18
339144,22
339716,17
340296,15
340864,15
341448,16
342024,25
342592,27
343176,18
343748,14
344328,13
344896,22
345480,33
346052,36
346624,40
347208,34
347776,27
348360,17
348928,18
349512,25
350080,24
350664,13
351240,14
351812,14
352392,12
352964,11
353544,10
354112,11
354696,12
355268,18
355840,19
356424,17
356996,15
357576,15
358148,12
358728,16
359304,21
359888,20
360464,25
361032,27
361616,17
362184,14
362768,11
363340,32
363920,44
364492,39
365068,37
365648,32
366220,27
366800,23
367368,20
367952,13
368524,19
369104,20
369680,25
370248,32
370832,35
371404,21
371984,23
372556,42
373136,39
373708,59
374284,67
374864,76
375436,67
376016,43
376584,27
377168,21
377740,18
378320,13
378896,10
379464,16
380048,22
380620,23
381200,15
381772,17
382352,16
382924,15
383500,14
384084,16
384652,18
385232,13
385804,10
386384,9
386904,11
387480,18
388052,17
388624,18
389208,14
389776,16
390360,15
390932,14
391512,12
392084,14
392656,17
393240,15
393812,11
394392,13
394964,25
395544,25
396116,18
396696,15
397276,15
397852,19
398432,17
399004,15
399584,25
400164,34
400744,30
401312,24
401892,12
402472,15
403044,32
403624,45
404196,38
404776,21
405348,15
405928,18
406500,25
407076,38
407656,42
408228,35
408808,21
409380,35
409960,47
410536,41
411104,30
411688,11
412256,11
412832,11
413400,15
413976,15
414544,15
415128,17
415696,15
416272,16
416856,14
417424,12
418000,13
418568,12
419144,11
419716,12
420296,16
420872,17
421440,19
422024,22
422592,17
423176,18
423744,15
424328,14
424896,18
425472,27
426056,30
426624,25
427208,23
427776,19
428360,14
428932,11
429512,17
430088,11
430656,14
431240,15
431812,16
432392,16
432964,14
433544,13
434116,14
434692,16
435272,16
435840,17
436424,23
436996,24
437576,17
438148,18
438728,15
439304,15
439876,16
440456,22
441024,22
441608,20
442176,25
442752,28
443324,31
443900,32
444480,26
445048,22
445632,10
446200,11
446784,11
447356,14
447936,15
448520,16
449092,15
449672,12
450244,11
450824,13
451392,22
451976,24
452548,23
453120,22
453704,24
454276,17
454856,15
455428,15
456008,15
456576,15
457160,15
457736,15
458308,11
458888,22
459456,35
460040,44
460620,42
461200,33
461776,18
462352,11
462936,12
463508,16
464088,17
464656,18
465240,17
465812,15
466388,21
466968,17
467540,11
468120,18
468692,19
469272,16
469844,11
470424,13
470996,13
471572,12
472152,15
472724,15
473304,13
473876,17
474456,18
475028,14
475604,12
476184,26
476752,27
477336,20
477908,23
478488,19
479068,14
479648,10
480228,14
480800,14
481384,14
481952,15
482536,15
483108,14
483688,13
484260,15
484836,14
485416,11
485988,10
486568,12
487136,11
487720,13
488292,14
488872,13
489444,17
490020,15
490600,19
491172,23
491752,26
492332,27
492912,26
493480,24
494056,22
494640,10
495208,12
495792,11
496364,10
496944,16
497516,18
498096,15
498664,15
499244,15
499824,12
500396,15
500976,17
501548,13
502128,11
502708,15
503284,27
503864,31
504436,21
505016,11
505588,17
506168,22
506748,15
507328,15
507912,15
508484,17
509064,22
509636,24
510216,25
510788,29
511368,26
511948,14
512524,13
513104,11
513672,15
514256,15
514824,15
515408,13
515976,15
516560,11
517136,11
517704,11
518288,12
518856,18
519440,17
520008,14
520592,11
521160,11
521736,11
522320,17
522888,15
523472,15
524044,14
524624,12
525196,11
525776,15
526352,17
526924,24
527504,28
528076,25
528656,13
529224,11
529808,11
530376,14
530956,19
531536,23
532108,20
532688,16
533256,11
533840,11
534408,12
534992,12
535568,11
536140,15
536720,23
537292,16
537872,11
538440,17
539024,21
539596,19
540172,16
540752,17
541324,15
541904,15
542476,19
543056,25
543628,26
544208,18
544784,11
545356,13
545936,10
546504,11
547088,13
547660,14
548240,13
548808,18
549384,16
549968,11
550540,12
551120,11
551692,10
552272,14
552844,13
553424,13
554000,14
554572,12
555152,16
555724,18
556304,16
556876,15
557456,15
558028,11
558604,14
559184,29
559756,27
560336,19
560916,19
561496,16
562068,13
562644,12
563224,14
563792,15
564376,15
564948,15
565528,15
566100,15
566680,11
567252,12
567828,14
568408,11
568980,10
569560,11
570132,12
570712,13
571284,14
571860,17
572440,16
573012,15
573592,15
574164,15
574744,14
575316,21
575896,25
576476,25
577048,23
577632,19
578200,12
578784,10
579356,14
579936,11
580508,15
581080,15
581664,15
582236,15
582816,16
583388,15
583968,17
584540,16
585120,11
585692,12
586268,15
586848,17
587420,13
588000,14
588580,16
589160,15
589740,15
590316,15
590896,15
591468,12
592048,11
592616,14
593200,18
593780,21
594360,34
594940,38
595516,32
596096,19
596668,13
597248,15
597820,15
598400,14
598980,15
599556,15
600136,13
600708,10
601288,11
601860,12
602440,11
603012,11
603592,14
604176,15
604748,18
605328,17
605900,15
606480,15
607060,15
607640,17
608220,19
608796,19
609376,17
609948,15
610528,16
611100,17
611680,16
612260,14
612836,12
613416,14
613992,14
614572,14
615140,14
615720,16
616288,13
616872,11
617444,10
618020,11
618600,10
619172,10
619752,13
620332,18
620912,27
621484,34
622060,32
622640,24
623212,15
623792,16
624364,20
624944,28
625516,34
626096,33
626676,28
627252,28
627832,32
628404,31
628984,26
629556,19
630136,16
630716,14
631292,15
631872,15
632448,15
633024,11
633596,10
634180,11
634756,10
635336,14
635920,14
636492,13
637072,16
637644,19
638224,19
638804,15
639384,15
639964,15
640540,15
641120,14
641688,15
642272,17
642840,23
643424,24
643992,16
644572,14
645152,21
645720,27
646304,17
646876,14
647456,19
648028,15
648608,14
649176,15
649756,10
650336,11
650908,16
651488,16
652060,15
652640,15
653212,19
653788,17
654368,14
654940,13
655520,15
656088,14
656672,15
657240,18
657824,15
658392,13
658972,15
659552,19
660120,27
660704,29
661272,27
661856,21
662424,19
663000,16
663584,14
664156,15
664736,18
665308,23
665888,20
666456,13
667040,17
667608,14
668184,14
668768,14
669340,10
669920,13
670488,16
671072,15
671644,16
672220,15
672800,15
673368,15
673952,15
674520,14
675104,16
675676,23
676256,25
676824,24
677400,19
677984,17
678556,15
679136,10
679708,11
680288,15
680856,14
681432,16
682016,15
682584,14
683168,14
683740,16
684320,15
684892,12
685472,12
686044,13
686620,14
687200,14
687772,13
688352,13
688924,15
689504,14
690076,14
690652,14
691232,11
691800,11
692384,15
692956,18
693536,16
694108,18
694688,21
695260,26
695836,24
696416,23
696988,18
697568,14
698140,15
698720,15
699292,15
699868,11
700448,13
701020,11
701600,10
702172,14
702752,20
703324,18
703904,21
704484,17
705056,16
705640,15
706208,16
706792,16
707364,15
707944,11
708516,13
709092,16
709672,19
710244,16
710824,16
711396,17
711976,24
712556,14
713136,14
713716,15
714292,14
714872,14
715444,15
716024,15
716604,11
717184,13
717760,15
718336,14
718920,11
719492,12
720072,13
720640,11
721224,11
721796,14
722376,13
722952,16
723524,16
724104,18
724676,18
725256,16
725828,18
726408,17
726976,15
727556,11
728136,11
728708,10
729288,11
729860,12
730440,15
731012,14
731592,13
732168,15
732740,15
733320,11
733892,13
734472,16
735052,15
735632,13
736212,12
736788,14
737368,15
737940,17
738520,16
739092,14
739672,14
740244,16
740820,19
741400,20
741972,22
742552,16
743124,14
743704,12
744276,12
744856,13
745428,11
746004,11
746584,11
747156,15
747736,20
748316,24
748896,19
749472,14
750052,11
750632,10
751204,10
751784,10
752360,12
752936,17
753508,24
754088,19
754668,14
755244,14
755824,15
756396,15
756976,15
757556,15
758140,11
758716,14
759292,16
759872,21
760444,17
761024,13
761596,10
762180,10
762756,11
763336,15
763920,16
764496,19
765072,20
765648,15
766224,16
766796,23
767376,24
767956,20
768532,21
769112,19
769684,19
770264,12
770836,19
771416,25
771988,32
772564,24
773144,15
773716,15
774296,15
774868,19
775448,20
776020,28
776600,25
777172,18
777748,15
778328,15
778900,15
779480,11
780052,14
780632,13
781204,14
781776,15
782360,15
782932,11
783512,11
784084,11
784664,10
785236,11
785816,13
786388,17
786964,17
787544,17
788116,15
788696,15
789276,14
789856,15
790436,15
791012,12
791596,10
792168,10
792744,13
793316,24
793900,24
794476,21
795056,16
795636,10
796212,11
796792,14
797364,16
797944,19
798524,15
799104,15
799684,14
800260,19
800840,16
801408,11
801992,11
802564,11
803144,12
803716,15
804296,16
804872,12
805444,16
806024,15
806596,20
807176,18
807748,18
808328,21
808896,18
809476,18
810056,18
810628,16
811208,15
811780,11
812360,15
812940,14
813520,14
814096,15
814668,15
815248,16
815820,16
816400,12
816980,12
817560,17
818132,15
818708,14
819288,11
819860,12
820440,16
821008,19
821592,16
822160,15
822736,15
823320,14
823888,14
824472,17
825040,21
825624,23
826192,27
826768,27
827340,23
827912,19
828496,14
829064,12
829648,13
830216,17
830800,13
831368,15
831952,15
832528,14
833100,12
833680,14
834248,14
834832,9
835348,10
835928,10
836496,14
837072,22
837656,29
838228,27
838808,18
839376,15
839960,20
840528,22
841112,18
841684,16
842256,18
842840,19
843408,21
843992,21
844564,20
845144,16
845712,18
846288,19
846872,19
847444,18
848024,16
848592,15
849176,17
849748,18
850328,17
850896,18
851472,16
852056,15
852624,15
853208,16
853776,19
854360,16
854932,14
855508,15
856088,14
856656,16
857240,17
857812,18
858392,17
858964,16
859544,18
860116,20
860692,21
861272,16
861844,11
862424,13
862992,16
863576,17
864148,17
864720,15
865304,14
865872,15
866456,10
867028,11
867608,10
868180,12
868760,13
869332,15
869908,22
870488,21
871060,17
871640,16
872212,15
872792,15
873364,15
873940,15
874520,14
875092,21
875672,28
876244,32
876824,28
877392,24
877976,19
878556,14
879132,12
879712,11
880288,15
880864,16
881432,18
882016,17
882584,14
883164,11
883744,11
884316,11
884896,11
885464,10
886048,11
886620,15
887200,20
887772,19
888348,15
888928,15
889500,16
890080,16
890660,18
891240,21
891820,19
892396,20
892976,13
893548,14
894128,16
894700,12
895280,11
895860,10
896444,10
897016,14
897596,15
898176,16
898748,14
899328,13
899900,11
900480,13
901052,15
901628,13
902208,11
902780,11
903360,18
903932,23
904512,20
905084,18
905664,15
906232,15
906812,14
907392,16
907964,14
908544,16
909124,25
909704,24
910276,19
910852,25
911432,30
912004,23
912584,18
913156,15
913736,13
914308,14
914888,17
915472,19
916044,26
916624,23
917196,11
917776,11
918356,11
918936,11
919516,11
920092,11
920672,11
921244,11
921824,15
922400,14
922984,15
923556,14
924132,15
924712,13
925284,12
925864,14
926436,12
927016,12
927588,12
928168,15
928744,19
929324,19
929904,15
930476,14
931056,13
931628,14
932208,15
932788,11
933364,11
933944,10
934516,10
935096,11
935668,10
936248,13
936828,15
937408,16
937980,17
938556,15
939136,14
939712,15
940288,16
940868,14
941448,20
942020,27
942596,24
943176,21
943748,21
944328,19
944900,17
945480,17
946052,13
946632,15
947216,14
947788,14
948368,15
948940,15
949520,12
950092,10
950672,13
951252,13
951828,10
952408,17
952980,18
953560,15
954132,15
954712,18
955292,15
955868,17
956448,14
957024,15
957600,13
958176,17
958752,30
959332,30
959916,27
960492,22
961068,18
961648,18
962216,18
962800,15
963376,14
963960,15
964532,18
965108,18
965688,16
966260,14
966840,14
967412,12
967992,11
968572,11
969152,15
969724,16
970300,17
970880,17
971452,18
972032,18
972612,17
973192,15
973772,19
974348,20
974928,22
975500,22
976080,25
976656,25
977240,27
977812,30
978388,30
978968,27
979540,22
980120,20
980692,18
981272,16
981852,15
982432,15
983012,11
983588,10
984168,15
984736,16
985320,17
985892,17
986472,13
987044,19
987620,26
988200,20
988768,15
989352,16
989924,15
990504,15
991076,14
991656,19
992236,22
992812,23
993392,23
993964,24
994544,23
995116,15
995696,11
996276,11
996852,15
997432,14
998004,15
998584,15
999156,15
999736,11
1000316,15
1000940,17
1001572,18
1002192,20
1002820,17
1003444,15
1004068,18
1004696,13
1005312,15
1005944,17
1006568,20
1007188,21
1007820,20
1008440,21
1009068,21
1009696,20
1010320,17
1010948,15
1011572,17
1012200,15
1012832,14
1013448,15
1014076,17
1014700,16
1015324,15
1015956,12
1016576,11
1017204,12
1017828,11
1018452,17
1019084,24
1019704,23
1020332,13
1020964,12
1021584,15
1022212,15
1022840,18
1023468,15
1024100,14
1024716,17
1025344,17
1025964,17
1026588,19
1027212,23
1027828,23
1028456,19
1029080,19
1029700,15
1030332,16
1030952,15
1031580,14
1032208,15
1032824,10
1033452,10
1034076,11
1034704,10
1035336,11
1035952,12
1036580,16
1037204,15
1037828,15
1038456,16
1039076,15
1039708,15
1040332,15
1040952,12
1041580,17
1042200,23
1042828,23
1043448,16
1044072,12
1044700,11
1045324,11
1045952,15
1046580,19
1047196,16
1047828,15
1048448,17
1049080,16
1049708,10
1050324,12
1050952,11
1051576,13
1052200,12
1052828,12
1053444,13
1054076,15
1054696,17
1055320,18
1055952,15
1056568,18
1057196,16
1057824,16
1058448,24
1059076,29
1059700,25
1060328,22
1060956,20
1061576,17
1062204,14
1062828,12
1063452,14
1064080,13
1064696,15
1065324,16
1065948,15
1066568,19
1067196,21
1067816,23
1068444,20
1069072,17
1069696,16
1070324,12
1070948,11
1071576,16
1072204,16
1072824,18
1073452,22
1074072,27
1074696,33
1075324,31
1075940,19
1076572,12
1077192,14
1077816,18
1078444,11
1079060,11
1079692,12
1080312,14
1080936,14
1081564,17
1082188,16
1082816,11
1083448,10
1084064,11
1084692,10
1085316,11
1085948,12
1086576,19
1087192,22
1087820,19
1088444,15
1089068,14
1089696,14
1090312,16
1090940,16
1091564,19
1092188,23
1092816,28
1093432,25
1094060,19
1094692,14
1095312,12
1095940,13
1096564,15
1097192,14
1097824,16
1098440,19
1099068,23
1099692,19
1100316,15
1100944,10
1101568,11
1102196,11
1102820,11
1103444,13
1104072,19
1104688,18
1105320,15
1105948,18
1106568,22
1107196,20
1107820,15
1108448,22
1109080,22
1109696,21
1110324,18
1110948,16
1111572,12
1112204,10
1112824,12
1113452,14
1114076,16
1114700,16
1115332,14
1115952,12
1116584,13
1117212,12
1117832,12
1118460,13
1119084,11
1119716,11
1120348,11
1120968,12
1121596,15
1122220,16
1122844,15
1123472,16
1124088,14
1124720,14
1125344,19
1125968,24
1126596,20
1127212,20
1127844,16
1128472,11
1129088,12
1129716,14
1130340,14
1130968,15
1131596,14
1132216,15
1132844,11
1133468,10
1134088,10
1134720,14
1135336,17
1135964,13
1136592,15
1137216,16
1137844,14
1138464,15
1139092,17
1139724,14
1140344,19
1140972,21
1141596,27
1142228,27
1142856,20
1143476,17
1144104,16
1144728,15
1145352,12
1145980,13
1146600,16
1147228,15
1147852,15
1148476,15
1149104,13
1149724,13
1150352,13
1150980,13
1151600,12
1152228,13
1152852,15
1153480,15
1154108,14
1154728,16
1155356,15
1155980,15
1156608,15
1157236,15
1157856,14
1158484,18
1159104,21
1159728,18
1160360,16
1160976,17
1161604,15
1162228,13
1162848,15
1163480,18
1164104,15
1164732,14
1165364,14
1165984,13
1166612,10
1167236,10
1167868,10
1168496,13
1169112,20
1169740,23
1170364,22
1170988,18
1171616,14
1172240,16
1172868,17
1173492,18
1174116,17
1174744,19
1175368,17
1175996,19
1176628,14
1177248,13
1177876,16
1178500,13
1179132,10
1179760,14
1180376,16
1181008,18
1181632,15
1182252,16
1182884,10
1183504,11
1184132,11
1184756,11
1185380,11
1186012,14
1186632,18
1187264,19
1187892,12
1188512,15
1189140,15
1189764,17
1190392,15
1191024,17
1191640,21
1192268,24
1192892,21
1193516,16
1194148,14
1194768,14
1195396,13
1196020,13
1196644,13
1197276,14
1197900,15
1198532,16
1199160,15
1199784,16
1200412,14
1201036,11
1201668,10
1202296,11
1202912,12
1203544,13
1204168,12
1204788,15
1205420,14
1206040,15
1206668,17
1207292,22
1207920,22
1208548,21
1209172,16
1209804,19
1210432,21
1211048,22
1211676,16
1212300,13
1212932,12
1213560,15
1214184,14
1214812,15
1215436,14
1216060,11
1216692,10
1217312,11
1217940,11
1218568,12
1219192,17
1219820,19
1220444,22
1221076,26
1221704,20
1222328,16
1222960,15
1223580,15
1224208,17
1224836,16
1225456,19
1226084,25
1226708,27
1227336,19
1227964,13
1228584,11
1229216,13
1229844,16
1230460,17
1231092,15
1231716,14
1232344,15
1232972,12
1233592,12
1234220,11
1234844,12
1235468,13
1236096,15
1236712,13
1237340,13
1237964,13
1238588,15
1239216,14
1239840,16
1240468,18
1241096,18
1241720,22
1242348,19
1242972,19
1243600,20
1244228,16
1244848,13
1245476,11
1246100,11
1246724,15
1247356,20
1247976,27
1248608,21
1249228,11
1249852,13
1250484,14
1251104,16
1251732,14
1252364,10
1252984,14
1253612,19
1254236,16
1254868,15
1255496,16
1256112,18
1256744,19
1257368,15
1257992,14
1258620,13
1259240,17
1259868,15
1260492,12
1261116,12
1261748,12
1262368,14
1262996,18
1263628,16
1264248,17
1264876,17
1265500,15
1266132,11
1266760,10
1267384,14
1268012,15
1268636,16
1269260,17
1269892,16
1270512,17
1271140,15
1271764,15
1272388,16
1273020,16
1273640,15
1274268,11
1274900,10
1275520,15
1276148,17
1276772,19
1277404,21
1278036,16
1278656,13
1279288,17
1279912,24
1280536,20
1281164,15
1281780,15
1282408,13
1283032,12
1283656,12
1284284,10
1284900,11
1285532,15
1286160,16
1286776,15
1287404,15
1288028,15
1288656,15
1289284,14
1289904,15
1290532,16
1291156,16
1291780,17
1292412,16
1293032,18
1293660,19
1294280,19
1294904,17
1295532,18
1296152,18
1296780,16
1297404,15
1298024,14
1298652,13
1299276,11
1299908,11
1300536,10
1301152,14
1301780,17
1302404,19
1303032,24
1303660,18
1304280,12
1304908,14
1305532,15
1306156,15
1306788,14
1307408,13
1308036,17
1308660,19
1309284,15
1309912,15
1310536,16
1311164,19
1311796,11
1312416,13
1313044,19
1313664,19
1314292,15
1314920,15
1315536,15
1316164,11
1316784,13
1317408,11
1318036,18
1318656,29
1319284,27
1319904,19
1320528,12
1321156,12
1321772,15
1322404,16
1323032,16
1323648,17
1324276,19
1324900,19
1325528,19
1326156,21
1326776,21
1327404,22
1328028,16
1328648,15
1329276,10
1329896,15
1330524,14
1331148,14
1331772,15
1332400,11
1333020,11
1333652,11
1334280,11
1334896,12
1335524,13
1336148,11
1336776,14
1337404,12
1338024,17
1338652,17
1339272,14
1339904,13
1340532,14
1341152,13
1341780,13
1342404,16
1343024,17
1343652,17
1344272,19
1344900,14
1345520,12
1346144,13
1346772,15
1347396,13
1348024,15
1348652,14
1349272,12
1349900,11
1350524,11
1351152,11
1351780,13
1352400,15
1353028,18
1353648,20
1354272,17
1354900,14
1355520,14
1356148,15
1356772,18
1357396,18
1358024,21
1358640,26
1359272,29
1359900,22
1360520,13
1361148,12
1361772,13
1362400,15
1363028,14
1363648,15
1364276,15
1364896,15
1365520,15
1366148,11
1366768,11
1367396,10
1368020,11
1368640,11
1369268,10
1369888,15
1370516,22
1371144,21
1371768,16
1372396,15
1373020,15
1373648,16
1374280,21
1374896,23
1375524,17
1376148,11
1376772,11
1377404,12
1378024,12
1378652,12
1379276,15
1379896,15
1380528,13
1381144,15
1381772,15
1382396,11
1383024,13
1383652,15
1384276,11
1384904,11
1385532,10
1386152,12
1386780,15
1387404,19
1388032,17
1388664,15
1389280,15
1389908,14
1390532,17
1391156,19
1391788,21
1392408,25
1393036,23
1393660,24
1394288,19
1394916,13
1395540,10
1396168,14
1396796,16
1397416,15
1398044,15
1398668,16
1399296,17
1399928,14
1400544,11
1401172,11
1401796,11
1402420,13
1403048,15
1403664,14
1404296,14
1404920,16
1405540,15
1406172,14
1406796,15
1407424,14
1408056,15
1408672,17
1409300,16
1409924,12
1410552,13
1411180,18
1411800,25
1412428,19
1413052,16
1413676,13
1414304,14
1414928,16
1415556,13
1416180,12
1416804,14
1417432,11
1418056,11
1418684,14
1419316,16
1419936,17
1420564,16
1421188,18
1421820,15
1422448,15
1423064,15
1423696,16
1424320,15
1424940,16
1425572,18
1426192,17
1426820,16
1427444,16
1428068,16
1428696,22
1429320,21
1429952,17
1430580,16
1431200,15
1431828,17
1432452,15
1433084,14
1433716,12
1434332,12
1434964,11
1435584,11
1436208,11
1436836,10
1437456,11
1438084,15
1438708,15
1439332,16
1439960,15
1440584,13
1441212,14
1441840,18
1442456,22
1443084,16
1443708,12
1444336,12
1444964,12
1445580,13
1446212,16
1446836,14
1447456,14
1448088,15
1448704,16
1449332,12
1449956,11
1450576,11
1451208,11
1451824,13
1452452,14
1453084,14
1453704,15
1454332,14
1454956,14
1455588,15
1456216,14
1456832,15
1457460,12
1458084,17
1458708,18
1459336,19
1459952,24
1460584,23
1461204,17
1461828,11
1462460,10
1463080,16
1463708,15
1464336,16
1464960,16
1465588,13
1466212,11
1466840,14
1467472,15
1468088,12
1468720,11
1469344,14
1469968,14
1470596,14
1471216,15
1471844,15
1472472,17
1473092,16
1473724,16
1474344,18
1474972,18
1475604,17
1476224,18
1476852,15
1477476,11
1478104,12
1478732,10
1479352,13
1479980,18
1480604,17
1481228,16
1481856,15
1482472,10
1483104,11
1483728,11
1484348,11
1484980,10
1485596,14
1486228,17
1486856,15
1487472,15
1488104,14
1488724,14
1489352,14
1489984,14
1490600,16
1491228,25
1491852,21
1492480,19
1493108,18
1493728,22
1494356,17
1494984,12
1495604,11
1496236,14
1496856,15
1497484,16
1498108,14
1498736,15
1499364,11
1499988,12
1500616,11
1501248,11
1501864,11
1502496,11
1503120,12
1503748,12
1504380,12
1505000,16
1505628,15
1506252,15
1506876,15
1507504,10
1508128,11
1508756,19
1509388,19
1510008,16
1510636,15
1511260,17
1511892,18
1512524,16
1513144,15
1513772,14
1514396,15
1515024,15
1515652,11
1516272,11
1516900,11
1517524,11
1518148,11
1518780,14
1519400,17
1520028,21
1520660,21
1521280,17
1521908,15
1522532,16
1523164,16
1523792,16
1524416,19
1525044,20
1525668,18
1526292,15
1526924,11
1527544,13
1528172,13
1528796,15
1529424,17
1530052,15
1530672,15
1531304,15
1531932,14
1532552,12
1533184,11
1533808,11
1534436,11
1535068,10
1535688,14
1536320,19
1536940,18
1537564,14
1538192,14
1538808,14
1539440,15
1540060,16
1540684,15
1541312,16
1541928,17
1542560,17
1543188,14
1543808,14
1544436,14
1545060,13
1545688,11
1546320,14
1546936,14
1547564,13
1548188,15
1548812,19
1549440,16
1550056,11
1550688,13
1551312,14
1551936,14
1552564,13
1553184,11
1553812,11
1554444,12
1555064,16
1555696,15
1556316,14
1556948,15
1557576,10
1558200,12
1558828,13
1559452,13
1560076,16
1560708,21
1561328,23
1561956,17
1562580,12
1563204,14
1563832,14
1564452,14
1565080,15
1565708,11
1566328,12
1566956,11
1567580,11
1568212,11
1568840,12
1569456,12
1570084,13
1570708,13
1571336,14
1571964,14
1572584,15
1573212,15
1573836,13
1574460,13
1575092,16
1575712,16
1576340,13
1576972,14
1577592,20
1578220,19
1578844,16
1579476,17
1580108,14
1580728,15
1581360,15
1581984,13
1582608,12
1583236,10
1583856,13
1584488,12
1585108,14
1585736,21
1586364,14
1586984,11
1587616,11
1588244,14
1588864,15
1589492,16
1590116,15
1590748,11
1591376,10
1592000,14
1592628,18
1593252,21
1593880,20
1594508,14
1595128,13
1595760,17
1596384,16
1597008,15
1597640,14
1598256,15
1598884,12
1599516,10
1600136,11
1600764,11
1601384,11
1602012,13
1602644,15
1603260,15
1603892,12
1604512,15
1605136,15
1605764,14
1606384,17
1607012,15
1607636,14
1608260,18
1608888,22
1609504,23
1610132,20
1610764,18
1611384,15
1612012,14
1612636,12
1613268,14
1613896,16
1614512,17
1615140,17
1615764,12
1616388,11
1617020,11
1617640,12
1618268,11
1618892,15
1619512,18
1620144,11
1620760,11
1621388,13
1622012,14
1622640,16
1623268,15
1623892,14
1624524,18
1625152,14
1625768,14
1626400,15
1627020,14
1627652,12
1628280,11
1628904,16
1629532,21
1630156,20
1630780,17
1631412,14
1632032,15
1632660,12
1633288,11
1633912,13
1634540,19
1635164,19
1635796,16
1636428,14
1637048,15
1637676,15
1638304,15
1638928,15
1639556,14
1640172,15
1640800,14
1641424,19
1642044,19
1642672,17
1643288,17
1643916,17
1644540,14
1645160,15
1645788,17
1646408,18
1647036,15
1647668,14
1648288,14
1648916,11
1649536,12
1650164,12
1650792,10
1651408,11
1652036,12
1652656,12
1653280,12
1653908,10
1654528,15
1655156,14
1655776,15
1656400,16
1657028,13
1657648,12
1658276,14
1658904,17
1659520,19
1660148,17
1660772,11
1661400,12
1662028,11
1662648,14
1663276,14
1663900,14
1664524,17
1665152,16
1665768,13
1666396,11
1667020,10
1667640,11
1668268,10
1668884,15
1669516,14
1670136,13
1670760,11
1671388,13
1672008,15
1672636,15
1673264,17
1673880,18
1674512,24
1675132,23
1675764,22
1676392,16
1677008,12
1677636,11
1678260,12
1678884,11
1679512,16
1680128,17
1680756,15
1681376,14
1681996,16
1682628,11
1683244,15
1683872,20
1684504,19
1685116,16
1685748,14
1686368,11
1687000,12
1687628,14
1688248,17
1688876,15
1689500,16
1690124,16
1690752,16
1691368,16
1691996,24
1692620,25
1693240,23
1693872,19
1694488,17
1695116,13
1695740,12
1696368,15
1696996,14
1697616,15
1698244,17
1698876,12
1699496,12
1700124,13
1700748,10
1701376,11
1702004,10
1702624,11
1703252,15
1703872,13
1704496,15
1705124,14
1705744,15
1706372,15
1706996,17
1707616,16
1708248,15
1708868,15
1709496,18
1710128,20
1710744,25
1711372,22
1711996,13
1712628,13
1713256,14
1713876,13
1714504,15
1715128,16
1715752,12
1716380,11
1717000,13
1717628,11
1718252,11
1718876,15
1719504,16
1720128,17
1720756,14
1721384,14
1722008,15
1722636,15
1723260,17
1723888,15
1724516,18
1725136,19
1725764,19
1726388,17
1727012,15
1727640,14
1728260,12
1728888,13
1729508,14
1730132,14
1730760,14
1731384,15
1732012,13
1732640,11
1733256,12
1733888,13
1734512,11
1735140,14
1735768,14
1736392,15
1737020,13
1737644,13
1738268,16
1738896,14
1739512,13
1740144,17
1740768,19
1741392,12
1742020,11
1742640,16
1743268,17
1743896,17
1744520,15
1745148,15
1745772,13
1746400,15
1747028,13
1747648,15
1748276,14
1748900,11
1749524,11
1750152,10
1750768,11
1751400,12
1752024,11
1752644,16
1753276,18
1753896,16
1754524,14
1755156,14
1755776,15
1756404,15
1757028,13
1757660,13
1758288,16
1758908,15
1759536,17
1760160,19
1760780,17
1761412,18
1762032,21
1762660,21
1763280,16
1763904,14
1764532,13
1765152,13
1765780,10
1766408,12
1767028,19
1767660,14
1768280,10
1768912,12
1769540,14
1770160,17
1770788,19
1771412,15
1772040,13
1772668,14
1773288,20
1773916,20
1774540,19
1775164,19
1775792,18
1776416,17
1777044,17
1777676,16
1778296,16
1778924,14
1779548,15
1780176,15
1780808,14
1781424,16
1782052,13
1782676,11
1783300,11
1783932,12
1784552,13
1785180,11
1785804,11
1786428,14
1787056,13
1787680,16
1788308,15
1788940,14
1789560,16
1790188,17
1790816,19
1791444,21
1792076,22
1792692,20
1793320,18
1793944,18
1794568,13
1795196,12
1795816,15
1796444,16
1797068,14
1797692,15
1798320,14
1798944,12
1799572,11
1800204,10
1800824,13
1801452,14
1802076,19
1802704,22
1803336,21
1803952,14
1804580,13
1805204,14
1805828,15
1806456,17
1807080,17
1807708,22
1808332,23
1808952,22
1809580,19
1810200,15
1810828,12
1811452,11
1812080,11
1812708,14
1813332,14
1813960,14
1814588,14
1815208,14
1815836,11
1816460,11
1817088,12
1817720,13
1818336,13
1818964,16
1819588,15
1820212,15
1820840,15
1821464,15
1822092,15
1822716,15
1823344,15
1823972,16
1824596,21
1825228,22
1825856,18
1826472,18
1827104,17
1827728,14
1828356,12
1828988,10
1829608,15
1830236,15
1830860,15
1831484,14
1832116,11
1832736,11
1833364,11
1833996,10
1834616,11
1835244,11
1835868,13
1836500,11
1837128,18
1837752,21
1838384,19
1839008,16
1839632,15
1840260,14
1840880,20
1841508,26
1842132,29
1842756,33
1843388,31
1844004,21
1844632,16
1845264,13
1845880,14
1846508,13
1847132,14
1847760,16
1848388,16
1849008,13
1849636,11
1850256,15
1850884,11
1851512,10
1852136,12
1852764,16
1853388,17
1854012,15
1854644,14
1855264,14
1855892,15
1856524,14
1857144,11
1857772,11
1858396,15
1859024,19
1859656,16
1860272,17
1860900,15
1861524,13
1862148,12
1862780,14
1863400,17
1864028,17
1864652,15
1865276,14
1865904,13
1866520,12
1867152,14
1867780,13
1868400,12
1869028,15
1869652,21
1870280,21
1870912,17
1871528,15
1872156,15
1872780,14
1873412,14
1874040,17
1874664,25
1875292,25
1875916,25
1876540,21
1877168,21
1877792,18
1878420,13
1879052,12
1879672,15
1880304,13
1880928,15
1881556,15
1882188,11
1882808,15
1883436,11
1884060,11
1884688,13
1885316,12
1885936,19
1886564,18
1887188,16
1887812,16
1888444,14
1889064,16
1889692,16
1890320,14
1890944,14
1891572,19
1892196,22
1892828,19
1893456,15
1894076,13
1894704,12
1895328,13
1895952,15
1896580,14
1897200,14
1897828,15
1898452,15
1899076,11
1899708,10
1900328,11
1900956,11
1901588,11
1902208,15
1902836,14
1903460,15
1904092,15
1904724,16
1905344,16
1905972,14
1906596,15
1907220,16
1907848,18
1908472,21
1909100,22
1909728,21
1910352,23
1910980,23
1911600,24
1912232,21
1912860,17
1913480,15
1914112,15
1914736,15
1915368,17
1915996,14
1916616,14
1917248,12
1917872,13
1918496,14
1919128,14
1919744,16
1920376,15
1921000,17
1921624,15
1922252,16
1922872,16
1923500,19
1924132,26
1924752,29
1925380,26
1926004,19
1926632,17
1927264,15
1927880,14
1928508,11
1929132,13
1929756,14
1930384,14
1931000,14
1931632,15
1932256,15
1932880,14
1933508,14
1934128,15
1934756,12
1935388,12
1936008,14
1936636,17
1937260,15
1937888,14
1938520,14
1939136,14
1939768,15
1940392,15
1941016,21
1941644,23
1942264,22
1942892,19
1943516,19
1944144,20
1944772,22
1945392,19
1946024,16
1946652,14
1947272,15
1947900,15
1948524,15
1949152,14
1949784,12
1950400,11
1951028,12
1951652,11
1952276,15
1952908,18
1953528,21
1954156,18
1954780,16
1955404,15
1956036,14
1956656,15
1957284,13
1957916,14
1958536,13
1959164,13
1959788,13
1960420,14
1961048,12
1961668,12
1962296,13
1962920,15
1963544,15
1964172,14
1964792,15
1965424,12
1966048,11
1966672,11
1967300,11
1967920,13
1968548,13
1969180,14
1969800,17
1970428,15
1971052,14
1971680,14
1972312,15
1972928,17
1973556,19
1974180,19
1974804,18
1975432,16
1976056,15
1976684,13
1977308,12
1977932,11
1978560,11
1979184,15
1979812,15
1980444,14
1981064,15
1981692,14
1982316,13
1982948,12
1983576,10
1984200,11
1984828,11
1985452,11
1986076,14
1986704,13
1987320,12
1987948,14
1988572,15
1989196,16
1989824,17
1990444,15
1991072,17
1991700,18
1992320,21
1992948,19
1993572,19
1994204,16
1994832,13
1995456,12
1996084,14
1996712,15
1997336,16
1997964,14
1998584,12
1999212,11
1999836,12
2000460,17
2001092,14
2001712,13
2002340,17
2002968,22
2003592,22
2004220,17
2004844,15
2005472,17
2006100,18
2006720,23
2007348,24
2007972,27
2008596,24
2009224,19
2009848,19
2010476,17
2011100,12
2011724,11
2012352,11
2012972,14
2013600,16
2014228,14
2014848,15
2015476,11
2016100,11
2016732,11
2017360,11
2017976,11
2018608,13
2019228,16
2019852,17
2020484,14
2021104,15
2021732,14
2022356,16
2022984,17
2023612,17
2024232,21
2024860,25
2025492,28
2026112,23
2026740,18
2027364,13
2027996,11
2028628,10
2029248,15
2029876,14
2030500,15
2031124,15
2031756,15
2032376,11
2033004,12
2033628,11
2034252,13
2034884,18
2035504,21
2036132,23
2036764,22
2037384,15
2038016,15
2038640,17
2039268,17
2039900,18
2040520,19
2041148,21
2041776,21
2042400,21
2043028,16
2043648,20
2044276,20
2044904,17
2045528,14
2046156,14
2046776,15
2047408,15
2048036,14
2048652,11
2049280,12
2049900,10
2050528,11
2051156,10
2051776,15
2052404,14
2053024,16
2053648,21
2054276,22
2054896,16
2055524,17
2056144,17
2056768,16
2057396,18
2058016,25
2058644,29
2059272,23
2059888,16
2060516,14
2061140,12
2061768,15
2062396,16
2063016,17
2063644,15
2064268,14
2064896,14
2065524,11
2066144,11
2066772,12
2067396,12
2068016,12
2068648,17
2069264,21
2069892,15
2070512,11
2071136,15
2071764,16
2072388,16
2073016,15
2073644,11
2074260,16
2074892,20
2075512,22
2076140,20
2076772,17
2077392,17
2078020,13
2078644,11
2079268,15
2079896,14
2080520,15
2081148,14
2081768,14
2082392,17
2083020,16
2083640,15
2084268,11
2084896,10
2085512,13
2086144,15
2086764,15
2087392,17
2088024,15
2088640,15
2089268,17
2089892,18
2090512,18
2091144,19
2091760,23
2092388,20
2093012,18
2093636,20
2094264,17
2094880,13
2095508,11
2096136,14
2096760,15
2097388,14
2098012,14
2098640,13
2099268,10
2099884,11
2100512,11
2101136,11
2101764,11
2102392,14
2103016,17
2103644,17
2104268,15
2104892,14
2105520,16
2106144,19
2106772,17
2107404,20
2108024,19
2108652,17
2109276,13
2109908,15
2110536,18
2111152,16
2111784,15
2112408,16
2113028,15
2113660,14
2114280,16
2114908,18
2115532,11
2116152,11
2116784,11
2117400,12
2118032,13
2118660,12
2119280,15
2119908,17
2120532,16
2121160,15
2121792,14
2122408,17
2123036,17
2123660,15
2124292,19
2124920,24
2125536,22
2126164,20
2126788,18
2127412,11
2128040,13
2128656,14
2129288,15
2129908,17
2130536,17
2131164,14
2131788,14
2132416,13
2133044,12
2133664,11
2134292,10
2134916,12
2135548,20
2136176,23
2136792,20
2137424,17
2138048,14
2138672,20
2139300,24
2139920,28
2140548,32
2141172,29
2141796,22
2142428,17
2143048,11
2143680,11
2144308,11
2144928,11
2145556,11
2146180,14
2146808,14
2147440,17
2148056,15
2148684,16
2149308,21
2149932,14
2150564,11
2151180,15
2151812,16
2152436,16
2153056,11
2153688,12
2154308,14
2154940,15
2155568,14
2156184,15
2156816,11
2157436,13
2158068,17
2158696,24
2159320,27
2159948,27
2160576,21
2161196,15
2161828,10
2162448,14
2163076,13
2163700,15
2164324,14
2164952,13
2165576,11
2166208,11
2166836,12
2167456,17
2168084,17
2168708,17
2169340,15
2169968,17
2170588,13
2171216,16
2171840,15
2172460,15
2173092,14
2173712,13
2174340,17
2174964,21
2175588,19
2176220,20
2176844,17
2177472,12
2178100,11
2178720,12
2179348,14
2179972,15
2180600,18
2181228,16
2181848,11
2182476,13
2183100,18
2183720,13
2184352,11
2184968,12
2185596,11
2186220,11
2186844,11
2187476,15
2188100,14
2188728,15
2189356,14
2189976,16
2190604,15
2191228,20
2191860,23
2192492,20
2193112,19
2193740,21
2194364,16
2194988,11
2195620,13
2196240,15
2196868,15
2197492,15
2198116,15
2198748,12
2199372,11
2200004,13
2200632,14
2201248,16
2201880,15
2202504,13
2203132,12
2203764,11
2204384,15
2205012,16
2205636,15
2206260,15
2206892,12
2207512,12
2208144,12
2208764,12
2209392,18
2210020,21
2210644,17
2211276,11
2211904,10
2212528,14
2213156,14
2213780,16
2214404,16
2215036,12
2215656,11
2216284,12
2216908,11
2217532,13
2218164,14
2218784,14
2219412,12
2220044,11
2220664,15
2221292,15
2221916,15
2222548,15
2223180,14
2223800,13
2224428,16
2225052,13
2225676,14
2226308,16
2226928,24
2227556,22
2228180,18
2228804,15
2229436,13
2230056,15
2230684,14
2231316,14
2231936,14
2232568,13
2233192,11
2233820,11
2234452,10
2235072,11
2235700,14
2236328,11
2236952,11
2237580,14
2238200,15
2238832,15
2239456,17
2240080,20
2240708,19
2241328,19
2241956,22
2242588,22
2243208,17
2243836,13
2244460,12
2245088,14
2245716,17
2246336,19
2246968,16
2247588,15
2248216,15
2248844,11
2249464,11
2250092,14
2250716,12
2251340,11
2251972,12
2252592,14
2253224,17
2253852,16
2254472,16
2255100,15
2255724,15
2256352,16
2256984,12
2257600,12
2258228,18
2258852,25
2259476,23
2260104,18
2260720,12
2261352,11
2261976,13
2262600,15
2263228,14
2263848,15
2264476,15
2265108,11
2265728,11
2266356,12
2266980,16
2267612,14
2268240,11
2268856,11
2269488,13
2270112,15
2270736,18
2271364,14
2271984,15
2272616,17
2273240,19
2273864,14
2274492,12
2275112,15
2275744,15
2276372,17
2276992,20
2277620,17
2278248,15
2278876,14
2279508,14
2280128,17
2280756,15
2281380,15
2282004,11
2282636,10
2283256,12
2283884,11
2284508,11
2285132,11
2285764,14
2286384,15
2287012,14
2287644,14
2288264,15
2288892,15
2289516,14
2290148,12
2290780,16
2291400,21
2292028,23
2292652,20
2293276,19
2293908,17
2294528,15
2295156,11
2295780,14
2296404,16
2297032,16
2297656,16
2298284,13
2298916,10
2299536,12
2300164,10
2300788,10
2301420,11
2302052,13
2302672,16
2303304,17
2303928,17
2304552,18
2305180,15
2305800,15
2306428,17
2307052,21
2307676,23
2308304,23
2308920,22
2309552,20
2310180,18
2310800,13
2311428,11
2312052,11
2312680,17
2313312,15
2313928,15
2314560,15
2315184,11
2315808,12
2316436,10
2317056,11
2317684,14
2318308,15
2318932,15
2319564,11
2320184,11
2320812,14
2321440,14
2322064,15
2322692,16
2323316,14
2323948,17
2324576,23
2325192,24
2325820,21
2326444,15
2327068,13
2327696,10
2328320,12
2328948,14
2329572,14
2330200,15
2330828,14
2331448,15
2332076,11
2332708,10
2333328,11
2333956,13
2334584,13
2335212,16
2335844,18
2336464,19
2337092,14
2337716,16
2338340,18
2338972,17
2339592,17
2340220,12
2340844,11
2341468,13
2342100,18
2342724,23
2343352,27
2343984,23
2344600,19
2345228,18
2345852,15
2346484,14
2347112,15
2347736,13
2348364,12
2348988,11
2349612,11
2350244,11
2350864,14
2351492,13
2352120,16
2352744,15
2353372,16
2353996,16
2354628,15
2355260,15
2355880,16
2356508,17
2357132,19
2357760,21
2358388,19
2359008,19
2359636,19
2360264,19
2360888,12
2361516,12
2362136,18
2362764,15
2363392,14
2364016,15
2364644,15
2365268,11
2365900,11
2366532,12
2367152,13
2367784,17
2368408,26
2369032,26
2369660,14
2370280,13
2370908,19
2371532,17
2372156,15
2372788,14
2373408,15
2374036,13
2374668,18
2375288,21
2375916,17
2376544,11
2377172,10
2377804,10
2378424,13
2379052,15
2379676,15
2380300,15
2380932,18
2381552,20
2382180,16
2382804,11
2383428,12
2384060,12
2384680,12
2385308,17
2385940,14
2386560,13
2387188,16
2387812,15
2388444,14
2389076,14
2389696,14
2390328,12
2390952,13
2391576,19
2392208,20
2392824,21
2393456,18
2394080,17
2394704,15
2395332,12
2395952,15
2396584,15
2397212,14
2397832,15
2398464,12
2399088,11
2399720,11
2400348,11
2400968,13
2401596,14
2402220,14
2402844,13
2403476,12
2404096,15
2404724,14
2405348,14
2405972,15
2406604,13
2407224,14
2407852,19
2408480,22
2409104,23
2409732,19
2410356,17
2410988,13
2411616,11
2412236,14
2412864,14
2413488,14
2414112,14
2414740,14
2415360,13
2415988,13
2416616,11
2417240,12
2417868,14
2418488,16
2419116,16
2419748,16
2420368,16
2420996,15
2421620,14
2422252,15
2422880,15
2423504,13
2424136,14
2424760,16
2425384,17
2426012,17
2426632,17
2427264,13
2427884,13
2428508,13
2429140,13
2429764,14
2430396,14
2431028,16
2431648,12
2432280,11
2432904,13
2433532,16
2434164,16
2434784,19
2435412,19
2436036,21
2436660,19
2437292,16
2437912,17
2438540,22
2439164,26
2439792,24
2440420,21
2441044,17
2441676,17
2442304,19
2442928,19
2443556,19
2444180,12
2444808,11
2445436,14
2446056,16
2446688,15
2447312,15
2447936,15
2448568,10
2449184,11
2449816,11
2450444,10
2451064,11
2451696,11
2452320,15
2452948,13
2453580,11
2454200,15
2454832,17
2455456,19
2456080,19
2456708,15
2457328,15
2457960,17
2458580,15
2459204,15
2459832,18
2460456,15
2461084,10
2461712,10
2462336,15
2462964,14
2463588,15
2464220,15
2464848,14
2465464,14
2466092,12
2466716,10
2467340,10
2467968,12
2468588,15
2469216,20
2469840,19
2470460,16
2471092,14
2471712,16
2472340,20
2472972,18
2473592,17
2474220,13
2474844,17
2475476,20
2476108,22
2476728,20
2477356,13
2477984,12
2478608,13
2479236,16
2479856,15
2480484,16
2481108,17
2481732,14
2482364,11
2482984,11
2483612,11
2484244,10
2484864,11
2485492,12
2486116,14
2486744,15
2487376,15
2487992,14
2488624,16
2489248,16
2489872,15
2490500,15
2491120,19
2491748,19
2492376,17
2493000,17
2493628,19
2494248,18
2494876,13
2495508,14
2496128,15
2496756,14
2497380,15
2498012,15
2498640,10
2499256,13
2499888,12
2500508,10
2501132,13
2501764,18
2502384,19
2503016,15
2503640,11
2504264,15
2504892,14
2505512,16
2506144,16
2506772,16
2507392,15
2508024,19
2508648,13
2509276,11
2509908,12
2510528,15
2511156,11
2511784,13
2512408,18
2513036,18
2513656,15
2514284,15
2514908,12
2515532,11
2516164,10
2516784,11
2517416,11
2518044,14
2518664,15
2519296,15
2519920,16
2520548,20
2521180,16
2521800,17
2522428,23
2523052,24
2523676,26
2524308,24
2524928,23
2525556,23
2526180,23
2526808,15
2527436,10
2528056,11
2528684,12
2529316,14
2529936,16
2530564,15
2531188,15
2531820,11
2532452,10
2533072,11
2533704,12
2534328,15
2534952,15
2535584,17
2536204,16
2536832,14
2537460,14
2538084,14
2538716,14
2539340,14
2539972,12
2540600,13
2541224,19
2541852,23
2542476,23
2543108,18
2543740,12
2544360,12
2544988,15
2545612,16
2546236,15
2546868,14
2547488,16
2548116,16
2548748,12
2549368,12
2550000,11
2550624,16
2551252,19
2551884,19
2552504,16
2553136,13
2553760,16
2554384,15
2555016,14
2555632,15
2556264,16
2556888,15
2557512,16
2558144,17
2558764,13
2559396,13
2560028,14
2560644,13
2561272,13
2561896,13
2562524,14
2563152,13
2563768,15
2564396,16
2565020,12
2565640,11
2566272,12
2566888,13
2567516,11
2568140,13
2568760,14
2569392,13
2570008,20
2570636,18
2571260,14
2571888,17
2572516,17
2573140,14
2573768,17
2574396,14
2575016,14
2575644,15
2576268,16
2576896,17
2577528,14
2578144,16
2578772,17
2579396,15
2580020,14
2580648,14
2581272,15
2581900,10
2582524,11
2583144,11
2583776,11
2584400,11
2585028,13
2585656,15
2586276,15
2586908,14
2587528,14
2588160,15
2588788,14
2589408,15
2590036,11
2590660,13
2591284,17
2591916,18
2592536,17
2593164,22
2593788,22
2594416,19
2595044,14
2595668,14
2596300,14
2596928,14
2597544,14
2598176,13
2598800,15
2599428,15
2600060,15
2600680,11
2601308,13
2601932,14
2602556,23
2603184,20
2603808,18
2604436,15
2605068,14
2605688,16
2606316,15
2606940,14
2607572,19
2608200,24
2608824,24
2609452,18
2610076,17
2610700,13
2611332,10
2611952,12
2612580,14
2613204,15
2613828,14
2614456,14
2615080,11
2615708,10
2616340,10
2616960,13
2617588,13
2618212,11
2618844,12
2619476,12
2620096,15
2620724,16
2621352,15
2621976,15
2622604,14
2623224,13
2623852,14
2624476,17
2625096,21
2625724,25
2626344,20
2626972,16
2627600,15
2628216,15
2628844,15
2629468,14
2630096,18
2630724,14
2631344,14
2631972,11
2632596,13
2633220,14
2633852,11
2634472,13
2635100,19
2635724,19
2636348,15
2636976,14
2637592,13
2638220,15
2638844,16
2639472,19
2640100,16
2640724,16
2641352,23
2641980,26
2642596,19
2643228,17
2643848,20
2644476,18
2645104,15
2645728,15
2646356,14
2646980,15
2647604,15
2648232,12
2648848,10
2649480,12
2650104,11
2650724,11
2651352,11
2651976,12
2652608,17
2653236,16
2653856,16
2654484,14
2655108,15
2655736,16
2656368,14
2656984,16
2657612,17
2658236,21
2658860,19
2659488,18
2660104,17
2660736,14
2661360,13
2661984,16
2662612,17
2663236,16
2663864,17
2664492,14
2665108,11
2665740,10
2666360,11
2666988,12
2667616,14
2668236,15
2668868,18
2669488,20
2670108,14
2670740,14
2671360,15
2671988,14
2672612,15
2673236,14
2673864,19
2674480,23
2675112,24
2675740,19
2676360,17
2676988,16
2677612,11
2678240,12
2678868,13
2679488,15
2680116,15
2680740,15
2681364,14
2681992,11
2682612,13
2683240,14
2683864,16
2684484,14
2685116,16
2685736,22
2686364,16
2686996,15
2687616,15
2688244,17
2688868,17
2689496,16
2690124,16
2690744,20
2691372,17
2691992,19
2692616,21
2693248,23
2693864,20
2694492,14
2695116,14
2695740,16
2696368,16
2696984,15
2697612,15
2698236,11
2698864,14
2699492,13
2700116,12
2700748,10
2701376,11
2702000,15
2702628,15
2703252,14
2703880,16
2704508,15
2705128,15
2705756,15
2706380,14
2707004,16
2707632,17
2708248,21
2708880,27
2709500,27
2710128,29
2710756,20
2711380,17
2712012,17
2712640,15
2713256,14
2713888,15
2714512,15
2715140,14
2715768,12
2716392,13
2717020,14
2717644,18
2718268,25
2718896,20
2719520,13
2720148,16
2720776,14
2721400,15
2722028,16
2722648,17
2723280,19
2723908,20
2724528,21
2725156,19
2725776,16
2726404,16
2727032,15
2727652,12
2728280,13
2728904,15
2729524,14
2730156,14
2730776,15
2731404,12
2732028,10
2732656,11
2733284,11
2733908,10
2734540,11
2735168,12
2735788,11
2736416,13
2737040,15
2737668,14
2738296,14
2738920,15
2739548,14
2740172,10
2740796,10
2741428,14
2742048,24
2742676,24
2743308,20
2743928,16
2744560,12
2745180,13
2745812,15
2746440,14
2747056,15
2747688,15
2748312,13
2748936,13
2749564,14
2750184,12
2750812,11
2751436,11
2752060,15
2752692,14
2753312,13
2753940,15
2754568,16
2755192,14
2755820,17
2756444,18
2757076,18
2757704,26
2758328,30
2758960,23
2759584,18
2760208,14
2760836,11
2761456,14
2762084,16
2762708,14
2763332,15
2763964,14
2764584,16
2765216,14
2765844,10
2766464,12
2767092,15
2767716,18
2768344,21
2768976,18
2769592,19
2770220,19
2770844,15
2771468,16
2772100,18
2772720,19
2773348,23
2773972,26
2774596,23
2775228,20
2775848,15
2776476,11
2777108,10
2777728,13
2778356,13
2778980,15
2779612,14
2780240,14
2780864,15
2781492,11
2782116,11
2782740,11
2783372,10
2783992,11
2784624,13
2785248,15
2785872,18
2786500,20
2787120,17
2787748,17
2788380,18
2789000,17
2789628,14
2790252,13
2790884,15
2791512,18
2792132,22
2792760,20
2793384,17
2794008,18
2794636,14
2795256,16
2795884,14
2796508,14
2797132,14
2797764,14
2798384,11
2799012,13
2799644,14
2800264,13
2800892,11
2801516,15
2802148,15
2802776,14
2803396,12
2804024,14
2804648,15
2805268,15
2805900,16
2806520,18
2807148,22
2807772,27
2808396,27
2809024,24
2809648,23
2810276,18
2810908,11
2811528,10
2812156,15
2812780,15
2813412,15
2814044,14
2814664,13
2815296,11
2815920,11
2816544,12
2817172,16
2817792,14
2818420,13
2819044,11
2819664,12
2820296,14
2820912,15
2821540,15
2822172,15
2822792,15
2823420,13
2824044,13
2824672,18
2825304,18
2825920,19
2826548,18
2827172,14
2827796,12
2828428,12
2829048,15
2829676,14
2830300,14
2830924,16
2831552,11
2832176,11
2832804,11
2833432,14
2834056,13
2834684,12
2835308,14
2835940,11
2836568,12
2837184,14
2837816,15
2838440,15
2839064,15
2839692,14
2840312,15
2840944,15
2841568,20
2842192,24
2842820,23
2843440,21
2844068,16
2844700,14
2845320,15
2845948,15
2846572,15
2847204,18
2847832,17
2848456,18
2849084,13
2849708,12
2850332,16
2850960,18
2851584,12
2852212,18
2852836,15
2853460,12
2854092,14
2854712,15
2855340,15
2855972,14
2856592,13
2857220,12
2857844,12
2858476,15
2859108,22
2859728,28
2860356,21
2860984,19
2861608,15
2862236,12
2862856,15
2863484,13
2864112,15
2864736,13
2865364,10
2865988,11
2866620,12
2867252,10
2867868,11
2868500,13
2869120,21
2869752,19
2870380,16
2871000,17
2871628,15
2872252,18
2872876,23
2873508,24
2874128,24
2874756,22
2875380,17
2876004,12
2876636,11
2877260,12
2877888,11
2878520,14
2879136,15
2879764,14
2880392,15
2881020,16
2881648,15
2882264,15
2882892,12
2883516,12
2884136,14
2884768,11
2885384,18
2886012,16
2886636,11
2887260,14
2887888,15
2888504,14
2889132,16
2889764,16
2890384,15
2891012,15
2891636,16
2892264,18
2892896,19
2893512,21
2894140,18
2894764,13
2895388,15
2896016,14
2896632,14
2897260,15
2897884,14
2898508,11
2899140,10
2899760,11
2900388,11
2901020,12
2901640,18
2902268,13
2902892,14
2903524,18
2904152,15
2904776,15
2905404,15
2906032,18
2906652,21
2907284,24
2907904,26
2908532,25
2909156,21
2909780,17
2910412,14
2911032,12
2911664,12
2912292,14
2912912,15
2913540,15
2914164,14
2914796,11
2915424,11
2916044,14
2916672,17
2917296,16
2917920,15
2918552,16
2919168,15
2919796,11
2920420,15
2921044,15
2921672,16
2922292,15
2922920,13
2923548,16
2924168,19
2924796,19
2925420,17
2926052,13
2926684,12
2927304,14
2927936,14
2928560,15
2929184,15
2929812,14
2930432,15
2931060,15
2931688,13
2932312,12
2932940,10
2933560,11
2934192,15
2934820,21
2935440,19
2936068,17
2936692,14
2937324,16
2937956,18
2938576,20
2939208,18
2939828,16
2940456,12
2941084,14
2941704,18
2942336,22
2942960,23
2943584,17
2944216,14
2944840,13
2945468,14
2946096,14
2946720,15
2947348,15
2947972,11
2948604,11
2949236,12
2949856,13
2950484,12
2951108,12
2951732,15
2952360,17
2952976,15
2953608,15
2954232,15
2954856,14
2955484,15
2956108,18
2956740,13
2957368,11
2957992,16
2958624,16
2959248,13
2959876,15
2960508,18
2961128,18
2961756,17
2962380,15
2963004,16
2963632,17
2964256,16
2964884,11
2965516,10
2966136,11
2966764,11
2967388,13
2968020,15
2968648,16
2969268,12
2969896,14
2970520,15
2971140,15
2971772,14
2972392,15
2973020,16
2973644,18
2974268,18
2974896,16
2975520,13
2976148,11
2976780,10
2977400,14
2978028,21
2978652,19
2979280,14
2979912,15
2980528,17
2981156,16
2981780,17
2982404,16
2983036,10
2983656,11
2984284,11
2984908,12
2985532,11
2986164,14
2986784,16
2987416,14
2988044,14
2988664,16
2989292,17
2989920,17
2990548,17
2991180,18
2991800,27
2992432,27
2993052,24
2993676,17
2994308,12
2994928,12
2995556,14
2996180,15
2996804,15
2997436,14
2998056,11
2998684,11
2999316,10
2999936,12
3000568,11
3001192,13
3001820,20
3002452,20
3003072,22
3003704,19
3004328,18
3004952,17
3005580,14
3006200,19
3006832,19
3007456,21
3008080,22
3008708,22
3009328,24
3009956,24
3010588,23
3011208,22
3011836,19
3012460,15
3013092,14
3013724,15
3014344,17
3014976,13
3015600,15
3016224,14
3016852,12
3017472,12
3018104,12
3018728,13
3019352,15
3019984,13
3020604,14
3021232,14
3021864,14
3022484,13
3023112,11
3023736,11
3024368,15
3024996,14
3025616,16
3026244,17
3026868,16
3027496,16
3028124,14
3028744,14
3029376,14
3030000,16
3030624,16
3031256,15
3031880,13
3032508,12
3033140,10
3033760,11
3034388,14
3035012,14
3035644,17
3036276,16
3036896,17
3037524,16
3038152,16
3038776,16
3039404,14
3040024,15
3040652,20
3041276,23
3041904,20
3042532,18
3043160,17
3043788,17
3044420,16
3045040,14
3045672,15
3046296,18
3046920,15
3047548,16
3048168,11
3048796,11
3049420,11
3050048,11
3050676,10
3051296,13
3051928,15
3052556,10
3053176,13
3053808,15
3054432,15
3055060,16
3055692,15
3056312,15
3056944,15
3057568,18
3058192,19
3058824,16
3059440,16
3060072,12
3060696,12
3061320,14
3061952,16
3062568,14
3063196,15
3063828,14
3064448,13
3065080,11
3065704,11
3066336,12
3066964,14
3067584,14
3068216,12
3068840,13
3069464,15
3070096,16
3070716,14
3071348,16
3071972,16
3072600,16
3073228,16
3073848,21
3074476,21
3075104,21
3075728,21
3076356,22
3076980,17
3077612,13
3078240,12
3078856,15
3079488,15
3080112,15
3080736,15
3081364,12
3081984,14
3082612,11
3083236,11
3083860,11
3084488,10
3085112,14
3085740,13
3086372,12
3086992,15
3087620,15
3088244,15
3088876,16
3089504,17
3090124,16
3090752,17
3091376,22
3092000,19
3092632,13
3093248,12
3093880,11
3094504,13
3095128,14
3095756,16
3096376,18
3097004,15
3097636,16
3098256,13
3098884,11
3099508,10
3100140,10
3100768,12
3101388,13
3102020,15
3102644,18
3103268,15
3103900,15
3104520,15
3105152,17
3105776,17
3106400,18
3107028,19
3107656,17
3108284,19
3108916,20
3109536,21
3110168,15
3110792,13
3111424,12
3112052,15
3112672,15
3113304,16
3113928,15
3114552,12
3115180,11
3115800,11
3116432,11
3117060,13
3117680,15
3118308,13
3118936,17
3119564,16
3120196,14
3120816,15
3121444,15
3122068,14
3122696,16
3123324,15
3123944,18
3124572,18
3125196,19
3125820,18
3126448,16
3127072,14
3127700,12
3128332,12
3128952,15
3129584,15
3130208,15
3130836,16
3131468,11
3132088,12
3132716,11
3133344,12
3133968,14
3134596,12
3135216,13
3135848,11
3136472,11
3137096,15
3137724,14
3138344,14
3138972,15
3139604,20
3140224,27
3140852,27
3141476,25
3142108,18
3142740,11
3143360,12
3143992,12
3144616,11
3145240,15
3145868,14
3146488,15
3147116,16
3147744,15
3148368,10
3149000,12
3149616,15
3150244,15
3150876,16
3151496,18
3152128,13
3152752,14
3153380,17
3154012,14
3154632,19
3155260,19
3155884,16
3156512,14
3157140,17
3157760,20
3158392,18
3159016,20
3159640,20
3160272,22
3160888,16
3161520,11
3162152,14
3162772,14
3163400,14
3164028,14
3164656,11
3165288,11
3165904,12
3166536,12
3167160,13
3167784,11
3168416,11
3169032,12
3169664,15
3170288,17
3170912,15
3171544,15
3172168,15
3172800,15
3173428,18
3174048,20
3174680,22
3175304,19
3175936,17
3176564,14
3177184,11
3177816,11
3178440,15
3179064,15
3179696,16
3180312,15
3180944,16
3181572,10
3182192,11
3182824,12
3183448,11
3184080,11
3184708,13
3185328,14
3185960,17
3186584,14
3187208,15
3187836,14
3188456,15
3189088,15
3189712,11
3190336,14
3190968,23
3191588,24
3192220,22
3192852,14
3193472,12
3194104,11
3194728,11
3195360,14
3195992,19
3196612,16
3197244,15
3197868,11
3198492,10
3199124,10
3199744,10
3200380,10
3201000,12
3201620,15
3202252,16
3202872,15
3203500,15
3204128,14
3204752,15
3205380,20
3206004,17
3206632,15
3207260,17
3207880,19
3208508,20
3209132,22
3209756,19
3210384,14
3211000,11
3211628,13
3212252,15
3212876,15
3213504,14
3214128,15
3214756,11
3215388,10
3216008,11
3216636,10
3217260,12
3217888,16
3218516,20
3219136,19
3219764,15
3220388,14
3221012,16
3221644,16
3222264,19
3222892,14
3223516,18
3224144,24
3224772,22
3225392,22
3226024,21
3226652,18
3227272,13
3227900,11
3228524,14
3229156,15
3229784,14
3230404,14
3231032,14
3231656,11
3232280,10
3232908,10
3233528,12
3234156,12
3234780,15
3235408,15
3236036,13
3236656,14
3237284,15
3237912,15
3238536,16
3239164,15
3239788,16
3240420,19
3241048,14
3241664,10
3242296,11
3242920,12
3243544,11
3244172,10
3244792,12
3245424,15
3246048,15
3246672,15
3247300,14
3247920,12
3248552,11
3249180,11
3249800,12
3250428,11
3251052,11
3251684,12
3252316,14
3252936,14
3253564,14
3254192,15
3254816,16
3255444,14
3256064,15
3256692,19
3257316,21
3257940,23
3258572,14
3259192,18
3259824,20
3260452,18
3261072,15
3261704,15
3262328,15
3262956,15
3263588,14
3264208,15
3264836,11
3265460,11
3266084,11
3266716,10
3267336,12
3267964,15
3268588,16
3269216,15
3269844,13
3270468,15
3271100,15
3271732,14
3272352,15
3272984,15
3273608,18
3274236,19
3274868,18
3275488,19
3276120,18
3276744,12
3277368,12
3277996,12
3278616,15
3279244,13
3279864,14
3280488,15
3281116,11
3281736,12
3282368,12
3282996,10
3283616,13
3284244,14
3284864,15
3285492,17
3286120,16
3286736,15
3287364,14
3287984,14
3288608,16
3289236,16
3289856,17
3290484,18
3291104,18
3291728,19
3292356,18
3292976,17
3293604,13
3294232,13
3294848,12
3295476,15
3296100,14
3296728,15
3297356,14
3297972,12
3298604,12
3299224,12
3299844,11
3300472,12
3301096,15
3301724,18
3302348,15
3302972,15
3303600,14
3304224,15
3304852,15
3305480,15
3306096,11
3306728,11
3307348,11
3307980,15
3308608,20
3309232,17
3309860,12
3310484,12
3311108,15
3311740,18
3312360,16
3312988,15
3313612,15
3314236,15
3314864,11
3315488,11
3316116,10
3316748,12
3317368,14
3317996,18
3318620,19
3319252,12
3319880,18
3320496,23
3321128,21
3321748,18
3322372,15
3323004,12
3323624,11
3324252,11
3324876,12
3325500,14
3326128,12
3326752,11
3327380,11
3328012,10
3328628,15
3329256,15
3329880,15
3330508,15
3331136,11
3331760,12
3332388,11
3333012,11
3333636,11
3334268,12
3334888,14
3335516,17
3336140,19
3336764,14
3337392,13
3338008,14
3338640,16
3339260,14
3339888,15
3340516,16
3341140,21
3341768,24
3342396,21
3343016,19
3343644,17
3344268,14
3344896,14
3345528,14
3346144,14
3346772,14
3347396,16
3348020,13
3348648,11
3349272,11
3349900,11
3350524,12
3351152,15
3351780,16
3352404,17
3353036,14
3353664,14
3354288,15
3354916,15
3355540,15
3356168,13
3356796,13
3357416,18
3358048,20
3358672,19
3359296,21
3359924,18
3360544,15
3361172,12
3361800,14
3362416,14
3363048,15
3363668,15
3364300,13
3364928,10
3365544,11
3366172,11
3366796,11
3367424,11
3368056,13
3368672,17
3369300,18
3369924,18
3370544,14
3371176,15
3371792,15
3372424,17
3373048,17
3373672,21
3374300,21
3374924,20
3375552,17
3376184,18
3376800,14
3377428,14
3378052,13
3378684,16
3379312,16
3379928,15
3380556,14
3381180,15
3381800,17
3382432,18
3383048,20
3383676,21
3384300,21
3384924,18
3385552,14
3386172,13
3386800,15
3387428,14
3388048,23
3388676,32
3389300,27
3389932,24
3390560,24
3391176,28
3391808,25
3392432,17
3393056,15
3393684,11
3394304,11
3394932,15
3395556,13
3396180,16
3396808,17
3397424,16
3398056,11
3398684,11
3399304,13
3399932,13
3400556,11
3401188,13
3401816,14
3402432,17
3403060,14
3403684,14
3404308,14
3404936,14
3405560,15
3406188,14
3406812,15
3407436,17
3408064,18
3408680,17
3409308,17
3409940,14
3410560,11
3411188,12
3411812,15
3412440,14
3413072,14
3413688,14
3414320,13
3414944,11
3415568,11
3416196,10
3416816,13
3417444,12
3418068,15
3418692,17
3419324,19
3419944,17
3420576,14
3421204,14
3421824,15
3422452,16
3423076,17
3423708,23
3424340,22
3424960,18
3425588,16
3426212,15
3426836,13
3427468,16
3428088,23
3428716,19
3429340,13
3429968,15
3430596,16
3431216,13
3431844,13
3432476,12
3433096,13
3433724,13
3434348,12
3434980,11
3435608,10
3436232,13
3436860,13
3437484,14
3438108,14
3438740,16
3439360,17
3439988,20
3440616,22
3441240,21
3441868,16
3442488,15
3443116,14
3443748,12
3444368,14
3444996,17
3445620,15
3446248,14
3446880,14
3447496,15
3448124,12
3448748,15
3449372,15
3450004,11
3450624,13
3451252,15
3451876,15
3452500,15
3453132,16
3453752,15
3454384,16
3455012,17
3455632,17
3456264,17
3456884,16
3457516,16
3458144,17
3458760,20
3459392,19
3460016,13
3460636,11
3461268,12
3461888,15
3462516,15
3463140,15
3463764,15
3464392,11
3465012,11
3465640,12
3466268,10
3466888,14
3467516,17
3468140,15
3468772,20
3469404,21
3470024,16
3470652,17
3471280,24
3471904,24
3472532,22
3473152,20
3473780,17
3474408,17
3475032,16
3475660,22
3476280,19
3476908,14
3477540,14
3478160,16
3478788,15
3479416,15
3480044,15
3480676,16
3481296,13
3481928,13
3482548,13
3483172,12
3483804,12
3484424,13
3485052,13
3485676,15
3486300,15
3486928,15
3487552,15
3488180,15
3488808,16
3489432,17
3490060,15
3490684,17
3491312,19
3491940,18
3492560,17
3493188,16
3493812,12
3494436,13
3495064,15
3495688,15
3496316,14
3496940,15
3497564,14
3498196,10
3498820,10
3499452,10
3500080,11
3500704,13
3501336,13
3501960,12
3502592,12
3503220,14
3503840,15
3504468,15
3505092,15
3505720,15
3506348,10
3506968,11
3507600,11
3508220,12
3508848,15
3509476,15
3510100,12
3510732,10
3511364,10
3511984,15
3512616,18
3513240,15
3513864,15
3514492,10
3515112,14
3515744,13
3516368,14
3516992,18
3517624,16
3518240,16
3518872,14
3519500,14
3520120,14
3520752,15
3521376,15
3522004,16
3522632,22
3523256,25
3523884,23
3524508,19
3525128,12
3525760,10
3526376,11
3527004,11
3527628,14
3528252,16
3528884,14
3529504,14
3530132,15
3530764,14
3531384,17
3532012,19
3532636,19
3533268,15
3533900,10
3534520,27
3535148,30
3535772,27
3536396,31
3537028,28
3537648,30
3538276,26
3538900,24
3539524,18
3540152,10
3540776,17
3541404,25
3542036,30
3542656,32
3543284,29
3543908,35
3544540,33
3545168,37
3545792,40
3546420,43
3547044,34
3547668,17
3548300,12
3548920,13
3549548,12
3550172,11
3550800,12
3551428,14
3552048,18
3552676,14
3553308,15
3553928,15
3554556,15
3555180,15
3555812,13
3556444,10
3557064,18
3557696,27
3558320,23
3558944,14
3559572,11
3560192,11
3560820,13
3561444,15
3562072,15
3562700,14
3563320,15
3563952,15
3564580,13
3565200,12
3565828,11
3566452,11
3567084,11
3567716,10
3568336,13
3568964,16
3569588,16
3570216,17
3570844,16
3571464,15
3572092,18
3572720,20
3573344,25
3573976,24
3574600,17
3575228,15
3575860,14
3576480,13
3577108,11
3577736,11
3578368,15
3578996,17
3579616,15
3580248,15
3580872,14
3581496,11
3582128,11
3582744,10
3583376,10
3584008,12
3584628,17
3585260,15
3585884,17
3586512,21
3587140,18
3587760,16
3588388,15
3589012,15
3589640,11
3590268,19
3590888,24
3591516,24
3592144,25
3592768,23
3593396,20
3594016,19
3594644,16
3595276,14
3595896,13
3596528,14
3597152,14
3597780,11
3598412,10
3599032,12
3599664,12
3600288,13
3600912,14
3601540,16
3602160,21
3602788,17
3603412,15
3604036,15
3604668,14
3605288,15
3605916,13
3606544,18
3607160,22
3607792,21
3608416,17
3609044,16
3609672,15
3610296,15
3610924,13
3611544,15
3612168,13
3612800,14
3613416,15
3614044,15
3614668,11
3615292,14
3615924,12
3616544,12
3617172,12
3617804,14
3618424,15
3619052,14
3619676,14
3620308,14
3620936,15
3621552,17
3622184,22
3622808,25
3623432,22
3624060,17
3624680,14
3625308,15
3625932,16
3626556,13
3627184,10
3627808,11
3628436,15
3629068,14
3629688,15
3630316,15
3630940,11
3631572,10
3632204,10
3632824,11
3633452,11
3634076,11
3634700,13
3635332,10
3635952,12
3636580,16
3637204,17
3637828,15
3638460,14
3639080,15
3639708,12
3640340,12
3640960,14
3641588,11
3642212,11
3642844,11
3643476,10
3644096,12
3644724,19
3645352,20
3645976,17
3646604,14
3647224,16
3647852,12
3648480,11
3649100,10
3649732,10
3650352,13
3650980,12
3651612,12
3652232,13
3652860,12
3653484,16
3654116,14
3654744,14
3655368,15
3655996,18
3656624,17
3657248,19
3657876,18
3658496,17
3659124,17
3659752,13
3660376,12
3661008,11
3661624,14
3662252,14
3662884,14
3663504,15
3664136,13
3664760,11
3665388,11
3666020,12
3666640,11
3667268,12
3667892,16
3668516,17
3669148,14
3669768,15
3670396,17
3671024,19
3671648,19
3672280,16
3672904,17
3673532,20
3674164,19
3674784,17
3675416,15
3676040,17
3676672,13
3677300,11
3677920,10
3678552,15
3679176,15
3679800,16
3680432,16
3681052,10
3681680,13
3682308,14
3682928,15
3683556,17
3684184,20
3684812,23
3685444,20
3686064,18
3686696,15
3687316,15
3687940,17
3688572,24
3689192,29
3689820,25
3690444,19
3691064,19
3691696,18
3692312,20
3692940,23
3693564,18
3694192,18
3694820,14
3695444,15
3696076,14
3696704,15
3697320,14
3697952,11
3698576,13
3699204,20
3699832,17
3700452,13
3701080,11
3701704,12
3702328,11
3702956,12
3703576,15
3704208,15
3704832,14
3705456,17
3706088,13
3706712,16
3707340,19
3707972,20
3708592,18
3709224,13
3709848,14
3710472,15
3711100,14
3711720,15
3712352,15
3712976,15
3713596,14
3714228,14
3714848,13
3715476,11
3716108,10
3716728,12
3717356,13
3717984,15
3718612,20
3719244,20
3719864,16
3720492,15
3721116,15
3721740,15
3722372,16
3722992,22
3723620,24
3724244,21
3724868,19
3725500,18
3726120,15
3726748,13
3727380,12
3728000,14
3728628,14
3729252,14
3729884,15
3730512,15
3731132,11
3731760,11
3732388,10
3733012,11
3733640,12
3734264,17
3734896,21
3735520,21
3736144,15
3736772,13
3737392,15
3738024,17
3738652,18
3739272,19
3739900,23
3740528,26
3741156,20
3741788,14
3742408,14
3743036,11
3743664,11
3744288,11
3744916,13
3745536,15
3746164,15
3746792,15
3747416,14
3748044,10
3748664,11
3749292,12
3749924,13
3750544,15
3751172,18
3751800,17
3752428,15
3753060,14
3753680,15
3754308,16
3754936,17
3755560,21
3756192,24
3756808,28
3757436,25
3758064,19
3758688,19
3759320,17
3759944,13
3760576,11
3761208,11
3761824,15
3762456,14
3763080,15
3763712,15
3764340,11
3764960,12
3765588,11
3766216,11
3766840,11
3767472,12
3768088,18
3768720,23
3769348,23
3769968,20
3770596,14
3771220,15
3771852,18
3772480,22
3773104,29
3773736,29
3774360,26
3774984,24
3775616,16
3776232,12
3776864,12
3777488,11
3778112,15
3778740,15
3779360,17
3779988,15
3780620,13
3781240,13
3781868,13
3782496,12
3783124,11
3783756,12
3784376,16
3785004,16
3785632,16
3786256,17
3786884,16
3787504,15
3788136,15
3788760,15
3789384,13
3790016,12
3790632,14
3791264,17
3791896,16
3792512,21
3793144,16
3793768,13
3794396,14
3795028,18
3795648,20
3796276,19
3796904,17
3797528,15
3798160,13
3798776,11
3799408,12
3800032,10
3800656,11
3801284,11
3801904,18
3802532,24
3803164,21
3803784,19
3804416,16
3805040,15
3805668,13
3806300,12
3806920,17
3807552,28
3808176,21
3808800,18
3809428,17
3810048,16
3810676,15
3811304,15
3811928,17
3812556,18
3813176,15
3813808,17
3814436,13
3815056,13
3815684,17
3816308,20
3816940,20
3817572,18
3818192,17
3818824,12
3819448,11
3820072,17
3820704,19
3821324,20
3821952,20
3822576,21
3823200,23
3823832,27
3824456,20
3825088,12
3825716,12
3826336,13
3826968,12
3827592,11
3828224,13
3828852,13
3829472,15
3830104,15
3830728,13
3831352,11
3831984,11
3832604,11
3833236,12
3833868,12
3834488,16
3835120,18
3835744,18
3836376,16
3837008,14
3837628,15
3838260,15
3838884,15
3839512,19
3840144,24
3840760,26
3841388,20
3842012,17
3842636,12
3843264,11
3843880,12
3844512,15
3845140,18
3845760,17
3846388,17
3847012,15
3847644,11
3848272,10
3848896,12
3849524,12
3850148,15
3850776,16
3851404,16
3852024,14
3852652,12
3853276,13
3853900,15
3854532,14
3855152,16
3855784,14
3856412,16
3857032,17
3857660,19
3858284,17
3858916,19
3859544,16
3860168,11
3860796,11
3861420,15
3862044,13
3862676,14
3863296,15
3863924,14
3864552,11
3865176,11
3865804,10
3866424,10
3867052,11
3867684,12
3868304,15
3868932,15
3869556,15
3870188,15
3870820,14
3871440,15
3872068,15
3872692,11
3873316,11
3873948,20
3874568,26
3875196,21
3875824,21
3876448,24
3877076,17
3877704,12
3878332,14
3878964,14
3879584,15
3880216,15
3880840,12
3881468,12
3882100,14
3882720,15
3883352,11
3883976,11
3884600,14
3885232,16
3885848,13
3886480,15
3887104,14
3887728,15
3888360,15
3888984,13
3889612,14
3890244,14
3890864,14
3891496,15
3892120,18
3892744,20
3893372,16
3893992,12
3894620,14
3895248,13
3895868,15
3896500,14
3897120,15
3897748,11
3898380,10
3899000,11
3899628,11
3900256,12
3900884,15
3901516,16
3902136,13
3902768,13
3903392,14
3904016,17
3904644,14
3905264,16
3905892,14
3906516,15
3907144,18
3907772,19
3908392,23
3909024,23
3909652,20
3910272,15
3910904,12
3911528,14
3912160,15
3912788,14
3913408,15
3914040,12
3914664,11
3915288,14
3915920,16
3916536,20
3917168,22
3917792,23
3918416,20
3919044,20
3919664,19
3920296,17
3920924,14
3921544,24
3922176,22
3922800,23
3923428,23
3924060,28
3924680,34
3925308,33
3925936,29
3926560,21
3927192,13
3927808,13
3928440,15
3929064,15
3929688,15
3930316,14
3930936,11
3931568,15
3932196,16
3932816,16
3933444,13
3934068,12
3934700,17
3935328,18
3935952,15
3936584,15
3937208,14
3937832,15
3938460,15
3939080,18
3939708,19
3940336,18
3940960,17
3941588,15
3942212,11
3942844,11
3943472,10
3944096,12
3944724,17
3945348,21
3945980,19
3946608,19
3947224,16
3947856,14
3948480,12
3949104,11
3949732,10
3950352,11
3950984,12
3951608,19
3952232,27
3952864,24
3953484,16
3954116,15
3954748,16
3955368,19
3955996,18
3956620,19
3957252,20
3957884,20
3958504,19
3959132,15
3959760,13
3960384,12
3961012,11
3961632,15
3962260,15
3962892,16
3963512,16
3964144,11
3964768,11
3965400,11
3966028,11
3966648,12
3967280,11
3967904,13
3968528,13
3969160,11
3969776,15
3970404,15
3971028,14
3971652,15
3972284,13
3972904,15
3973532,22
3974164,19
3974784,19
3975412,18
3976036,15
3976668,12
3977296,11
3977920,14
3978548,15
3979176,14
3979800,15
3980428,14
3981048,11
3981676,11
3982300,13
3982928,11
3983556,12
3984176,13
3984804,13
3985436,12
3986056,13
3986684,15
3987312,15
3987940,15
3988572,14
3989192,18
3989824,22
3990448,26
3991072,21
3991704,15
3992320,13
3992952,11
3993576,16
3994204,20
3994832,19
3995456,18
3996084,15
3996716,14
3997336,12
3997968,10
3998592,11
3999224,11
3999852,11
4000472,13
4001100,15
4001724,16
4002348,15
4002976,16
4003600,15
4004228,14
4004852,15
4005476,15
4006104,11
4006728,12
4007356,17
4007988,16
4008608,17
4009236,17
4009860,20
4010492,19
4011120,13
4011740,15
4012368,18
4012992,15
4013616,17
4014244,14
4014864,11
4015492,11
4016116,11
4016740,11
4017368,12
4017992,17
4018620,15
4019252,11
4019872,15
4020500,14
4021124,15
4021752,19
4022384,19
4023000,22
4023628,20
4024256,16
4024880,19
4025508,20
4026128,20
4026756,13
4027380,11
4028004,14
4028636,16
4029260,15
4029892,14
4030520,13
4031144,12
4031776,12
4032400,11
4033028,11
4033660,12
4034280,17
4034908,17
4035532,17
4036156,16
4036788,14
4037408,15
4038036,16
4038668,16
4039288,16
4039916,13
4040544,12
4041172,14
4041804,13
4042424,13
4043052,13
4043676,14
4044304,12
4044932,14
4045552,15
4046180,14
4046804,15
4047428,12
4048060,12
4048680,11
4049308,11
4049940,10
4050560,12
4051188,17
4051816,17
4052444,15
4053076,14
4053696,15
4054328,14
4054952,16
4055576,18
4056208,20
4056824,20
4057452,22
4058080,17
4058700,13
4059332,11
4059952,11
4060584,11
4061212,14
4061832,17
4062464,15
4063088,15
4063716,15
4064348,10
4064968,11
4065596,11
4066220,15
4066848,11
4067476,16
4068096,23
4068724,23
4069352,14
4069976,14
4070608,16
4071224,15
4071852,15
4072484,13
4073104,22
4073736,24
4074360,22
4074992,17
4075620,15
4076240,13
4076868,13
4077492,19
4078120,17
4078748,14
4079368,15
4080000,15
4080620,13
4081248,13
4081876,11
4082500,11
4083132,13
4083764,15
4084384,18
4085016,15
4085640,13
4086268,14
4086900,14
4087520,15
4088152,15
4088776,16
4089400,18
4090032,18
4090648,19
4091280,19
4091912,16
4092532,12
4093160,10
4093788,10
4094420,13
4095052,14
4095672,14
4096308,15
4096928,16
4097548,11
4098176,10
4098792,11
4099420,11
4100044,12
4100664,12
4101296,18
4101912,18
4102540,15
4103160,15
4103784,15
4104412,15
4105036,15
4105664,16
4106292,21
4106908,25
4107540,25
4108160,21
4108792,14
4109420,11
4110040,11
4110668,11
4111292,14
4111916,13
4112544,14
4113168,15
4113796,16
4114420,12
4115040,11
4115672,11
4116296,11
4116924,11
4117552,13
4118176,13
4118804,13
4119428,14
4120056,14
4120688,14
4121304,15
4121932,15
4122556,12
4123180,14
4123808,20
4124424,19
4125056,22
4125676,23
4126300,16
4126932,10
4127552,11
4128184,15
4128812,15
4129428,14
4130060,15
4130684,12
4131312,11
4131940,11
4132560,12
4133188,11
4133812,11
4134436,11
4135064,13
4135684,13
4136312,15
4136936,14
4137560,16
4138188,18
4138808,16
4139436,17
4140068,20
4140688,19
4141316,18
4141940,15
4142572,13
4143200,11
4143816,11
4144448,13
4145072,14
4145696,15
4146324,14
4146944,15
4147572,11
4148196,10
4148820,11
4149448,10
4150064,10
4150696,14
4151324,15
4151944,17
4152572,17
4153196,15
4153828,15
4154456,15
4155080,15
4155708,13
4156332,17
4156956,21
4157588,22
4158208,29
4158836,25
4159460,20
4160084,16
4160712,15
4161328,15
4161960,15
4162588,14
4163204,14
4163836,13
4164460,10
4165088,12
4165716,10
4166336,12
4166964,13
4167588,20
4168212,21
4168840,16
4169464,15
4170092,15
4170716,20
4171340,23
4171968,21
4172588,16
4173216,16
4173848,18
4174464,19
4175092,19
4175716,15
4176348,12
4176976,10
4177592,11
4178224,15
4178844,15
4179468,16
4180096,14
4180712,11
4181344,13
4181968,13
4182588,13
4183220,12
4183840,15
4184468,19
4185096,15
4185720,13
4186348,15
4186972,15
4187600,15
4188228,15
4188848,14
4189476,14
4190100,15
4190724,16
4191356,14
4191976,14
4192608,13
4193228,12
4193852,11
4194484,14
4195104,15
4195732,14
4196364,14
4196984,15
4197612,11
4198236,11
4198868,11
4199496,10
4200120,12
4200748,15
4201372,18
4201996,19
4202624,19
4203240,15
4203868,15
4204492,15
4205116,17
4205744,18
4206368,21
4206996,23
4207628,20
4208248,15
4208876,11
4209500,13
4210128,15
4210760,12
4211376,13
4212008,15
4212628,14
4213256,15
4213884,11
4214504,11
4215132,10
4215756,11
4216380,13
4217012,14
4217632,16
4218260,15
4218892,12
4219512,17
4220140,17
4220764,15
4221396,16
4222028,18
4222648,17
4223276,16
4223904,15
4224528,15
4225156,14
4225776,18
4226404,18
4227028,17
4227652,18
4228280,19
4228896,16
4229528,16
4230156,14
4230776,11
4231404,11
4232028,11
4232660,10
4233288,13
4233904,13
4234536,13
4235160,12
4235784,11
4236412,13
4237032,15
4237660,15
4238284,15
4238908,17
4239540,14
4240160,11
4240788,11
4241416,20
4242040,25
4242668,22
4243292,19
4243920,15
4244552,16
4245168,14
4245800,14
4246424,15
4247044,14
4247676,12
4248296,14
4248924,11
4249552,11
4250176,11
4250804,19
4251424,21
4252052,23
4252684,28
4253304,20
4253932,15
4254556,17
4255188,17
4255820,14
4256440,18
4257068,16
4257692,13
4258316,12
4258948,16
4259568,17
4260196,19
4260820,20
4261444,15
4262072,15
4262692,19
4263320,17
4263948,11
4264568,13
4265196,13
4265820,10
4266448,14
4267080,16
4267696,17
4268324,14
4268948,15
4269572,16
4270204,14
4270824,15
4271452,17
4272076,14
4272700,14
4273328,21
4273952,27
4274580,24
4275212,16
4275832,10
4276460,11
4277084,11
4277716,13
4278344,14
4278964,14
4279592,14
4280220,14
4280844,10
4281472,11
4282088,13
4282720,14
4283344,11
4283968,15
4284596,17
4285216,17
4285844,12
4286476,14
4287096,16
4287724,16
4288352,15
4288980,12
4289608,16
4290232,20
4290860,21
4291484,20
4292108,18
4292740,12
4293360,12
4293988,12
4294616,15
4295240,15
4295868,14
4296488,16
4297116,13
4297748,10
4298368,11
4298996,11
4299624,12
4300252,13
4300884,14
4301500,15
4302132,16
4302756,17
4303376,17
4304008,15
4304624,15
4305252,16
4305876,17
4306500,21
4307132,18
4307752,13
4308380,12
4309012,10
4309632,12
4310260,10
4310888,11
4311516,14
4312148,14
4312768,13
4313396,15
4314024,15
4314648,11
4315276,10
4315896,12
4316528,11
4317152,11
4317776,11
4318404,12
4319024,13
4319656,17
4320288,19
4320904,18
4321532,15
4322156,12
4322788,11
4323416,11
4324036,11
4324664,15
4325288,15
4325912,13
4326540,11
4327160,13
4327788,17
4328412,18
4329036,16
4329664,14
4330288,14
4330916,11
4331548,10
4332168,11
4332796,11
4333424,12
4334052,13
4334684,16
4335304,17
4335936,14
4336560,16
4337184,15
4337812,14
4338432,15
4339060,13
4339688,19
4340312,21
4340940,17
4341560,15
4342192,11
4342820,10
4343440,11
4344068,11
4344692,15
4345324,14
4345952,15
4346576,15
4347204,12
4347828,11
4348452,13
4349084,10
4349704,12
4350332,12
4350960,12
4351584,12
4352216,14
4352836,16
4353468,15
4354096,14
4354712,14
4355344,13
4355968,13
4356596,16
4357228,18
4357848,15
4358476,14
4359100,14
4359724,11
4360352,10
4360976,13
4361604,14
4362228,15
4362852,14
4363480,15
4364104,11
4364736,10
4365364,10
4365984,11
4366612,11
4367236,11
4367868,17
4368500,16
4369120,16
4369748,15
4370372,15
4370996,15
4371628,15
4372248,15
4372876,15
4373500,16
4374128,21
4374756,24
4375384,26
4376012,19
4376644,14
4377264,12
4377896,14
4378520,14
4379144,16
4379772,16
4380392,13
4381024,11
4381648,11
4382272,11
4382900,11
4383520,15
4384148,18
4384780,16
4385400,15
4386028,17
4386652,15
4387284,14
4387912,16
4388536,19
4389164,15
4389792,16
4390416,20
4391044,18
4391664,16
4392296,15
4392920,13
4393544,12
4394176,11
4394792,14
4395424,15
4396056,15
4396672,15
4397304,11
4397928,11
4398560,13
4399188,11
4399808,10
4400440,12
4401064,17
4401688,19
4402316,21
4402936,15
4403568,15
4404188,20
4404812,19
4405440,15
4406064,14
4406692,15
4407324,16
4407944,17
4408576,19
4409200,17
4409828,11
4410456,10
4411080,15
4411708,13
4412336,15
4412960,15
4413588,16
4414208,12
4414836,11
4415464,13
4416088,11
4416716,10
4417336,12
4417964,12
4418596,16
4419216,15
4419844,15
4420468,15
4421100,17
4421732,16
4422352,14
4422984,16
4423608,17
4424232,18
4424860,11
4425480,11
4426108,12
4426732,11
4427356,12
4427988,14
4428612,14
4429244,14
4429872,14
4430488,11
4431120,11
4431744,10
4432372,11
4433004,10
4433624,12
4434252,11
4434876,12
4435500,12
4436132,14
4436752,14
4437384,15
4438008,17
4438632,20
4439260,21
4439884,23
4440516,23
4441148,16
4441768,15
4442396,14
4443020,12
4443652,10
4444284,12
4444904,14
4445532,15
4446156,15
4446784,15
4447412,10
4448032,11
4448660,11
4449292,10
4449912,13
4450544,21
4451168,25
4451796,20
4452428,13
4453048,15
4453680,16
4454304,17
4454928,18
4455560,14
4456176,11
4456808,15
4457432,21
4458056,20
4458684,19
4459304,15
4459936,13
4460564,11
4461184,15
4461816,15
4462440,15
4463068,15
4463700,12
4464320,11
4464948,10
4465572,11
4466200,13
4466828,14
4467448,15
4468076,17
4468700,17
4469328,17
4469956,14
4470576,15
4471204,18
4471836,19
4472456,19
4473088,21
4473712,21
4474344,21
4474972,17
4475592,16
4476224,13
4476848,11
4477472,13
4478104,13
4478720,14
4479352,15
4479980,17
4480604,14
4481236,11
4481860,10
4482488,11
4483116,12
4483736,11
4484364,13
4484988,12
4485620,12
4486248,13
4486868,14
4487496,15
4488120,15
4488744,12
4489372,12
4489992,15
4490620,19
4491244,23
4491868,23
4492500,20
4493124,13
4493756,11
4494384,14
4495008,15
4495640,15
4496264,15
4496892,15
4497524,12
4498144,11
4498772,11
4499400,12
4500024,12
4500652,11
4501272,13
4501904,14
4502532,14
4503152,15
4503784,15
4504408,15
4505040,15
4505668,10
4506288,14
4506916,22
4507540,22
4508164,21
4508796,18
4509416,15
4510044,12
4510668,12
4511296,16
4511924,14
4512544,15
4513172,14
4513804,10
4514424,11
4515052,11
4515676,10
4516308,11
4516940,12
4517560,19
4518188,21
4518816,17
4519436,15
4520068,14
4520688,15
4521316,16
4521940,16
4522564,18
4523196,22
4523816,24
4524448,19
4525076,16
4525696,21
4526324,13
4526948,11
4527580,14
4528212,14
4528832,15
4529460,14
4530084,15
4530708,11
4531340,10
4531960,11
4532588,11
4533212,11
4533836,12
4534468,15
4535088,22
4535716,22
4536348,16
4536968,15
4537596,16
4538224,20
4538852,20
4539484,26
4540104,27
4540736,18
4541360,15
4541984,16
4542616,19
4543232,21
4543864,18
4544488,14
4545112,15
4545744,15
4546360,14
4546992,13
4547620,10
4548240,11
4548868,11
4549492,14
4550124,14
4550756,10
4551376,12
4552008,13
4552628,16
4553256,15
4553884,14
4554504,15
4555136,17
4555760,21
4556384,19
4557016,14
4557640,14
4558268,17
4558900,18
4559520,13
4560152,12
4560772,13
4561404,14
4562036,14
4562656,14
4563284,15
4563908,11
4564532,13
4565164,11
4565784,13
4566416,15
4567040,16
4567664,18
4568296,14
4568920,13
4569548,14
4570180,14
4570800,16
4571428,17
4572056,21
4572680,29
4573312,28
4573928,23
4574560,24
4575184,21
4575808,13
4576440,10
4577060,11
4577688,15
4578320,17
4578940,14
4579568,15
4580196,13
4580824,15
4581452,13
4582072,11
4582704,12
4583328,14
4583952,12
4584584,16
4585204,18
4585832,13
4586456,17
4587080,23
4587712,16
4588328,21
4588956,32
4589588,38
4590208,37
4590836,34
4591464,29
4592092,23
4592724,12
4593344,11
4593972,11
4594596,15
4595224,17
4595852,16
4596472,17
4597104,13
4597728,15
4598352,14
4598984,11
4599600,13
4600232,13
4600864,12
4601480,13
4602112,11
4602736,15
4603368,15
4603996,14
4604616,14
4605248,15
4605872,15
4606496,17
4607128,17
4607744,17
4608380,16
4609000,14
4609620,13
4610252,15
4610872,17
4611500,16
4612132,14
4612752,15
4613380,15
4614004,12
4614636,11
4615264,12
4615880,11
4616512,11
4617136,12
4617760,15
4618388,16
4619008,15
4619636,14
4620260,15
4620884,15
4621512,16
4622136,15
4622764,16
4623396,17
4624016,20
4624644,18
4625268,19
4625900,17
4626528,15
4627152,13
4627784,15
4628408,14
4629032,15
4629660,14
4630280,15
4630908,15
4631532,14
4632160,13
4632788,11
4633412,13
4634044,12
4634676,10
4635296,13
4635924,15
4636552,14
4637180,15
4637812,14
4638432,16
4639064,17
4639688,19
4640312,18
4640940,22
4641560,21
4642188,17
4642812,12
4643440,11
4644068,13
4644692,15
4645324,14
4645952,14
4646572,15
4647200,11
4647824,11
4648452,11
4649084,10
4649704,14
4650332,13
4650956,20
4651580,17
4652212,12
4652832,15
4653460,15
4654092,14
4654712,15
4655344,12
4655968,12
4656600,15
4657228,19
4657848,25
4658480,26
4659104,20
4659728,15
4660356,10
4660976,15
4661604,14
4662228,15
4662852,15
4663484,14
4664104,11
4664732,11
4665364,11
4665984,11
4666612,13
4667240,17
4667868,21
4668500,21
4669120,21
4669752,18
4670376,15
4671000,15
4671632,15
4672248,15
4672880,22
4673500,33
4674124,29
4674756,23
4675376,19
4676004,13
4676636,11
4677256,12
4677884,14
4678512,15
4679140,15
4679772,14
4680392,15
4681020,17
4681644,20
4682268,17
4682900,13
4683520,14
4684148,16
4684776,16
4685400,15
4686028,15
4686648,15
4687276,16
4687908,22
4688528,23
4689156,27
4689784,25
4690412,22
4691044,22
4691664,24
4692292,20
4692920,16
4693544,16
4694172,18
4694792,17
4695424,15
4696048,15
4696672,18
4697300,13
4697928,13
4698556,11
4699188,10
4699808,10
4700440,15
4701064,17
4701696,15
4702324,13
4702944,13
4703576,14
4704200,17
4704824,17
4705456,17
4706072,20
4706704,21
4707336,20
4707956,18
4708584,19
4709212,14
4709844,13
4710476,12
4711096,15
4711724,14
4712348,15
4712972,15
4713604,11
4714224,11
4714856,11
4715480,11
4716104,11
4716736,12
4717352,14
4717984,16
4718616,16
4719232,15
4719864,15
4720488,15
4721116,16
4721748,16
4722368,16
4723000,16
4723624,19
4724248,17
4724876,18
4725496,16
4726128,13
4726752,13
4727376,12
4728008,14
4728624,14
4729256,14
4729884,14
4730504,13
4731136,11
4731760,12
4732392,13
4733020,11
4733640,12
4734272,14
4734896,17
4735520,17
4736152,16
4736768,19
4737396,16
4738020,15
4738644,12
4739276,14
4739896,19
4740528,26
4741156,26
4741776,23
4742404,14
4743028,11
4743660,11
4744292,18
4744912,21
4745544,22
4746168,22
4746792,19
4747424,13
4748044,11
4748672,14
4749300,13
4749924,15
4750556,13
4751180,11
4751812,14
4752444,21
4753064,19
4753692,15
4754320,16
4754948,19
4755580,20
4756200,21
4756828,23
4757452,20
4758080,17
4758708,14
4759328,15
4759960,16
4760592,15
4761208,15
4761840,15
4762460,15
4763092,15
4763724,12
4764344,13
4764972,13
4765596,12
4766224,13
4766856,12
4767472,15
4768104,15
4768728,14
4769352,15
4769980,14
4770600,15
4771228,16
4771860,14
4772480,17
4773108,18
4773736,21
4774368,19
4775000,16
4775616,15
4776248,12
4776872,12
4777496,15
4778128,14
4778744,14
4779376,15
4780000,14
4780624,11
4781256,10
4781876,11
4782504,11
4783136,12
4783756,14
4784388,14
4785012,16
4785644,14
4786276,14
4786896,14
4787528,15
4788152,17
4788776,16
4789408,17
4790028,19
4790656,20
4791284,18
4791908,18
4792540,15
4793168,13
4793796,11
4794428,14
4795048,14
4795680,15
4796304,15
4796936,12
4797568,11
4798184,11
4798816,12
4799444,13
4800068,11
4800700,10
4801320,13
4801948,16
4802580,14
4803200,15
4803828,16
4804452,16
4805084,16
4805712,16
4806336,20
4806968,23
4807592,24
4808216,17
4808844,16
4809464,14
4810092,11
4810720,13
4811344,15
4811972,14
4812592,15
4813224,19
4813852,24
4814472,27
4815100,26
4815724,23
4816356,21
4816984,16
4817608,11
4818236,15
4818860,24
4819484,28
4820116,24
4820736,21
4821364,16
4821992,11
4822616,11
4823244,18
4823864,21
4824492,23
4825124,27
4825744,27
4826372,28
4826996,24
4827628,17
4828260,14
4828880,15
4829508,15
4830136,14
4830760,14
4831392,13
4832008,12
4832640,12
4833264,13
4833888,13
4834516,11
4835140,13
4835772,15
4836404,14
4837024,15
4837656,16
4838280,17
4838912,16
4839540,18
4840160,19
4840788,16
4841412,15
4842036,12
4842668,11
4843288,15
4843916,13
4844544,14
4845168,15
4845796,15
4846424,15
4847052,11
4847684,10
4848304,11
4848936,13
4849560,13
4850184,15
4850816,16
4851432,16
4852064,15
4852688,15
4853312,15
4853944,14
4854560,15
4855192,16
4855824,16
4856440,19
4857072,19
4857696,17
4858324,13
4858956,12
4859576,11
4860208,12
4860832,16
4861456,15
4862088,14
4862704,14
4863336,14
4863964,11
4864592,10
4865220,10
4865840,11
4866468,12
4867100,16
4867720,19
4868348,17
4868976,14
4869604,13
4870236,16
4870856,18
4871484,20
4872112,22
4872736,21
4873368,22
4873984,22
4874616,19
4875240,18
4875864,13
4876492,10
4877112,11
4877744,15
4878372,15
4878992,15
4879624,15
4880248,11
4880876,11
4881508,10
4882128,13
4882756,14
4883384,17
4884008,15
4884636,14
4885256,16
4885884,15
4886512,14
4887136,15
4887764,16
4888392,15
4889020,16
4889652,18
4890272,20
4890900,18
4891524,17
4892156,17
4892788,10
4893408,10
4894040,14
4894664,14
4895288,14
4895920,16
4896536,16
4897168,13
4897800,10
4898416,11
4899044,11
4899672,11
4900304,11
4900932,13
4901552,17
4902184,15
4902808,15
4903432,15
4904064,15
4904680,15
4905312,15
4905936,16
4906560,16
4907192,15
4907808,16
4908440,18
4909072,17
4909696,16
4910328,15
4910952,15
4911584,14
4912216,15
4912840,15
4913472,12
4914096,14
4914724,14
4915356,12
4915976,15
4916604,20
4917228,18
4917852,13
4918480,11
4919096,14
4919728,16
4920356,19
4920976,20
4921604,20
4922228,19
4922856,23
4923484,24
4924104,23
4924732,21
4925360,19
4925984,14
4926612,12
4927232,13
4927860,15
4928488,13
4929108,14
4929740,14
4930360,12
4930988,12
4931620,12
4932240,13
4932868,15
4933492,18
4934124,21
4934752,14
4935376,12
4936004,15
4936628,15
4937252,15
4937884,16
4938504,17
4939132,20
4939756,21
4940384,18
4941012,15
4941636,13
4942268,12
4942896,11
4943516,11
4944144,15
4944768,15
4945396,15
4946028,14
4946648,15
4947276,11
4947900,12
4948524,11
4949156,10
4949776,12
4950404,11
4951028,11
4951656,13
4952288,15
4952912,15
4953544,15
4954172,14
4954792,14
4955424,14
4956048,16
4956680,17
4957308,16
4957928,16
4958556,16
4959184,14
4959808,14
4960440,12
4961056,15
4961684,14
4962316,14
4962936,15
4963564,12
4964188,11
4964820,10
4965448,11
4966072,13
4966704,15
4967328,16
4967948,14
4968580,11
4969200,15
4969828,15
4970452,15
4971076,15
4971708,13
4972328,11
4972956,13
4973588,16
4974208,23
4974836,27
4975464,24
4976092,19
4976724,14
4977344,15
4977972,14
4978596,15
4979224,15
4979852,16
4980472,11
4981104,12
4981728,14
4982352,13
4982984,13
4983600,14
4984232,17
4984864,17
4985480,17
4986112,16
4986736,16
4987368,15
4987996,18
4988616,21
4989248,21
4989872,23
4990496,21
4991128,18
4991748,18
4992380,15
4993004,11
4993628,10
4994256,13
4994876,15
4995504,15
4996136,14
4996752,12
4997384,11
4998008,11
4998636,11
4999268,10
4999888,12
5000516,12
5001140,16
5001764,17
5002396,18
5003016,16
5003648,15
5004272,16
5004896,17
5005524,19
5006148,22
5006780,19
5007412,18
5008032,20
5008660,19
5009284,13
5009916,11
5010548,13
5011168,15
5011800,15
5012424,14
5013048,16
5013680,12
5014296,11
5014928,11
5015560,11
5016180,10
5016808,15
5017436,22
5018068,15
5018696,13
5019316,15
5019944,15
5020572,14
5021196,20
5021824,18
5022448,17
5023076,17
5023704,23
5024328,27
5024956,23
5025576,16
5026208,14
5026836,11
5027456,13
5028088,13
5028712,15
5029340,15
5029972,14
5030592,13
5031224,16
5031848,19
5032472,19
5033104,13
5033720,11
5034352,11
5034976,11
5035600,14
5036232,16
5036848,15
5037480,14
5038112,15
5038728,16
5039360,20
5039984,20
5040616,18
5041248,15
5041864,13
5042496,11
5043120,11
5043744,13
5044376,16
5044992,15
5045620,14
5046248,15
5046872,13
5047500,11
5048120,11
5048752,11
5049380,10
5050000,13
5050632,13
5051256,13
5051888,13
5052516,14
5053136,15
5053768,14
5054392,15
5055016,14
5055648,16
5056272,17
5056904,17
5057528,18
5058152,14
5058784,13
5059408,11
5060036,11
5060668,14
5061288,15
5061916,15
5062544,15
5063176,14
5063808,10
5064424,10
5065056,11
5065680,11
5066304,14
5066936,16
5067556,18
5068184,15
5068816,12
5069440,14
5070068,13
5070696,17
5071328,18
5071960,17
5072580,15
5073212,15
5073836,14
5074460,13
5075092,13
5075712,17
5076344,16
5076972,16
5077596,17
5078228,17
5078856,18
5079488,15
5080120,10
5080736,13
5081368,16
5081992,17
5082624,15
5083252,15
5083872,16
5084504,16
5085128,14
5085752,15
5086384,14
5087004,14
5087636,14
5088268,12
5088888,15
5089520,17
5090144,21
5090776,20
5091404,17
5092024,14
5092656,16
5093280,16
5093904,15
5094536,16
5095156,15
5095784,14
5096412,14
5097036,11
5097668,10
5098288,12
5098920,11
5099552,11
5100168,15
5100800,18
5101424,13
5102056,12
5102688,14
5103308,15
5103940,15
5104564,16
5105192,16
5105824,17
5106444,19
5107076,17
5107700,13
5108328,11
5108960,11
5109584,13
5110216,15
5110848,15
5111468,14
5112100,14
5112724,15
5113352,12
5113984,11
5114604,12
5115236,12
5115864,12
5116488,11
5117120,14
5117740,17
5118372,14
5119008,15
5119628,15
5120260,15
5120884,17
5121512,16
5122140,18
5122760,25
5123388,26
5124012,23
5124632,21
5125260,19
5125880,17
5126508,13
5127132,14
5127752,17
5128384,16
5129000,14
5129628,15
5130256,12
5130880,12
5131508,11
5132132,11
5132760,11
5133392,13
5134008,16
5134636,15
5135260,14
5135884,14
5136516,14
5137136,15
5137764,15
5138388,13
5139012,15
5139644,20
5140264,20
5140892,17
5141524,15
5142144,16
5142772,11
5143396,11
5144028,14
5144656,13
5145276,16
5145904,15
5146528,15
5147152,14
5147780,14
5148400,11
5149028,12
5149652,15
5150276,17
5150908,18
5151528,18
5152156,18
5152788,14
5153408,15
5154036,16
5154660,19
5155292,20
5155920,16
5156540,15
5157168,15
5157792,14
5158416,15
5159044,11
5159664,11
5160296,11
5160920,13
5161544,15
5162172,14
5162792,15
5163420,12
5164052,10
5164672,11
5165300,11
5165928,11
5166556,11
5167188,10
5167808,12
5168440,12
5169060,17
5169684,17
5170316,16
5170936,15
5171568,15
5172192,15
5172812,16
5173444,16
5174064,11
5174692,11
5175324,10
5175944,11
5176576,12
5177200,13
5177828,15
5178460,15
5179080,15
5179708,15
5180336,12
5180960,13
5181588,10
5182208,15
5182836,16
5183464,15
5184088,15
5184716,15
5185336,11
5185964,17
5186596,16
5187216,17
5187844,17
5188468,16
5189100,16
5189728,16
5190352,18
5190984,15
5191608,16
5192232,18
5192860,21
5193480,15
5194112,13
5194736,15
5195360,15
5195992,15
5196616,13
5197248,12
5197876,10
5198496,11
5199124,15
5199752,17
5200384,16
5201012,14
5201632,15
5202260,15
5202884,14
5203508,14
5204140,14
5204760,15
5205388,12
5206012,13
5206640,15
5207268,13
5207892,18
5208524,19
5209152,14
5209776,13
5210404,14
5211028,19
5211656,16
5212284,17
5212904,16
5213532,11
5214160,12
5214784,12
5215412,11
5216032,12
5216660,15
5217292,14
5217912,13
5218544,13
5219168,15
5219800,15
5220428,16
5221048,18
5221680,15
5222304,13
5222928,17
5223556,14
5224176,11
5224804,11
5225428,13
5226052,19
5226684,16
5227304,15
5227936,14
5228564,14
5229184,15
5229812,15
5230440,15
5231068,14
5231700,10
5232320,11
5232948,11
5233572,12
5234200,13
5234828,19
5235448,19
5236076,15
5236704,15
5237328,18
5237956,18
5238576,19
5239204,22
5239836,22
5240456,21
5241088,21
5241712,15
5242344,10
5242972,10
5243592,12
5244220,15
5244844,16
5245464,15
5246096,15
5246712,13
5247340,13
5247968,13
5248592,12
5249220,11
5249840,13
5250468,14
5251096,17
5251712,15
5252344,15
5252964,15
5253596,14
5254224,15
5254840,14
5255472,11
5256092,12
5256716,16
5257348,22
5257968,28
5258596,29
5259220,23
5259844,17
5260472,15
5261092,15
5261720,16
5262348,14
5262968,14
5263596,12
5264220,12
5264848,11
5265480,10
5266096,12
5266724,15
5267348,23
5267972,21
5268604,16
5269224,15
5269852,14
5270476,14
5271100,16
5271728,16
5272352,19
5272980,22
5273612,16
5274232,17
5274860,18
5275484,14
5276112,11
5276744,13
5277364,16
5277992,15
5278616,15
5279240,16
5279868,13
5280488,13
5281116,11
5281740,10
5282364,11
5282992,11
5283608,12
5284240,14
5284860,18
5285488,20
5286116,15
5286740,15
5287368,15
5287996,14
5288616,14
5289244,16
5289868,20
5290496,22
5291128,20
5291744,19
5292372,17
5292996,15
5293620,14
5294248,16
5294872,15
5295500,14
5296124,14
5296752,11
5297380,11
5298004,11
5298632,11
5299264,13
5299880,15
5300508,15
5301132,13
5301760,13
5302392,15
5303008,15
5303640,15
5304264,15
5304888,14
5305516,14
5306136,19
5306764,19
5307388,20
5308016,21
5308644,15
5309268,13
5309900,14
5310532,14
5311152,15
5311784,14
5312408,19
5313032,19
5313660,11
5314280,11
5314908,17
5315532,18
5316156,12
5316788,16
5317408,25
5318036,21
5318668,14
5319288,13
5319916,14
5320544,15
5321172,16
5321804,14
5322424,18
5323052,17
5323676,16
5324304,19
5324936,20
5325552,16
5326180,15
5326804,15
5327424,15
5328052,14
5328668,14
5329300,14
5329928,14
5330544,15
5331172,13
5331796,12
5332428,12
5333056,11
5333680,13
5334308,12
5334932,13
5335560,15
5336188,15
5336808,15
5337436,15
5338060,19
5338684,23
5339312,22
5339936,17
5340564,13
5341196,15
5341816,18
5342444,13
5343068,11
5343700,11
5344328,16
5344952,14
5345580,14
5346204,15
5346828,14
5347456,12
5348080,11
5348708,11
5349332,10
5349956,13
5350588,15
5351208,15
5351836,11
5352468,16
5353088,17
5353716,19
5354340,21
5354972,19
5355600,19
5356224,24
5356852,19
5357476,15
5358100,10
5358732,10
5359352,13
5359984,12
5360608,15
5361232,14
5361860,16
5362480,15
5363108,14
5363740,12
5364360,11
5364988,13
5365612,15
5366244,16
5366872,16
5367496,15
5368124,13
5368748,12
5369372,16
5370004,14
5370624,16
5371252,17
5371876,16
5372504,18
5373132,16
5373752,20
5374384,17
5375012,16
5375632,11
5376264,11
5376888,11
5377516,14
5378144,14
5378768,15
5379396,14
5380020,12
5380644,12
5381272,11
5381888,10
5382520,13
5383144,17
5383768,16
5384396,15
5385016,13
5385644,15
5386276,22
5386896,28
5387524,18
5388148,15
5388776,15
5389408,16
5390028,20
5390656,20
5391280,18
5391904,31
5392536,26
5393152,17
5393780,15
5394404,15
5395028,14
5395660,14
5396280,15
5396908,11
5397540,12
5398160,12
5398788,11
5399416,12
5400044,14
5400676,18
5401296,17
5401928,13
5402548,15
5403172,15
5403804,15
5404424,17
5405052,18
5405676,20
5406304,17
5406932,16
5407556,13
5408188,15
5408816,14
5409432,12
5410060,12
5410684,13
5411316,13
5411944,14
5412560,14
5413192,14
5413816,12
5414440,12
5415068,10
5415688,11
5416316,12
5416940,12
5417568,13
5418196,14
5418820,16
5419452,14
5420084,14
5420704,15
5421336,16
5421960,13
5422588,15
5423220,23
5423840,23
5424472,20
5425096,21
5425720,17
5426348,14
5426968,13
5427600,16
5428220,14
5428848,15
5429476,15
5430100,13
5430728,11
5431360,10
5431976,10
5432608,11
5433232,10
5433860,15
5434492,21
5435112,20
5435744,17
5436368,16
5436992,15
5437620,19
5438240,19
5438868,19
5439500,18
5440120,18
5440748,17
5441372,11
5442000,13
5442628,13
5443248,11
5443876,14
5444500,14
5445124,15
5445756,14
5446376,17
5447008,19
5447632,14
5448256,11
5448884,12
5449504,16
5450132,19
5450764,17
5451384,14
5452012,11
5452636,14
5453268,15
5453896,18
5454520,23
5455148,24
5455772,19
5456396,17
5457028,15
5457648,16
5458276,14
5458900,11
5459524,12
5460152,13
5460776,16
5461404,15
5462036,14
5462656,15
5463284,12
5463908,11
5464540,11
5465172,10
5465792,12
5466420,11
5467044,11
5467668,11
5468300,12
5468920,16
5469548,15
5470172,15
5470796,15
5471428,16
5472048,14
5472676,16
5473308,17
5473928,15
5474556,14
5475184,12
5475812,13
5476444,12
5477064,14
5477696,15
5478320,15
5478944,15
5479572,15
5480192,12
5480820,12
5481444,13
5482068,15
5482700,14
5483320,15
5483952,13
5484580,10
5485200,11
5485828,15
5486452,15
5487084,15
5487716,14
5488336,11
5488964,13
5489588,20
5490212,17
5490844,20
5491464,22
5492092,19
5492716,17
5493340,13
5493972,15
5494596,14
5495228,14
5495856,14
5496476,13
5497104,10
5497732,10
5498360,12
5498992,13
5499608,13
5500236,12
5500864,12
5501488,12
5502116,14
5502736,15
5503368,14
5503992,15
5504616,16
5505248,20
5505872,22
5506500,20
5507132,18
5507752,15
5508384,11
5509008,11
5509636,11
5510268,11
5510888,15
5511516,14
5512144,18
5512768,19
5513396,15
5514016,13
5514648,12
5515276,10
5515896,14
5516528,15
5517152,12
5517784,11
5518412,11
5519032,16
5519664,17
5520288,17
5520912,19
5521540,19
5522160,19
5522788,22
5523416,19
5524040,14
5524668,12
5525288,13
5525916,11
5526548,10
5527168,15
5527800,14
5528424,14
5529056,14
5529684,14
5530304,11
5530932,10
5531556,11
5532180,10
5532808,13
5533432,18
5534060,21
5534688,19
5535312,19
5535944,15
5536560,14
5537192,14
5537820,14
5538440,16
5539068,17
5539696,17
5540324,21
5540956,22
5541576,22
5542208,18
5542832,16
5543456,15
5544088,15
5544704,15
5545336,17
5545960,16
5546584,13
5547212,11
5547832,15
5548464,15
5549092,17
5549712,17
5550344,15
5550968,16
5551600,14
5552228,16
5552848,15
5553476,15
5554104,16
5554728,15
5555360,15
5555976,19
5556608,21
5557232,19
5557856,15
5558488,13
5559112,14
5559744,12
5560372,12
5560992,16
5561624,16
5562248,15
5562876,15
5563508,10
5564128,11
5564760,11
5565384,12
5566012,12
5566644,14
5567264,16
5567896,17
5568528,13
5569144,14
5569776,14
5570400,16
5571032,15
5571660,15
5572280,15
5572908,16
5573532,17
5574160,17
5574788,22
5575408,21
5576040,17
5576660,11
5577284,14
5577916,14
5578536,15
5579168,15
5579796,13
5580416,13
5581048,14
5581672,11
5582300,12
5582932,12
5583552,13
5584184,13
5584808,16
5585428,16
5586060,15
5586680,15
5587308,16
5587936,16
5588560,17
5589188,23
5589808,27
5590440,29
5591068,24
5591688,23
5592316,16
5592944,17
5593572,14
5594204,14
5594824,14
5595456,15
5596080,15
5596704,12
5597336,12
5597952,12
5598584,11
5599212,12
5599836,15
5600468,20
5601092,15
5601724,11
5602352,14
5602972,14
5603600,15
5604224,15
5604852,16
5605484,18
5606104,21
5606736,18
5607356,15
5607984,16
5608612,15
5609232,15
5609860,11
5610484,15
5611108,13
5611740,14
5612364,14
5612996,14
5613624,12
5614244,12
5614872,11
5615496,12
5616128,12
5616756,14
5617376,15
5618004,12
5618628,12
5619252,15
5619884,16
5620504,18
5621132,15
5621760,10
5622384,11
5623016,14
5623640,18
5624272,18
5624900,14
5625520,11
5626152,12
5626776,17
5627400,18
5628032,15
5628648,14
5629280,15
5629904,11
5630528,11
5631160,13
5631780,16
5632412,11
5633040,12
5633656,13
5634284,12
5634908,14
5635536,16
5636168,16
5636784,16
5637412,15
5638036,15
5638664,14
5639292,16
5639912,25
5640540,29
5641164,28
5641788,22
5642420,16
5643040,14
5643668,13
5644300,14
5644920,15
5645548,15
5646172,15
5646804,10
5647432,12
5648048,13
5648680,12
5649304,14
5649928,20
5650556,22
5651176,17
5651808,13
5652432,14
5653056,15
5653684,16
5654304,21
5654932,19
5655564,19
5656184,23
5656812,24
5657436,22
5658068,18
5658700,12
5659320,11
5659948,13
5660572,14
5661200,13
5661828,14
5662448,15
5663076,14
5663700,13
5664328,13
5664956,10
5665576,11
5666204,11
5666836,14
5667456,14
5668084,13
5668708,15
5669340,15
5669972,14
5670592,15
5671220,16
5671844,14
5672472,18
5673100,19
5673720,17
5674348,13
5674972,16
5675600,15
5676228,16
5676848,18
5677476,15
5678108,14
5678728,15
5679356,15
5679984,11
5680616,11
5681244,11
5681864,15
5682496,14
5683120,11
5683744,15
5684372,14
5684992,13
5685620,14
5686244,15
5686868,15
5687500,14
5688120,12
5688748,16
5689380,20
5690000,23
5690628,23
5691256,23
5691884,17
5692516,12
5693136,12
5693768,16
5694392,15
5695016,15
5695648,15
5696264,14
5696896,11
5697520,11
5698144,11
5698772,10
5699396,12
5700028,15
5700656,14
5701280,16
5701908,15
5702536,15
5703164,14
5703796,15
5704416,19
5705044,18
5705668,21
5706296,19
5706924,18
5707544,15
5708176,11
5708804,11
5709424,11
5710052,11
5710680,15
5711312,15
5711944,14
5712564,14
5713192,10
5713820,11
5714444,12
5715076,12
5715696,13
5716328,12
5716952,13
5717576,12
5718208,11
5718828,14
5719456,14
5720088,15
5720708,15
5721340,14
5721964,14
5722596,17
5723228,14
5723848,15
5724480,17
5725104,19
5725728,19
5726360,17
5726980,15
5727612,15
5728236,16
5728860,15
5729492,14
5730116,11
5730748,10
5731380,12
5732000,14
5732632,13
5733256,13
5733888,17
5734520,17
5735144,15
5735772,14
5736396,15
5737020,15
5737648,16
5738272,17
5738900,20
5739532,24
5740152,29
5740780,25
5741408,20
5742036,16
5742668,10
5743288,12
5743916,14
5744544,15
5745168,17
5745796,14
5746416,13
5747044,11
5747672,11
5748296,11
5748924,10
5749544,12
5750176,16
5750804,15
5751424,19
5752056,18
5752680,15
5753308,17
5753940,16
5754560,17
5755192,11
5755816,12
5756440,19
5757072,24
5757688,24
5758320,23
5758944,22
5759568,22
5760200,19
5760816,17
5761444,14
5762072,15
5762688,15
5763320,13
5763940,13
5764572,14
5765200,15
5765816,12
5766448,12
5767068,13
5767692,13
5768324,12
5768944,15
5769572,15
5770196,14
5770820,15
5771452,12
5772072,16
5772700,21
5773332,23
5773952,22
5774584,18
5775208,17
5775836,15
5776468,12
5777088,14
5777716,14
5778340,13
5778964,16
5779596,14
5780216,12
5780844,11
5781468,11
5782092,11
5782724,14
5783344,17
5783976,15
5784604,13
5785224,15
5785856,15
5786476,15
5787108,15
5787736,15
5788360,15
5788988,19
5789612,21
5790236,20
5790868,18
5791488,18
5792120,11
5792740,11
5793364,11
5793996,14
5794616,13
5795244,14
5795876,14
5796496,15
5797124,13
5797748,11
5798380,11
5799012,11
5799632,11
5800264,11
5800888,15
5801512,15
5802140,14
5802760,16
5803392,17
5804016,16
5804640,15
5805268,14
5805892,18
5806524,21
5807156,20
5807776,15
5808408,13
5809032,12
5809660,12
5810292,14
5810912,14
5811544,15
5812168,15
5812792,15
5813424,13
5814040,14
5814672,15
5815300,14
5815920,15
5816552,17
5817176,19
5817808,15
5818436,10
5819056,14
5819684,15
5820308,14
5820936,15
5821564,15
5822184,25
5822816,25
5823440,25
5824064,19
5824692,14
5825312,13
5825940,11
5826572,12
5827192,15
5827824,16
5828448,19
5829076,20
5829708,14
5830328,11
5830960,13
5831584,13
5832208,15
5832836,15
5833456,18
5834088,17
5834712,17
5835336,16
5835968,15
5836588,14
5837216,16
5837848,19
5838464,16
5839096,14
5839720,15
5840352,15
5840980,18
5841600,21
5842228,17
5842852,16
5843476,16
5844108,16
5844728,15
5845356,15
5845984,15
5846608,11
5847236,10
5847856,13
5848484,15
5849116,14
5849736,12
5850364,12
5850988,11
5851620,11
5852252,14
5852872,15
5853500,15
5854128,15
5854752,14
5855384,16
5856000,16
5856628,18
5857252,17
5857880,15
5858508,13
5859128,12
5859760,14
5860388,16
5861008,15
5861640,15
5862264,15
5862896,14
5863524,12
5864144,11
5864772,11
5865400,13
5866024,13
5866652,15
5867272,15
5867904,20
5868528,15
5869152,15
5869784,15
5870408,15
5871036,14
5871668,14
5872288,15
5872920,18
5873544,17
5874176,16
5874808,18
5875424,17
5876056,14
5876680,13
5877304,14
5877936,14
5878552,14
5879184,15
5879816,12
5880436,11
5881064,10
5881692,11
5882320,12
5882952,11
5883568,12
5884200,15
5884824,15
5885448,15
5886080,14
5886696,15
5887328,14
5887956,15
5888584,16
5889212,16
5889832,17
5890460,17
5891092,16
5891712,15
5892344,14
5892968,14
5893596,18
5894228,16
5894848,15
5895480,15
5896104,13
5896728,12
5897356,12
5897976,11
5898608,11
5899232,13
5899856,17
5900484,16
5901104,19
5901732,18
5902364,14
5902984,15
5903616,16
5904240,15
5904868,11
5905496,12
5906120,16
5906748,19
5907376,21
5908000,19
5908628,14
5909248,15
5909876,12
5910504,14
5911128,14
5911756,14
5912376,15
5913008,12
5913636,10
5914256,11
5914884,11
5915508,11
5916140,11
5916772,14
5917392,15
5918024,16
5918648,17
5919272,16
5919904,15
5920524,19
5921152,21
5921776,20
5922400,18
5923028,22
5923652,20
5924284,16
5924912,15
5925536,13
5926168,11
5926792,13
5927420,15
5928052,14
5928672,16
5929300,15
5929928,11
5930552,11
5931180,10
5931800,10
5932432,11
5933064,11
5933680,11
5934312,14
5934936,15
5935568,15
5936196,15
5936816,16
5937444,15
5938072,14
5938696,18
5939328,19
5939944,20
5940572,19
5941196,17
5941820,13
5942452,10
5943072,11
5943700,15
5944332,14
5944952,13
5945580,15
5946208,14
5946836,11
5947468,10
5948088,11
5948716,11
5949344,11
5949968,14
5950600,16
5951216,15
5951848,17
5952472,16
5953096,15
5953724,14
5954344,16
5954976,14
5955604,14
5956224,18
5956852,18
5957480,19
5958108,21
5958740,16
5959360,15
5959992,15
5960616,17
5961240,16
5961868,14
5962488,14
5963116,12
5963744,13
5964368,11
5965000,12
5965616,15
5966244,13
5966876,16
5967496,18
5968128,15
5968748,16
5969380,15
5970012,16
5970632,17
5971264,17
5971888,19
5972512,26
5973140,29
5973760,31
5974392,21
5975016,14
5975640,11
5976272,11
5976892,15
5977524,14
5978156,14
5978776,15
5979408,15
5980032,11
5980664,13
5981292,14
5981912,12
5982544,12
5983168,13
5983792,15
5984424,16
5985040,16
5985672,15
5986296,15
5986920,16
5987552,21
5988176,21
5988804,20
5989436,20
5990056,19
5990688,19
5991312,17
5991944,11
5992576,10
5993192,14
5993824,16
5994448,15
5995072,16
5995704,13
5996320,14
5996952,13
5997584,11
5998200,11
5998832,12
5999456,14
6000088,13
6000716,13
6001336,14
6001964,14
6002592,15
6003216,15
6003844,15
6004464,16
6005096,16
6005720,19
6006344,21
6006976,23
6007592,22
6008224,17
6008856,15
6009476,12
6010108,13
6010732,14
6011364,15
6011992,14
6012616,14
6013248,12
6013872,11
6014496,12
6015128,11
6015748,11
6016380,14
6017004,18
6017628,15
6018256,15
6018876,16
6019504,14
6020136,18
6020756,18
6021388,19
6022012,19
6022644,18
6023272,16
6023892,17
6024520,16
6025144,16
6025772,12
6026400,11
6027020,15
6027648,17
6028276,16
6028900,14
6029528,15
6030156,12
6030784,11
6031416,10
6032036,11
6032668,11
6033292,17
6033920,21
6034552,20
6035168,17
6035800,16
6036428,15
6037052,17
6037684,16
6038304,18
6038936,19
6039568,22
6040188,22
6040816,27
6041444,27
6042076,20
6042704,14
6043328,15
6043956,14
6044584,15
6045208,15
6045836,15
6046456,12
6047088,11
6047712,11
6048336,11
6048964,15
6049584,15
6050216,14
6050844,14
6051464,17
6052096,15
6052720,15
6053352,15
6053980,16
6054600,13
6055232,13
6055856,16
6056480,21
6057112,15
6057728,14
6058360,15
6058984,14
6059608,18
6060240,19
6060856,15
6061488,15
6062120,15
6062736,14
6063364,12
6063992,11
6064624,11
6065252,10
6065872,12
6066504,13
6067128,16
6067752,17
6068384,18
6069004,15
6069636,14
6070260,15
6070884,15
6071516,15
6072140,16
6072772,19
6073404,15
6074024,15
6074656,16
6075280,16
6075912,13
6076544,13
6077160,16
6077792,15
6078420,14
6079044,14
6079676,10
6080300,11
6080928,11
6081556,12
6082176,14
6082808,12
6083428,11
6084060,16
6084688,14
6085312,15
6085940,15
6086568,15
6087192,15
6087820,14
6088440,15
6089068,16
6089696,15
6090320,17
6090948,19
6091568,17
6092200,13
6092828,13
6093448,14
6094076,14
6094700,15
6095332,16
6095964,14
6096584,12
6097216,14
6097840,13
6098464,13
6099096,12
6099712,11
6100344,13
6100968,15
6101592,16
6102224,14
6102844,15
6103476,15
6104108,14
6104728,12
6105360,11
6105984,19
6106616,23
6107244,21
6107864,18
6108496,15
6109120,15
6109744,15
6110376,15
6110996,14
6111628,15
6112252,14
6112880,13
6113512,11
6114136,12
6114768,12
6115400,13
6116016,13
6116648,15
6117272,16
6117896,13
6118528,14
6119152,15
6119784,15
6120408,15
6121032,17
6121664,15
6122280,19
6122912,18
6123544,17
6124164,16
6124792,17
6125416,15
6126048,11
6126680,12
6127304,15
6127936,15
6128564,14
6129188,15
6129820,11
6130440,10
6131072,11
6131696,10
6132324,11
6132956,16
6133580,17
6134212,15
6134848,14
6135464,16
6136096,16
6136724,15
6137352,19
6137984,17
6138604,15
6139236,19
6139860,25
6140488,25
6141120,18
6141740,13
6142372,11
6143004,11
6143628,14
6144260,14
6144884,15
6145512,16
6146140,14
6146760,11
6147388,11
6148012,11
6148636,13
6149264,14
6149884,16
6150512,17
6151136,17
6151760,17
6152388,14
6153008,17
6153636,19
6154268,24
6154888,25
6155516,24
6156144,21
6156772,20
6157404,16
6158024,15
6158656,18
6159280,15
6159904,12
6160536,14
6161152,15
6161780,17
6162404,16
6163028,11
6163660,12
6164280,14
6164908,12
6165540,14
6166160,21
6166788,24
6167412,19
6168044,13
6168676,13
6169296,15
6169924,15
6170548,17
6171172,17
6171804,19
6172424,24
6173052,24
6173680,17
6174304,17
6174932,19
6175560,15
6176188,11
6176820,14
6177440,15
6178068,15
6178692,15
6179324,15
6179956,12
6180576,16
6181204,13
6181832,11
6182456,13
6183084,16
6183704,13
6184336,11
6184960,10
6185584,15
6186212,16
6186840,17
6187468,19
6188100,18
6188720,21
6189352,24
6189976,21
6190600,17
6191232,16
6191848,11
6192480,11
6193104,11
6193728,15
6194360,16
6194980,15
6195608,14
6196240,12
6196856,10
6197488,11
6198112,13
6198744,13
6199372,14
6199992,15
6200624,16
6201248,15
6201872,14
6202504,14
6203120,14
6203752,17
6204376,16
6205000,17
6205632,18
6206248,18
6206880,17
6207508,18
6208128,16
6208760,13
6209384,13
6210012,13
6210644,14
6211264,15
6211892,14
6212520,15
6213144,11
6213772,13
6214392,13
6215024,12
6215648,12
6216276,11
6216904,13
6217528,14
6218160,18
6218792,16
6219408,15
6220040,16
6220668,16
6221300,17
6221928,18
6222552,21
6223184,21
6223808,20
6224436,15
6225064,12
6225688,13
6226320,13
6226944,14
6227568,15
6228196,15
6228824,15
6229452,15
6230084,10
6230704,11
6231336,11
6231960,12
6232584,15
6233216,19
6233832,21
6234464,21
6235088,15
6235712,15
6236344,16
6236960,16
6237592,17
6238224,16
6238844,17
6239472,14
6240100,14
6240728,19
6241356,20
6241976,18
6242604,15
6243232,18
6243856,19
6244484,15
6245104,15
6245736,15
6246360,11
6246984,11
6247616,12
6248232,15
6248864,13
6249492,12
6250112,16
6250744,18
6251368,16
6251996,19
6252628,24
6253248,19
6253876,16
6254504,17
6255128,24
6255760,24
6256376,26
6257008,24
6257632,19
6258256,15
6258884,15
6259504,17
6260136,16
6260764,15
6261384,15
6262016,15
6262640,15
