tempo_arduino_micro_s,valor_ADC
500,14
1004,14
1504,14
2000,14
2508,13
3000,10
3508,10
4000,10
4508,13
5000,14
5500,10
6000,10
6500,14
7004,15
7500,17
8000,15
8500,14
9000,14
9500,15
10000,19
10516,20
11036,17
11564,19
12084,22
12612,22
13132,23
13660,20
14180,16
14708,10
15228,15
15756,18
16276,16
16796,17
17316,13
17836,15
18356,15
18876,20
19396,18
19916,14
20436,10
20956,11
21476,10
21996,12
22516,13
23036,15
23564,17
24084,21
24612,15
25132,14
25660,15
26180,16
26708,19
27228,17
27756,13
28276,16
28804,18
29324,23
29852,21
30372,17
30900,15
31420,18
31948,12
32472,10
32996,10
33516,14
34044,14
34564,14
35092,14
35612,15
36140,13
36660,11
37188,10
37708,10
38236,10
38760,11
39284,10
39804,13
40332,14
40852,14
41372,16
41892,15
42412,14
42932,14
43452,15
43972,15
44492,12
45012,12
45532,15
46052,21
46572,21
47092,15
47612,13
48140,11
48660,11
49188,14
49708,16
50236,15
50756,14
51284,15
51804,14
52332,14
52852,10
53380,11
53900,11
54428,11
54948,10
55476,13
55996,12
56524,16
57044,17
57572,20
58096,22
58620,17
59140,17
59668,18
60188,19
60716,15
61240,12
61764,23
62284,31
62812,34
63332,37
63860,30
64384,25
64908,16
65428,11
65948,10
66468,12
66988,15
67508,15
68028,16
68548,14
69068,16
69588,13
70108,13
70628,12
71148,12
71672,11
72192,12
72716,14
73236,22
73764,24
74284,23
74812,19
75332,14
75860,14
76384,14
76908,17
77428,19
77956,23
78476,22
79004,20
79528,21
80052,19
80572,18
81100,17
81620,14
82148,11
82668,10
83196,14
83720,17
84244,16
84764,16
85292,16
85812,14
86340,11
86860,12
87388,11
87908,10
88436,10
88956,11
89484,12
90004,14
90524,18
91044,20
91564,19
92084,16
92604,15
93124,15
93644,15
94164,15
94684,12
95204,14
95724,21
96248,28
96764,26
97292,24
97812,22
98340,15
98860,10
99388,11
99908,14
100436,15
101000,16
101584,15
102156,15
102736,11
103304,11
103880,12
104456,13
105024,11
105600,13
106168,12
106744,12
107312,12
107896,13
108464,15
109040,16
109624,14
110192,14
110768,15
111336,11
111920,13
112492,22
113072,27
113640,26
114216,24
114792,24
115364,12
115944,11
116512,12
117096,16
117664,15
118240,16
118824,16
119392,13
119976,13
120548,12
121128,11
121696,11
122280,11
122848,13
123428,15
124008,16
124576,20
125160,19
125728,19
126312,16
126884,15
127456,15
128040,14
128608,15
129184,18
129752,20
130328,17
130896,18
131480,19
132048,18
132624,13
133200,15
133768,15
134344,15
134912,15
135496,18
136064,18
136648,12
137224,10
137792,10
138376,13
138944,11
139528,13
140096,18
140680,21
141252,27
141824,19
142408,14
142976,19
143560,18
144128,18
144712,20
145280,16
145864,18
146440,17
147008,11
147592,10
148160,10
148744,10
149312,12
149896,15
150464,14
151040,14
151624,15
152196,14
152776,12
153348,14
153928,15
154496,19
155080,20
155656,18
156224,14
156808,12
157376,12
157952,13
158524,15
159104,17
159676,17
160252,15
160832,15
161400,15
161976,16
162544,20
163128,26
163700,22
164280,18
164848,13
165416,10
165992,11
166560,14
167144,15
167712,16
168296,14
168864,16
169432,12
170008,14
170576,12
171152,12
171724,13
172304,15
172872,19
173456,19
174024,21
174600,20
175184,17
175756,15
176336,15
176904,15
177488,15
178056,13
178640,15
179216,22
179784,29
180360,30
180928,22
181512,15
182080,11
182664,13
183232,16
183808,15
184392,15
184960,15
185544,15
186116,11
186696,9
187212,11
187792,11
188364,11
188936,11
189520,14
190088,23
190672,25
191244,23
191824,15
192396,15
192976,15
193552,16
194124,17
194704,18
195272,18
195856,19
196424,22
197008,16
197576,14
198156,15
198736,13
199304,11
199888,13
200460,19
201040,17
201608,15
202192,15
202768,14
203336,15
203920,18
204492,11
205072,17
205640,19
206216,18
206784,21
207352,23
207928,18
208496,16
209080,17
209648,17
210224,16
210792,18
211376,19
211944,22
212520,24
213104,26
213672,22
214256,16
214824,14
215408,12
215976,14
216556,17
217136,17
217704,19
218288,17
218856,16
219440,11
220008,11
220592,11
221160,10
221736,12
222320,10
222892,13
223472,16
224044,15
224624,15
225192,16
225772,15
226352,17
226920,15
227504,14
228076,12
228656,16
229224,25
229808,25
230380,26
230956,19
231536,13
232108,12
232688,13
233256,18
233840,15
234408,14
234984,15
235568,17
236136,14
236720,11
237292,10
237872,9
238392,10
238968,11
239548,16
240124,17
240704,21
241272,20
241856,15
242428,16
243008,14
243580,15
244160,16
244728,11
245308,12
245888,15
246456,19
247040,20
247608,22
248192,20
248760,13
249336,12
249920,16
250488,19
251072,18
251640,15
252224,15
252792,13
253376,17
253948,21
254524,14
255104,13
255676,19
256256,31
256832,21
257408,19
257976,19
258544,15
259128,15
259696,21
260280,26
260848,26
261432,27
262000,31
262584,30
263152,29
263728,22
264312,24
264880,22
265464,13
266032,11
266616,13
267184,14
267760,15
268344,16
268912,17
269496,17
270064,14
270648,12
271216,11
271800,10
272372,10
272944,15
273528,19
274100,27
274680,24
275248,19
275832,15
276404,15
276980,14
277560,15
278132,18
278712,16
279284,15
279864,17
280436,23
281016,25
281588,19
282164,14
282744,14
283312,17
283896,16
284468,17
285048,17
285616,15
286196,11
286776,11
287344,11
287928,11
288500,11
289080,15
289648,15
290232,15
290804,23
291376,22
291960,16
292528,15
293112,14
293684,15
294264,12
294836,11
295408,18
295992,27
296564,27
297144,22
297712,15
298296,12
298864,14
299448,13
300020,18
300596,19
301176,17
301748,15
302328,15
302900,11
303480,12
304052,11
304628,11
305208,11
305780,11
306360,15
306932,19
307512,23
308092,25
308672,20
309240,16
309816,14
310400,16
310968,13
311552,12
312124,17
312704,22
313276,25
313852,23
314432,18
315004,13
315584,14
316156,18
316736,20
317316,20
317896,18
318480,15
319052,15
319632,11
320204,11
320784,11
321352,12
321936,12
322504,15
323084,19
323664,21
324232,23
324816,20
325384,16
325968,14
326540,15
327120,16
327696,14
328264,18
328840,23
329408,17
329984,11
330552,10
331136,11
331708,11
332280,13
332864,14
333432,20
334008,23
334576,19
335160,13
335732,15
336312,10
336880,11
337456,11
338032,13
338600,11
339184,12
339756,20
340336,19
340904,19
341480,19
342064,16
342632,15
343216,15
343784,15
344368,13
344936,14
345520,19
346092,24
346664,19
347248,11
347816,11
348400,11
348968,13
349552,15
350124,18
350700,17
351280,15
351852,15
352432,15
353000,11
353584,10
354156,11
354736,13
355308,11
355884,14
356464,22
357036,24
357616,25
358188,19
358768,16
359344,16
359924,15
360504,15
361072,13
361656,17
362224,20
362808,21
363376,21
363960,21
364532,25
365108,19
365688,14
366256,16
366840,19
367412,15
367992,13
368564,16
369140,15
369720,14
370288,11
370872,11
371444,14
372024,24
372592,27
373176,24
373748,18
374324,14
374904,14
375476,16
376056,15
376624,15
377208,16
377780,16
378352,19
378936,19
379504,22
380088,26
380660,19
381240,15
381812,11
382392,9
382912,11
383484,17
384064,25
384636,22
385216,16
385784,15
386368,10
386940,11
387520,12
388088,10
388664,15
389248,21
389816,27
390400,25
390968,23
391552,22
392124,15
392696,14
393280,16
393852,16
394432,15
395004,19
395584,22
396156,23
396736,22
397320,19
397892,16
398472,11
399044,11
399624,11
400196,13
400776,15
401344,15
401924,15
402504,15
403076,10
403656,14
404228,12
404808,12
405376,13
405960,12
406536,15
407108,11
407688,11
408260,14
408840,15
409412,16
409992,17
410568,15
411136,11
411712,11
412280,14
412864,15
413432,13
414008,17
414576,21
415160,17
415728,15
416304,12
416888,16
417456,13
418032,15
418600,15
419184,14
419756,11
420332,11
420912,11
421480,11
422064,11
422636,12
423216,20
423784,24
424368,26
424936,23
425516,15
426096,15
426664,20
427248,20
427816,19
428400,23
428968,25
429544,22
430128,18
430696,11
431280,10
431852,11
432432,10
433000,16
433584,19
434156,19
434732,15
435312,14
435880,14
436464,10
437036,10
437616,11
438184,11
438764,11
439344,11
439916,15
440496,21
441068,23
441648,22
442216,20
442800,17
443368,15
443944,24
444528,29
445100,31
445680,29
446248,23
446832,13
447404,10
447980,14
448560,13
449132,12
449712,16
450284,18
450864,16
451432,16
452016,16
452584,13
453160,12
453744,18
454316,22
454896,22
455472,19
456056,13
456624,14
457204,16
457784,18
458356,17
458936,15
459508,15
460088,15
460668,15
461248,14
461832,15
462404,15
462984,18
463556,24
464136,28
464704,27
465288,19
465856,16
466436,20
467016,18
467588,15
468168,14
468740,15
469320,13
469892,14
470472,18
471056,14
471628,15
472208,17
472780,17
473360,19
473932,18
474512,13
475084,14
475660,15
476240,15
476812,15
477392,15
477964,18
478544,20
479124,21
479700,22
480280,16
480852,14
481432,17
482004,11
482584,11
483152,15
483736,21
484308,18
484884,14
485464,18
486036,14
486616,11
487192,15
487776,17
488348,24
488920,14
489504,11
490076,12
490656,16
491228,21
491808,17
492380,16
492960,15
493528,15
494108,14
494688,11
495260,14
495840,17
496412,20
496992,22
497560,19
498140,15
498720,11
499292,11
499872,14
500444,14
501024,15
501596,14
502176,16
502756,12
503332,14
503912,13
504484,10
505064,10
505636,11
506216,13
506788,14
507364,15
507944,13
508516,14
509096,14
509668,15
510248,18
510828,17
511408,13
511988,18
512564,22
513144,30
513712,27
514296,20
514864,15
515448,11
516016,14
516592,16
517176,15
517744,15
518328,14
518900,16
519480,14
520052,14
520632,12
521204,11
521776,11
522360,11
522928,14
523512,15
524084,16
524664,15
525236,15
525808,15
526392,15
526964,16
527544,18
528116,16
528696,18
529264,24
529848,21
530420,15
530996,18
531576,16
532148,11
532728,11
533296,14
533880,13
534448,15
535024,14
535608,15
536180,11
536760,11
537332,12
537912,11
538484,11
539064,11
539636,17
540212,19
540792,21
541364,19
541944,16
542516,14
543096,15
543668,15
544244,13
544824,11
545392,17
545976,26
546544,33
547128,32
547700,24
548280,15
548852,11
549428,11
550008,14
550580,14
551160,15
551732,18
552312,17
552884,12
553460,11
554040,11
554612,14
555192,11
555764,11
556344,16
556916,14
557496,13
558068,15
558644,14
559224,14
559796,14
560376,18
560956,18
561536,17
562108,16
562684,16
563264,15
563832,11
564416,12
564988,11
565568,13
566140,15
566720,17
567288,16
567868,18
568448,15
569016,14
569600,11
570168,11
570752,11
571324,11
571900,11
572480,15
573052,21
573632,21
574204,19
574784,17
575356,15
575936,14
576520,15
577092,17
577672,18
578240,22
578824,21
579392,24
579976,23
580548,22
581124,18
581704,13
582276,10
582856,18
583428,21
584008,17
584576,16
585160,15
585736,15
586308,10
586888,11
587460,11
588040,11
588620,10
589200,11
589780,11
590356,11
590936,13
591508,14
592088,14
592664,16
593248,17
593820,16
594396,12
594976,15
595548,19
596128,22
596700,18
597280,19
597852,22
598432,18
599012,13
599588,11
600168,16
600740,17
601320,15
601900,16
602480,17
603052,15
603628,12
604208,10
604780,11
605360,11
605932,10
606512,19
607092,25
607672,23
608252,22
608828,17
609408,15
609980,14
610560,14
611132,11
611712,14
612292,20
612868,25
613448,20
614020,17
614600,14
615172,11
615752,11
616324,11
616904,15
617480,16
618052,18
618632,17
619204,14
619784,10
620356,11
620936,11
621508,12
622084,14
622664,14
623236,15
623816,21
624388,21
624968,17
625540,16
626120,17
626704,15
627276,15
627856,13
628428,16
629008,17
629580,22
630160,26
630740,23
631316,15
631896,11
632472,11
633048,13
633628,14
634208,16
634780,16
635356,15
635936,13
636512,11
637088,11
637664,13
638240,13
638820,11
639400,11
639980,12
640556,14
641136,17
641704,17
642288,14
642856,15
643440,14
644008,15
644584,13
645168,18
645736,22
646320,26
646892,17
647472,13
648044,14
648624,12
649196,11
649772,14
650352,16
650924,14
651504,14
652076,15
652656,14
653228,16
653804,10
654384,11
654956,11
655536,16
656108,15
656688,14
657256,13
657832,16
658400,14
658976,15
659560,16
660128,16
660712,15
661280,15
661864,14
662432,11
663008,11
663592,15
664164,18
664744,15
665316,15
665896,14
666464,14
667048,14
667616,15
668192,16
668776,16
669348,12
669928,15
670496,15
671080,12
671648,11
672228,17
672808,19
673376,18
673960,15
674528,15
675112,15
675684,14
676264,16
676832,19
677408,18
677992,14
678564,17
679144,19
679716,23
680296,21
680864,28
681444,25
682024,19
682592,15
683176,15
683748,15
684328,14
684896,14
685480,13
686052,15
686628,18
687208,17
687780,13
688360,11
688928,12
689512,17
690084,24
690656,23
691240,20
691808,17
692392,15
692964,14
693544,13
694116,15
694696,14
695268,21
695844,32
696424,36
696992,32
697576,28
698148,24
698728,15
699300,10
699876,14
700456,14
701028,15
701608,16
702180,16
702760,12
703332,10
703912,10
704492,12
705064,11
705648,11
706220,13
706800,13
707376,15
707960,17
708532,16
709108,15
709688,15
710260,15
710840,16
711412,11
711992,11
712572,15
713152,17
713724,17
714300,23
714880,24
715452,18
716032,16
716612,15
717196,18
717772,15
718348,15
718928,15
719500,11
720080,9
720596,10
721176,10
721748,11
722328,11
722900,12
723476,19
724056,20
724624,19
725208,19
725780,16
726360,15
726932,15
727508,17
728088,22
728656,21
729240,19
729812,23
730392,19
730964,15
731544,13
732116,14
732692,11
733272,14
733844,15
734424,15
735004,15
735584,15
736164,11
736740,11
737320,11
737888,10
738472,11
739044,11
739624,15
740196,17
740776,20
741348,21
741924,15
742504,15
743072,17
743656,15
744228,13
744808,13
745380,19
745956,21
746536,18
747108,13
747688,16
748260,18
748840,12
749408,11
749992,13
750564,14
751140,15
751720,13
752292,15
752872,11
753452,10
754032,11
754612,10
755188,11
755772,11
756344,11
756920,14
757492,20
758072,23
758652,15
759232,13
759804,15
760380,14
760960,12
761532,19
762112,24
762692,27
763272,26
763852,20
764428,19
765008,14
765580,13
766160,13
766740,15
767320,16
767900,17
768476,18
769056,16
769624,11
770208,13
770780,13
771360,11
771932,11
772512,11
773084,15
773660,23
774240,26
774812,19
775392,16
775964,15
776544,15
777124,15
777700,13
778280,15
778852,16
779432,22
780004,24
780584,27
781156,31
781736,21
782308,15
782884,12
783464,15
784036,15
784616,14
785188,15
785768,15
786348,10
786924,10
787504,13
788076,13
788656,12
789228,15
789808,25
790380,27
790960,24
791540,20
792116,15
792696,15
793268,15
793848,16
794428,16
795008,21
795580,25
796156,23
796740,18
797312,12
797888,12
798464,12
799040,11
799620,12
800200,17
800784,18
801352,15
801936,15
802504,15
803088,12
803660,11
804240,11
804808,12
805384,11
805968,11
806540,11
807120,12
807692,13
808272,16
808844,15
809424,15
810000,14
810572,15
811152,15
811724,17
812304,18
812876,16
813456,11
814028,14
814604,21
815184,15
815756,11
816336,11
816916,15
817496,14
818076,15
818652,15
819232,14
819804,11
820384,11
820952,11
821536,12
822104,11
822688,12
823256,11
823832,10
824416,11
824984,16
825560,14
826132,15
826712,15
827284,15
827856,13
828440,19
829012,22
829592,25
830164,19
830744,14
831316,13
831896,11
832476,11
833048,15
833632,15
834200,15
834784,15
835352,15
835936,13
836508,12
837080,11
837664,11
838236,11
838816,11
839388,12
839968,17
840540,22
841120,23
841688,19
842264,15
842848,16
843416,16
844000,16
844568,14
845152,16
845720,19
846296,21
846880,19
847448,19
848032,14
848600,11
849184,12
849756,14
850336,13
850908,15
851484,15
852064,16
852632,13
853216,11
853788,12
854368,12
854940,11
855516,13
856096,13
856668,12
857248,13
857820,12
858400,14
858968,15
859552,14
860124,15
860700,15
861280,12
861852,16
862432,22
863004,24
863584,16
864156,11
864728,12
865312,11
865884,10
866464,11
867036,14
867616,17
868188,19
868768,16
869340,14
869916,11
870496,11
871068,14
871648,13
872220,11
872800,11
873372,19
873948,26
874528,28
875100,24
875680,22
876252,17
876832,13
877404,16
877984,16
878564,19
879140,26
879720,29
880292,28
880872,25
881440,16
882024,11
882592,11
883172,12
883752,14
884324,14
884904,15
885472,15
886056,11
886628,12
887208,10
887780,12
888356,11
888936,11
889508,11
890088,14
890668,20
891248,16
891828,14
892404,14
892984,15
893556,16
894136,16
894708,17
895288,18
895868,18
896452,19
897032,14
897604,10
898184,11
898756,12
899336,11
899908,15
900488,15
901060,15
901636,15
902216,15
902788,13
903368,11
903936,10
904520,10
905092,10
905672,11
906248,11
906816,11
907400,14
907972,12
908552,14
909132,15
909712,14
910284,15
910860,19
911440,18
912012,16
912592,17
913164,20
913744,11
914316,11
914896,11
915480,10
916052,11
916632,19
917204,17
917784,15
918356,15
918940,15
919516,11
920092,10
920672,11
921244,10
921824,13
922400,14
922984,18
923552,22
924132,24
924712,24
925284,18
925864,15
926436,19
927016,21
927588,21
928168,27
928744,28
929324,24
929904,21
930476,17
931056,14
931636,11
932216,10
932796,13
933372,15
933952,15
934524,15
935104,15
935676,15
936256,11
936836,11
937416,11
938000,11
938572,10
939152,12
939728,16
940304,14
940884,17
941464,23
942036,18
942612,15
943192,14
943764,16
944344,14
944924,11
945504,11
946076,18
946652,24
947232,23
947804,27
948384,21
948956,15
949536,14
950116,15
950696,15
951276,15
951852,15
952432,17
953004,16
953584,14
954164,12
954744,12
955324,12
955900,12
956484,19
957056,21
957632,17
958204,13
958784,19
959364,21
959944,19
960532,17
961104,14
961680,14
962252,17
962832,19
963404,19
963984,17
964556,12
965132,11
965712,11
966284,11
966864,14
967444,15
968024,13
968592,14
969172,16
969752,16
970324,11
970904,11
971476,13
972056,16
972636,14
973220,15
973796,14
974372,14
974952,16
975524,15
976104,23
976676,25
977256,25
977828,27
978404,31
978984,28
979556,25
980136,19
980708,14
981288,14
981868,13
982448,12
983028,11
983604,14
984184,15
984752,15
985336,15
985908,15
986488,15
987056,16
987636,12
988216,10
988784,10
989368,11
989940,11
990520,15
991092,22
991672,22
992252,15
992828,18
993408,18
993980,14
994560,11
995132,12
995712,14
996292,17
996868,24
997448,23
998020,19
998600,14
999172,11
999752,11
1000324,14
1000948,15
1001576,15
1002200,16
1002828,13
1003452,10
1004076,13
1004704,14
1005324,11
1005952,11
1006576,20
1007196,17
1007828,17
1008452,17
1009080,17
1009712,15
1010328,16
1010956,13
1011580,20
1012212,23
1012840,25
1013456,21
1014084,20
1014708,20
1015332,15
1015960,13
1016584,17
1017212,15
1017836,15
1018460,15
1019092,15
1019716,11
1020344,12
1020972,10
1021592,11
1022220,12
1022848,16
1023476,17
1024108,18
1024724,19
1025352,18
1025972,16
1026596,17
1027224,15
1027836,13
1028468,19
1029088,23
1029708,27
1030340,24
1030960,22
1031588,14
1032216,10
1032832,10
1033460,17
1034084,19
1034712,19
1035340,14
1035960,13
1036588,17
1037212,17
1037832,16
1038460,13
1039076,11
1039708,11
1040332,10
1040952,12
1041580,14
1042200,15
1042828,15
1043448,15
1044072,15
1044700,10
1045324,14
1045952,17
1046580,14
1047196,15
1047828,19
1048448,20
1049080,19
1049708,14
1050324,17
1050952,20
1051576,16
1052200,15
1052828,14
1053444,14
1054076,12
1054696,11
1055320,12
1055952,14
1056568,21
1057196,24
1057824,18
1058448,16
1059076,14
1059700,16
1060328,17
1060956,12
1061576,13
1062204,11
1062828,21
1063452,22
1064080,23
1064696,26
1065324,21
1065948,17
1066568,17
1067196,19
1067816,16
1068444,14
1069072,14
1069696,11
1070324,15
1070948,16
1071576,13
1072204,12
1072824,15
1073452,17
1074072,20
1074696,25
1075324,16
1075940,15
1076572,15
1077192,15
1077816,13
1078444,14
1079060,18
1079692,21
1080312,20
1080936,20
1081568,19
1082188,14
1082820,15
1083448,17
1084064,15
1084696,15
1085320,15
1085948,14
1086576,12
1087200,13
1087828,10
1088452,13
1089072,23
1089704,30
1090320,27
1090948,21
1091572,15
1092192,17
1092824,19
1093444,18
1094076,14
1094704,16
1095320,25
1095952,29
1096576,20
1097204,12
1097832,12
1098448,11
1099080,11
1099704,12
1100324,20
1100956,17
1101576,15
1102204,15
1102828,13
1103452,11
1104080,11
1104696,10
1105328,11
1105956,10
1106576,14
1107204,16
1107824,19
1108456,16
1109084,14
1109704,15
1110332,16
1110956,13
1111580,16
1112212,15
1112832,17
1113460,19
1114084,19
1114708,14
1115340,10
1115960,11
1116588,15
1117220,16
1117840,20
1118468,20
1119092,23
1119724,16
1120356,10
1120976,13
1121604,17
1122228,18
1122852,16
1123480,13
1124096,11
1124728,11
1125352,15
1125976,16
1126604,15
1127220,14
1127848,11
1128480,15
1129096,17
1129724,17
1130348,11
1130976,12
1131604,13
1132224,14
1132852,13
1133476,14
1134096,15
1134728,17
1135344,17
1135972,16
1136600,11
1137224,12
1137852,10
1138472,11
1139100,13
1139732,12
1140352,15
1140980,18
1141604,19
1142232,14
1142864,15
1143480,16
1144112,17
1144736,16
1145360,22
1145988,26
1146608,26
1147236,19
1147860,15
1148484,13
1149112,12
1149732,11
1150360,14
1150988,15
1151608,15
1152236,15
1152860,13
1153488,14
1154116,11
1154736,11
1155364,11
1155984,12
1156612,14
1157244,11
1157864,13
1158492,15
1159112,16
1159736,14
1160368,14
1160984,15
1161612,18
1162236,23
1162860,26
1163488,21
1164112,18
1164740,16
1165372,12
1165992,11
1166620,15
1167244,13
1167872,15
1168504,16
1169120,15
1169748,12
1170372,11
1170996,11
1171624,11
1172248,13
1172876,17
1173500,21
1174128,22
1174756,22
1175380,16
1176012,16
1176640,16
1177256,16
1177888,11
1178512,18
1179140,29
1179768,29
1180392,23
1181020,19
1181644,16
1182268,19
1182896,23
1183520,26
1184148,17
1184780,14
1185400,15
1186028,13
1186652,13
1187280,11
1187912,11
1188528,11
1189156,11
1189780,13
1190404,15
1191032,17
1191656,19
1192284,15
1192908,15
1193532,15
1194164,15
1194784,15
1195412,16
1196044,17
1196664,18
1197292,15
1197916,14
1198548,11
1199180,12
1199800,12
1200428,15
1201052,14
1201676,16
1202304,16
1202928,12
1203556,10
1204180,10
1204804,11
1205432,12
1206052,11
1206680,12
1207308,11
1207928,13
1208556,15
1209180,16
1209812,17
1210440,16
1211056,11
1211688,17
1212312,22
1212936,23
1213564,20
1214184,26
1214812,14
1215436,10
1216064,11
1216692,14
1217312,15
1217940,15
1218572,16
1219192,15
1219820,12
1220444,16
1221076,14
1221708,10
1222328,12
1222956,15
1223584,19
1224208,23
1224836,17
1225456,15
1226084,16
1226712,15
1227336,14
1227964,10
1228584,15
1229216,24
1229844,19
1230464,16
1231092,19
1231716,18
1232344,13
1232972,10
1233592,15
1234220,15
1234844,14
1235468,15
1236096,12
1236712,11
1237344,11
1237968,12
1238592,13
1239220,14
1239840,23
1240468,25
1241096,26
1241720,23
1242348,17
1242972,16
1243600,15
1244228,15
1244848,24
1245476,29
1246100,33
1246728,31
1247356,22
1247976,15
1248608,16
1249228,20
1249852,19
1250484,14
1251104,15
1251732,16
1252364,14
1252984,13
1253612,11
1254236,10
1254868,11
1255496,13
1256112,12
1256744,13
1257368,16
1257992,16
1258620,14
1259240,15
1259868,17
1260492,16
1261116,11
1261748,16
1262368,19
1262996,20
1263628,16
1264248,17
1264876,14
1265500,10
1266132,10
1266760,15
1267384,17
1268012,14
1268636,14
1269260,13
1269892,10
1270512,11
1271140,11
1271764,11
1272388,12
1273020,15
1273640,17
1274268,19
1274900,20
1275520,16
1276148,14
1276772,15
1277404,15
1278036,15
1278656,17
1279288,24
1279912,29
1280536,25
1281164,16
1281780,11
1282408,11
1283032,12
1283656,13
1284284,14
1284900,15
1285532,15
1286160,11
1286776,11
1287404,11
1288028,12
1288656,11
1289284,12
1289904,21
1290532,29
1291156,35
1291780,28
1292412,19
1293032,16
1293660,27
1294284,31
1294904,21
1295532,14
1296152,16
1296780,18
1297404,19
1298024,19
1298652,17
1299276,13
1299904,15
1300532,15
1301152,15
1301780,14
1302404,15
1303032,13
1303660,11
1304280,11
1304908,10
1305532,10
1306156,11
1306788,10
1307408,18
1308036,19
1308660,15
1309284,15
1309912,18
1310536,21
1311164,15
1311796,10
1312416,17
1313044,27
1313664,29
1314292,24
1314920,20
1315540,14
1316172,13
1316792,15
1317416,16
1318044,14
1318664,14
1319292,15
1319912,15
1320536,15
1321164,14
1321780,11
1322408,11
1323040,11
1323656,11
1324284,11
1324904,14
1325536,15
1326164,14
1326780,16
1327412,18
1328032,20
1328656,17
1329284,15
1329900,16
1330532,15
1331156,18
1331780,13
1332408,11
1333024,19
1333652,22
1334280,15
1334896,15
1335524,16
1336148,11
1336776,12
1337404,10
1338024,11
1338652,11
1339272,10
1339904,15
1340532,22
1341152,27
1341780,19
1342404,15
1343024,15
1343656,16
1344272,18
1344900,15
1345520,13
1346144,16
1346772,14
1347396,14
1348024,17
1348652,17
1349272,20
1349900,21
1350524,17
1351152,15
1351780,15
1352400,15
1353028,11
1353648,10
1354272,11
1354900,12
1355520,15
1356148,16
1356772,21
1357396,21
1358024,15
1358640,14
1359268,15
1359896,14
1360520,15
1361148,12
1361772,17
1362400,28
1363028,26
1363648,22
1364276,13
1364900,10
1365520,11
1366148,11
1366768,18
1367396,16
1368020,16
1368640,15
1369272,15
1369888,13
1370516,12
1371144,10
1371768,11
1372396,11
1373020,11
1373648,11
1374276,14
1374896,16
1375524,14
1376148,17
1376772,19
1377404,14
1378024,16
1378652,24
1379276,26
1379896,21
1380528,16
1381144,21
1381772,18
1382396,14
1383024,15
1383652,18
1384276,15
1384904,15
1385536,15
1386152,17
1386780,13
1387404,13
1388032,12
1388664,11
1389280,14
1389908,17
1390532,16
1391156,15
1391788,16
1392408,17
1393036,15
1393660,15
1394288,13
1394916,21
1395540,31
1396168,32
1396796,26
1397416,21
1398044,17
1398668,12
1399300,11
1399928,13
1400548,14
1401176,15
1401800,15
1402424,15
1403052,11
1403672,11
1404300,13
1404924,12
1405552,16
1406180,17
1406804,18
1407436,24
1408064,25
1408680,18
1409308,15
1409928,15
1410560,15
1411188,18
1411808,21
1412436,18
1413060,20
1413684,19
1414312,15
1414936,12
1415564,10
1416188,10
1416816,17
1417444,19
1418068,18
1418696,21
1419324,12
1419944,14
1420572,15
1421196,11
1421828,12
1422456,10
1423072,15
1423704,17
1424328,19
1424948,17
1425580,15
1426200,19
1426828,16
1427452,18
1428080,24
1428708,28
1429332,26
1429964,17
1430592,12
1431212,11
1431840,11
1432464,11
1433092,13
1433724,14
1434340,15
1434972,15
1435592,15
1436216,11
1436844,10
1437460,12
1438092,11
1438716,14
1439340,15
1439968,21
1440592,29
1441220,26
1441848,16
1442472,14
1443100,19
1443724,16
1444352,19
1444980,22
1445600,21
1446228,23
1446852,16
1447472,12
1448104,16
1448720,15
1449348,11
1449972,13
1450596,15
1451224,17
1451848,17
1452476,15
1453104,10
1453728,11
1454356,11
1454980,10
1455612,11
1456240,13
1456856,19
1457484,27
1458108,25
1458732,16
1459360,14
1459976,17
1460608,20
1461228,16
1461852,14
1462484,17
1463104,18
1463736,15
1464364,13
1464984,13
1465612,11
1466236,12
1466864,19
1467492,16
1468112,15
1468740,15
1469364,12
1469992,11
1470620,11
1471240,11
1471868,11
1472496,11
1473116,13
1473748,15
1474372,20
1475004,20
1475632,15
1476248,16
1476876,15
1477500,15
1478128,13
1478756,23
1479376,25
1480004,17
1480628,17
1481248,18
1481880,12
1482496,11
1483124,14
1483748,15
1484372,15
1485000,14
1485620,15
1486252,11
1486880,11
1487496,11
1488124,11
1488748,14
1489376,17
1490004,19
1490624,19
1491252,19
1491876,15
1492496,16
1493128,16
1493744,17
1494372,13
1495000,18
1495624,25
1496252,26
1496872,29
1497500,27
1498132,21
1498752,12
1499380,15
1500004,18
1500636,14
1501264,15
1501880,15
1502512,14
1503136,13
1503760,17
1504392,11
1505008,12
1505636,11
1506260,15
1506884,19
1507512,21
1508136,17
1508764,15
1509396,16
1510016,17
1510648,15
1511268,11
1511900,11
1512532,13
1513152,17
1513780,19
1514404,15
1515028,13
1515660,18
1516280,23
1516908,20
1517532,17
1518156,14
1518788,14
1519408,15
1520036,13
1520668,10
1521288,11
1521916,12
1522540,25
1523172,31
1523804,19
1524424,14
1525052,14
1525676,15
1526304,17
1526932,18
1527552,19
1528184,25
1528808,35
1529428,36
1530060,24
1530680,14
1531312,11
1531940,10
1532560,12
1533192,17
1533816,16
1534444,15
1535076,14
1535696,15
1536328,14
1536948,12
1537572,11
1538200,10
1538824,13
1539452,16
1540076,21
1540696,25
1541328,21
1541944,15
1542572,15
1543204,15
1543824,16
1544452,11
1545076,11
1545704,13
1546332,20
1546952,21
1547580,23
1548204,19
1548828,11
1549456,11
1550072,15
1550704,15
1551328,16
1551952,16
1552584,15
1553200,15
1553828,11
1554460,15
1555080,17
1555708,18
1556332,23
1556964,23
1557592,23
1558216,21
1558844,14
1559468,15
1560092,15
1560724,18
1561344,21
1561972,24
1562596,26
1563220,24
1563848,19
1564464,14
1565096,12
1565724,14
1566344,13
1566972,14
1567596,15
1568228,15
1568856,14
1569480,11
1570108,11
1570732,14
1571356,14
1571984,11
1572608,12
1573236,11
1573860,12
1574484,14
1575116,16
1575736,18
1576364,15
1576996,16
1577616,16
1578244,17
1578868,21
1579496,27
1580128,23
1580744,18
1581376,15
1582000,12
1582624,12
1583252,13
1583872,15
1584504,15
1585128,15
1585752,15
1586380,10
1587000,11
1587632,11
1588260,10
1588880,11
1589508,11
1590132,15
1590764,18
1591392,18
1592016,16
1592644,15
1593268,16
1593892,15
1594524,12
1595144,15
1595776,21
1596400,25
1597024,24
1597656,21
1598280,15
1598908,10
1599540,11
1600160,15
1600788,14
1601408,15
1602036,14
1602668,11
1603284,11
1603912,12
1604536,12
1605160,13
1605788,12
1606408,21
1607036,28
1607660,24
1608284,15
1608912,18
1609528,17
1610156,18
1610788,16
1611408,20
1612036,22
1612660,23
1613292,20
1613920,15
1614536,13
1615164,11
1615788,11
1616412,13
1617040,16
1617664,17
1618292,19
1618916,16
1619540,11
1620168,12
1620784,13
1621412,13
1622044,10
1622664,11
1623292,12
1623916,17
1624548,20
1625176,18
1625796,15
1626424,17
1627048,15
1627672,18
1628300,18
1628920,15
1629548,16
1630172,14
1630796,13
1631428,14
1632048,17
1632676,11
1633304,14
1633928,16
1634556,16
1635180,15
1635812,14
1636444,12
1637064,13
1637692,11
1638320,12
1638944,15
1639572,14
1640188,15
1640816,18
1641440,15
1642060,15
1642688,14
1643304,15
1643932,15
1644560,15
1645176,21
1645804,22
1646424,19
1647052,17
1647684,20
1648300,16
1648932,10
1649552,11
1650180,15
1650808,15
1651424,15
1652052,14
1652676,11
1653300,10
1653928,11
1654544,13
1655172,10
1655796,13
1656416,21
1657044,21
1657668,21
1658296,19
1658924,14
1659540,15
1660172,15
1660792,17
1661420,24
1662052,20
1662672,17
1663300,13
1663924,15
1664548,16
1665176,12
1665792,15
1666420,15
1667040,18
1667664,16
1668292,14
1668908,17
1669540,11
1670168,11
1670784,13
1671412,11
1672036,11
1672664,13
1673292,18
1673912,27
1674540,25
1675164,22
1675784,16
1676416,16
1677032,22
1677660,21
1678284,22
1678908,22
1679536,27
1680152,28
1680780,24
1681400,20
1682024,14
1682652,11
1683272,15
1683900,15
1684532,14
1685148,17
1685776,15
1686400,12
1687028,11
1687656,11
1688272,10
1688904,14
1689524,20
1690148,21
1690776,21
1691400,18
1692028,15
1692648,19
1693272,19
1693900,17
1694520,19
1695148,21
1695776,20
1696396,18
1697024,13
1697644,13
1698272,11
1698900,14
1699520,15
1700148,17
1700768,15
1701392,15
1702024,14
1702640,12
1703268,11
1703892,10
1704512,12
1705144,15
1705760,14
1706388,14
1707016,14
1707632,16
1708264,19
1708888,15
1709516,14
1710144,17
1710760,15
1711392,16
1712016,14
1712644,18
1713272,28
1713892,23
1714520,13
1715144,13
1715768,11
1716396,11
1717016,15
1717644,14
1718268,14
1718896,15
1719524,11
1720148,11
1720780,10
1721408,13
1722024,15
1722656,15
1723276,20
1723908,16
1724536,14
1725152,14
1725784,15
1726404,15
1727028,17
1727660,12
1728280,19
1728908,23
1729532,16
1730152,10
1730784,11
1731408,11
1732036,10
1732664,10
1733280,15
1733908,16
1734532,17
1735164,16
1735792,14
1736412,12
1737040,15
1737664,13
1738284,11
1738916,16
1739536,20
1740164,18
1740788,21
1741412,24
1742044,17
1742664,15
1743296,18
1743924,18
1744544,18
1745172,23
1745796,21
1746424,15
1747052,13
1747672,20
1748300,22
1748924,18
1749548,13
1750176,14
1750800,15
1751428,17
1752052,17
1752676,12
1753304,15
1753928,15
1754560,13
1755188,10
1755808,15
1756436,16
1757060,19
1757692,19
1758320,19
1758940,15
1759568,15
1760192,15
1760816,16
1761444,16
1762060,19
1762692,14
1763312,16
1763936,16
1764564,18
1765188,14
1765816,16
1766444,16
1767060,14
1767692,17
1768312,15
1768940,16
1769572,16
1770192,13
1770820,10
1771444,10
1772068,13
1772696,18
1773320,22
1773948,16
1774572,13
1775196,15
1775828,16
1776452,18
1777080,17
1777708,18
1778328,16
1778956,19
1779580,24
1780212,20
1780840,19
1781456,15
1782088,11
1782712,11
1783332,14
1783964,14
1784584,15
1785212,18
1785836,17
1786460,11
1787092,12
1787716,13
1788344,12
1788972,10
1789592,15
1790220,19
1790848,21
1791476,18
1792108,16
1792724,15
1793356,16
1793976,18
1794600,25
1795228,26
1795848,26
1796476,21
1797100,18
1797724,16
1798352,11
1798972,11
1799600,11
1800228,14
1800848,15
1801476,17
1802100,17
1802728,14
1803360,12
1803976,12
1804604,11
1805228,11
1805848,11
1806480,14
1807096,15
1807724,17
1808348,16
1808972,16
1809600,19
1810216,19
1810844,19
1811476,22
1812096,20
1812724,17
1813348,16
1813976,15
1814604,20
1815224,13
1815852,11
1816476,12
1817100,17
1817728,14
1818352,15
1818980,14
1819604,13
1820224,13
1820856,10
1821472,12
1822100,22
1822732,26
1823352,23
1823980,12
1824604,14
1825236,14
1825864,16
1826480,16
1827108,15
1827732,13
1828356,16
1828988,24
1829608,24
1830236,17
1830860,18
1831484,20
1832112,15
1832736,13
1833364,16
1833996,14
1834616,16
1835244,15
1835868,13
1836500,10
1837128,14
1837752,14
1838380,10
1839008,11
1839632,12
1840260,14
1840880,17
1841508,18
1842132,15
1842756,15
1843388,14
1844004,15
1844632,14
1845264,20
1845880,18
1846508,16
1847132,13
1847760,11
1848388,11
1849008,15
1849636,20
1850256,18
1850884,16
1851512,16
1852136,19
1852764,13
1853388,11
1854016,11
1854644,10
1855264,13
1855892,11
1856524,14
1857144,19
1857772,20
1858396,16
1859024,17
1859652,15
1860272,16
1860900,15
1861524,22
1862148,23
1862780,20
1863400,21
1864028,21
1864652,18
1865276,11
1865904,13
1866524,15
1867152,15
1867780,14
1868400,15
1869028,15
1869652,11
1870280,11
1870912,11
1871528,11
1872160,12
1872784,11
1873412,13
1874044,14
1874664,19
1875292,20
1875916,21
1876540,17
1877168,16
1877792,11
1878420,16
1879052,18
1879672,21
1880300,18
1880928,13
1881556,12
1882188,12
1882808,15
1883436,18
1884064,16
1884688,17
1885316,16
1885936,13
1886564,16
1887188,11
1887812,12
1888444,12
1889064,13
1889692,12
1890320,13
1890944,17
1891572,19
1892196,15
1892828,19
1893456,20
1894080,21
1894708,21
1895332,18
1895956,17
1896588,15
1897208,18
1897836,15
1898460,11
1899084,11
1899716,14
1900336,17
1900964,16
1901596,14
1902216,16
1902844,11
1903472,13
1904100,16
1904732,12
1905352,15
1905980,22
1906604,21
1907228,16
1907856,12
1908480,16
1909108,18
1909732,18
1910360,17
1910988,18
1911608,19
1912240,15
1912868,16
1913488,17
1914120,19
1914744,17
1915376,10
1916004,10
1916624,14
1917256,15
1917880,15
1918504,16
1919136,13
1919752,11
1920384,10
1921008,13
1921632,19
1922260,16
1922884,12
1923512,20
1924140,24
1924760,24
1925388,15
1926012,15
1926640,16
1927272,17
1927888,20
1928516,20
1929140,21
1929764,18
1930392,16
1931012,16
1931640,19
1932264,16
1932888,11
1933516,14
1934136,15
1934764,15
1935396,14
1936016,12
1936644,11
1937268,14
1937896,15
1938524,10
1939144,11
1939776,19
1940400,21
1941020,24
1941652,22
1942272,18
1942904,15
1943528,17
1944152,22
1944780,24
1945400,20
1946032,19
1946660,19
1947280,15
1947908,10
1948532,11
1949160,11
1949792,14
1950408,17
1951036,16
1951660,16
1952284,17
1952916,16
1953536,15
1954164,11
1954788,13
1955412,11
1956044,12
1956664,17
1957292,18
1957924,18
1958544,15
1959172,15
1959796,14
1960428,15
1961056,11
1961680,17
1962308,21
1962932,24
1963556,15
1964184,11
1964808,11
1965436,11
1966060,13
1966688,15
1967316,15
1967940,16
1968568,15
1969196,12
1969816,12
1970444,13
1971068,14
1971700,13
1972328,11
1972944,12
1973572,12
1974196,11
1974820,12
1975448,18
1976072,21
1976700,16
1977324,15
1977948,13
1978576,13
1979196,13
1979824,11
1980452,10
1981072,11
1981700,13
1982324,22
1982956,30
1983588,33
1984208,27
1984836,17
1985460,15
1986084,15
1986712,13
1987328,11
1987960,15
1988580,16
1989204,13
1989832,19
1990456,33
1991084,28
1991716,15
1992336,27
1992964,26
1993588,22
1994220,21
1994848,24
1995472,24
1996104,17
1996728,11
1997352,11
1997980,11
1998600,11
1999228,14
1999852,17
2000476,15
2001104,14
2001728,15
2002356,15
2002988,14
2003608,19
2004236,12
2004860,11
2005488,12
2006116,10
2006736,12
2007364,11
2007988,13
2008612,16
2009240,14
2009864,16
2010492,19
2011116,27
2011740,35
2012368,30
2012992,27
2013620,17
2014248,10
2014872,11
2015500,11
2016124,10
2016756,14
2017384,14
2018000,15
2018632,15
2019256,13
2019876,11
2020508,10
2021128,11
2021756,11
2022380,11
2023008,11
2023636,11
2024260,19
2024888,19
2025520,15
2026136,15
2026768,15
2027392,15
2028024,17
2028652,18
2029272,27
2029900,24
2030524,17
2031148,15
2031780,10
2032400,11
2033028,12
2033652,14
2034276,14
2034908,16
2035532,16
2036160,11
2036792,10
2037412,10
2038040,11
2038664,11
2039296,15
2039924,11
2040544,15
2041172,23
2041800,18
2042424,15
2043052,14
2043672,15
2044304,12
2044932,12
2045552,17
2046184,19
2046808,18
2047436,18
2048068,14
2048684,11
2049312,11
2049932,18
2050560,19
2051188,15
2051808,15
2052436,14
2053056,13
2053680,12
2054308,10
2054928,11
2055556,12
2056176,15
2056800,17
2057428,18
2058052,17
2058680,17
2059308,14
2059928,15
2060556,15
2061180,12
2061808,17
2062436,16
2063056,17
2063684,13
2064304,14
2064928,19
2065556,20
2066176,15
2066804,16
2067428,15
2068048,16
2068676,17
2069296,14
2069924,10
2070552,13
2071168,13
2071796,11
2072420,15
2073048,19
2073680,14
2074296,13
2074924,15
2075544,14
2076168,19
2076796,14
2077416,16
2078044,12
2078668,15
2079292,22
2079924,16
2080544,13
2081172,21
2081800,19
2082416,14
2083044,13
2083668,18
2084296,19
2084924,14
2085544,18
2086172,15
2086796,11
2087424,11
2088052,10
2088668,11
2089300,11
2089920,11
2090544,13
2091172,16
2091792,15
2092420,15
2093044,15
2093668,15
2094296,12
2094920,14
2095548,10
2096176,10
2096792,12
2097424,19
2098044,19
2098676,15
2099304,16
2099920,17
2100548,15
2101172,17
2101792,15
2102424,15
2103040,11
2103668,12
2104292,15
2104916,13
2105544,11
2106168,12
2106796,15
2107428,15
2108048,17
2108676,15
2109300,15
2109932,17
2110560,16
2111176,12
2111808,15
2112432,15
2113056,24
2113684,26
2114304,30
2114932,16
2115556,12
2116180,19
2116808,18
2117424,15
2118052,17
2118684,14
2119304,12
2119932,11
2120556,21
2121188,21
2121816,10
2122432,16
2123060,22
2123684,18
2124308,14
2124940,14
2125560,15
2126188,17
2126812,16
2127436,15
2128064,19
2128680,19
2129308,18
2129940,14
2130556,13
2131188,11
2131812,11
2132440,11
2133068,11
2133688,14
2134316,15
2134940,16
2135564,15
2136196,15
2136816,13
2137444,10
2138068,10
2138692,11
2139320,12
2139944,17
2140572,15
2141204,14
2141824,15
2142452,14
2143076,15
2143708,16
2144336,11
2144952,17
2145584,20
2146208,16
2146832,19
2147460,27
2148080,27
2148708,14
2149332,11
2149956,14
2150588,14
2151204,15
2151836,16
2152464,14
2153080,16
2153712,22
2154336,15
2154964,11
2155592,15
2156216,12
2156844,11
2157468,14
2158092,15
2158720,14
2159336,16
2159968,15
2160592,15
2161216,10
2161844,14
2162464,19
2163092,16
2163724,10
2164344,11
2164972,10
2165596,10
2166224,13
2166856,31
2167472,36
2168104,21
2168728,15
2169352,14
2169980,11
2170600,11
2171228,11
2171852,11
2172476,12
2173108,14
2173728,18
2174356,20
2174988,18
2175608,16
2176236,15
2176860,15
2177488,14
2178116,11
2178736,15
2179364,20
2179988,20
2180612,22
2181244,26
2181864,22
2182492,15
2183116,15
2183740,14
2184368,16
2184984,15
2185612,15
2186236,11
2186864,11
2187492,11
2188116,11
2188748,14
2189376,20
2190000,22
2190628,21
2191252,21
2191880,15
2192508,18
2193128,19
2193756,15
2194380,12
2195004,16
2195636,16
2196256,17
2196884,17
2197516,22
2198136,15
2198764,17
2199392,16
2200020,17
2200652,22
2201272,25
2201904,19
2202524,13
2203148,17
2203780,22
2204400,15
2205028,10
2205652,11
2206276,13
2206908,10
2207528,12
2208156,14
2208788,14
2209408,18
2210036,16
2210660,15
2211292,14
2211920,19
2212536,20
2213168,21
2213792,13
2214416,12
2215044,10
2215664,11
2216292,11
2216916,16
2217540,21
2218172,18
2218792,15
2219424,11
2220052,10
2220672,17
2221304,11
2221928,13
2222556,13
2223188,14
2223808,18
2224436,16
2225064,15
2225684,15
2226316,14
2226936,15
2227568,13
2228188,14
2228812,19
2229444,26
2230064,26
2230692,21
2231324,14
2231944,11
2232576,16
2233200,13
2233828,15
2234460,15
2235080,15
2235708,15
2236336,11
2236960,11
2237588,10
2238208,10
2238840,11
2239464,11
2240088,13
2240716,18
2241336,25
2241964,15
2242592,17
2243216,20
2243844,19
2244468,17
2245096,13
2245724,14
2246344,22
2246972,24
2247596,21
2248224,17
2248852,11
2249472,14
2250100,19
2250728,17
2251352,16
2251980,22
2252600,21
2253232,11
2253860,10
2254480,12
2255108,17
2255732,20
2256360,18
2256988,11
2257608,13
2258236,15
2258860,14
2259484,15
2260112,16
2260728,18
2261360,22
2261984,25
2262608,29
2263236,26
2263856,25
2264484,18
2265116,12
2265736,13
2266364,15
2266988,16
2267616,14
2268248,16
2268864,18
2269492,18
2270116,12
2270740,11
2271372,10
2271992,11
2272624,13
2273248,16
2273872,19
2274500,19
2275120,15
2275748,17
2276380,20
2277000,20
2277628,17
2278252,17
2278884,14
2279512,20
2280136,18
2280764,11
2281388,11
2282012,14
2282644,10
2283264,15
2283892,15
2284516,15
2285140,19
2285772,20
2286392,13
2287024,11
2287652,10
2288272,11
2288900,14
2289524,16
2290156,16
2290788,18
2291408,17
2292036,16
2292660,15
2293284,15
2293916,14
2294536,12
2295164,11
2295788,14
2296412,21
2297040,23
2297664,21
2298292,17
2298924,14
2299544,11
2300172,14
2300796,16
2301428,16
2302060,14
2302680,13
2303312,11
2303936,16
2304560,22
2305188,16
2305808,11
2306436,18
2307060,23
2307684,26
2308312,19
2308936,15
2309564,16
2310196,14
2310816,15
2311444,11
2312068,11
2312696,10
2313328,11
2313944,19
2314576,20
2315200,17
2315820,17
2316452,18
2317072,19
2317700,16
2318324,17
2318948,15
2319580,11
2320204,10
2320832,13
2321460,11
2322080,11
2322708,15
2323332,17
2323960,19
2324592,19
2325208,15
2325836,15
2326460,14
2327084,15
2327712,13
2328336,20
2328964,19
2329588,14
2330212,13
2330844,15
2331468,15
2332096,14
2332728,15
2333344,21
2333976,18
2334600,17
2335228,15
2335860,14
2336480,16
2337108,11
2337732,14
2338356,12
2338988,10
2339608,16
2340236,27
2340860,28
2341488,19
2342116,16
2342744,17
2343372,15
2344000,14
2344624,17
2345252,22
2345876,22
2346504,20
2347132,18
2347752,15
2348384,10
2349008,11
2349632,13
2350260,14
2350880,16
2351508,18
2352140,18
2352760,13
2353388,11
2354016,11
2354644,11
2355276,12
2355896,19
2356524,23
2357148,24
2357772,21
2358400,15
2359020,17
2359648,19
2360272,19
2360896,16
2361528,14
2362144,14
2362776,19
2363408,18
2364024,20
2364652,21
2365276,14
2365908,12
2366540,14
2367160,13
2367792,15
2368416,15
2369040,18
2369668,12
2370288,12
2370916,12
2371540,15
2372164,11
2372796,10
2373416,12
2374048,19
2374676,21
2375296,17
2375928,15
2376552,15
2377180,16
2377808,16
2378432,25
2379060,25
2379684,21
2380308,15
2380940,10
2381560,12
2382188,11
2382812,11
2383436,17
2384068,19
2384688,17
2385316,15
2385948,12
2386568,12
2387196,16
2387824,17
2388452,17
2389084,16
2389704,14
2390336,12
2390960,17
2391584,17
2392216,14
2392832,15
2393464,16
2394088,14
2394712,13
2395344,11
2395960,12
2396592,17
2397224,20
2397844,25
2398472,18
2399100,17
2399728,12
2400360,14
2400976,15
2401608,15
2402232,16
2402856,11
2403484,10
2404104,14
2404732,12
2405356,11
2405984,12
2406612,17
2407236,15
2407864,17
2408496,17
2409112,15
2409740,17
2410364,17
2410996,16
2411624,19
2412244,22
2412872,21
2413496,16
2414120,16
2414748,12
2415368,11
2415996,11
2416624,17
2417248,16
2417876,15
2418500,15
2419132,13
2419764,10
2420384,11
2421012,11
2421636,11
2422268,12
2422900,20
2423520,23
2424148,17
2424772,15
2425400,16
2426028,18
2426648,16
2427276,15
2427900,14
2428528,19
2429156,25
2429784,24
2430412,21
2431044,24
2431664,27
2432296,22
2432920,19
2433540,17
2434172,14
2434792,15
2435420,15
2436044,13
2436668,13
2437300,10
2437920,13
2438548,15
2439180,20
2439800,25
2440428,25
2441052,28
2441684,25
2442312,15
2442936,17
2443564,17
2444188,13
2444816,11
2445444,12
2446064,19
2446696,23
2447320,26
2447944,27
2448576,21
2449192,16
2449824,14
2450452,14
2451072,17
2451704,15
2452328,16
2452960,15
2453588,16
2454208,15
2454840,14
2455464,13
2456088,11
2456716,14
2457336,19
2457968,21
2458588,16
2459212,15
2459840,14
2460464,15
2461092,17
2461720,17
2462344,20
2462972,24
2463596,19
2464228,22
2464856,23
2465472,19
2466100,15
2466724,16
2467348,14
2467976,16
2468600,15
2469228,13
2469852,11
2470476,13
2471104,19
2471720,15
2472352,17
2472980,17
2473600,16
2474228,15
2474852,16
2475484,14
2476112,14
2476732,15
2477360,16
2477988,18
2478612,25
2479240,25
2479860,16
2480488,14
2481112,14
2481732,13
2482364,14
2482984,11
2483612,14
2484244,15
2484864,15
2485492,15
2486116,11
2486744,11
2487376,10
2487992,11
2488624,11
2489248,16
2489872,26
2490500,24
2491120,17
2491748,15
2492376,15
2493000,22
2493628,22
2494248,21
2494876,22
2495508,24
2496128,25
2496756,18
2497380,11
2498012,10
2498640,10
2499256,11
2499888,13
2500508,15
2501132,16
2501764,15
2502384,16
2503016,14
2503640,20
2504264,21
2504892,18
2505512,13
2506144,13
2506772,14
2507392,13
2508024,12
2508648,17
2509276,17
2509908,16
2510528,18
2511156,17
2511784,19
2512408,19
2513036,20
2513656,18
2514284,13
2514908,12
2515532,11
2516164,14
2516784,16
2517416,15
2518044,14
2518664,15
2519296,13
2519920,11
2520548,10
2521180,10
2521800,15
2522428,15
2523052,17
2523676,18
2524308,14
2524928,16
2525556,15
2526180,14
2526808,16
2527436,14
2528056,10
2528684,12
2529316,24
2529936,30
2530564,25
2531188,24
2531820,19
2532452,14
2533072,11
2533704,14
2534328,17
2534952,19
2535584,17
2536200,11
2536832,13
2537456,13
2538080,10
2538708,12
2539336,14
2539968,11
2540596,16
2541216,19
2541844,15
2542468,15
2543100,15
2543732,14
2544352,17
2544984,16
2545604,17
2546228,20
2546860,18
2547480,16
2548108,11
2548736,10
2549360,11
2549992,15
2550616,15
2551248,15
2551876,14
2552496,13
2553128,11
2553752,10
2554376,11
2555008,10
2555624,11
2556256,13
2556880,13
2557504,15
2558136,18
2558756,15
2559384,16
2560020,17
2560636,15
2561264,13
2561884,17
2562512,23
2563144,22
2563760,19
2564388,19
2565012,15
2565636,12
2566268,14
2566888,21
2567516,16
2568140,15
2568760,15
2569392,12
2570008,11
2570636,10
2571260,12
2571880,11
2572512,16
2573136,21
2573764,17
2574392,15
2575012,14
2575640,15
2576264,15
2576892,16
2577520,12
2578144,17
2578772,17
2579396,19
2580020,21
2580648,26
2581264,27
2581896,17
2582516,11
2583140,15
2583772,15
2584392,15
2585024,16
2585652,16
2586268,11
2586900,11
2587520,16
2588152,19
2588780,19
2589400,16
2590028,16
2590652,15
2591276,12
2591908,14
2592528,15
2593156,15
2593780,15
2594404,15
2595032,24
2595656,24
2596284,21
2596916,23
2597536,20
2598164,13
2598788,10
2599420,11
2600048,14
2600672,14
2601300,15
2601924,15
2602548,12
2603176,11
2603796,11
2604424,10
2605048,11
2605672,16
2606300,16
2606924,14
2607552,16
2608184,16
2608800,15
2609432,15
2610056,15
2610684,15
2611316,11
2611936,13
2612564,18
2613188,21
2613812,20
2614440,19
2615060,14
2615688,13
2616312,13
2616936,16
2617564,16
2618192,16
2618820,15
2619452,10
2620072,11
2620700,11
2621328,11
2621956,12
2622588,14
2623208,16
2623836,16
2624460,17
2625080,15
2625708,15
2626324,15
2626956,15
2627576,12
2628200,13
2628828,14
2629448,19
2630080,20
2630708,14
2631328,11
2631956,11
2632580,10
2633208,15
2633836,16
2634456,15
2635084,15
2635708,16
2636332,10
2636960,10
2637576,12
2638204,11
2638828,11
2639452,13
2640080,17
2640696,25
2641324,25
2641952,21
2642572,16
2643204,14
2643824,16
2644452,19
2645080,18
2645704,25
2646332,31
2646956,22
2647580,18
2648208,15
2648824,11
2649456,11
2650076,14
2650700,15
2651332,14
2651952,15
2652580,15
2653212,16
2653832,13
2654460,11
2655084,11
2655712,13
2656344,19
2656960,23
2657588,17
2658212,15
2658836,14
2659464,16
2660088,16
2660716,15
2661340,13
2661964,12
2662596,18
2663212,25
2663840,20
2664472,17
2665088,15
2665716,16
2666336,18
2666968,16
2667596,16
2668216,17
2668844,15
2669464,11
2670088,11
2670716,10
2671336,11
2671964,12
2672588,15
2673212,18
2673840,20
2674464,20
2675092,17
2675724,14
2676344,15
2676972,15
2677596,14
2678224,17
2678856,19
2679472,19
2680100,19
2680724,17
2681348,17
2681980,14
2682600,15
2683228,15
2683852,15
2684476,16
2685104,14
2685720,14
2686352,11
2686980,10
2687600,11
2688228,11
2688852,12
2689480,16
2690108,20
2690728,27
2691356,24
2691976,17
2692608,15
2693236,17
2693856,20
2694484,18
2695104,26
2695728,30
2696356,20
2696976,11
2697604,11
2698228,11
2698852,11
2699480,16
2700104,15
2700732,14
2701364,15
2701984,21
2702612,22
2703236,17
2703868,11
2704496,11
2705112,10
2705744,11
2706368,12
2706988,16
2707620,16
2708240,15
2708868,15
2709492,15
2710116,16
2710744,17
2711368,17
2711996,15
2712628,20
2713248,21
2713876,18
2714500,14
2715132,11
2715760,11
2716376,12
2717008,13
2717632,16
2718252,17
2718884,20
2719504,21
2720132,11
2720756,11
2721380,13
2722008,13
2722628,14
2723260,11
2723888,13
2724504,14
2725132,15
2725756,15
2726384,15
2727012,15
2727632,15
2728260,14
2728884,15
2729508,12
2730136,11
2730756,10
2731384,14
2732008,11
2732632,11
2733260,16
2733880,21
2734508,24
2735140,20
2735760,17
2736388,12
2737012,10
2737644,11
2738272,11
2738888,12
2739520,13
2740144,14
2740768,17
2741396,14
2742016,15
2742644,14
2743268,15
2743892,16
2744524,10
2745144,11
2745772,12
2746400,18
2747024,21
2747652,23
2748276,12
2748908,11
2749536,11
2750156,15
2750784,15
2751408,15
2752032,15
2752660,12
2753280,13
2753908,11
2754532,15
2755156,17
2755788,14
2756408,13
2757036,11
2757668,14
2758288,15
2758916,15
2759540,18
2760172,18
2760804,14
2761424,13
2762052,14
2762676,16
2763304,17
2763932,15
2764552,13
2765184,11
2765804,11
2766428,13
2767056,18
2767680,18
2768308,16
2768940,15
2769560,12
2770188,11
2770812,10
2771444,12
2772072,12
2772688,16
2773320,19
2773944,13
2774568,12
2775196,14
2775816,15
2776444,16
2777068,15
2777692,11
2778324,11
2778944,16
2779576,22
2780204,21
2780824,21
2781452,19
2782076,11
2782708,10
2783340,14
2783960,13
2784592,15
2785216,16
2785840,16
2786468,12
2787088,11
2787716,15
2788340,13
2788964,11
2789592,12
2790220,13
2790848,19
2791476,16
2792096,15
2792724,15
2793348,16
2793980,16
2794608,16
2795228,16
2795856,18
2796480,17
2797104,16
2797732,14
2798352,12
2798980,11
2799608,12
2800232,16
2800860,15
2801484,15
2802112,14
2802744,11
2803360,11
2803988,11
2804612,10
2805244,11
2805872,13
2806488,21
2807120,19
2807740,18
2808368,16
2808996,14
2809616,17
2810244,15
2810868,12
2811492,11
2812124,20
2812748,28
2813376,25
2814008,18
2814628,16
2815256,11
2815884,13
2816512,20
2817144,17
2817760,15
2818388,14
2819012,15
2819636,11
2820264,11
2820880,10
2821512,13
2822136,18
2822756,15
2823388,14
2824012,13
2824640,13
2825268,14
2825888,17
2826516,18
2827140,14
2827772,13
2828400,16
2829016,25
2829644,38
2830268,33
2830892,24
2831520,16
2832136,12
2832768,11
2833392,15
2834016,15
2834644,16
2835268,15
2835896,12
2836524,10
2837144,11
2837772,12
2838396,10
2839028,11
2839656,12
2840280,12
2840908,18
2841532,23
2842156,16
2842788,14
2843408,16
2844036,15
2844660,21
2845284,21
2845916,18
2846540,22
2847172,25
2847800,23
2848420,15
2849048,13
2849672,14
2850300,16
2850932,16
2851552,15
2852180,15
2852804,13
2853428,12
2854060,16
2854680,15
2855308,12
2855932,12
2856560,13
2857188,15
2857812,20
2858444,17
2859076,14
2859696,15
2860324,16
2860952,14
2861576,16
2862204,16
2862824,14
2863452,11
2864080,13
2864704,15
2865332,12
2865952,17
2866584,19
2867212,16
2867828,15
2868460,15
2869084,15
2869712,11
2870340,11
2870960,15
2871588,16
2872212,11
2872836,16
2873468,16
2874088,23
2874716,23
2875340,15
2875964,15
2876596,14
2877216,14
2877844,15
2878476,22
2879096,21
2879724,21
2880352,19
2880980,16
2881608,13
2882224,16
2882852,18
2883476,16
2884100,15
2884728,14
2885352,15
2885980,11
2886604,10
2887228,10
2887856,11
2888472,12
2889100,13
2889724,14
2890352,17
2890980,18
2891604,17
2892232,15
2892860,15
2893476,15
2894108,15
2894728,12
2895360,11
2895988,10
2896608,21
2897236,29
2897860,37
2898484,29
2899112,23
2899736,17
2900364,15
2900988,14
2901616,15
2902244,15
2902868,11
2903500,11
2904128,10
2904752,11
2905380,12
2906008,17
2906628,21
2907260,20
2907880,19
2908508,16
2909132,15
2909756,15
2910388,14
2911008,11
2911636,13
2912268,22
2912888,29
2913516,24
2914140,25
2914772,21
2915400,11
2916020,11
2916648,15
2917272,19
2917896,15
2918528,15
2919144,16
2919772,11
2920396,11
2921020,13
2921652,12
2922272,12
2922900,12
2923532,10
2924152,12
2924780,15
2925408,15
2926036,15
2926668,14
2927288,17
2927916,11
2928544,13
2929168,18
2929796,13
2930416,12
2931044,13
2931668,15
2932292,21
2932924,24
2933544,25
2934176,24
2934804,21
2935424,15
2936052,15
2936676,15
2937308,11
2937940,12
2938560,11
2939188,11
2939816,21
2940440,27
2941068,27
2941688,21
2942316,15
2942944,15
2943568,17
2944200,14
2944816,17
2945444,23
2946076,22
2946696,25
2947324,19
2947948,13
2948580,11
2949208,10
2949832,14
2950460,14
2951084,18
2951704,21
2952336,18
2952952,11
2953580,13
2954204,15
2954828,21
2955460,31
2956080,26
2956708,14
2957340,12
2957960,12
2958588,15
2959212,17
2959844,18
2960472,20
2961096,17
2961724,19
2962348,14
2962972,11
2963600,10
2964224,19
2964852,25
2965476,20
2966100,13
2966728,17
2967352,16
2967980,16
2968612,15
2969232,13
2969864,12
2970484,11
2971116,12
2971744,10
2972360,11
2972992,11
2973616,13
2974236,13
2974868,14
2975488,15
2976116,14
2976740,17
2977364,19
2977992,15
2978612,20
2979240,16
2979868,30
2980488,27
2981116,27
2981740,27
2982372,28
2983000,20
2983624,13
2984252,16
2984876,18
2985500,20
2986132,14
2986752,12
2987384,13
2988008,12
2988632,13
2989260,11
2989880,17
2990508,13
2991140,18
2991760,21
2992388,23
2993012,19
2993644,15
2994272,12
2994896,18
2995524,17
2996148,16
2996772,23
2997404,26
2998024,25
2998652,15
2999276,13
2999904,17
3000532,19
3001156,17
3001788,21
3002416,14
3003040,11
3003668,15
3004296,11
3004924,11
3005556,16
3006176,25
3006808,24
3007432,20
3008056,15
3008684,15
3009304,15
3009932,17
3010556,18
3011184,21
3011816,15
3012440,12
3013068,13
3013700,10
3014320,11
3014952,11
3015576,11
3016200,14
3016828,18
3017448,18
3018080,15
3018704,16
3019328,13
3019960,14
3020576,11
3021208,11
3021840,10
3022456,11
3023088,20
3023712,22
3024344,20
3024972,16
3025592,15
3026224,15
3026848,14
3027472,14
3028104,10
3028720,11
3029352,14
3029976,11
3030600,18
3031232,19
3031848,14
3032480,14
3033108,16
3033728,18
3034356,15
3034984,16
3035612,17
3036244,11
3036864,12
3037492,11
3038120,11
3038744,13
3039376,13
3039992,19
3040624,21
3041248,21
3041872,16
3042500,14
3043120,15
3043752,16
3044380,16
3045000,18
3045628,16
3046256,19
3046884,15
3047516,14
3048136,15
3048764,11
3049388,10
3050016,14
3050644,14
3051264,15
3051896,16
3052520,15
3053144,13
3053772,10
3054392,12
3055024,12
3055652,11
3056272,16
3056904,23
3057528,24
3058160,21
3058788,17
3059408,15
3060036,15
3060664,20
3061288,26
3061916,29
3062536,30
3063168,23
3063792,16
3064416,17
3065048,13
3065672,10
3066300,14
3066932,22
3067552,24
3068184,19
3068808,16
3069436,11
3070072,13
3070692,13
3071324,14
3071948,13
3072576,16
3073204,16
3073824,17
3074452,27
3075080,23
3075704,16
3076332,16
3076956,16
3077588,16
3078216,16
3078836,17
3079464,22
3080088,24
3080708,20
3081340,14
3081960,16
3082588,15
3083212,19
3083836,15
3084464,14
3085088,14
3085716,14
3086348,12
3086968,11
3087596,12
3088220,11
3088852,11
3089480,13
3090100,18
3090728,27
3091352,22
3091976,16
3092608,15
3093224,16
3093852,15
3094476,14
3095100,21
3095732,24
3096352,25
3096980,20
3097612,16
3098232,11
3098860,12
3099484,11
3100116,15
3100748,16
3101368,16
3102000,15
3102624,13
3103248,11
3103876,11
3104496,10
3105128,11
3105752,13
3106376,15
3107008,24
3107624,26
3108256,18
3108884,14
3109504,18
3110136,21
3110760,18
3111392,19
3112020,23
3112640,21
3113272,11
3113896,16
3114520,25
3115148,14
3115768,13
3116396,17
3117024,18
3117648,15
3118276,15
3118896,15
3119524,13
3120156,13
3120776,13
3121404,11
3122028,11
3122660,11
3123292,14
3123912,17
3124540,13
3125164,14
3125788,15
3126416,16
3127040,15
3127668,11
3128292,13
3128916,21
3129548,19
3130168,16
3130796,17
3131428,13
3132048,11
3132680,15
3133304,16
3133936,15
3134564,16
3135184,18
3135816,14
3136440,12
3137064,11
3137692,11
3138312,15
3138944,13
3139568,15
3140192,15
3140820,20
3141444,24
3142076,19
3142704,15
3143328,15
3143960,15
3144584,19
3145212,23
3145844,26
3146464,26
3147092,23
3147720,19
3148344,15
3148976,12
3149592,12
3150224,15
3150852,13
3151472,15
3152104,15
3152728,11
3153356,10
3153988,10
3154608,11
3155236,12
3155860,15
3156488,19
3157116,20
3157736,20
3158368,16
3158992,15
3159616,15
3160248,14
3160864,12
3161496,15
3162128,19
3162744,26
3163376,28
3164000,22
3164632,21
3165260,13
3165880,12
3166512,15
3167136,16
3167760,15
3168392,15
3169008,15
3169640,11
3170264,11
3170888,15
3171520,20
3172136,19
3172768,16
3173400,15
3174020,16
3174652,20
3175276,16
3175904,15
3176536,15
3177152,15
3177784,24
3178408,38
3179032,35
3179664,27
3180280,15
3180912,17
3181536,14
3182160,11
3182792,13
3183408,15
3184040,15
3184668,15
3185288,17
3185916,14
3186544,13
3187176,13
3187808,12
3188424,11
3189056,15
3189680,22
3190304,21
3190936,17
3191556,16
3192188,14
3192812,15
3193436,15
3194072,13
3194696,14
3195328,15
3195960,24
3196576,26
3197208,16
3197836,10
3198464,11
3199096,11
3199720,17
3200352,16
3200976,17
3201596,21
3202228,18
3202848,12
3203476,11
3204104,11
3204728,13
3205356,13
3205980,11
3206608,15
3207236,20
3207856,26
3208484,15
3209108,14
3209732,16
3210364,14
3210984,11
3211612,13
3212236,19
3212860,23
3213488,24
3214108,21
3214736,17
3215364,14
3215984,11
3216612,15
3217236,16
3217868,16
3218496,15
3219116,14
3219744,13
3220368,13
3220996,11
3221628,11
3222248,11
3222876,11
3223500,13
3224128,13
3224756,16
3225376,15
3226008,16
3226636,19
3227256,18
3227884,15
3228508,14
3229136,16
3229768,18
3230384,14
3231016,14
3231640,13
3232264,13
3232892,11
3233512,17
3234140,18
3234764,18
3235388,15
3236020,10
3236640,11
3237268,11
3237900,12
3238520,15
3239148,11
3239772,15
3240404,15
3241032,14
3241648,15
3242280,15
3242900,15
3243528,15
3244156,13
3244776,14
3245408,16
3246032,22
3246656,24
3247284,23
3247904,24
3248536,14
3249164,11
3249784,16
3250412,17
3251036,15
3251668,15
3252300,17
3252920,16
3253548,13
3254176,11
3254800,11
3255428,10
3256048,11
3256676,14
3257300,17
3257924,19
3258556,14
3259176,15
3259808,15
3260436,14
3261056,12
3261688,13
3262312,18
3262940,17
3263572,15
3264192,19
3264820,18
3265444,14
3266068,13
3266700,18
3267320,19
3267948,15
3268572,15
3269196,13
3269828,10
3270448,12
3271076,11
3271708,10
3272328,19
3272956,23
3273584,16
3274216,15
3274844,15
3275464,15
3276096,15
3276720,14
3277344,15
3277972,17
3278592,21
3279220,23
3279840,26
3280464,24
3281092,20
3281708,17
3282340,13
3282968,11
3283584,15
3284212,14
3284832,15
3285460,16
3286088,12
3286708,15
3287340,14
3287960,12
3288584,11
3289212,12
3289832,12
3290460,10
3291080,14
3291704,19
3292332,16
3292952,15
3293580,16
3294200,15
3294824,17
3295456,15
3296076,21
3296704,20
3297336,20
3297952,21
3298580,15
3299200,12
3299828,16
3300460,14
3301080,15
3301708,14
3302332,14
3302956,11
3303584,11
3304208,11
3304836,11
3305460,14
3306084,16
3306712,15
3307336,19
3307964,15
3308596,14
3309216,15
3309844,15
3310468,17
3311096,19
3311724,18
3312344,19
3312972,22
3313596,17
3314220,13
3314848,12
3315472,13
3316100,11
3316724,16
3317348,16
3317980,15
3318600,15
3319232,14
3319860,14
3320480,12
3321108,11
3321732,11
3322360,13
3322988,13
3323608,17
3324236,21
3324860,20
3325484,15
3326112,15
3326732,18
3327360,22
3327984,25
3328608,19
3329236,11
3329856,10
3330488,11
3331116,14
3331736,12
3332364,11
3332988,18
3333616,21
3334244,22
3334864,20
3335492,14
3336116,11
3336740,11
3337368,12
3337984,12
3338612,13
3339236,13
3339860,16
3340488,17
3341104,19
3341732,21
3342364,14
3342984,15
3343612,16
3344236,18
3344864,16
3345492,22
3346112,27
3346740,22
3347364,17
3347988,15
3348616,12
3349240,13
3349868,16
3350492,15
3351116,14
3351744,14
3352364,15
3352992,15
3353620,11
3354240,11
3354868,11
3355492,11
3356120,18
3356752,24
3357368,25
3358000,15
3358624,17
3359248,17
3359876,14
3360496,15
3361124,11
3361744,11
3362368,11
3362996,18
3363616,28
3364244,28
3364872,24
3365488,17
3366116,15
3366740,20
3367368,17
3367996,14
3368616,15
3369244,12
3369868,13
3370496,12
3371124,11
3371744,11
3372372,10
3372996,16
3373620,15
3374248,14
3374872,16
3375500,15
3376124,16
3376752,15
3377380,15
3378004,18
3378632,23
3379264,21
3379880,19
3380508,21
3381132,19
3381760,16
3382388,14
3383008,18
3383636,16
3384260,15
3384884,14
3385512,17
3386132,13
3386760,12
3387384,12
3388008,12
3388636,10
3389260,15
3389888,33
3390520,33
3391136,28
3391764,15
3392388,15
3393020,21
3393648,22
3394264,14
3394892,11
3395516,13
3396140,17
3396768,18
3397392,19
3398020,22
3398644,19
3399268,16
3399900,19
3400524,14
3401152,16
3401780,16
3402400,20
3403028,13
3403652,10
3404280,12
3404908,10
3405528,14
3406156,11
3406780,11
3407400,11
3408032,13
3408648,13
3409276,15
3409900,15
3410524,15
3411152,16
3411772,21
3412400,20
3413032,23
3413648,18
3414276,16
3414900,13
3415532,11
3416160,10
3416784,15
3417412,15
3418040,15
3418664,15
3419292,11
3419912,12
3420544,11
3421168,11
3421788,11
3422420,11
3423044,13
3423676,13
3424304,14
3424924,16
3425552,15
3426176,15
3426804,15
3427436,14
3428056,18
3428684,21
3429308,24
3429932,24
3430564,16
3431184,14
3431812,10
3432436,11
3433060,16
3433692,19
3434312,16
3434944,16
3435572,15
3436192,12
3436820,11
3437444,11
3438076,15
3438708,18
3439328,21
3439960,25
3440584,26
3441208,25
3441836,15
3442456,16
3443084,17
3443708,16
3444336,13
3444964,15
3445588,22
3446220,25
3446848,22
3447464,18
3448096,16
3448720,13
3449348,13
3449976,18
3450600,17
3451228,15
3451852,15
3452476,13
3453108,12
3453728,15
3454356,14
3454988,12
3455608,13
3456240,15
3456860,16
3457488,21
3458120,28
3458736,23
3459364,16
3459988,15
3460616,18
3461244,26
3461864,27
3462492,23
3463116,22
3463740,19
3464368,17
3464984,17
3465616,16
3466240,12
3466864,16
3467492,16
3468116,17
3468748,17
3469380,11
3470000,11
3470628,11
3471256,13
3471880,13
3472508,15
3473128,24
3473756,22
3474380,19
3475008,15
3475636,14
3476256,15
3476884,15
3477516,14
3478136,15
3478768,17
3479392,19
3480020,14
3480652,10
3481272,13
3481904,11
3482524,11
3483148,16
3483780,17
3484400,20
3485028,16
3485652,16
3486276,12
3486904,11
3487520,11
3488152,11
3488780,12
3489400,13
3490028,18
3490652,24
3491280,32
3491912,24
3492528,16
3493156,16
3493780,20
3494404,19
3495036,23
3495656,23
3496284,25
3496908,22
3497532,19
3498164,14
3498784,12
3499416,11
3500044,14
3500664,16
3501296,14
3501920,16
3502548,11
3503180,13
3503800,17
3504432,15
3505056,12
3505680,13
3506308,19
3506928,22
3507560,20
3508184,17
3508804,15
3509436,14
3510056,15
3510688,15
3511316,10
3511936,15
3512568,25
3513192,27
3513820,19
3514452,12
3515072,10
3515704,11
3516328,14
3516952,15
3517584,15
3518200,14
3518832,15
3519456,12
3520080,11
3520708,10
3521328,12
3521956,10
3522588,10
3523208,13
3523836,13
3524460,13
3525088,15
3525716,18
3526336,18
3526964,14
3527588,17
3528216,19
3528844,20
3529464,24
3530092,23
3530716,17
3531340,15
3531972,10
3532592,9
3533172,14
3533800,15
3534424,15
3535052,14
3535672,15
3536300,11
3536932,10
3537552,11
3538180,11
3538804,13
3539436,15
3540064,16
3540688,19
3541316,16
3541940,15
3542568,15
3543196,16
3543816,18
3544444,15
3545068,19
3545692,22
3546324,17
3546948,14
3547576,10
3548204,10
3548824,12
3549452,14
3550076,17
3550708,15
3551340,14
3551960,19
3552592,21
3553216,20
3553840,17
3554468,11
3555088,19
3555720,19
3556344,12
3556968,11
3557596,11
3558224,15
3558856,15
3559484,15
3560104,15
3560732,17
3561356,23
3561988,18
3562620,16
3563240,16
3563868,13
3564492,12
3565116,11
3565748,12
3566368,13
3566996,14
3567628,14
3568248,16
3568876,14
3569500,13
3570132,18
3570764,14
3571384,11
3572012,11
3572636,12
3573264,19
3573892,21
3574512,23
3575144,17
3575768,16
3576392,15
3577024,15
3577640,12
3578272,14
3578904,17
3579520,19
3580152,17
3580776,21
3581408,18
3582040,14
3582660,14
3583292,16
3583916,16
3584544,14
3585172,14
3585792,13
3586420,11
3587044,11
3587668,11
3588296,10
3588920,19
3589548,20
3590180,16
3590800,11
3591428,14
3592052,15
3592684,15
3593312,14
3593932,14
3594560,15
3595184,19
3595808,15
3596440,11
3597056,11
3597684,11
3598308,10
3598932,14
3599564,14
3600184,15
3600812,16
3601440,14
3602064,15
3602692,12
3603316,14
3603948,17
3604580,16
3605200,13
3605828,15
3606452,11
3607072,13
3607700,11
3608320,16
3608948,15
3609572,15
3610196,15
3610824,15
3611448,18
3612076,16
3612708,16
3613328,15
3613956,11
3614580,13
3615212,11
3615840,12
3616460,15
3617088,16
3617712,15
3618336,15
3618964,14
3619584,11
3620212,12
3620836,11
3621460,11
3622088,10
3622712,16
3623340,18
3623972,16
3624592,17
3625220,17
3625844,16
3626476,14
3627104,17
3627720,15
3628352,15
3628976,16
3629600,21
3630228,22
3630848,21
3631476,18
3632104,13
3632724,11
3633356,14
3633976,15
3634604,17
3635236,16
3635856,13
3636484,16
3637108,20
3637736,16
3638368,11
3638984,10
3639616,14
3640240,17
3640864,16
3641492,14
3642112,15
3642740,15
3643364,15
3643988,16
3644620,16
3645240,21
3645872,25
3646500,22
3647120,17
3647748,13
3648376,11
3649004,11
3649632,11
3650252,13
3650880,15
3651504,15
3652128,15
3652756,10
3653376,16
3654004,23
3654632,12
3655256,17
3655884,18
3656504,12
3657132,11
3657764,13
3658384,18
3659012,15
3659640,15
3660268,15
3660900,12
3661520,10
3662148,11
3662772,12
3663396,12
3664028,20
3664648,30
3665276,25
3665900,20
3666528,17
3667156,16
3667780,14
3668412,15
3669044,16
3669664,14
3670296,11
3670920,11
3671552,11
3672180,13
3672800,16
3673428,13
3674056,18
3674680,19
3675312,14
3675928,15
3676560,15
3677188,15
3677808,15
3678440,16
3679064,19
3679692,23
3680324,18
3680944,16
3681572,11
3682200,11
3682824,11
3683452,14
3684072,15
3684700,15
3685328,17
3685952,16
3686584,13
3687200,11
3687828,13
3688456,16
3689072,12
3689704,11
3690324,13
3690956,12
3691584,16
3692200,17
3692832,15
3693452,15
3694084,15
3694712,19
3695328,23
3695960,20
3696584,20
3697208,22
3697836,18
3698456,12
3699084,11
3699708,13
3700336,17
3700964,20
3701588,21
3702220,16
3702848,12
3703472,18
3704100,25
3704728,27
3705352,19
3705980,13
3706600,13
3707228,24
3707852,27
3708476,19
3709108,16
3709728,15
3710356,15
3710988,13
3711608,17
3712240,14
3712860,11
3713492,12
3714120,19
3714740,18
3715368,11
3715992,13
3716616,14
3717244,16
3717864,20
3718492,20
3719116,18
3719740,21
3720372,16
3720992,10
3721620,13
3722252,15
3722872,19
3723500,19
3724128,20
3724756,19
3725388,15
3726008,15
3726636,15
3727264,15
3727888,13
3728516,17
3729136,18
3729764,16
3730388,14
3731012,13
3731644,10
3732264,11
3732892,12
3733524,14
3734144,17
3734776,18
3735400,16
3736028,11
3736660,10
3737280,13
3737912,13
3738536,12
3739156,11
3739788,10
3740408,15
3741036,20
3741664,17
3742288,15
3742916,16
3743536,15
3744168,12
3744796,14
3745416,17
3746044,16
3746672,16
3747300,16
3747932,16
3748552,15
3749180,11
3749808,16
3750432,16
3751060,14
3751680,16
3752308,17
3752936,16
3753560,13
3754192,11
3754808,11
3755440,14
3756072,18
3756688,16
3757320,14
3757944,13
3758576,15
3759204,15
3759824,18
3760456,15
3761080,11
3761704,17
3762336,21
3762952,23
3763584,19
3764208,13
3764832,15
3765460,12
3766088,11
3766716,18
3767348,28
3767968,25
3768600,17
3769224,14
3769852,16
3770484,11
3771104,12
3771736,11
3772360,11
3772984,13
3773612,12
3774232,14
3774864,16
3775492,16
3776112,15
3776740,18
3777364,14
3777996,13
3778624,14
3779248,24
3779876,29
3780500,25
3781128,26
3781756,18
3782376,14
3783008,16
3783632,15
3784256,16
3784884,21
3785504,19
3786136,12
3786768,10
3787384,12
3788016,13
3788640,20
3789272,16
3789900,16
3790520,24
3791148,26
3791776,15
3792400,20
3793028,18
3793648,15
3794276,11
3794900,11
3795528,15
3796156,20
3796776,27
3797408,22
3798036,18
3798656,21
3799288,16
3799912,15
3800544,15
3801172,18
3801792,17
3802420,13
3803044,12
3803668,15
3804300,10
3804920,11
3805548,10
3806176,13
3806800,19
3807428,17
3808048,14
3808680,15
3809308,15
3809928,16
3810556,14
3811184,11
3811812,12
3812444,20
3813064,34
3813696,32
3814320,18
3814944,14
3815576,11
3816196,12
3816824,19
3817448,15
3818072,15
3818704,14
3819320,11
3819952,11
3820584,11
3821200,10
3821832,15
3822456,19
3823088,27
3823716,24
3824336,25
3824968,25
3825592,19
3826216,16
3826848,20
3827468,23
3828100,31
3828724,34
3829348,33
3829980,18
3830608,11
3831236,13
3831868,13
3832488,13
3833120,15
3833744,14
3834376,15
3835008,15
3835624,18
3836256,21
3836884,20
3837508,13
3838140,14
3838760,11
3839392,16
3840028,14
3840644,19
3841276,21
3841896,15
3842528,15
3843156,14
3843776,15
3844404,11
3845028,10
3845652,11
3846284,16
3846904,17
3847532,18
3848156,25
3848780,23
3849412,12
3850032,17
3850664,17
3851292,14
3851912,17
3852540,14
3853164,11
3853796,11
3854424,12
3855044,15
3855672,15
3856296,15
3856920,17
3857548,18
3858168,19
3858796,15
3859420,15
3860044,16
3860676,14
3861296,11
3861924,15
3862556,25
3863176,31
3863808,31
3864432,31
3865060,17
3865692,10
3866312,11
3866940,13
3867564,15
3868188,15
3868820,14
3869440,14
3870068,19
3870696,18
3871320,13
3871952,20
3872568,19
3873200,12
3873828,18
3874448,23
3875076,21
3875704,15
3876332,18
3876964,20
3877584,21
3878216,15
3878840,13
3879464,13
3880092,16
3880712,16
3881344,12
3881968,13
3882592,14
3883220,16
3883848,17
3884476,15
3885108,14
3885728,14
3886360,14
3886984,13
3887616,11
3888244,10
3888864,14
3889492,12
3890120,13
3890744,19
3891376,19
3891992,15
3892620,15
3893244,14
3893872,16
3894500,12
3895124,17
3895756,21
3896388,19
3897008,17
3897636,18
3898260,13
3898888,11
3899516,10
3900136,14
3900768,19
3901392,17
3902016,16
3902648,15
3903264,19
3903896,15
3904528,10
3905144,11
3905772,15
3906396,23
3907028,29
3907660,27
3908280,26
3908908,15
3909536,15
3910160,21
3910792,20
3911408,16
3912040,12
3912664,15
3913288,17
3913916,15
3914536,14
3915168,12
3915800,12
3916416,19
3917048,18
3917672,15
3918304,20
3918932,18
3919552,17
3920184,13
3920808,13
3921432,25
3922060,22
3922680,12
3923308,12
3923932,23
3924560,25
3925188,14
3925808,17
3926440,22
3927068,20
3927688,13
3928316,16
3928944,20
3929576,16
3930208,15
3930824,17
3931456,17
3932080,15
3932704,13
3933332,18
3933952,20
3934580,15
3935204,16
3935828,14
3936460,10
3937080,12
3937708,13
3938340,15
3938960,16
3939588,13
3940212,11
3940844,13
3941472,16
3942096,15
3942724,16
3943348,15
3943972,15
3944604,16
3945224,18
3945852,18
3946476,16
3947100,11
3947732,15
3948356,14
3948988,14
3949616,14
3950236,16
3950864,15
3951488,15
3952120,15
3952748,10
3953368,12
3953996,13
3954620,11
3955248,13
3955876,10
3956496,16
3957124,17
3957748,12
3958376,15
3959004,16
3959632,15
3960260,15
3960892,10
3961512,13
3962144,18
3962768,21
3963400,17
3964028,16
3964648,13
3965276,13
3965904,13
3966528,15
3967160,14
3967776,14
3968412,15
3969040,16
3969656,22
3970284,19
3970908,11
3971540,11
3972168,12
3972792,14
3973424,11
3974048,15
3974672,13
3975300,16
3975920,16
3976548,15
3977172,15
3977800,11
3978428,10
3979048,17
3979676,24
3980308,24
3980928,21
3981556,11
3982184,11
3982812,12
3983444,14
3984064,16
3984692,15
3985316,15
3985940,12
3986572,10
3987192,11
3987824,11
3988448,11
3989072,11
3989704,12
3990320,18
3990952,27
3991584,20
3992204,14
3992832,14
3993460,15
3994092,17
3994720,19
3995340,22
3995968,19
3996596,14
3997220,12
3997848,14
3998472,14
3999104,17
3999728,19
4000352,18
4000980,15
4001604,13
4002232,15
4002860,11
4003480,11
4004108,10
4004732,11
4005360,11
4005992,13
4006608,20
4007240,30
4007864,33
4008484,21
4009116,14
4009736,15
4010364,15
4010988,13
4011612,13
4012244,15
4012868,20
4013496,21
4014124,18
4014744,12
4015372,10
4015996,11
4016628,22
4017256,25
4017876,25
4018504,20
4019128,15
4019752,13
4020380,11
4021000,14
4021628,16
4022252,11
4022876,15
4023508,19
4024132,27
4024760,29
4025388,23
4026008,16
4026636,14
4027260,17
4027892,18
4028520,15
4029144,17
4029772,19
4030396,17
4031024,16
4031652,15
4032272,16
4032900,13
4033524,14
4034148,15
4034780,15
4035404,15
4036032,12
4036660,11
4037280,12
4037908,11
4038532,13
4039164,15
4039792,15
4040416,16
4041044,17
4041668,15
4042292,15
4042924,14
4043544,15
4044172,15
4044800,18
4045420,25
4046052,24
4046676,24
4047308,22
4047936,20
4048556,12
4049184,10
4049812,14
4050440,14
4051068,14
4051688,15
4052316,17
4052944,15
4053568,15
4054200,12
4054816,11
4055448,11
4056076,14
4056696,21
4057324,19
4057952,17
4058580,15
4059212,14
4059832,15
4060464,17
4061088,22
4061712,19
4062344,15
4062960,17
4063588,28
4064216,32
4064840,23
4065468,19
4066088,23
4066716,26
4067348,16
4067968,19
4068600,22
4069224,13
4069852,13
4070484,14
4071104,11
4071732,11
4072360,21
4072984,25
4073612,24
4074232,22
4074864,16
4075488,17
4076112,20
4076744,17
4077360,15
4077992,19
4078624,17
4079240,16
4079872,18
4080496,17
4081128,17
4081756,16
4082376,15
4083008,15
4083632,17
4084256,16
4084884,15
4085504,15
4086136,11
4086760,12
4087384,13
4088016,18
4088632,14
4089264,11
4089896,16
4090512,23
4091144,28
4091768,22
4092400,18
4093028,14
4093648,15
4094280,15
4094904,15
4095528,15
4096160,17
4096780,17
4097408,17
4098028,11
4098652,11
4099280,11
4099892,17
4100524,19
4101152,22
4101768,20
4102396,14
4103020,11
4103648,12
4104276,10
4104896,11
4105524,15
4106148,21
4106768,22
4107400,22
4108016,24
4108644,18
4109268,15
4109888,23
4110520,26
4111136,21
4111764,19
4112396,18
4113016,20
4113644,21
4114268,16
4114896,13
4115524,12
4116144,16
4116772,14
4117396,17
4118020,17
4118652,16
4119272,14
4119900,12
4120524,13
4121148,14
4121776,14
4122396,12
4123028,14
4123656,15
4124272,15
4124904,15
4125524,16
4126156,14
4126784,17
4127400,23
4128032,25
4128652,20
4129284,20
4129912,18
4130528,12
4131156,11
4131780,15
4132404,15
4133036,13
4133656,15
4134284,21
4134908,26
4135536,23
4136164,15
4136788,11
4137420,11
4138048,15
4138664,22
4139296,29
4139920,25
4140548,14
4141176,10
4141800,15
4142428,16
4143052,16
4143676,15
4144304,15
4144928,16
4145556,19
4146188,22
4146808,18
4147436,16
4148060,13
4148688,11
4149320,10
4149936,15
4150564,14
4151188,15
4151816,15
4152444,13
4153064,11
4153692,12
4154316,14
4154940,11
4155568,10
4156192,14
4156820,17
4157452,20
4158072,23
4158700,17
4159328,15
4159956,19
4160588,25
4161208,32
4161836,29
4162456,17
4163080,12
4163712,15
4164328,19
4164956,13
4165580,11
4166204,11
4166832,13
4167452,14
4168080,15
4168700,16
4169328,17
4169956,11
4170580,11
4171208,12
4171836,10
4172456,26
4173084,37
4173708,32
4174340,20
4174968,15
4175584,19
4176216,18
4176840,15
4177460,13
4178092,10
4178712,11
4179340,13
4179964,17
4180584,19
4181216,21
4181836,21
4182468,19
4183096,15
4183712,15
4184344,15
4184968,18
4185596,16
4186228,12
4186848,13
4187476,10
4188100,12
4188724,12
4189352,12
4189976,12
4190604,11
4191228,13
4191856,18
4192488,17
4193108,15
4193740,15
4194368,12
4194988,11
4195616,16
4196240,16
4196868,15
4197500,12
4198120,12
4198748,12
4199372,10
4199996,15
4200624,14
4201248,16
4201876,17
4202504,12
4203128,12
4203756,14
4204380,15
4205012,14
4205640,11
4206256,11
4206884,13
4207508,11
4208136,15
4208764,16
4209384,19
4210012,15
4210636,14
4211260,19
4211888,17
4212508,16
4213136,25
4213764,23
4214384,21
4215012,17
4215636,16
4216268,15
4216900,14
4217520,15
4218152,15
4218776,15
4219400,11
4220028,10
4220648,12
4221276,11
4221900,11
4222528,12
4223156,17
4223776,23
4224408,25
4225036,18
4225656,15
4226284,15
4226908,15
4227536,12
4228164,14
4228784,20
4229412,19
4230036,15
4230660,15
4231292,14
4231912,13
4232540,13
4233164,22
4233788,21
4234420,18
4235040,16
4235668,15
4236300,10
4236920,12
4237548,12
4238172,12
4238804,15
4239432,19
4240052,19
4240680,21
4241304,18
4241924,14
4242556,15
4243176,17
4243808,16
4244432,14
4245056,11
4245684,14
4246304,21
4246932,21
4247564,17
4248184,17
4248812,20
4249436,18
4250068,19
4250696,19
4251320,16
4251948,15
4252572,14
4253196,15
4253828,11
4254448,11
4255076,11
4255700,15
4256328,29
4256956,26
4257576,17
4258204,15
4258836,22
4259456,23
4260084,21
4260708,19
4261340,16
4261968,17
4262584,20
4263212,17
4263836,11
4264460,10
4265088,11
4265704,11
4266332,13
4266956,14
4267580,14
4268208,15
4268828,14
4269456,12
4270084,10
4270704,11
4271332,11
4271956,10
4272588,11
4273220,17
4273840,19
4274468,14
4275092,15
4275720,17
4276348,16
4276968,15
4277596,12
4278220,12
4278844,11
4279476,10
4280096,14
4280724,18
4281356,16
4281976,13
4282604,13
4283228,14
4283856,15
4284488,15
4285104,20
4285736,19
4286360,16
4286984,12
4287612,10
4288232,11
4288860,11
4289484,13
4290108,14
4290736,15
4291360,18
4291988,19
4292620,18
4293240,17
4293868,19
4294492,11
4295124,17
4295752,24
4296376,28
4297004,29
4297628,30
4298252,20
4298884,12
4299504,13
4300136,14
4300760,15
4301384,15
4302012,16
4302632,13
4303260,11
4303892,12
4304512,13
4305140,11
4305764,17
4306396,25
4307024,17
4307648,15
4308276,14
4308900,14
4309524,17
4310156,18
4310776,16
4311404,20
4312028,22
4312652,21
4313284,16
4313904,14
4314532,10
4315164,19
4315784,16
4316416,15
4317040,13
4317668,14
4318300,15
4318920,15
4319548,13
4320176,13
4320796,13
4321428,14
4322048,14
4322676,19
4323300,27
4323924,25
4324552,14
4325176,13
4325804,18
4326436,14
4327056,19
4327684,23
4328308,26
4328936,24
4329568,19
4330184,14
4330816,11
4331440,11
4332064,12
4332692,11
4333312,17
4333940,21
4334568,25
4335192,20
4335820,11
4336440,11
4337068,11
4337700,12
4338320,13
4338948,11
4339576,13
4340204,11
4340836,10
4341456,16
4342088,15
4342708,14
4343332,14
4343964,14
4344584,11
4345212,18
4345836,23
4346464,18
4347092,11
4347716,10
4348348,11
4348976,10
4349600,12
4350228,13
4350856,15
4351484,19
4352116,22
4352736,17
4353364,11
4353988,10
4354608,11
4355240,12
4355856,17
4356484,20
4357108,19
4357732,18
4358364,13
4358988,16
4359616,17
4360244,15
4360864,13
4361492,15
4362116,15
4362748,14
4363376,19
4364000,18
4364628,17
4365252,14
4365876,13
4366508,14
4367128,17
4367756,16
4368384,16
4369008,15
4369636,11
4370260,10
4370892,11
4371520,10
4372140,12
4372768,19
4373392,18
4374024,23
4374652,18
4375272,15
4375900,14
4376528,15
4377152,17
4377784,11
4378400,23
4379028,23
4379660,32
4380280,36
4380908,30
4381532,17
4382164,15
4382796,12
4383416,15
4384044,16
4384668,17
4385292,19
4385920,21
4386544,16
4387176,11
4387800,12
4388424,12
4389052,10
4389672,15
4390304,17
4390932,17
4391552,17
4392184,16
4392808,16
4393436,17
4394068,14
4394688,17
4395320,19
4395944,29
4396568,27
4397200,17
4397816,14
4398448,11
4399072,11
4399696,15
4400328,15
4400944,14
4401572,15
4402204,17
4402824,14
4403456,15
4404076,15
4404708,11
4405336,16
4405956,27
4406584,32
4407208,24
4407832,20
4408460,14
4409080,15
4409708,16
4410332,21
4410956,20
4411588,18
4412208,23
4412836,19
4413468,19
4414088,19
4414716,15
4415344,12
4415972,11
4416604,16
4417224,15
4417852,15
4418476,15
4419104,12
4419732,10
4420352,13
4420984,11
4421608,10
4422232,11
4422860,15
4423480,20
4424112,17
4424740,14
4425360,15
4425988,14
4426612,15
4427244,15
4427872,14
4428492,17
4429120,20
4429744,20
4430368,18
4430996,14
4431616,11
4432244,11
4432868,11
4433492,15
4434124,14
4434744,15
4435372,17
4436004,12
4436624,11
4437252,11
4437876,13
4438508,13
4439140,13
4439760,17
4440392,16
4441016,12
4441640,15
4442268,14
4442888,15
4443516,14
4444144,17
4444768,19
4445396,19
4446024,18
4446652,18
4447284,20
4447904,19
4448536,12
4449160,10
4449788,14
4450420,15
4451040,15
4451672,15
4452296,15
4452920,12
4453552,14
4454168,11
4454800,16
4455428,11
4456048,17
4456676,29
4457300,30
4457932,25
4458564,18
4459184,16
4459816,21
4460440,20
4461064,21
4461696,24
4462312,27
4462944,25
4463568,18
4464192,13
4464824,11
4465440,11
4466068,13
4466700,15
4467320,15
4467948,15
4468572,15
4469204,11
4469836,11
4470456,13
4471084,13
4471712,11
4472336,15
4472964,22
4473584,19
4474216,18
4474840,17
4475464,15
4476096,15
4476712,15
4477344,13
4477976,11
4478596,13
4479228,17
4479852,23
4480484,21
4481116,22
4481736,16
4482364,16
4482988,17
4483612,15
4484244,14
4484864,15
4485492,15
4486116,10
4486740,12
4487372,12
4487992,11
4488624,11
4489252,10
4489872,13
4490500,17
4491124,20
4491756,17
4492388,14
4493008,15
4493636,15
4494260,12
4494884,14
4495516,14
4496136,17
4496764,15
4497388,11
4498012,11
4498644,10
4499268,11
4499896,16
4500528,18
4501148,18
4501776,15
4502400,14
4503028,14
4503660,16
4504280,15
4504912,11
4505536,12
4506160,15
4506792,15
4507408,21
4508036,27
4508660,19
4509284,15
4509912,14
4510536,18
4511168,26
4511796,29
4512416,21
4513044,17
4513668,15
4514296,13
4514928,10
4515544,12
4516176,11
4516800,15
4517424,15
4518052,17
4518672,17
4519300,13
4519924,15
4520548,11
4521180,11
4521804,12
4522432,11
4523060,13
4523680,13
4524308,18
4524932,17
4525564,14
4526196,14
4526816,15
4527444,13
4528068,14
4528692,11
4529320,12
4529944,12
4530572,11
4531196,18
4531824,20
4532456,18
4533080,17
4533708,17
4534340,14
4534960,16
4535588,16
4536216,11
4536840,11
4537468,11
4538088,14
4538716,21
4539344,20
4539968,14
4540600,14
4541216,17
4541848,14
4542476,14
4543096,14
4543728,16
4544352,18
4544980,27
4545612,32
4546232,29
4546864,20
4547488,19
4548112,16
4548740,11
4549360,11
4549988,14
4550616,18
4551240,15
4551868,17
4552488,16
4553116,14
4553748,11
4554368,11
4555000,12
4555624,14
4556252,22
4556884,22
4557504,24
4558132,20
4558756,15
4559380,15
4560012,15
4560632,17
4561260,22
4561884,22
4562512,18
4563140,11
4563760,11
4564388,13
4565020,14
4565640,13
4566272,15
4566896,17
4567524,15
4568156,14
4568776,15
4569408,12
4570032,11
4570656,11
4571284,13
4571904,15
4572536,16
4573160,11
4573784,13
4574416,14
4575032,15
4575664,15
4576296,15
4576912,16
4577544,13
4578168,13
4578800,13
4579428,14
4580048,13
4580676,16
4581304,23
4581928,19
4582560,19
4583176,21
4583808,21
4584432,19
4585056,15
4585688,14
4586312,14
4586940,13
4587572,11
4588192,12
4588820,14
4589444,17
4590072,19
4590704,20
4591324,19
4591956,14
4592580,18
4593204,20
4593836,17
4594456,14
4595084,15
4595716,20
4596336,22
4596964,14
4597588,11
4598220,11
4598852,12
4599472,15
4600104,15
4600728,15
4601352,15
4601984,14
4602600,11
4603232,11
4603856,11
4604480,11
4605108,11
4605728,13
4606360,11
4606988,11
4607608,15
4608240,16
4608860,15
4609492,14
4610120,14
4610736,15
4611364,15
4611988,15
4612616,18
4613244,19
4613864,16
4614492,13
4615116,10
4615740,11
4616368,14
4616992,15
4617620,15
4618252,16
4618872,19
4619500,15
4620124,13
4620756,11
4621388,10
4622008,17
4622636,25
4623260,32
4623888,25
4624516,20
4625136,15
4625764,23
4626388,25
4627016,29
4627644,24
4628264,24
4628892,23
4629524,24
4630144,18
4630772,17
4631400,13
4632028,13
4632656,10
4633280,15
4633908,16
4634532,16
4635160,15
4635788,11
4636408,12
4637036,10
4637664,11
4638288,12
4638916,12
4639536,19
4640168,19
4640796,21
4641416,21
4642044,15
4642668,19
4643296,16
4643928,17
4644544,19
4645172,23
4645796,25
4646420,28
4647052,24
4647672,16
4648300,11
4648928,11
4649552,14
4650180,17
4650800,15
4651428,16
4652060,18
4652680,18
4653312,12
4653936,12
4654564,13
4655196,12
4655816,11
4656448,15
4657072,23
4657696,23
4658324,22
4658944,19
4659576,16
4660200,15
4660820,14
4661452,18
4662072,23
4662700,27
4663332,22
4663952,22
4664584,17
4665208,11
4665836,11
4666468,15
4667088,15
4667716,15
4668344,15
4668968,15
4669596,10
4670216,12
4670844,12
4671472,11
4672096,13
4672724,14
4673348,12
4673976,12
4674608,14
4675224,14
4675852,15
4676476,15
4677108,15
4677740,10
4678360,15
4678992,18
4679616,20
4680240,19
4680868,16
4681488,13
4682116,11
4682744,12
4683368,19
4683996,17
4684624,16
4685252,15
4685884,12
4686504,11
4687132,11
4687760,11
4688388,11
4689020,10
4689640,11
4690268,12
4690892,13
4691516,15
4692148,16
4692768,17
4693400,16
4694028,14
4694648,20
4695280,22
4695904,22
4696536,21
4697164,16
4697784,13
4698412,13
4699036,13
4699664,16
4700296,13
4700912,15
4701544,15
4702168,15
4702792,12
4703424,17
4704044,18
4704672,15
4705304,12
4705920,12
4706552,17
4707176,23
4707808,19
4708440,14
4709060,15
4709688,16
4710316,19
4710940,31
4711572,31
4712192,25
4712820,23
4713444,15
4714072,13
4714700,11
4715320,11
4715952,11
4716580,14
4717200,14
4717828,16
4718456,15
4719084,12
4719716,12
4720336,14
4720964,13
4721588,15
4722216,15
4722844,16
4723464,16
4724092,14
4724716,15
4725344,18
4725972,23
4726600,17
4727228,14
4727860,10
4728480,13
4729108,21
4729736,24
4730368,21
4730996,22
4731616,15
4732248,12
4732872,13
4733496,15
4734128,14
4734744,14
4735376,16
4736008,11
4736624,12
4737252,10
4737880,11
4738508,11
4739140,10
4739760,15
4740392,15
4741016,18
4741640,20
4742268,16
4742888,15
4743516,15
4744144,12
4744768,17
4745400,23
4746016,28
4746648,25
4747276,22
4747896,18
4748528,14
4749152,11
4749784,13
4750412,13
4751032,16
4751664,19
4752288,17
4752912,14
4753540,11
4754160,11
4754788,13
4755416,11
4756040,13
4756668,14
4757288,19
4757916,28
4758548,20
4759168,17
4759800,15
4760424,20
4761056,27
4761684,22
4762304,21
4762932,21
4763556,18
4764180,17
4764812,15
4765432,21
4766064,21
4766688,20
4767312,16
4767944,15
4768564,15
4769192,19
4769824,18
4770440,11
4771072,10
4771696,11
4772328,13
4772956,15
4773576,15
4774208,19
4774832,24
4775456,20
4776088,14
4776704,15
4777336,14
4777960,17
4778584,23
4779216,28
4779832,26
4780464,23
4781096,16
4781716,11
4782344,10
4782972,13
4783604,15
4784236,16
4784856,15
4785488,14
4786112,11
4786736,11
4787368,11
4787984,10
4788616,11
4789240,15
4789864,14
4790496,11
4791120,11
4791752,15
4792384,16
4793000,15
4793632,15
4794256,13
4794888,19
4795516,24
4796136,24
4796768,18
4797396,19
4798020,21
4798652,14
4799272,11
4799904,14
4800540,14
4801160,15
4801788,17
4802412,13
4803044,11
4803672,11
4804292,10
4804920,10
4805544,10
4806168,14
4806800,22
4807416,27
4808048,22
4808672,17
4809296,15
4809924,15
4810544,17
4811176,17
4811804,19
4812424,18
4813056,22
4813680,24
4814308,29
4814936,24
4815560,17
4816188,13
4816812,14
4817436,15
4818068,15
4818688,18
4819316,13
4819940,13
4820564,21
4821196,20
4821816,14
4822448,11
4823076,17
4823696,23
4824324,23
4824948,18
4825580,14
4826212,15
4826832,15
4827464,12
4828088,11
4828712,11
4829344,17
4829960,22
4830592,27
4831216,27
4831840,15
4832472,16
4833096,20
4833728,15
4834356,14
4834976,15
4835604,13
4836228,12
4836860,14
4837492,12
4838112,15
4838744,12
4839368,11
4839992,16
4840620,21
4841240,19
4841868,15
4842492,14
4843120,15
4843752,15
4844376,17
4845004,15
4845636,18
4846256,19
4846884,17
4847508,18
4848136,15
4848764,10
4849384,11
4850012,16
4850640,15
4851264,15
4851892,14
4852512,12
4853144,12
4853772,10
4854392,11
4855024,14
4855648,15
4856280,13
4856908,14
4857528,16
4858160,17
4858784,16
4859408,15
4860040,15
4860656,14
4861288,14
4861912,14
4862536,19
4863168,22
4863788,22
4864420,22
4865052,18
4865672,14
4866300,13
4866924,13
4867556,14
4868188,14
4868808,14
4869436,12
4870060,13
4870688,13
4871316,10
4871936,11
4872568,12
4873192,12
4873816,13
4874448,13
4875064,15
4875696,15
4876324,14
4876944,14
4877572,12
4878196,17
4878828,21
4879460,25
4880080,20
4880708,15
4881332,15
4881956,11
4882588,10
4883208,17
4883836,15
4884460,15
4885088,15
4885716,12
4886344,11
4886972,11
4887604,12
4888224,13
4888856,13
4889480,21
4890112,27
4890740,20
4891360,15
4891988,15
4892616,15
4893240,16
4893872,22
4894488,19
4895120,19
4895752,13
4896368,13
4897000,14
4897624,16
4898252,18
4898884,16
4899504,19
4900136,21
4900760,20
4901384,15
4902016,14
4902636,12
4903264,13
4903892,11
4904516,17
4905148,12
4905768,11
4906396,14
4907028,18
4907648,23
4908280,20
4908904,15
4909536,15
4910164,19
4910784,19
4911416,20
4912040,18
4912664,20
4913296,17
4913916,16
4914548,12
4915172,11
4915800,11
4916428,14
4917048,16
4917676,15
4918308,14
4918928,13
4919556,11
4920180,13
4920812,15
4921440,11
4922060,15
4922688,21
4923312,26
4923936,29
4924564,21
4925184,16
4925812,23
4926436,21
4927060,19
4927692,18
4928312,17
4928940,12
4929572,13
4930192,11
4930820,12
4931444,13
4932076,15
4932704,16
4933324,14
4933952,14
4934576,15
4935200,15
4935832,11
4936448,11
4937080,10
4937704,12
4938328,19
4938956,22
4939576,18
4940204,16
4940836,20
4941456,19
4942084,15
4942708,18
4943336,15
4943968,14
4944592,23
4945220,21
4945848,20
4946472,19
4947100,13
4947720,14
4948348,11
4948976,14
4949600,17
4950228,15
4950852,14
4951484,15
4952116,14
4952736,11
4953368,11
4953992,12
4954620,16
4955252,10
4955872,13
4956504,16
4957128,16
4957752,15
4958380,13
4959000,15
4959632,15
4960260,15
4960880,11
4961508,11
4962132,14
4962764,15
4963392,14
4964012,15
4964640,17
4965264,15
4965892,11
4966524,13
4967144,18
4967772,16
4968396,14
4969020,13
4969648,11
4970272,13
4970900,11
4971532,10
4972152,15
4972784,15
4973408,11
4974036,14
4974668,14
4975288,16
4975920,16
4976544,15
4977168,15
4977796,13
4978416,15
4979044,16
4979672,17
4980296,16
4980924,14
4981544,11
4982176,11
4982804,11
4983424,17
4984056,17
4984680,15
4985308,15
4985940,11
4986560,11
4987188,12
4987816,13
4988440,15
4989072,21
4989688,29
4990320,20
4990944,14
4991568,15
4992200,15
4992816,18
4993444,16
4994076,18
4994696,20
4995324,21
4995952,24
4996580,25
4997212,22
4997832,19
4998460,11
4999084,15
4999708,16
5000340,14
5000960,17
5001588,17
5002216,18
5002840,13
5003468,11
5004088,11
5004716,16
5005348,20
5005968,21
5006600,19
5007224,20
5007852,21
5008484,16
5009104,15
5009732,15
5010360,15
5010984,17
5011616,17
5012232,21
5012864,20
5013488,17
5014112,20
5014744,16
5015368,17
5016000,16
5016628,14
5017248,14
5017880,14
5018504,15
5019132,11
5019764,11
5020384,11
5021012,13
5021640,13
5022264,13
5022892,14
5023512,19
5024144,15
5024772,15
5025392,15
5026024,16
5026648,17
5027276,14
5027908,10
5028528,11
5029156,15
5029784,24
5030408,30
5031036,33
5031656,31
5032288,33
5032912,27
5033536,21
5034168,14
5034784,18
5035416,19
5036048,14
5036672,11
5037304,12
5037928,11
5038560,11
5039188,13
5039808,17
5040440,23
5041064,30
5041688,22
5042316,16
5042936,15
5043568,15
5044192,20
5044816,18
5045444,20
5046064,27
5046696,31
5047324,29
5047944,24
5048576,18
5049200,13
5049832,15
5050460,14
5051080,15
5051712,15
5052336,15
5052960,13
5053592,13
5054208,11
5054840,10
5055464,11
5056088,19
5056720,22
5057336,24
5057968,19
5058600,15
5059216,15
5059844,15
5060472,16
5061100,16
5061732,16
5062352,19
5062984,17
5063608,11
5064232,11
5064864,10
5065480,11
5066112,12
5066740,13
5067364,14
5067996,15
5068624,17
5069256,19
5069884,23
5070504,22
5071136,19
5071760,14
5072392,13
5073024,19
5073640,23
5074272,20
5074896,16
5075520,15
5076152,16
5076768,14
5077400,12
5078032,13
5078656,16
5079288,16
5079912,14
5080544,14
5081176,21
5081796,20
5082424,11
5083048,14
5083676,15
5084304,16
5084928,17
5085560,15
5086184,15
5086808,12
5087440,11
5088056,10
5088688,13
5089316,14
5089936,17
5090564,27
5091192,24
5091824,15
5092456,14
5093076,16
5093708,19
5094332,19
5094960,15
5095588,16
5096208,20
5096840,14
5097464,12
5098088,11
5098720,13
5099344,15
5099976,20
5100608,21
5101228,16
5101856,16
5102484,16
5103112,22
5103744,22
5104364,13
5104996,12
5105620,12
5106244,11
5106876,14
5107500,18
5108128,17
5108760,16
5109384,17
5110016,14
5110644,17
5111276,21
5111908,20
5112532,16
5113164,14
5113788,10
5114416,21
5115048,21
5115668,13
5116300,28
5116924,30
5117552,24
5118188,25
5118812,27
5119444,16
5120080,12
5120692,16
5121320,24
5121944,27
5122564,19
5123192,11
5123816,19
5124444,17
5125068,13
5125692,14
5126320,19
5126936,21
5127568,25
5128196,30
5128816,28
5129444,25
5130068,17
5130696,11
5131324,21
5131944,29
5132572,29
5133196,16
5133828,15
5134456,20
5135072,15
5135700,19
5136324,31
5136948,27
5137580,16
5138200,11
5138828,13
5139452,14
5140080,12
5140708,12
5141332,15
5141964,15
5142592,15
5143212,16
5143840,14
5144464,11
5145092,10
5145724,16
5146344,22
5146972,19
5147596,14
5148220,12
5148848,12
5149472,11
5150100,13
5150732,16
5151352,17
5151984,17
5152608,18
5153236,19
5153868,13
5154488,12
5155116,13
5155744,14
5156368,12
5156996,14
5157616,18
5158244,16
5158872,15
5159496,15
5160124,14
5160744,12
5161372,13
5162004,18
5162624,17
5163252,20
5163876,19
5164508,16
5165136,11
5165756,13
5166384,16
5167008,15
5167632,15
5168264,16
5168880,18
5169508,17
5170132,16
5170756,14
5171388,12
5172008,11
5172636,18
5173264,18
5173888,23
5174516,25
5175140,17
5175772,15
5176404,14
5177024,15
5177652,15
5178276,20
5178900,17
5179532,16
5180152,15
5180784,12
5181408,11
5182032,11
5182664,11
5183280,18
5183908,16
5184540,14
5185160,16
5185788,13
5186412,11
5187044,10
5187672,11
5188292,10
5188920,11
5189544,18
5190168,21
5190800,17
5191416,14
5192048,15
5192672,15
5193296,15
5193924,14
5194544,16
5195176,17
5195804,18
5196424,18
5197056,17
5197680,17
5198308,11
5198940,12
5199560,14
5200192,14
5200812,14
5201436,18
5202068,18
5202688,13
5203316,13
5203940,13
5204564,17
5205192,15
5205816,13
5206444,12
5207076,12
5207696,12
5208324,14
5208948,15
5209580,15
5210212,14
5210832,16
5211464,13
5212088,10
5212712,16
5213340,26
5213960,25
5214592,21
5215216,20
5215840,19
5216472,17
5217096,15
5217724,15
5218356,14
5218976,13
5219608,11
5220232,11
5220860,11
5221492,12
5222112,11
5222744,15
5223368,15
5223988,18
5224620,22
5225240,21
5225868,20
5226492,14
5227120,23
5227752,32
5228376,32
5229004,26
5229636,18
5230256,11
5230884,12
5231512,13
5232136,17
5232768,16
5233384,16
5234012,14
5234640,15
5235264,14
5235892,10
5236512,13
5237140,15
5237772,10
5238392,17
5239024,22
5239648,27
5240280,24
5240908,19
5241528,22
5242160,25
5242784,24
5243408,16
5244036,14
5244656,23
5245284,21
5245908,14
5246532,15
5247160,24
5247784,23
5248416,24
5249040,24
5249660,21
5250292,15
5250912,13
5251544,16
5252172,17
5252792,15
5253420,11
5254044,12
5254668,11
5255296,11
5255912,13
5256540,12
5257164,17
5257788,23
5258416,17
5259040,15
5259668,18
5260296,18
5260920,17
5261548,19
5262172,18
5262800,16
5263432,13
5264048,13
5264676,12
5265300,11
5265924,13
5266556,14
5267176,15
5267804,15
5268428,15
5269052,11
5269684,14
5270304,22
5270932,19
5271564,11
5272184,17
5272812,22
5273436,17
5274068,15
5274696,16
5275320,17
5275948,15
5276572,15
5277196,17
5277828,18
5278448,21
5279076,20
5279700,19
5280328,17
5280956,11
5281576,11
5282204,13
5282832,12
5283456,13
5284084,14
5284708,15
5285336,15
5285964,10
5286584,11
5287212,12
5287832,14
5288456,12
5289088,10
5289704,15
5290332,18
5290956,26
5291580,21
5292208,16
5292832,15
5293460,15
5294088,12
5294712,15
5295340,24
5295964,25
5296596,19
5297224,12
5297848,11
5298476,17
5299100,12
5299728,17
5300356,27
5300976,29
5301604,17
5302228,13
5302852,13
5303484,12
5304104,11
5304732,11
5305364,10
5305984,13
5306612,12
5307236,14
5307868,14
5308496,16
5309120,16
5309748,15
5310376,19
5311000,12
5311632,17
5312248,27
5312880,26
5313500,20
5314124,21
5314756,14
5315376,13
5316004,11
5316636,15
5317256,17
5317884,15
5318508,15
5319140,11
5319772,10
5320392,16
5321020,20
5321644,17
5322268,11
5322900,12
5323520,17
5324148,22
5324776,22
5325400,17
5326028,14
5326648,15
5327276,13
5327904,13
5328524,13
5329152,11
5329776,11
5330404,10
5331032,10
5331652,11
5332280,11
5332904,16
5333528,22
5334156,22
5334776,17
5335404,17
5336028,13
5336652,12
5337280,12
5337904,13
5338532,11
5339164,10
5339784,13
5340412,15
5341036,19
5341668,22
5342296,20
5342916,15
5343544,15
5344168,16
5344792,23
5345420,19
5346040,19
5346668,15
5347292,15
5347916,19
5348544,15
5349164,13
5349792,14
5350420,14
5351040,15
5351668,16
5352292,13
5352924,15
5353552,18
5354172,12
5354800,10
5355424,11
5356052,14
5356680,23
5357296,26
5357928,23
5358552,15
5359176,16
5359808,19
5360424,22
5361056,22
5361684,19
5362304,19
5362932,17
5363560,15
5364188,15
5364820,12
5365440,11
5366068,11
5366692,15
5367316,16
5367948,14
5368568,15
5369196,13
5369820,11
5370444,12
5371076,13
5371696,10
5372324,15
5372956,23
5373576,23
5374208,17
5374832,15
5375460,14
5376092,14
5376708,14
5377340,12
5377960,16
5378584,21
5379212,20
5379832,17
5380460,13
5381084,13
5381708,11
5382336,12
5382960,18
5383588,17
5384220,14
5384840,17
5385468,15
5386092,11
5386724,11
5387352,11
5387972,12
5388600,15
5389224,13
5389848,16
5390476,26
5391096,29
5391724,21
5392348,15
5392972,15
5393604,15
5394224,11
5394852,11
5395484,11
5396104,25
5396732,32
5397356,34
5397988,25
5398620,18
5399240,21
5399868,20
5400496,18
5401120,16
5401748,14
5402368,13
5402996,11
5403620,11
5404244,11
5404876,10
5405496,11
5406124,13
5406756,20
5407376,24
5408004,17
5408628,14
5409256,15
5409884,14
5410504,17
5411132,12
5411756,10
5412380,17
5413012,26
5413632,28
5414260,20
5414884,11
5415508,12
5416140,12
5416760,19
5417388,16
5418020,14
5418640,17
5419268,17
5419892,11
5420524,15
5421156,15
5421776,11
5422404,11
5423028,17
5423656,19
5424284,15
5424904,15
5425532,20
5426160,22
5426784,17
5427412,12
5428036,14
5428668,17
5429296,22
5429912,16
5430544,13
5431168,14
5431796,15
5432428,11
5433048,16
5433676,14
5434300,15
5434924,15
5435556,14
5436176,14
5436804,15
5437428,11
5438056,12
5438684,17
5439312,21
5439940,17
5440572,13
5441192,13
5441820,17
5442444,17
5443072,16
5443704,15
5444320,11
5444948,12
5445572,20
5446196,24
5446828,19
5447448,15
5448076,12
5448700,11
5449328,13
5449956,16
5450580,15
5451208,15
5451840,14
5452456,15
5453084,11
5453708,10
5454340,11
5454968,12
5455584,14
5456216,13
5456840,12
5457460,14
5458092,14
5458712,15
5459340,15
5459964,16
5460592,15
5461220,12
5461844,14
5462476,15
5463104,15
5463724,14
5464352,11
5464976,14
5465604,16
5466236,14
5466856,17
5467488,23
5468112,26
5468736,21
5469364,14
5469984,11
5470616,11
5471244,10
5471864,11
5472496,14
5473120,19
5473748,23
5474380,22
5475000,16
5475632,15
5476256,15
5476880,15
5477508,11
5478128,13
5478760,17
5479384,20
5480008,19
5480636,16
5481256,18
5481884,12
5482516,10
5483136,16
5483768,15
5484392,15
5485020,15
5485652,14
5486272,17
5486900,21
5487528,18
5488152,11
5488780,17
5489400,28
5490028,29
5490652,26
5491276,19
5491908,14
5492528,17
5493156,18
5493788,15
5494408,15
5495036,19
5495660,20
5496292,13
5496924,10
5497544,11
5498176,14
5498800,17
5499424,17
5500056,15
5500672,14
5501304,15
5501928,15
5502552,14
5503184,11
5503804,11
5504436,11
5505064,11
5505680,11
5506312,13
5506936,15
5507564,19
5508196,16
5508816,16
5509444,15
5510068,14
5510696,11
5511324,10
5511944,16
5512576,26
5513200,25
5513824,19
5514452,14
5515080,11
5515708,11
5516340,18
5516960,23
5517588,20
5518216,17
5518844,14
5519476,16
5520096,13
5520724,11
5521348,12
5521972,14
5522604,12
5523224,15
5523852,16
5524476,16
5525104,15
5525736,15
5526360,16
5526992,15
5527624,11
5528240,13
5528872,18
5529496,20
5530120,19
5530752,19
5531368,18
5532000,17
5532624,16
5533248,23
5533876,21
5534496,16
5535124,15
5535756,10
5536376,11
5537004,12
5537628,12
5538260,13
5538888,12
5539508,21
5540136,27
5540764,28
5541388,16
5542016,14
5542640,16
5543268,16
5543892,15
5544520,17
5545148,19
5545768,22
5546396,20
5547028,20
5547648,21
5548280,19
5548904,15
5549532,15
5550164,16
5550784,15
5551416,15
5552040,15
5552664,10
5553292,11
5553912,11
5554544,13
5555168,15
5555792,16
5556424,19
5557044,17
5557672,15
5558304,14
5558928,15
5559560,15
5560184,15
5560816,12
5561444,10
5562064,23
5562696,34
5563320,24
5563944,11
5564576,14
5565196,17
5565828,13
5566452,14
5567076,17
5567708,28
5568332,25
5568964,16
5569596,10
5570216,13
5570848,11
5571472,11
5572100,14
5572732,12
5573352,12
5573980,12
5574608,15
5575232,15
5575860,14
5576480,15
5577108,14
5577740,10
5578360,11
5578988,15
5579616,22
5580244,25
5580876,22
5581496,17
5582124,12
5582748,11
5583372,14
5584004,14
5584624,15
5585252,15
5585880,12
5586504,11
5587132,10
5587752,10
5588384,11
5589012,10
5589632,14
5590264,19
5590888,21
5591520,20
5592148,16
5592768,15
5593400,16
5594024,13
5594648,16
5595280,14
5595896,18
5596528,15
5597152,11
5597776,11
5598408,12
5599024,11
5599656,16
5600288,16
5600904,18
5601532,15
5602156,15
5602788,13
5603416,12
5604040,11
5604668,11
5605292,11
5605916,15
5606548,16
5607168,18
5607796,13
5608420,14
5609044,16
5609676,14
5610296,15
5610924,12
5611556,14
5612176,20
5612804,20
5613428,14
5614060,16
5614688,16
5615312,14
5615944,12
5616568,14
5617192,15
5617824,16
5618440,19
5619068,17
5619696,12
5620320,11
5620948,11
5621572,15
5622204,14
5622836,10
5623456,13
5624088,16
5624712,18
5625340,20
5625972,16
5626592,14
5627224,17
5627848,22
5628472,25
5629104,24
5629724,24
5630352,22
5630984,18
5631608,13
5632240,12
5632864,16
5633492,15
5634120,14
5634744,15
5635372,15
5635996,11
5636620,13
5637248,12
5637872,13
5638500,13
5639124,14
5639748,16
5640376,18
5641000,24
5641628,19
5642256,15
5642880,16
5643508,17
5644132,11
5644764,12
5645392,23
5646016,32
5646644,31
5647268,34
5647896,29
5648524,17
5649144,14
5649772,16
5650396,16
5651024,15
5651652,14
5652272,13
5652904,11
5653532,11
5654152,12
5654780,11
5655408,11
5656036,14
5656664,16
5657288,19
5657916,17
5658540,15
5659164,14
5659796,16
5660416,20
5661044,13
5661668,13
5662292,21
5662924,18
5663544,16
5664172,20
5664804,16
5665424,15
5666052,15
5666676,16
5667308,14
5667936,14
5668560,15
5669188,11
5669812,10
5670440,11
5671068,12
5671688,12
5672316,11
5672944,15
5673568,15
5674200,15
5674824,16
5675452,15
5676084,16
5676704,18
5677336,13
5677960,21
5678592,17
5679220,11
5679840,11
5680472,11
5681096,12
5681720,15
5682348,16
5682968,18
5683600,15
5684220,16
5684848,18
5685476,20
5686100,13
5686732,11
5687360,11
5687984,16
5688616,11
5689240,12
5689864,13
5690492,11
5691112,13
5691744,15
5692368,15
5692992,15
5693624,14
5694240,14
5694868,21
5695500,24
5696120,25
5696748,19
5697372,13
5698004,11
5698632,13
5699252,11
5699880,13
5700504,15
5701128,16
5701756,15
5702376,12
5703008,11
5703632,11
5704256,12
5704884,12
5705504,12
5706136,14
5706764,17
5707384,21
5708016,19
5708640,16
5709272,15
5709900,15
5710520,17
5711152,25
5711776,31
5712400,23
5713032,12
5713652,10
5714280,11
5714908,13
5715532,13
5716160,18
5716784,19
5717416,15
5718048,18
5718664,18
5719296,15
5719920,12
5720552,10
5721184,10
5721800,14
5722432,14
5723056,19
5723680,19
5724312,16
5724928,14
5725560,15
5726184,15
5726808,15
5727440,11
5728060,13
5728688,19
5729320,20
5729936,24
5730568,21
5731192,16
5731824,15
5732456,12
5733076,15
5733708,14
5734336,15
5734960,14
5735588,14
5736208,16
5736836,11
5737460,11
5738084,12
5738716,12
5739340,15
5739968,11
5740600,12
5741216,17
5741848,15
5742472,18
5743100,15
5743732,14
5744352,13
5744980,17
5745604,21
5746228,23
5746860,16
5747480,11
5748108,11
5748732,10
5749360,11
5749992,15
5750616,20
5751244,19
5751876,14
5752496,12
5753124,12
5753752,14
5754376,15
5755008,15
5755624,11
5756256,11
5756880,17
5757504,22
5758136,17
5758752,15
5759384,15
5760016,14
5760632,16
5761260,23
5761884,21
5762512,23
5763140,18
5763760,13
5764388,12
5765012,13
5765640,13
5766268,16
5766888,18
5767516,17
5768140,15
5768764,17
5769392,12
5770016,11
5770644,11
5771276,14
5771896,20
5772524,14
5773152,13
5773780,16
5774412,14
5775032,15
5775664,17
5776288,19
5776908,17
5777540,11
5778160,11
5778788,11
5779412,22
5780036,21
5780668,18
5781288,24
5781916,19
5782548,14
5783168,20
5783796,19
5784424,17
5785052,15
5785684,10
5786304,11
5786932,11
5787556,15
5788180,27
5788808,33
5789424,30
5790056,16
5790680,13
5791304,15
5791936,19
5792552,20
5793184,16
5793812,14
5794432,15
5795060,19
5795688,27
5796316,24
5796948,14
5797568,12
5798196,11
5798824,12
5799448,15
5800076,14
5800696,16
5801324,16
5801948,15
5802572,11
5803204,10
5803824,11
5804456,12
5805084,15
5805704,22
5806336,31
5806960,28
5807588,19
5808220,14
5808840,15
5809468,14
5810092,15
5810720,23
5811348,30
5811968,26
5812596,24
5813224,24
5813848,19
5814476,12
5815096,11
5815728,12
5816356,14
5816976,16
5817604,14
5818228,15
5818860,14
5819488,11
5820112,11
5820744,12
5821368,11
5821992,12
5822624,11
5823240,15
5823872,20
5824496,19
5825120,15
5825748,15
5826372,15
5827004,15
5827636,14
5828256,19
5828884,21
5829508,24
5830140,25
5830772,22
5831392,23
5832024,16
5832648,11
5833272,14
5833904,14
5834520,15
5835152,15
5835780,13
5836400,17
5837032,14
5837656,13
5838284,11
5838916,10
5839536,14
5840168,21
5840788,25
5841416,18
5842044,15
5842664,25
5843292,23
5843916,17
5844540,18
5845172,14
5845792,12
5846424,10
5847052,10
5847672,13
5848304,12
5848928,15
5849560,25
5850188,30
5850808,26
5851440,16
5852064,15
5852688,12
5853320,14
5853936,14
5854568,12
5855192,16
5855816,12
5856448,15
5857068,16
5857700,19
5858328,17
5858948,14
5859576,14
5860204,15
5860832,14
5861460,14
5862080,18
5862712,19
5863336,19
5863960,24
5864588,21
5865208,12
5865836,12
5866464,15
5867088,19
5867716,23
5868336,17
5868968,14
5869596,20
5870216,17
5870848,13
5871472,12
5872104,11
5872732,15
5873352,17
5873984,20
5874608,19
5875232,15
5875860,15
5876480,18
5877112,16
5877736,12
5878364,16
5878996,22
5879620,25
5880252,26
5880884,22
5881504,18
5882136,16
5882760,14
5883392,15
5884024,15
5884640,18
5885272,17
5885896,12
5886520,11
5887152,11
5887772,14
5888404,13
5889036,14
5889656,25
5890284,27
5890908,25
5891540,17
5892172,14
5892792,16
5893424,16
5894048,17
5894672,19
5895304,23
5895920,26
5896552,19
5897176,17
5897800,18
5898432,15
5899048,11
5899676,14
5900308,14
5900928,15
5901556,15
5902180,15
5902812,10
5903440,10
5904064,13
5904692,15
5905316,21
5905940,20
5906572,14
5907192,18
5907824,20
5908448,15
5909072,17
5909704,15
5910320,18
5910952,25
5911580,26
5912200,30
5912832,31
5913456,17
5914088,11
5914716,12
5915336,21
5915968,20
5916592,17
5917216,15
5917848,14
5918464,14
5919096,11
5919720,10
5920344,11
5920972,10
5921592,12
5922220,12
5922852,16
5923472,15
5924100,16
5924724,17
5925356,15
5925988,14
5926608,18
5927236,15
5927860,16
5928488,19
5929116,16
5929736,15
5930364,12
5930992,11
5931616,11
5932244,10
5932872,15
5933500,18
5934132,14
5934752,15
5935384,16
5936008,15
5936636,18
5937268,19
5937888,16
5938520,14
5939144,15
5939768,16
5940400,11
5941016,15
5941644,20
5942268,16
5942896,15
5943524,15
5944148,13
5944780,19
5945412,20
5946032,25
5946660,27
5947288,21
5947912,13
5948540,14
5949160,13
5949792,17
5950416,20
5951040,17
5951668,16
5952288,17
5952920,14
5953548,11
5954168,11
5954796,11
5955424,11
5956052,12
5956684,12
5957304,23
5957932,23
5958560,17
5959184,17
5959812,15
5960432,19
5961060,21
5961684,25
5962308,23
5962940,22
5963560,21
5964192,20
5964820,11
5965440,11
5966068,11
5966692,17
5967324,16
5967956,14
5968576,14
5969208,12
5969832,12
5970456,13
5971084,12
5971704,10
5972336,12
5972960,12
5973584,13
5974216,15
5974836,15
5975464,17
5976096,14
5976716,15
5977348,12
5977972,13
5978604,15
5979236,20
5979856,21
5980488,19
5981112,17
5981736,12
5982368,11
5982984,14
5983616,15
5984240,17
5984864,16
5985492,15
5986120,12
5986748,10
5987380,10
5988000,11
5988628,11
5989256,15
5989884,17
5990516,16
5991136,21
5991768,21
5992392,20
5993016,15
5993644,14
5994264,13
5994892,24
5995524,27
5996144,24
5996776,19
5997400,20
5998032,17
5998664,15
5999280,15
5999912,18
6000540,16
6001164,14
6001796,14
6002416,11
6003044,11
6003672,13
6004296,16
6004924,19
6005544,18
6006176,19
6006804,15
6007424,15
6008056,15
6008680,17
6009308,17
6009940,16
6010560,16
6011192,17
6011816,24
6012440,27
6013072,19
6013688,13
6014320,13
6014948,11
6015572,11
6016204,12
6016824,15
6017452,16
6018084,14
6018704,19
6019336,16
6019960,16
6020588,11
6021220,10
6021840,12
6022468,11
6023092,11
6023716,12
6024348,12
6024968,15
6025596,15
6026224,17
6026848,17
6027480,11
6028104,15
6028732,19
6029364,23
6029984,18
6030616,19
6031240,15
6031872,12
6032504,11
6033120,16
6033752,16
6034376,15
6035000,18
6035632,14
6036252,11
6036880,11
6037512,11
6038132,11
6038764,13
6039388,19
6040020,22
6040652,22
6041272,19
6041904,15
6042528,16
6043152,18
6043784,15
6044400,12
6045032,20
6045656,25
6046280,22
6046912,17
6047528,16
6048160,12
6048788,11
6049408,15
6050036,21
6050664,17
6051292,17
6051924,15
6052544,15
6053176,12
6053800,11
6054424,13
6055052,18
6055672,21
6056304,22
6056928,21
6057552,21
6058184,16
6058804,15
6059436,15
6060068,15
6060688,17
6061320,21
6061944,16
6062576,16
6063204,19
6063824,19
6064456,21
6065080,14
6065704,12
6066336,16
6066952,17
6067584,14
6068208,15
6068836,14
6069464,11
6070088,11
6070720,11
6071348,10
6071968,15
6072600,22
6073228,24
6073856,18
6074488,18
6075108,15
6075740,15
6076364,14
6076988,15
6077620,11
6078240,16
6078872,23
6079504,28
6080124,22
6080752,12
6081376,11
6082008,12
6082636,16
6083256,18
6083884,15
6084508,15
6085132,17
6085764,11
6086384,11
6087016,13
6087640,13
6088264,11
6088892,15
6089512,24
6090144,20
6090776,18
6091392,16
6092024,15
6092648,15
6093280,18
6093908,22
6094528,29
6095160,25
6095784,17
6096408,11
6097036,12
6097656,15
6098288,13
6098912,11
6099536,13
6100168,16
6100784,16
6101416,19
6102048,19
6102668,11
6103296,14
6103924,18
6104552,17
6105184,21
6105804,17
6106436,12
6107060,12
6107684,11
6108316,14
6108936,17
6109568,19
6110192,16
6110816,13
6111448,19
6112072,23
6112704,24
6113332,26
6113952,25
6114584,19
6115208,12
6115836,11
6116468,14
6117088,14
6117720,14
6118348,15
6118972,13
6119604,10
6120224,10
6120856,10
6121488,10
6122108,11
6122736,14
6123364,15
6123996,24
6124628,22
6125248,15
6125880,15
6126504,15
6127128,14
6127760,14
6128380,25
6129012,29
6129636,25
6130260,21
6130892,14
6131512,11
6132144,11
6132776,13
6133400,14
6134036,15
6134660,15
6135292,21
6135924,14
6136544,13
6137180,12
6137804,15
6138432,11
6139064,14
6139684,23
6140312,23
6140948,22
6141568,15
6142204,14
6142828,16
6143460,15
6144096,17
6144712,23
6145340,23
6145964,23
6146588,19
6147216,19
6147832,18
6148460,12
6149084,11
6149708,14
6150340,14
6150960,15
6151588,16
6152220,14
6152840,12
6153468,13
6154096,12
6154724,10
6155356,13
6155976,22
6156608,23
6157232,17
6157856,15
6158484,14
6159104,15
6159736,19
6160360,20
6160984,23
6161612,22
6162232,23
6162860,23
6163492,18
6164112,21
6164740,15
6165368,15
6165996,17
6166628,20
6167248,18
6167876,15
6168500,20
6169124,27
6169756,19
6170376,16
6171004,11
6171628,13
6172256,12
6172884,11
6173508,12
6174140,12
6174768,14
6175392,16
6176024,15
6176644,15
6177276,13
6177904,18
6178528,21
6179160,19
6179784,18
6180408,15
6181036,14
6181656,13
6182288,12
6182916,14
6183536,14
6184168,15
6184792,15
6185424,15
6186052,10
6186672,13
6187304,17
6187928,19
6188552,15
6189184,19
6189800,25
6190432,30
6191056,24
6191680,15
6192312,26
6192928,23
6193560,17
6194192,14
6194812,19
6195444,18
6196068,17
6196696,21
6197328,23
6197944,26
6198576,25
6199200,19
6199824,21
6200456,18
6201072,17
6201704,14
6202328,13
6202952,11
6203584,10
6204200,10
6204832,14
6205464,16
6206080,17
6206708,24
6207336,28
6207968,19
6208600,15
6209216,16
6209848,18
6210472,18
6211096,13
6211728,15
6212344,13
6212976,11
6213600,12
6214224,18
6214856,12
6215472,10
6216104,13
6216736,16
6217356,14
6217988,16
6218612,23
6219244,21
6219872,14
6220496,12
6221128,21
6221752,22
6222376,14
6223008,17
6223628,17
6224256,13
6224884,16
6225508,16
6226140,15
6226764,16
6227392,11
6228024,16
6228644,16
6229272,17
6229896,17
6230528,17
6231156,12
6231776,12
6232408,13
6233032,15
6233656,17
6234284,15
6234904,15
6235536,13
6236164,12
6236784,14
6237416,16
6238040,13
6238672,11
6239304,18
6239924,21
6240556,19
6241180,18
6241804,15
6242432,14
6243056,15
6243688,17
6244312,16
6244936,17
6245568,16
6246184,16
6246816,12
6247444,11
6248064,11
6248692,11
6249316,12
6249948,16
6250576,15
6251200,14
6251828,15
6252456,12
6253080,15
6253708,17
6254328,13
6254960,12
6255584,21
6256208,26
6256836,26
6257456,25
6258084,19
6258716,14
6259336,15
6259964,15
6260592,14
6261220,20
6261852,28
6262472,31
