tempo_arduino_micro_s,valor_ADC
500,10
1004,13
1504,17
2000,18
2508,17
3000,16
3508,16
4000,12
4508,10
5000,10
5500,11
6000,10
6500,12
7004,13
7500,17
8000,21
8500,26
9000,24
9500,20
10000,16
10516,14
11036,16
11564,15
12084,16
12612,14
13132,17
13660,20
14180,25
14708,24
15228,21
15756,16
16276,13
16796,12
17316,13
17836,15
18356,17
18876,15
19396,14
19916,14
20436,15
20956,12
21476,15
21996,12
22516,11
23036,10
23564,14
24084,14
24612,15
25132,12
25660,12
26180,16
26708,15
27228,16
27756,18
28276,15
28804,15
29324,12
29852,18
30372,27
30900,30
31420,30
31948,30
32472,23
32996,16
33516,14
34044,10
34564,15
35092,16
35612,14
36140,14
36660,16
37188,18
37708,13
38236,10
38760,11
39284,11
39804,11
40332,16
40852,20
41372,22
41892,22
42412,23
42932,19
43452,18
43972,19
44492,16
45012,17
45532,17
46052,20
46572,23
47092,18
47612,19
48140,18
48660,18
49188,21
49708,21
50236,15
50756,12
51284,15
51804,15
52332,14
52852,14
53380,15
53900,12
54428,12
54948,12
55476,13
55996,13
56524,14
57044,16
57572,12
58096,14
58620,14
59140,14
59668,15
60188,16
60716,16
61240,15
61764,15
62284,16
62812,21
63332,22
63860,25
64384,27
64908,24
65428,21
65948,15
66468,10
66988,11
67508,15
68028,17
68548,17
69068,15
69588,15
70108,15
70628,12
71148,10
71668,10
72192,10
72716,13
73236,20
73764,22
74284,25
74812,23
75332,25
75860,18
76380,14
76908,14
77428,16
77956,22
78476,17
79004,13
79528,15
80052,19
80572,26
81100,26
81620,16
82148,11
82668,12
83196,12
83716,13
84244,16
84764,26
85292,27
85812,23
86340,20
86860,15
87388,12
87908,14
88436,13
88956,13
89484,11
90004,12
90524,15
91044,19
91564,18
92084,20
92604,20
93124,14
93644,15
94164,16
94684,15
95208,15
95724,11
96248,16
96764,23
97292,21
97812,20
98340,17
98860,17
99388,20
99908,17
100436,13
101000,11
101584,14
102156,15
102736,15
103304,15
103880,13
104456,12
105024,13
105600,18
106168,15
106744,12
107312,14
107896,15
108464,15
109040,13
109624,17
110192,20
110768,21
111336,19
111920,16
112492,11
113072,11
113640,11
114216,16
114800,22
115368,23
115952,20
116520,15
117104,11
117676,11
118252,14
118832,16
119400,16
119984,16
120556,12
121136,12
121704,20
122288,19
122856,14
123436,11
124016,11
124584,11
125168,11
125736,11
126320,16
126888,16
127464,15
128048,19
128616,18
129192,17
129760,15
130336,15
130904,19
131488,22
132056,19
132632,15
133208,14
133776,15
134352,15
134924,14
135504,15
136076,15
136656,15
137232,12
137800,12
138384,12
138952,11
139536,11
140104,14
140688,15
141256,18
141832,18
142416,15
142984,15
143568,15
144136,16
144720,18
145288,18
145872,15
146448,19
147016,22
147600,20
148168,15
148752,12
149320,11
149904,12
150476,11
151052,16
151632,18
152204,18
152784,17
153356,15
153936,12
154504,16
155088,18
155664,16
156232,16
156816,16
157384,18
157968,24
158540,26
159120,13
159692,18
160268,19
160848,21
161416,16
161992,16
162560,17
163144,23
163716,26
164296,25
164872,22
165440,23
166016,21
166584,16
167168,13
167736,14
168312,16
168880,16
169456,15
170032,15
170600,11
171184,11
171752,11
172336,11
172904,11
173488,11
174056,12
174636,14
175216,18
175784,18
176368,20
176936,16
177520,16
178088,16
178664,15
179248,14
179816,19
180392,21
180960,17
181544,12
182112,10
182696,11
183264,11
183840,14
184424,19
184992,23
185568,21
186140,19
186720,16
187288,11
187864,12
188448,11
189016,12
189600,11
190168,11
190752,17
191320,22
191904,27
192476,27
193048,19
193632,16
194200,16
194784,15
195352,19
195936,27
196504,30
197080,26
197664,27
198232,21
198816,18
199384,16
199968,10
200540,14
201120,15
201688,15
202264,16
202848,16
203420,16
204000,16
204568,16
205152,14
205720,11
206288,10
206864,15
207432,17
208008,15
208576,19
209152,15
209720,17
210304,21
210872,22
211448,23
212032,21
212600,17
213184,15
213752,14
214336,14
214908,14
215488,10
216056,11
216632,12
217216,13
217784,19
218368,19
218936,20
219520,15
220088,14
220664,11
221248,13
221816,13
222400,12
222968,11
223552,11
224124,15
224704,15
225272,22
225852,22
226432,17
227000,15
227584,15
228152,15
228736,13
229308,16
229880,24
230464,29
231032,26
231616,14
232188,11
232768,11
233336,11
233920,17
234488,24
235064,19
235648,15
236216,15
236800,15
237368,11
237952,12
238524,11
239100,10
239680,14
240252,15
240832,18
241400,15
241984,13
242552,14
243136,14
243708,15
244280,16
244864,15
245432,15
246016,15
246592,14
247176,16
247744,17
248324,15
248904,12
249472,13
250056,10
250624,11
251208,13
251776,16
252360,15
252936,15
253504,16
254088,16
254656,14
255240,11
255812,11
256392,11
256968,15
257536,20
258112,22
258680,25
259264,21
259832,15
260408,16
260976,19
261560,18
262128,14
262704,19
263288,19
263856,15
264440,11
265008,14
265592,17
266164,14
266736,13
267320,12
267888,16
268472,16
269044,15
269624,15
270192,15
270776,11
271344,11
271924,14
272504,11
273072,11
273656,12
274224,19
274808,25
275376,24
275952,18
276536,15
277104,16
277688,18
278256,19
278840,16
279412,21
279992,27
280564,28
281136,26
281720,25
282288,19
282872,11
283444,11
284024,12
284592,15
285172,17
285752,15
286324,15
286904,15
287472,16
288056,13
288624,17
289200,15
289768,13
290344,12
290928,12
291496,14
292080,13
292648,18
293232,17
293804,15
294380,15
294960,15
295532,10
296112,14
296684,22
297264,20
297836,20
298416,23
298984,20
299564,16
300144,17
300716,15
301296,16
301876,15
302456,15
303036,15
303612,14
304192,11
304764,11
305344,11
305916,11
306496,11
307076,14
307656,19
308240,22
308808,20
309392,18
309964,15
310544,15
311116,15
311696,15
312268,11
312844,15
313424,21
313996,25
314576,24
315148,22
315728,16
316308,13
316884,12
317464,15
318036,19
318616,20
319188,23
319768,19
320348,12
320928,12
321496,14
322072,11
322656,11
323224,11
323808,11
324380,18
324960,23
325528,27
326108,22
326688,15
327260,16
327840,14
328408,16
328984,17
329552,19
330128,21
330696,19
331272,18
331856,14
332424,16
333008,17
333576,21
334152,21
334720,18
335304,15
335880,15
336448,15
337032,13
337600,11
338184,10
338752,14
339336,12
339904,11
340480,14
341064,15
341632,18
342216,19
342788,17
343368,15
343936,17
344520,18
345096,21
345668,19
346248,19
346816,21
347400,19
347972,16
348552,20
349124,19
349696,13
350280,11
350852,14
351432,15
352004,15
352584,15
353152,16
353736,11
354312,11
354884,13
355464,12
356036,12
356616,13
357188,18
357768,17
358340,19
358916,18
359496,16
360068,16
360648,16
361216,16
361800,16
362368,15
362952,17
363528,21
364096,18
364680,18
365252,23
365832,19
366404,12
366984,11
367556,15
368132,14
368712,15
369280,16
369864,16
370432,11
371016,10
371588,10
372168,10
372744,11
373316,11
373896,12
374464,18
375048,21
375616,16
376200,15
376772,16
377348,16
377928,18
378500,15
379080,14
379652,18
380232,23
380804,18
381384,13
381960,11
382532,11
383112,15
383684,14
384264,16
384840,22
385424,23
385992,20
386572,18
387152,11
387724,14
388304,13
388876,11
389456,11
390024,11
390608,11
391184,14
391756,19
392336,20
392904,17
393488,15
394060,15
394640,15
395212,15
395788,22
396368,22
396940,22
397520,18
398092,15
398672,12
399244,10
399824,9
400344,11
400912,18
401496,19
402068,18
402648,17
403216,16
403800,12
404372,15
404948,14
405528,13
406100,11
406680,13
407252,18
407832,21
408404,27
408984,20
409556,17
410132,16
410712,18
411280,23
411864,17
412432,17
413016,18
413584,16
414160,16
414744,17
415312,14
415896,15
416468,22
417048,22
417616,19
418200,16
418768,15
419344,15
419928,16
420496,14
421080,13
421648,15
422232,12
422804,13
423376,14
423960,19
424528,19
425112,19
425684,20
426264,15
426832,16
427416,17
427988,14
428564,25
429144,34
429716,32
430296,31
430868,22
431448,15
432016,13
432592,11
433176,11
433748,11
434328,17
434900,16
435480,16
436048,15
436632,15
437204,10
437776,11
438360,10
438932,11
439512,13
440084,17
440664,21
441232,23
441812,24
442392,22
442964,15
443544,15
444116,15
444696,15
445268,13
445848,20
446416,27
446992,27
447576,27
448148,23
448728,21
449296,16
449880,13
450452,13
451028,17
451608,15
452176,15
452760,16
453332,15
453912,12
454484,11
455064,18
455636,22
456212,18
456792,15
457364,18
457944,20
458516,19
459096,16
459668,15
460244,15
460824,18
461392,20
461968,20
462540,18
463120,18
463692,20
464272,19
464840,14
465416,11
466000,11
466568,12
467152,10
467724,15
468304,14
468876,15
469456,14
470032,15
470604,21
471184,17
471756,11
472336,11
472908,14
473488,12
474060,15
474636,16
475216,18
475788,18
476368,15
476948,15
477528,15
478100,15
478676,18
479256,20
479828,19
480408,21
480980,18
481560,13
482132,12
482712,12
483284,14
483856,16
484440,18
485012,15
485592,15
486164,15
486744,13
487312,11
487892,12
488472,11
489044,10
489624,15
490192,17
490776,23
491356,22
491936,24
492512,21
493088,15
493672,17
494244,22
494824,18
495396,14
495976,11
496548,14
497124,16
497704,19
498276,26
498856,29
499428,28
500008,23
500576,21
501160,17
501732,15
502308,15
502888,15
503460,11
504040,12
504612,17
505192,16
505764,11
506340,11
506920,11
507492,12
508072,18
508644,22
509224,17
509796,15
510376,15
510956,15
511532,15
512116,13
512684,15
513264,21
513832,27
514416,23
514984,19
515560,17
516144,14
516712,11
517296,15
517864,15
518448,15
519016,15
519600,14
520172,11
520744,11
521328,11
521900,12
522480,13
523048,11
523632,14
524204,18
524776,22
525360,22
525928,16
526512,15
527084,15
527664,15
528236,14
528816,13
529384,18
529964,22
530544,22
531116,15
531696,14
532276,14
532856,13
533424,15
534004,19
534584,19
535152,18
535736,16
536308,15
536888,16
537456,18
538040,16
538608,15
539184,18
539768,15
540340,11
540920,11
541488,11
542072,12
542644,15
543220,17
543800,16
544372,15
544952,16
545524,27
546104,30
546676,27
547256,25
547828,19
548404,15
548984,11
549556,11
550136,11
550716,14
551296,16
551876,15
552452,14
553032,14
553604,11
554184,11
554756,11
555336,11
555916,11
556496,12
557080,19
557652,28
558232,33
558804,34
559384,23
559956,14
560540,18
561116,19
561692,22
562272,24
562844,19
563424,18
564000,19
564584,22
565152,24
565732,19
566312,14
566884,12
567464,15
568036,15
568616,15
569188,16
569768,17
570340,12
570916,11
571496,10
572068,11
572648,11
573228,15
573808,21
574388,24
574964,24
575544,20
576116,15
576696,18
577264,15
577848,15
578416,16
579000,18
579572,25
580148,33
580728,32
581300,23
581880,17
582452,13
583032,14
583604,16
584180,21
584760,19
585332,17
585912,14
586484,15
587064,12
587636,14
588216,19
588788,18
589364,19
589944,16
590516,19
591096,23
591676,19
592256,17
592836,16
593412,18
593992,20
594564,19
595144,21
595716,18
596296,19
596868,16
597448,12
598024,11
598596,10
599176,11
599748,11
600328,12
600908,16
601488,17
602068,19
602644,17
603224,13
603796,11
604376,11
604956,12
605536,11
606116,16
606692,23
607272,26
607848,21
608424,14
608996,14
609576,15
610148,16
610728,16
611308,16
611884,17
612464,22
613036,22
613620,24
614196,17
614780,15
615352,16
615932,11
616512,11
617084,11
617664,15
618232,15
618816,14
619388,15
619968,12
620540,10
621116,12
621696,10
622268,12
622848,10
623420,11
624000,11
624576,13
625156,22
625736,24
626308,20
626888,15
627460,15
628040,18
628612,24
629192,26
629768,26
630340,26
630920,21
631496,15
632072,12
632652,10
633232,11
633804,14
634380,15
634960,15
635532,15
636112,17
636692,14
637272,11
637852,11
638428,11
639008,12
639584,15
640164,17
640732,21
641312,23
641880,16
642464,14
643032,16
643612,17
644192,17
644760,14
645344,14
645912,26
646496,30
647064,27
647640,21
648224,22
648796,21
649376,14
649948,12
650528,14
651100,14
651680,15
652260,15
652836,16
653416,11
653988,11
654568,14
655148,15
655728,11
656304,11
656880,18
657464,20
658032,24
658616,21
659184,16
659768,15
660336,16
660920,15
661488,13
662064,14
662648,15
663216,19
663800,16
664372,19
664952,24
665524,19
666100,14
666680,11
667248,14
667832,15
668404,15
668984,15
669552,15
670136,12
670708,11
671284,11
671864,10
672436,12
673016,13
673584,14
674168,16
674740,15
675316,12
675896,17
676464,15
677048,16
677616,16
678200,16
678772,18
679352,21
679924,23
680500,19
681080,14
681648,11
682232,11
682804,14
683384,17
683956,16
684532,15
685112,15
685684,24
686264,27
686832,18
687416,12
687988,11
688568,11
689148,11
689724,11
690304,17
690876,14
691456,13
692032,15
692616,15
693188,15
693764,15
694344,15
694916,14
695496,19
696068,19
696648,19
697216,14
697800,14
698376,21
698948,20
699528,18
700100,16
700680,17
701252,16
701832,15
702412,14
702988,18
703568,14
704140,11
704720,13
705288,14
705872,11
706444,13
707024,17
707600,23
708172,24
708752,19
709324,15
709904,15
710476,15
711056,15
711628,14
712204,22
712784,26
713356,27
713936,26
714516,18
715096,16
715676,11
716252,12
716832,12
717404,14
717984,15
718556,17
719136,15
719708,13
720288,11
720856,12
721432,13
722016,10
722584,12
723168,15
723740,21
724320,20
724892,21
725468,16
726048,16
726620,21
727200,17
727768,16
728352,13
728924,14
729504,16
730076,18
730652,24
731232,25
731804,23
732384,15
732964,11
733544,11
734116,15
734692,14
735272,15
735844,15
736424,14
736996,17
737576,11
738156,11
738736,9
739256,10
739828,14
740408,23
740980,29
741560,26
742132,15
742712,14
743292,16
743872,16
744444,17
745020,24
745600,28
746168,28
746752,29
747324,27
747904,24
748484,19
749060,14
749640,12
750212,14
750792,15
751364,15
751944,17
752524,15
753104,13
753688,10
754260,12
754840,10
755412,12
755992,17
756564,20
757144,17
757716,15
758292,17
758872,17
759444,17
760024,18
760604,15
761184,16
761764,16
762340,25
762920,29
763492,29
764072,22
764644,18
765224,19
765804,13
766384,13
766964,15
767540,15
768124,15
768692,15
769272,15
769844,11
770424,11
770996,11
771572,10
772152,11
772724,11
773304,14
773876,18
774456,20
775028,18
775608,15
776188,19
776764,22
777344,17
777916,16
778496,16
779076,18
779656,21
780236,22
780812,14
781392,13
781964,13
782544,12
783116,14
783696,14
784276,16
784852,17
785432,17
786004,15
786584,11
787156,13
787740,15
788316,18
788896,18
789476,11
790052,15
790632,21
791208,25
791784,26
792356,17
792936,15
793516,15
794092,18
794672,15
795244,14
795824,18
796396,20
796976,19
797556,18
798136,18
798716,18
799296,17
799872,18
800448,21
801024,15
801592,15
802176,15
802748,16
803324,13
803904,11
804476,10
805056,11
805628,14
806208,16
806780,16
807360,21
807932,23
808508,19
809088,15
809656,16
810240,16
810808,15
811392,14
811972,18
812548,19
813128,18
813700,14
814280,16
814852,16
815432,11
816012,11
816592,13
817168,22
817740,21
818320,19
818892,16
819472,14
820048,11
820632,10
821200,11
821776,11
822352,12
822924,13
823504,18
824076,20
824656,20
825224,22
825808,16
826384,15
826952,15
827536,19
828104,18
828688,21
829260,23
829840,24
830408,28
830984,24
831568,15
832140,11
832720,11
833288,11
833872,14
834440,17
835024,16
835600,16
836168,15
836752,12
837324,11
837904,11
838476,11
839056,12
839628,12
840204,13
840784,11
841352,12
841936,15
842504,15
843088,15
843660,15
844240,15
844816,13
845384,16
845960,22
846528,25
847112,28
847684,26
848264,22
848832,12
849408,10
849992,11
850560,15
851144,15
851716,15
852296,16
852868,16
853448,12
854024,10
854596,11
855176,12
855748,14
856328,17
856896,27
857480,25
858052,22
858628,17
859208,15
859776,16
860360,18
860932,18
861512,18
862084,23
862664,23
863240,24
863812,18
864392,17
864964,12
865544,12
866116,13
866696,14
867268,15
867844,15
868424,17
868996,18
869576,16
870148,15
870728,14
871304,11
871888,15
872464,14
873036,15
873616,11
874184,13
874768,16
875340,15
875920,15
876500,15
877076,15
877656,16
878228,16
878808,12
879380,13
879960,17
880532,14
881108,13
881688,13
882256,11
882840,11
883412,15
883992,15
884564,16
885144,16
885716,15
886292,11
886872,13
887444,11
888024,12
888596,13
889176,11
889748,11
890324,16
890904,20
891476,23
892056,18
892628,15
893208,16
893788,16
894368,17
894940,18
895516,21
896100,23
896668,25
897248,24
897820,23
898400,17
898972,11
899548,11
900128,14
900700,14
901280,15
901852,15
902432,15
903000,11
903584,9
904104,10
904672,11
905256,11
905828,15
906408,19
906976,22
907560,17
908132,18
908712,16
909292,15
909868,15
910448,15
911020,15
911600,16
912180,18
912760,17
913332,19
913908,22
914488,23
915060,19
915640,14
916212,15
916792,15
917372,15
917952,15
918536,15
919108,15
919688,11
920260,10
920840,11
921420,10
922004,11
922576,11
923152,14
923736,14
924308,17
924888,17
925456,16
926040,15
926612,15
927188,16
927768,16
928340,15
928920,19
929492,21
930072,17
930644,17
931224,17
931796,15
932372,11
932952,10
933524,14
934104,14
934684,15
935264,15
935836,17
936412,14
936992,12
937564,11
938144,12
938716,13
939296,16
939876,23
940456,26
941036,24
941612,20
942192,15
942764,17
943344,16
943916,17
944500,17
945076,22
945652,27
946232,26
946804,25
947384,24
947956,19
948536,14
949116,10
949696,14
950280,15
950856,15
951432,15
952008,15
952584,15
953156,11
953736,11
954316,10
954892,11
955472,10
956044,13
956624,23
957204,25
957784,24
958364,20
958940,15
959520,15
960096,17
960672,18
961244,14
961824,13
962396,19
962976,24
963556,21
964132,25
964712,25
965284,17
965864,12
966436,13
967016,15
967588,14
968164,15
968744,15
969316,14
969896,11
970468,11
971048,11
971620,15
972200,19
972780,19
973356,19
973936,18
974508,22
975088,21
975660,17
976240,16
976820,19
977396,21
977976,26
978548,30
979128,32
979704,31
980280,28
980860,21
981440,13
982012,10
982588,10
983168,11
983740,15
984320,16
984888,16
985472,15
986044,14
986620,13
987200,11
987768,10
988352,11
988924,11
989504,11
990076,17
990656,22
991240,27
991812,25
992392,16
992964,16
993544,15
994116,19
994696,19
995268,20
995844,18
996424,21
996996,19
997576,16
998148,15
998728,10
999308,13
999888,15
1000464,15
1001080,18
1001708,21
1002328,22
1002960,15
1003588,11
1004208,11
1004836,13
1005456,15
1006084,17
1006712,12
1007336,13
1007964,11
1008588,15
1009212,15
1009844,14
1010464,16
1011092,13
1011724,12
1012344,13
1012972,13
1013596,12
1014228,13
1014856,14
1015472,11
1016104,11
1016728,16
1017352,19
1017980,16
1018600,17
1019228,15
1019852,11
1020476,12
1021108,11
1021728,10
1022356,12
1022988,16
1023608,22
1024240,25
1024860,22
1025488,15
1026112,15
1026732,15
1027360,18
1027984,18
1028612,11
1029240,11
1029856,16
1030484,18
1031104,18
1031728,15
1032356,13
1032972,13
1033604,15
1034224,17
1034848,17
1035476,17
1036100,13
1036728,11
1037356,10
1037976,12
1038604,14
1039224,20
1039856,29
1040484,24
1041100,23
1041728,25
1042352,19
1042976,16
1043604,22
1044220,25
1044852,21
1045472,25
1046092,22
1046724,20
1047340,19
1047972,19
1048600,15
1049216,12
1049844,12
1050468,15
1051096,15
1051724,14
1052344,15
1052972,11
1053592,11
1054216,11
1054844,10
1055464,11
1056092,14
1056712,16
1057332,13
1057964,11
1058584,14
1059212,15
1059832,15
1060456,15
1061084,15
1061708,16
1062336,17
1062968,17
1063584,18
1064212,18
1064836,14
1065464,12
1066096,12
1066712,13
1067340,16
1067964,18
1068584,15
1069216,14
1069832,12
1070460,11
1071084,11
1071708,11
1072336,11
1072952,11
1073580,13
1074212,18
1074832,16
1075460,15
1076084,16
1076712,15
1077340,15
1077960,15
1078588,17
1079212,18
1079832,21
1080464,20
1081080,16
1081708,11
1082332,11
1082952,11
1083584,17
1084200,17
1084828,19
1085456,15
1086072,13
1086704,12
1087328,11
1087956,11
1088588,12
1089204,17
1089836,18
1090456,21
1091080,24
1091708,18
1092328,15
1092956,17
1093580,16
1094204,17
1094832,19
1095448,23
1096080,32
1096700,32
1097328,25
1097956,19
1098580,11
1099208,11
1099836,14
1100456,16
1101084,15
1101708,15
1102336,15
1102968,10
1103584,12
1104212,11
1104836,12
1105460,11
1106088,14
1106708,28
1107340,31
1107964,27
1108588,17
1109216,16
1109840,16
1110468,19
1111096,31
1111716,31
1112344,22
1112968,19
1113596,16
1114228,13
1114848,11
1115476,11
1116100,15
1116728,24
1117356,22
1117976,19
1118604,17
1119228,12
1119856,11
1120488,10
1121108,11
1121740,11
1122368,11
1122984,14
1123616,22
1124240,26
1124868,21
1125496,16
1126120,15
1126748,15
1127372,15
1127996,19
1128624,26
1129240,22
1129868,17
1130492,14
1131120,13
1131748,11
1132372,11
1133000,12
1133632,16
1134248,17
1134876,19
1135500,20
1136132,15
1136760,17
1137376,11
1138004,11
1138628,13
1139252,14
1139880,15
1140496,18
1141128,19
1141748,16
1142376,15
1143004,15
1143628,16
1144260,19
1144888,27
1145512,26
1146144,24
1146768,19
1147396,15
1148028,16
1148648,11
1149276,11
1149900,15
1150524,15
1151152,14
1151776,15
1152408,15
1153036,10
1153656,13
1154284,13
1154908,14
1155536,15
1156164,18
1156784,22
1157412,22
1158036,16
1158660,16
1159292,14
1159912,17
1160540,25
1161164,22
1161788,17
1162416,21
1163032,26
1163660,19
1164284,12
1164912,14
1165540,14
1166164,17
1166792,19
1167420,14
1168040,16
1168668,15
1169288,11
1169920,12
1170548,11
1171168,15
1171796,16
1172420,13
1173044,15
1173676,16
1174296,13
1174924,15
1175548,14
1176176,16
1176804,17
1177428,15
1178060,18
1178688,23
1179308,23
1179936,20
1180560,14
1181188,15
1181820,12
1182440,13
1183068,15
1183692,15
1184316,15
1184948,16
1185568,20
1186196,16
1186828,10
1187448,21
1188076,19
1188700,11
1189332,15
1189960,17
1190576,17
1191208,16
1191828,15
1192456,15
1193084,16
1193704,16
1194332,18
1194956,22
1195580,20
1196212,14
1196832,12
1197460,10
1198092,12
1198712,12
1199340,12
1199968,25
1200596,33
1201228,28
1201848,25
1202476,17
1203100,11
1203724,13
1204356,26
1204976,28
1205604,19
1206228,20
1206852,16
1207480,12
1208104,17
1208732,16
1209364,22
1209984,22
1210612,18
1211236,15
1211868,19
1212496,21
1213112,21
1213744,17
1214368,16
1214992,13
1215620,13
1216240,13
1216868,15
1217492,15
1218116,14
1218744,15
1219368,13
1219996,14
1220628,12
1221248,12
1221876,13
1222500,13
1223132,13
1223760,14
1224384,17
1225012,15
1225636,15
1226260,15
1226892,16
1227512,13
1228144,18
1228768,22
1229392,20
1230020,16
1230640,10
1231268,11
1231896,11
1232520,16
1233148,17
1233772,17
1234400,17
1235028,16
1235648,14
1236276,11
1236900,12
1237524,11
1238152,10
1238776,12
1239404,12
1240028,15
1240652,22
1241280,19
1241896,16
1242528,16
1243156,16
1243776,20
1244404,20
1245028,20
1245660,19
1246288,17
1246904,10
1247536,11
1248160,11
1248780,11
1249412,14
1250032,21
1250660,21
1251284,17
1251908,14
1252536,12
1253152,11
1253784,11
1254412,12
1255032,13
1255660,14
1256284,17
1256912,22
1257544,23
1258160,15
1258792,21
1259416,23
1260040,21
1260668,20
1261288,20
1261916,18
1262540,19
1263164,15
1263796,14
1264416,15
1265044,15
1265676,16
1266296,18
1266924,16
1267548,15
1268180,15
1268808,14
1269432,12
1270064,11
1270688,11
1271308,11
1271940,12
1272560,17
1273188,21
1273812,25
1274436,16
1275068,14
1275688,15
1276316,15
1276948,16
1277568,16
1278200,21
1278824,24
1279452,19
1280084,18
1280700,17
1281328,12
1281948,11
1282572,11
1283200,15
1283812,15
1284444,14
1285064,15
1285688,13
1286316,10
1286936,11
1287564,13
1288188,11
1288808,11
1289436,17
1290060,16
1290688,15
1291320,16
1291936,15
1292564,15
1293188,16
1293816,17
1294444,22
1295064,17
1295692,14
1296316,21
1296936,16
1297568,13
1298184,13
1298812,11
1299436,11
1300060,16
1300688,25
1301304,30
1301936,22
1302564,11
1303184,11
1303812,10
1304436,13
1305068,15
1305696,16
1306312,19
1306940,17
1307564,16
1308188,15
1308816,15
1309432,17
1310064,17
1310688,13
1311312,11
1311940,10
1312560,14
1313188,20
1313816,24
1314432,27
1315060,17
1315684,14
1316312,17
1316940,16
1317560,15
1318188,15
1318812,15
1319432,11
1320060,14
1320676,14
1321308,11
1321928,12
1322548,18
1323180,15
1323800,12
1324428,13
1325052,15
1325672,15
1326304,15
1326924,17
1327556,15
1328184,18
1328800,18
1329428,22
1330052,21
1330680,13
1331308,10
1331924,13
1332552,11
1333176,15
1333796,15
1334424,15
1335044,15
1335672,12
1336296,10
1336920,11
1337548,10
1338168,11
1338796,11
1339424,14
1340048,25
1340676,26
1341300,18
1341928,17
1342556,16
1343176,17
1343804,17
1344428,21
1345052,27
1345680,26
1346296,17
1346924,11
1347548,12
1348168,10
1348800,13
1349416,12
1350044,15
1350672,15
1351296,17
1351924,16
1352548,11
1353176,11
1353804,10
1354424,11
1355052,12
1355672,14
1356296,18
1356924,16
1357540,12
1358172,15
1358792,15
1359416,15
1360044,14
1360660,14
1361288,18
1361912,20
1362536,19
1363164,17
1363788,17
1364416,14
1365044,10
1365664,11
1366292,16
1366916,15
1367544,15
1368172,14
1368792,15
1369420,11
1370044,11
1370668,11
1371296,11
1371912,19
1372544,24
1373168,24
1373788,15
1374420,13
1375040,21
1375672,17
1376300,16
1376920,15
1377548,15
1378172,21
1378800,20
1379428,17
1380048,17
1380676,21
1381300,17
1381924,13
1382552,13
1383176,15
1383804,15
1384428,16
1385048,15
1385680,11
1386296,11
1386924,11
1387552,10
1388176,11
1388804,11
1389428,18
1390056,19
1390684,15
1391304,15
1391932,15
1392560,15
1393184,15
1393812,14
1394432,16
1395060,20
1395684,29
1396308,27
1396936,24
1397552,18
1398184,11
1398812,10
1399432,14
1400060,15
1400684,15
1401312,14
1401944,16
1402560,11
1403188,11
1403812,11
1404436,14
1405064,16
1405688,17
1406316,20
1406940,23
1407564,25
1408196,17
1408812,15
1409440,15
1410072,15
1410688,15
1411316,25
1411940,22
1412568,21
1413196,22
1413816,25
1414444,17
1415068,10
1415688,11
1416320,16
1416936,17
1417564,15
1418188,19
1418812,21
1419440,21
1420064,14
1420692,12
1421324,11
1421944,11
1422572,17
1423196,19
1423828,20
1424456,21
1425080,17
1425708,15
1426332,15
1426956,15
1427584,19
1428208,26
1428836,22
1429460,24
1430084,21
1430712,18
1431336,13
1431964,13
1432596,10
1433216,15
1433848,15
1434468,15
1435096,18
1435724,10
1436344,13
1436972,12
1437596,11
1438220,12
1438848,15
1439464,18
1440096,21
1440716,22
1441340,15
1441968,16
1442584,16
1443212,15
1443836,13
1444456,14
1445088,19
1445708,25
1446340,26
1446968,25
1447584,27
1448216,22
1448836,15
1449468,16
1450096,16
1450712,15
1451340,15
1451964,15
1452588,10
1453220,10
1453840,11
1454468,13
1455092,18
1455716,21
1456344,18
1456968,17
1457596,15
1458224,14
1458848,16
1459476,15
1460100,15
1460728,14
1461360,16
1461976,20
1462604,18
1463228,16
1463852,15
1464480,13
1465104,13
1465732,14
1466356,16
1466980,15
1467608,16
1468232,19
1468860,13
1469492,10
1470112,13
1470740,14
1471364,15
1471996,16
1472628,18
1473248,25
1473876,22
1474500,16
1475124,15
1475756,15
1476376,16
1477004,19
1477628,22
1478256,27
1478884,31
1479508,27
1480136,24
1480764,19
1481384,15
1482012,13
1482636,13
1483264,14
1483892,18
1484512,17
1485140,15
1485764,11
1486384,14
1487016,16
1487632,17
1488260,12
1488884,12
1489508,19
1490136,25
1490760,26
1491388,19
1492016,15
1492640,16
1493268,15
1493892,13
1494520,15
1495152,21
1495768,23
1496396,15
1497020,12
1497644,10
1498272,10
1498892,10
1499520,15
1500144,15
1500768,15
1501396,16
1502020,13
1502652,11
1503280,12
1503904,13
1504536,10
1505160,12
1505788,16
1506416,19
1507040,22
1507668,20
1508292,15
1508916,15
1509548,17
1510168,21
1510800,19
1511420,22
1512048,20
1512676,16
1513300,15
1513932,16
1514560,12
1515184,11
1515816,15
1516440,17
1517064,16
1517692,14
1518312,17
1518940,11
1519568,11
1520192,11
1520820,11
1521440,13
1522068,15
1522696,18
1523320,21
1523948,21
1524572,16
1525204,15
1525832,15
1526452,15
1527080,19
1527704,25
1528328,24
1528956,18
1529576,13
1530208,17
1530832,23
1531456,14
1532084,10
1532704,15
1533336,15
1533964,14
1534584,15
1535216,16
1535840,12
1536472,13
1537100,16
1537720,15
1538348,11
1538972,19
1539592,27
1540224,26
1540840,21
1541468,15
1542092,19
1542716,16
1543344,15
1543960,15
1544592,19
1545220,19
1545840,19
1546468,13
1547092,16
1547720,11
1548352,11
1548968,10
1549600,16
1550220,17
1550852,15
1551480,14
1552104,11
1552732,19
1553356,21
1553980,15
1554612,16
1555232,19
1555860,17
1556492,12
1557112,12
1557740,15
1558364,16
1558996,15
1559624,15
1560240,16
1560872,21
1561496,24
1562120,28
1562748,27
1563368,22
1563996,14
1564620,11
1565244,12
1565876,12
1566496,16
1567124,15
1567756,14
1568376,16
1569004,11
1569628,11
1570256,11
1570884,10
1571504,12
1572132,13
1572756,14
1573384,15
1574012,16
1574632,17
1575260,15
1575884,15
1576508,16
1577140,12
1577760,13
1578388,16
1579020,20
1579640,22
1580268,20
1580892,16
1581524,10
1582152,15
1582772,14
1583400,16
1584024,14
1584648,17
1585276,14
1585896,14
1586528,11
1587152,11
1587776,12
1588404,15
1589024,22
1589652,27
1590284,24
1590904,22
1591532,15
1592160,17
1592788,20
1593420,19
1594040,17
1594668,21
1595296,28
1595920,27
1596548,17
1597168,16
1597800,18
1598424,19
1599048,14
1599676,14
1600296,15
1600924,15
1601552,14
1602168,12
1602796,13
1603420,11
1604048,11
1604676,12
1605296,13
1605924,15
1606548,21
1607172,22
1607804,15
1608424,15
1609052,17
1609672,19
1610296,17
1610924,16
1611544,26
1612172,32
1612796,24
1613424,21
1614052,16
1614676,10
1615308,14
1615936,16
1616556,15
1617184,18
1617808,20
1618436,18
1619064,12
1619688,11
1620316,11
1620940,10
1621564,11
1622192,12
1622812,17
1623440,20
1624068,19
1624688,16
1625316,14
1625940,16
1626572,17
1627200,15
1627816,14
1628444,16
1629068,24
1629700,18
1630328,15
1630948,11
1631576,11
1632200,12
1632824,16
1633456,14
1634072,15
1634700,15
1635324,11
1635952,12
1636580,13
1637204,11
1637836,14
1638468,18
1639084,21
1639712,19
1640332,17
1640960,15
1641588,15
1642208,16
1642836,15
1643456,17
1644076,19
1644704,20
1645328,26
1645956,26
1646576,23
1647200,25
1647828,18
1648452,13
1649080,13
1649708,16
1650324,16
1650956,14
1651576,16
1652204,13
1652832,12
1653448,15
1654076,15
1654700,15
1655320,18
1655952,17
1656568,22
1657196,24
1657820,16
1658440,15
1659072,21
1659688,25
1660316,17
1660944,13
1661560,12
1662188,16
1662812,21
1663444,19
1664072,19
1664688,13
1665312,12
1665936,17
1666564,19
1667192,20
1667808,17
1668436,14
1669060,10
1669680,11
1670308,11
1670928,16
1671556,20
1672180,21
1672800,18
1673428,13
1674052,14
1674680,15
1675308,14
1675928,15
1676556,16
1677180,15
1677808,15
1678436,17
1679056,23
1679684,23
1680304,21
1680928,15
1681556,12
1682176,12
1682804,15
1683424,15
1684044,15
1684672,15
1685292,12
1685924,12
1686552,11
1687168,11
1687796,11
1688420,15
1689048,22
1689676,19
1690292,18
1690920,15
1691544,16
1692164,16
1692792,17
1693416,19
1694044,19
1694668,19
1695292,19
1695920,14
1696536,14
1697164,15
1697788,12
1698408,10
1699036,13
1699660,16
1700292,20
1700920,16
1701536,15
1702164,10
1702788,11
1703416,10
1704044,10
1704660,12
1705292,16
1705912,20
1706536,22
1707164,16
1707784,15
1708412,15
1709036,15
1709660,15
1710288,11
1710904,15
1711536,18
1712164,24
1712784,25
1713412,19
1714036,14
1714664,12
1715296,11
1715912,16
1716540,16
1717164,15
1717788,17
1718416,14
1719032,11
1719664,11
1720288,12
1720912,11
1721540,12
1722160,12
1722788,12
1723416,14
1724040,17
1724668,15
1725292,14
1725920,17
1726548,18
1727168,24
1727796,26
1728420,22
1729044,17
1729672,11
1730288,11
1730920,13
1731540,12
1732164,20
1732792,24
1733412,19
1734040,16
1734668,14
1735288,16
1735916,11
1736540,11
1737168,11
1737800,11
1738416,12
1739044,17
1739668,19
1740296,18
1740924,14
1741540,16
1742172,17
1742792,15
1743416,13
1744044,12
1744660,16
1745292,19
1745912,19
1746536,17
1747164,20
1747788,15
1748416,11
1749048,13
1749664,15
1750292,16
1750916,17
1751548,16
1752176,12
1752800,11
1753428,11
1754052,10
1754676,12
1755304,13
1755928,18
1756556,23
1757180,22
1757808,16
1758436,15
1759060,16
1759692,16
1760320,18
1760944,21
1761572,21
1762196,22
1762820,18
1763452,18
1764072,16
1764700,15
1765324,12
1765944,16
1766576,14
1767192,15
1767820,17
1768444,12
1769072,11
1769700,10
1770320,11
1770952,15
1771580,18
1772200,20
1772828,17
1773452,20
1774080,16
1774708,14
1775328,15
1775956,16
1776584,17
1777204,18
1777836,20
1778456,24
1779084,21
1779708,18
1780336,13
1780964,11
1781588,10
1782220,13
1782848,15
1783468,14
1784096,18
1784720,16
1785348,13
1785980,19
1786600,13
1787228,15
1787852,14
1788476,11
1789108,10
1789728,15
1790356,16
1790988,15
1791608,15
1792240,16
1792860,17
1793488,12
1794120,14
1794736,17
1795364,21
1795988,21
1796612,21
1797244,17
1797864,14
1798492,11
1799116,14
1799740,15
1800368,15
1800984,15
1801616,14
1802236,12
1802864,14
1803492,12
1804116,13
1804744,15
1805372,15
1805992,16
1806620,16
1807244,18
1807872,16
1808500,17
1809120,15
1809748,15
1810372,20
1810992,21
1811624,16
1812240,14
1812868,11
1813492,13
1814116,11
1814744,11
1815368,14
1815996,17
1816628,14
1817248,16
1817876,18
1818500,12
1819128,10
1819760,10
1820376,11
1821004,12
1821628,13
1822252,19
1822880,12
1823504,12
1824132,15
1824756,18
1825380,15
1826008,16
1826632,14
1827260,16
1827888,15
1828504,18
1829136,24
1829760,21
1830388,22
1831020,15
1831640,12
1832268,15
1832892,15
1833516,15
1834148,14
1834768,17
1835396,13
1836024,12
1836644,12
1837276,11
1837900,11
1838532,13
1839160,14
1839784,18
1840416,16
1841036,15
1841668,15
1842296,14
1842920,17
1843548,13
1844172,13
1844796,26
1845424,35
1846040,32
1846668,21
1847292,12
1847912,11
1848544,12
1849168,15
1849796,16
1850424,15
1851040,14
1851672,13
1852296,11
1852924,11
1853552,11
1854172,11
1854800,13
1855424,15
1856048,17
1856676,18
1857296,17
1857924,15
1858548,18
1859168,18
1859800,16
1860424,13
1861052,16
1861684,22
1862304,23
1862932,19
1863556,17
1864188,13
1864816,10
1865432,13
1866064,15
1866688,17
1867312,15
1867940,16
1868560,13
1869188,11
1869812,11
1870436,13
1871064,15
1871688,16
1872320,19
1872948,19
1873568,19
1874196,15
1874820,15
1875452,15
1876080,15
1876700,16
1877328,19
1877952,23
1878576,28
1879204,25
1879824,22
1880456,17
1881076,12
1881704,11
1882332,15
1882956,17
1883584,15
1884216,16
1884832,14
1885464,11
1886084,11
1886716,10
1887344,10
1887968,13
1888600,15
1889220,17
1889844,15
1890476,14
1891096,16
1891724,15
1892352,14
1892976,17
1893604,15
1894228,19
1894860,25
1895488,24
1896112,20
1896740,13
1897364,10
1897988,11
1898620,11
1899240,16
1899868,14
1900492,15
1901116,17
1901748,10
1902368,13
1903000,11
1903628,10
1904248,12
1904876,13
1905500,15
1906132,14
1906760,14
1907384,16
1908012,15
1908636,16
1909260,15
1909892,14
1910512,21
1911140,21
1911768,20
1912392,17
1913020,13
1913640,15
1914268,13
1914900,12
1915520,15
1916148,15
1916776,15
1917408,16
1918036,14
1918656,11
1919288,10
1919912,11
1920536,11
1921168,14
1921784,18
1922412,18
1923036,19
1923660,20
1924288,17
1924912,18
1925540,17
1926172,17
1926792,11
1927420,14
1928044,20
1928672,27
1929300,28
1929920,27
1930548,19
1931172,17
1931796,16
1932428,22
1933048,19
1933676,15
1934300,17
1934924,15
1935556,11
1936176,11
1936804,11
1937432,10
1938056,12
1938684,13
1939308,14
1939940,22
1940568,19
1941188,15
1941816,17
1942440,18
1943064,19
1943692,17
1944312,17
1944944,18
1945568,11
1946192,12
1946820,13
1947440,11
1948068,11
1948696,15
1949320,17
1949948,15
1950572,15
1951204,16
1951832,11
1952452,11
1953080,10
1953704,10
1954328,11
1954956,11
1955576,11
1956204,15
1956828,19
1957452,18
1958084,14
1958704,15
1959332,15
1959964,14
1960584,18
1961212,20
1961836,21
1962468,16
1963096,14
1963720,15
1964348,12
1964972,11
1965596,15
1966228,14
1966848,16
1967476,15
1968100,14
1968720,12
1969352,11
1969968,11
1970596,11
1971224,12
1971844,14
1972476,19
1973100,24
1973728,20
1974356,14
1974976,15
1975604,16
1976228,15
1976852,11
1977484,10
1978104,14
1978732,17
1979356,21
1979980,25
1980612,24
1981232,21
1981860,20
1982492,18
1983112,15
1983744,15
1984368,15
1984996,11
1985624,11
1986244,11
1986872,13
1987496,12
1988120,11
1988748,18
1989368,25
1989996,25
1990620,17
1991244,16
1991872,14
1992496,17
1993124,19
1993756,20
1994376,21
1995004,23
1995628,18
1996260,17
1996892,16
1997512,13
1998140,11
1998764,14
1999388,15
2000016,16
2000632,15
2001260,14
2001884,15
2002508,21
2003136,23
2003760,22
2004388,16
2005020,12
2005640,13
2006268,13
2006892,15
2007524,15
2008152,15
2008768,16
2009400,22
2010024,28
2010644,32
2011276,29
2011896,26
2012524,17
2013148,13
2013772,11
2014400,10
2015024,11
2015652,15
2016284,14
2016904,16
2017532,18
2018156,15
2018788,11
2019416,10
2020032,11
2020664,15
2021288,16
2021912,26
2022540,31
2023160,27
2023788,17
2024412,18
2025036,19
2025664,16
2026288,15
2026916,15
2027548,19
2028168,23
2028796,26
2029420,25
2030052,19
2030684,10
2031304,11
2031936,13
2032560,15
2033184,17
2033812,15
2034432,15
2035060,12
2035688,12
2036312,12
2036940,11
2037560,15
2038192,17
2038820,20
2039440,21
2040068,19
2040692,15
2041324,19
2041956,22
2042576,19
2043204,17
2043828,17
2044456,21
2045084,24
2045704,21
2046336,21
2046960,15
2047584,12
2048216,11
2048836,16
2049464,15
2050092,14
2050708,16
2051336,16
2051960,15
2052588,17
2053216,15
2053832,13
2054460,12
2055080,13
2055704,13
2056332,10
2056948,16
2057580,16
2058200,16
2058824,15
2059452,15
2060072,17
2060700,20
2061328,19
2061944,22
2062576,20
2063196,15
2063828,11
2064456,11
2065072,13
2065700,18
2066324,15
2066948,15
2067576,15
2068200,11
2068828,11
2069448,10
2070072,11
2070700,11
2071320,16
2071948,17
2072572,11
2073200,12
2073828,17
2074452,15
2075080,15
2075708,14
2076328,13
2076956,15
2077580,18
2078208,19
2078836,18
2079456,18
2080084,16
2080704,13
2081328,13
2081956,18
2082576,20
2083204,17
2083824,15
2084448,15
2085076,10
2085700,11
2086328,11
2086956,12
2087576,13
2088204,14
2088828,22
2089456,19
2090084,14
2090700,15
2091332,15
2091956,15
2092580,16
2093208,10
2093824,11
2094452,15
2095076,21
2095700,20
2096328,18
2096944,24
2097572,22
2098204,18
2098824,22
2099452,19
2100076,16
2100704,18
2101332,12
2101952,11
2102580,12
2103204,13
2103824,15
2104456,15
2105072,18
2105700,20
2106324,19
2106948,17
2107576,16
2108192,15
2108824,16
2109452,14
2110072,17
2110700,21
2111324,26
2111956,26
2112584,23
2113208,19
2113836,13
2114460,11
2115084,11
2115712,16
2116328,17
2116956,17
2117580,16
2118204,11
2118836,10
2119456,11
2120084,11
2120712,12
2121336,20
2121964,25
2122588,22
2123216,16
2123848,15
2124464,18
2125092,20
2125716,16
2126340,12
2126972,12
2127592,19
2128220,22
2128844,21
2129468,20
2130096,15
2130716,12
2131348,13
2131976,19
2132592,15
2133224,16
2133844,16
2134476,16
2135104,12
2135720,11
2136352,13
2136976,11
2137604,11
2138232,14
2138848,15
2139480,18
2140104,18
2140728,15
2141356,14
2141976,17
2142604,17
2143228,14
2143856,17
2144484,21
2145108,27
2145740,23
2146368,15
2146984,11
2147616,13
2148240,12
2148868,14
2149500,14
2150120,17
2150748,19
2151372,16
2151996,12
2152624,10
2153248,11
2153876,15
2154504,20
2155128,23
2155756,16
2156380,15
2157012,15
2157640,15
2158256,16
2158888,17
2159512,14
2160136,13
2160764,14
2161384,22
2162012,26
2162636,23
2163260,20
2163888,13
2164504,13
2165132,15
2165756,14
2166384,15
2167012,15
2167636,15
2168268,12
2168896,10
2169520,11
2170148,10
2170776,14
2171400,20
2172028,25
2172648,24
2173276,15
2173900,15
2174524,15
2175156,16
2175776,20
2176408,23
2177036,31
2177656,29
2178284,17
2178908,18
2179536,24
2180164,16
2180784,12
2181412,10
2182036,14
2182660,15
2183292,16
2183912,17
2184540,12
2185164,11
2185788,11
2186416,11
2187032,11
2187664,12
2188292,14
2188912,19
2189540,19
2190164,22
2190792,16
2191424,16
2192040,22
2192672,23
2193292,26
2193924,23
2194552,20
2195172,16
2195804,11
2196428,10
2197052,11
2197680,10
2198304,15
2198936,21
2199564,19
2200184,16
2200812,14
2201436,11
2202068,11
2202696,14
2203320,14
2203948,15
2204572,16
2205196,19
2205828,16
2206448,15
2207076,14
2207700,16
2208324,16
2208956,16
2209576,15
2210204,16
2210836,16
2211456,19
2212084,19
2212708,15
2213340,11
2213968,12
2214588,11
2215216,16
2215840,16
2216464,15
2217092,14
2217712,15
2218340,10
2218964,11
2219588,12
2220220,10
2220840,11
2221468,13
2222100,16
2222720,19
2223348,20
2223972,16
2224604,15
2225236,15
2225856,15
2226484,13
2227112,12
2227736,13
2228364,15
2228984,17
2229612,22
2230236,20
2230864,22
2231492,22
2232112,23
2232744,18
2233372,14
2233992,15
2234620,11
2235244,11
2235876,10
2236508,10
2237128,13
2237760,18
2238384,27
2239008,31
2239640,20
2240260,15
2240888,16
2241512,16
2242132,16
2242764,16
2243384,17
2244012,19
2244640,22
2245264,19
2245892,19
2246516,16
2247148,11
2247776,11
2248396,16
2249024,18
2249648,19
2250272,19
2250900,15
2251520,13
2252148,11
2252776,11
2253400,12
2254028,11
2254648,13
2255276,19
2255904,24
2256528,23
2257156,15
2257780,16
2258408,21
2259040,17
2259656,12
2260284,13
2260908,17
2261532,16
2262160,10
2262784,15
2263412,17
2264036,14
2264660,15
2265288,21
2265912,21
2266540,17
2267172,14
2267792,17
2268420,17
2269044,13
2269676,11
2270304,13
2270924,12
2271552,13
2272180,18
2272800,24
2273432,19
2274048,15
2274676,15
2275300,16
2275924,16
2276556,10
2277176,12
2277804,18
2278436,22
2279056,18
2279684,17
2280308,22
2280936,14
2281568,12
2282184,16
2282816,16
2283440,17
2284064,16
2284692,12
2285312,13
2285940,12
2286564,11
2287188,11
2287820,12
2288440,17
2289068,19
2289700,20
2290320,20
2290952,17
2291576,17
2292204,17
2292836,12
2293456,14
2294088,18
2294708,18
2295332,17
2295964,18
2296584,18
2297212,12
2297836,13
2298460,17
2299092,16
2299716,15
2300344,15
2300972,14
2301592,12
2302224,11
2302848,12
2303476,16
2304108,18
2304724,18
2305356,12
2305976,11
2306600,15
2307228,14
2307848,16
2308476,17
2309100,19
2309724,17
2310352,15
2310976,19
2311604,23
2312236,18
2312856,16
2313484,11
2314108,11
2314740,16
2315368,18
2315992,15
2316620,15
2317244,16
2317868,11
2318500,10
2319120,10
2319748,11
2320372,14
2320996,16
2321628,15
2322248,14
2322880,13
2323508,14
2324128,15
2324756,15
2325380,15
2326012,14
2326640,16
2327260,17
2327888,22
2328512,18
2329136,15
2329764,14
2330384,11
2331012,13
2331636,23
2332260,23
2332892,16
2333512,15
2334144,15
2334776,12
2335392,12
2336020,11
2336644,11
2337272,18
2337900,29
2338520,23
2339148,15
2339772,14
2340396,16
2341028,15
2341648,15
2342276,15
2342900,16
2343524,21
2344156,21
2344780,28
2345412,23
2346040,17
2346660,12
2347288,11
2347912,12
2348540,16
2349172,16
2349792,17
2350420,17
2351048,13
2351672,11
2352300,11
2352920,12
2353548,11
2354180,11
2354800,12
2355432,15
2356052,25
2356684,21
2357312,15
2357932,15
2358560,19
2359184,17
2359812,16
2360444,18
2361064,20
2361692,18
2362316,19
2362940,17
2363572,12
2364192,15
2364820,17
2365452,18
2366072,16
2366704,15
2367328,15
2367960,12
2368588,10
2369208,11
2369836,11
2370460,12
2371088,17
2371716,18
2372336,19
2372964,15
2373588,16
2374216,17
2374844,17
2375464,15
2376096,15
2376724,20
2377344,30
2377972,27
2378596,19
2379228,18
2379856,18
2380480,11
2381108,11
2381732,15
2382356,15
2382988,15
2383608,15
2384236,13
2384860,11
2385484,11
2386116,10
2386736,13
2387364,12
2387996,12
2388616,17
2389244,21
2389872,20
2390500,15
2391132,16
2391752,19
2392384,17
2393008,11
2393632,14
2394260,16
2394880,14
2395508,17
2396136,20
2396760,15
2397392,17
2398008,17
2398640,19
2399272,15
2399888,15
2400520,16
2401144,21
2401772,14
2402404,10
2403024,11
2403652,11
2404276,12
2404900,13
2405532,19
2406152,23
2406784,16
2407404,15
2408028,15
2408656,16
2409280,15
2409912,17
2410540,19
2411160,24
2411792,25
2412416,23
2413044,17
2413676,13
2414296,13
2414924,15
2415552,15
2416176,15
2416804,15
2417424,15
2418052,10
2418676,10
2419300,11
2419932,10
2420556,14
2421184,20
2421812,20
2422432,24
2423060,17
2423684,16
2424316,18
2424948,18
2425568,17
2426200,12
2426824,15
2427448,23
2428076,24
2428696,16
2429328,13
2429956,12
2430576,11
2431208,11
2431832,17
2432464,16
2433092,14
2433712,15
2434340,12
2434964,12
2435592,12
2436220,10
2436840,10
2437468,13
2438092,18
2438716,17
2439348,18
2439968,19
2440600,15
2441228,14
2441848,17
2442476,21
2443100,25
2443732,23
2444364,22
2444984,24
2445612,21
2446236,17
2446860,11
2447492,10
2448112,13
2448740,15
2449364,15
2449988,16
2450620,14
2451240,11
2451868,11
2452500,10
2453120,11
2453748,14
2454376,14
2455008,21
2455640,28
2456256,22
2456888,16
2457512,16
2458136,15
2458768,15
2459384,12
2460012,19
2460636,21
2461260,20
2461888,15
2462504,11
2463136,11
2463764,10
2464384,13
2465012,13
2465636,20
2466264,24
2466892,18
2467512,13
2468140,12
2468764,11
2469388,11
2470016,11
2470640,12
2471268,16
2471892,24
2472516,26
2473144,18
2473768,15
2474396,16
2475028,18
2475648,18
2476276,11
2476900,12
2477532,12
2478160,16
2478784,17
2479412,16
2480036,17
2480660,17
2481288,15
2481904,15
2482536,15
2483160,16
2483784,15
2484412,12
2485032,12
2485660,11
2486292,10
2486912,11
2487540,11
2488164,12
2488796,19
2489424,19
2490048,15
2490676,15
2491300,16
2491924,17
2492556,16
2493176,17
2493808,16
2494432,20
2495056,17
2495684,15
2496304,13
2496932,11
2497564,10
2498184,15
2498812,15
2499436,14
2500068,15
2500696,14
2501312,11
2501944,12
2502568,11
2503192,11
2503820,11
2504440,17
2505068,13
2505692,14
2506316,17
2506948,15
2507568,16
2508196,15
2508828,16
2509448,21
2510076,25
2510700,25
2511332,18
2511960,11
2512584,15
2513212,14
2513840,13
2514464,15
2515092,15
2515712,15
2516340,15
2516968,15
2517588,13
2518220,11
2518840,11
2519472,11
2520100,10
2520720,12
2521348,11
2521976,14
2522604,17
2523236,16
2523856,16
2524484,15
2525108,15
2525736,13
2526364,14
2526984,18
2527616,22
2528240,28
2528864,23
2529492,16
2530116,10
2530748,11
2531380,15
2532000,17
2532628,15
2533256,15
2533884,15
2534516,10
2535136,10
2535768,11
2536392,11
2537016,15
2537648,17
2538264,21
2538892,19
2539524,16
2540144,15
2540772,15
2541400,17
2542028,17
2542660,18
2543280,20
2543912,22
2544536,21
2545160,19
2545788,17
2546408,13
2547036,11
2547664,11
2548288,15
2548916,15
2549536,15
2550168,15
2550796,11
2551416,12
2552048,11
2552672,11
2553300,11
2553932,11
2554552,16
2555184,17
2555808,18
2556432,17
2557064,15
2557684,15
2558312,16
2558940,15
2559564,12
2560196,10
2560812,11
2561440,14
2562068,14
2562684,15
2563312,15
2563936,19
2564564,25
2565192,24
2565808,18
2566436,15
2567056,15
2567684,11
2568312,11
2568928,10
2569560,11
2570184,11
2570804,14
2571436,18
2572056,27
2572684,29
2573308,20
2573936,16
2574564,15
2575188,15
2575816,15
2576448,19
2577064,22
2577692,21
2578316,16
2578948,14
2579576,13
2580192,11
2580824,11
2581444,14
2582068,15
2582696,15
2583320,16
2583948,15
2584572,10
2585200,11
2585828,13
2586452,11
2587080,14
2587708,11
2588328,11
2588956,11
2589580,14
2590208,15
2590840,15
2591456,15
2592084,15
2592708,14
2593332,18
2593960,23
2594576,29
2595204,20
2595828,16
2596452,15
2597080,14
2597704,16
2598336,18
2598968,15
2599584,15
2600212,16
2600836,14
2601468,11
2602096,10
2602720,13
2603348,15
2603972,13
2604596,19
2605228,18
2605848,18
2606476,14
2607100,14
2607728,16
2608356,16
2608980,15
2609612,15
2610240,19
2610860,24
2611488,21
2612112,18
2612740,14
2613368,12
2613992,13
2614620,16
2615244,15
2615868,17
2616500,18
2617120,15
2617748,11
2618380,10
2619000,11
2619628,11
2620252,16
2620884,22
2621512,20
2622136,23
2622764,25
2623384,19
2624008,15
2624636,14
2625256,15
2625884,18
2626504,30
2627128,33
2627756,32
2628376,25
2629004,17
2629628,14
2630248,11
2630876,11
2631500,15
2632128,15
2632756,14
2633376,16
2634004,12
2634628,12
2635256,14
2635884,12
2636504,11
2637132,11
2637756,14
2638380,19
2639008,24
2639624,23
2640256,20
2640876,16
2641500,19
2642128,19
2642748,19
2643380,22
2644008,23
2644624,23
2645252,15
2645876,11
2646504,11
2647132,10
2647752,16
2648380,19
2649004,19
2649624,15
2650256,17
2650872,16
2651500,11
2652124,11
2652748,11
2653376,10
2654000,13
2654628,11
2655260,12
2655880,15
2656508,17
2657132,18
2657764,15
2658392,15
2659008,11
2659640,15
2660264,21
2660888,25
2661516,22
2662136,20
2662764,20
2663388,13
2664008,11
2664636,14
2665256,15
2665884,15
2666512,16
2667128,15
2667760,12
2668380,12
2669008,10
2669640,12
2670256,11
2670884,13
2671508,13
2672136,21
2672764,18
2673384,15
2674012,15
2674632,15
2675256,15
2675884,12
2676504,15
2677132,15
2677756,15
2678380,16
2679008,16
2679632,12
2680260,11
2680892,16
2681512,21
2682140,17
2682764,15
2683396,15
2684024,11
2684640,12
2685272,11
2685896,11
2686520,11
2687148,10
2687768,20
2688396,28
2689020,26
2689648,19
2690276,15
2690896,15
2691528,16
2692156,16
2692776,23
2693404,24
2694028,19
2694656,16
2695288,15
2695904,12
2696532,11
2697156,12
2697780,18
2698408,20
2699032,19
2699660,18
2700284,16
2700912,12
2701540,11
2702164,11
2702796,13
2703424,17
2704040,18
2704668,18
2705292,25
2705920,25
2706548,18
2707168,15
2707796,16
2708420,17
2709044,21
2709672,24
2710296,21
2710924,13
2711548,11
2712176,14
2712804,13
2713428,11
2714060,13
2714688,22
2715304,23
2715936,21
2716560,19
2717188,12
2717820,10
2718440,11
2719068,11
2719692,11
2720316,11
2720944,16
2721568,21
2722196,18
2722824,15
2723448,16
2724076,18
2724700,16
2725328,16
2725956,14
2726576,18
2727204,22
2727828,15
2728452,11
2729084,12
2729704,12
2730332,11
2730956,13
2731580,15
2732208,16
2732824,16
2733452,15
2734076,10
2734704,11
2735332,12
2735956,11
2736588,11
2737220,11
2737840,12
2738468,15
2739092,19
2739720,19
2740348,15
2740968,16
2741596,15
2742220,16
2742844,19
2743476,23
2744096,28
2744724,24
2745356,18
2745976,16
2746604,12
2747228,11
2747856,14
2748488,14
2749104,15
2749732,17
2750356,15
2750984,13
2751612,10
2752232,11
2752860,11
2753484,13
2754108,17
2754736,21
2755360,23
2755988,20
2756620,16
2757240,15
2757868,16
2758492,16
2759124,17
2759752,23
2760372,24
2761000,21
2761624,19
2762248,20
2762876,18
2763496,13
2764128,12
2764752,15
2765376,15
2766004,14
2766624,16
2767252,13
2767880,10
2768504,11
2769132,11
2769756,11
2770388,11
2771016,12
2771636,14
2772264,19
2772888,20
2773512,19
2774140,16
2774760,17
2775388,13
2776012,15
2776636,27
2777268,34
2777888,32
2778516,26
2779148,23
2779768,15
2780396,11
2781024,14
2781652,15
2782284,14
2782904,15
2783532,15
2784160,11
2784784,13
2785412,10
2786032,11
2786660,13
2787284,24
2787908,23
2788536,19
2789152,17
2789784,16
2790412,16
2791032,17
2791660,16
2792284,18
2792916,22
2793544,23
2794164,22
2794792,16
2795416,15
2796040,13
2796668,11
2797288,11
2797916,14
2798544,14
2799164,15
2799796,17
2800416,16
2801044,11
2801676,11
2802296,11
2802924,11
2803548,13
2804180,22
2804808,24
2805424,25
2806052,21
2806676,15
2807300,15
2807932,16
2808552,17
2809180,20
2809804,29
2810428,29
2811060,22
2811680,17
2812308,14
2812940,10
2813560,12
2814188,13
2814816,16
2815444,15
2816076,14
2816692,15
2817324,12
2817944,11
2818568,11
2819196,10
2819816,17
2820444,19
2821068,21
2821692,21
2822320,23
2822944,15
2823572,16
2824204,18
2824824,23
2825452,30
2826076,31
2826708,27
2827336,25
2827952,19
2828584,15
2829208,19
2829828,15
2830460,12
2831080,14
2831708,15
2832332,15
2832956,15
2833584,14
2834208,11
2834836,11
2835468,12
2836088,13
2836716,15
2837340,21
2837972,20
2838600,20
2839224,19
2839852,15
2840476,16
2841100,16
2841732,19
2842352,21
2842980,25
2843604,25
2844228,21
2844856,18
2845480,15
2846108,11
2846740,11
2847360,11
2847988,17
2848612,15
2849244,16
2849872,21
2850492,18
2851120,12
2851744,13
2852368,15
2852996,12
2853616,12
2854244,17
2854872,18
2855496,18
2856124,14
2856744,16
2857372,16
2858004,15
2858624,13
2859252,12
2859876,15
2860508,16
2861140,14
2861760,13
2862388,11
2863016,11
2863640,13
2864272,16
2864888,23
2865516,31
2866144,25
2866768,17
2867400,11
2868016,12
2868644,11
2869272,13
2869888,18
2870520,23
2871140,25
2871772,20
2872400,12
2873024,15
2873652,18
2874276,21
2874900,19
2875528,17
2876144,12
2876776,15
2877400,16
2878024,13
2878652,12
2879272,13
2879900,12
2880532,13
2881148,17
2881780,15
2882400,15
2883032,15
2883660,11
2884280,11
2884908,11
2885532,10
2886156,12
2886784,13
2887400,15
2888028,17
2888652,19
2889272,21
2889904,17
2890520,16
2891148,17
2891772,18
2892400,16
2893028,15
2893652,16
2894280,15
2894908,13
2895528,19
2896156,19
2896780,15
2897408,14
2898036,16
2898656,18
2899284,16
2899908,15
2900528,14
2901160,12
2901776,12
2902404,11
2903028,12
2903652,11
2904284,12
2904908,17
2905536,20
2906168,16
2906788,15
2907416,15
2908040,15
2908668,12
2909300,10
2909920,14
2910548,17
2911172,16
2911796,17
2912428,20
2913048,18
2913676,13
2914300,14
2914928,16
2915556,16
2916180,16
2916812,14
2917440,10
2918064,12
2918696,13
2919316,11
2919944,12
2920572,16
2921192,17
2921820,20
2922444,24
2923068,15
2923700,15
2924320,16
2924948,16
2925580,14
2926200,15
2926828,18
2927452,24
2928084,20
2928712,22
2929336,23
2929964,19
2930588,18
2931212,16
2931844,14
2932464,15
2933092,15
2933720,12
2934344,11
2934976,10
2935592,11
2936224,15
2936852,21
2937472,24
2938104,15
2938728,14
2939356,15
2939988,14
2940608,15
2941240,16
2941864,13
2942488,11
2943116,18
2943736,26
2944368,25
2944992,24
2945616,21
2946244,11
2946864,11
2947492,15
2948124,17
2948744,16
2949376,15
2949996,17
2950628,13
2951256,11
2951872,11
2952504,11
2953128,11
2953752,14
2954380,18
2955000,23
2955628,22
2956252,17
2956876,16
2957508,16
2958128,21
2958756,25
2959388,22
2960008,19
2960636,17
2961260,12
2961888,11
2962516,12
2963136,15
2963764,12
2964388,21
2965016,18
2965644,16
2966264,16
2966892,12
2967516,11
2968144,11
2968772,11
2969392,17
2970024,20
2970652,16
2971272,12
2971900,13
2972524,15
2973152,15
2973784,15
2974400,15
2975032,17
2975656,17
2976280,20
2976908,21
2977528,20
2978156,14
2978780,12
2979404,11
2980036,10
2980656,12
2981284,15
2981912,14
2982536,15
2983164,15
2983788,12
2984420,11
2985048,11
2985664,11
2986296,11
2986920,12
2987544,15
2988172,18
2988792,20
2989424,15
2990048,16
2990672,17
2991300,17
2991920,16
2992552,17
2993180,16
2993800,21
2994428,20
2995052,16
2995684,20
2996316,20
2996936,18
2997564,17
2998192,15
2998816,15
2999444,14
3000064,15
3000692,15
3001316,15
3001940,12
3002572,10
3003192,11
3003824,12
3004452,15
3005072,21
3005704,21
3006328,18
3006956,15
3007588,15
3008208,19
3008836,23
3009460,28
3010084,25
3010716,18
3011336,16
3011964,15
3012588,12
3013216,11
3013844,13
3014468,14
3015100,14
3015728,15
3016352,16
3016980,12
3017604,11
3018236,11
3018868,12
3019488,12
3020120,11
3020744,12
3021368,16
3022000,15
3022620,16
3023248,16
3023880,15
3024496,15
3025124,12
3025752,15
3026380,21
3027012,21
3027632,19
3028264,17
3028888,19
3029512,17
3030144,15
3030760,16
3031392,15
3032020,16
3032644,17
3033272,14
3033892,13
3034524,15
3035152,11
3035772,10
3036404,14
3037028,17
3037656,21
3038288,23
3038908,17
3039540,15
3040164,15
3040788,16
3041416,15
3042040,13
3042668,18
3043292,24
3043916,25
3044548,18
3045168,17
3045796,13
3046428,12
3047048,12
3047676,14
3048300,16
3048932,15
3049564,14
3050184,14
3050816,11
3051440,11
3052064,11
3052692,11
3053312,12
3053944,21
3054568,26
3055192,23
3055824,20
3056444,15
3057072,16
3057704,23
3058320,23
3058952,24
3059576,21
3060208,17
3060836,20
3061456,24
3062088,21
3062712,14
3063336,13
3063968,16
3064588,16
3065216,15
3065844,15
3066468,15
3067100,11
3067724,11
3068356,10
3068988,10
3069608,13
3070240,17
3070864,19
3071496,20
3072128,18
3072744,15
3073372,14
3073996,16
3074620,16
3075248,11
3075864,15
3076492,18
3077116,18
3077744,14
3078372,17
3078996,18
3079628,15
3080256,14
3080880,19
3081508,16
3082132,15
3082760,15
3083388,11
3084008,11
3084636,10
3085260,10
3085884,11
3086516,14
3087136,19
3087768,19
3088396,22
3089016,18
3089644,16
3090268,15
3090900,15
3091528,15
3092148,16
3092776,18
3093400,17
3094024,18
3094656,17
3095272,13
3095904,13
3096528,11
3097152,12
3097784,14
3098400,15
3099028,15
3099660,15
3100280,11
3100908,12
3101532,11
3102164,10
3102796,11
3103416,15
3104048,15
3104668,12
3105292,11
3105924,16
3106544,19
3107176,18
3107800,16
3108424,11
3109056,14
3109672,21
3110304,20
3110936,13
3111552,12
3112184,12
3112808,11
3113440,11
3114068,14
3114688,15
3115320,15
3115944,15
3116568,14
3117196,12
3117816,12
3118448,12
3119072,11
3119696,15
3120324,18
3120944,21
3121572,18
3122204,13
3122824,17
3123456,19
3124076,15
3124708,15
3125336,14
3125956,18
3126584,26
3127208,27
3127832,19
3128464,13
3129080,11
3129708,10
3130332,12
3130956,15
3131588,15
3132208,15
3132836,15
3133468,10
3134088,11
3134716,11
3135344,12
3135976,12
3136608,14
3137224,23
3137852,21
3138476,21
3139104,17
3139732,14
3140352,16
3140980,15
3141608,13
3142232,15
3142860,23
3143480,26
3144112,23
3144740,18
3145360,13
3145988,11
3146616,12
3147244,15
3147876,14
3148496,15
3149128,15
3149752,15
3150376,11
3151008,11
3151624,12
3152256,11
3152880,13
3153504,15
3154136,17
3154760,20
3155392,25
3156020,18
3156640,16
3157268,14
3157896,15
3158524,12
3159156,22
3159776,29
3160408,31
3161032,31
3161656,28
3162284,21
3162904,16
3163536,13
3164164,14
3164784,14
3165416,15
3166040,15
3166672,11
3167304,11
3167920,11
3168552,11
3169176,11
3169804,15
3170432,19
3171056,19
3171688,16
3172312,16
3172936,15
3173568,15
3174188,15
3174820,15
3175452,14
3176072,15
3176700,17
3177328,16
3177956,15
3178588,22
3179208,15
3179840,12
3180464,14
3181088,16
3181720,16
3182336,15
3182968,17
3183592,13
3184216,10
3184848,10
3185468,10
3186096,12
3186728,14
3187344,14
3187976,16
3188600,17
3189232,15
3189860,17
3190480,18
3191112,17
3191736,13
3192360,15
3192992,16
3193612,18
3194244,15
3194868,17
3195492,15
3196124,12
3196748,11
3197380,15
3198012,17
3198632,18
3199264,17
3199888,12
3200520,16
3201148,12
3201768,11
3202396,11
3203020,19
3203644,23
3204272,16
3204888,13
3205516,15
3206140,15
3206768,15
3207396,17
3208020,17
3208648,17
3209276,20
3209896,21
3210524,17
3211148,12
3211780,11
3212408,11
3213024,10
3213656,11
3214280,14
3214900,18
3215532,16
3216152,17
3216780,11
3217404,10
3218032,11
3218660,11
3219284,11
3219912,14
3220544,16
3221160,17
3221792,19
3222416,16
3223044,15
3223672,16
3224296,15
3224924,15
3225552,22
3226176,28
3226804,27
3227424,26
3228052,19
3228684,10
3229304,11
3229932,13
3230556,14
3231188,14
3231820,14
3232440,15
3233068,13
3233692,10
3234316,12
3234948,11
3235568,11
3236196,11
3236820,15
3237444,20
3238072,23
3238696,21
3239324,15
3239956,15
3240576,16
3241204,18
3241828,19
3242460,19
3243088,25
3243704,28
3244336,24
3244960,17
3245584,11
3246212,10
3246832,13
3247460,16
3248084,15
3248708,15
3249340,14
3249960,13
3250588,11
3251220,10
3251840,11
3252468,12
3253092,12
3253724,20
3254356,24
3254976,21
3255608,17
3256232,15
3256856,15
3257484,15
3258104,14
3258732,20
3259360,20
3259984,25
3260612,19
3261232,17
3261864,15
3262492,11
3263112,11
3263744,16
3264368,17
3264996,17
3265628,14
3266248,15
3266876,13
3267504,12
3268128,12
3268756,12
3269376,18
3270004,21
3270632,18
3271256,17
3271888,16
3272504,17
3273136,18
3273764,18
3274384,19
3275016,21
3275640,17
3276272,12
3276904,12
3277516,14
3278148,27
3278768,26
3279388,11
3280016,11
3280636,15
3281264,15
3281888,15
3282508,15
3283140,11
3283760,11
3284388,11
3285016,12
3285632,10
3286260,11
3286884,16
3287512,18
3288140,20
3288760,17
3289388,15
3290012,16
3290632,15
3291260,14
3291880,11
3292508,14
3293128,19
3293752,18
3294380,17
3295000,19
3295628,13
3296252,10
3296880,13
3297508,15
3298128,15
3298756,16
3299384,16
3300000,11
3300628,10
3301252,11
3301880,13
3302508,11
3303124,11
3303756,21
3304376,27
3305000,18
3305628,16
3306244,19
3306876,19
3307500,16
3308124,15
3308752,14
3309368,17
3310000,19
3310628,16
3311248,21
3311876,19
3312500,12
3313132,11
3313760,14
3314376,15
3315008,15
3315632,14
3316256,15
3316884,11
3317504,11
3318132,11
3318756,11
3319380,11
3320008,13
3320624,17
3321256,18
3321884,18
3322504,15
3323132,15
3323756,15
3324388,15
3325016,11
3325632,14
3326264,13
3326888,18
3327512,21
3328140,26
3328756,25
3329384,22
3330008,19
3330628,15
3331260,15
3331876,17
3332508,17
3333136,12
3333752,13
3334380,15
3335004,14
3335636,10
3336264,14
3336880,19
3337508,19
3338132,18
3338756,17
3339388,14
3340008,17
3340636,16
3341260,16
3341884,17
3342512,17
3343128,17
3343760,16
3344384,16
3345008,15
3345636,13
3346260,10
3346888,15
3347516,14
3348136,16
3348764,15
3349388,15
3350020,13
3350648,10
3351264,10
3351896,11
3352520,13
3353144,15
3353772,17
3354392,12
3355020,13
3355644,14
3356272,16
3356900,16
3357524,17
3358156,13
3358784,14
3359408,20
3360036,27
3360660,21
3361284,19
3361912,14
3362528,12
3363156,11
3363780,14
3364404,15
3365032,15
3365652,15
3366280,16
3366904,13
3367524,11
3368156,12
3368776,11
3369408,14
3370036,17
3370656,20
3371284,17
3371908,15
3372536,17
3373168,18
3373784,21
3374412,18
3375036,15
3375660,13
3376292,14
3376912,17
3377540,13
3378164,14
3378788,11
3379420,13
3380040,15
3380672,21
3381300,16
3381920,15
3382548,15
3383172,13
3383800,12
3384428,10
3385048,11
3385676,11
3386300,12
3386920,16
3387552,16
3388168,19
3388796,17
3389420,16
3390044,15
3390676,14
3391300,16
3391932,23
3392560,20
3393184,21
3393812,19
3394436,17
3395064,18
3395696,16
3396312,14
3396940,17
3397564,16
3398188,15
3398820,14
3399440,15
3400068,11
3400692,11
3401316,11
3401944,12
3402568,12
3403196,16
3403824,16
3404448,19
3405076,18
3405700,16
3406328,18
3406960,18
3407576,16
3408204,13
3408828,13
3409452,15
3410080,19
3410696,16
3411328,13
3411948,11
3412572,11
3413204,11
3413828,14
3414456,15
3415084,18
3415704,19
3416332,17
3416956,15
3417588,14
3418220,12
3418840,12
3419468,12
3420096,18
3420720,23
3421348,26
3421968,22
3422596,16
3423220,15
3423844,17
3424476,16
3425100,17
3425732,20
3426360,23
3426980,22
3427608,19
3428232,12
3428860,11
3429492,10
3430112,13
3430744,15
3431368,15
3431988,15
3432620,16
3433240,13
3433868,12
3434492,12
3435120,11
3435752,11
3436376,13
3437004,14
3437636,18
3438256,15
3438884,14
3439508,15
3440136,15
3440764,15
3441384,14
3442012,15
3442636,19
3443260,23
3443888,16
3444504,14
3445132,11
3445756,10
3446384,12
3447012,15
3447636,14
3448268,15
3448900,16
3449520,13
3450148,11
3450772,12
3451400,11
3452028,10
3452648,12
3453276,16
3453900,18
3454524,22
3455156,18
3455776,15
3456408,15
3457036,14
3457656,15
3458284,12
3458908,17
3459536,18
3460164,18
3460784,15
3461412,16
3462036,14
3462660,11
3463292,11
3463912,19
3464540,17
3465164,15
3465788,15
3466416,10
3467040,11
3467668,11
3468300,10
3468920,12
3469548,14
3470172,18
3470804,17
3471432,15
3472052,15
3472680,15
3473304,15
3473928,16
3474556,12
3475176,13
3475808,17
3476432,24
3477056,21
3477684,26
3478304,25
3478936,16
3479564,11
3480184,18
3480812,18
3481440,17
3482068,15
3482700,14
3483320,12
3483948,13
3484572,13
3485196,12
3485824,19
3486448,27
3487076,24
3487700,19
3488324,15
3488952,16
3489576,21
3490204,25
3490836,26
3491456,21
3492084,15
3492708,15
3493340,22
3493968,26
3494588,19
3495216,13
3495840,12
3496464,13
3497092,14
3497712,16
3498340,15
3498964,15
3499588,11
3500220,10
3500840,11
3501468,11
3502100,10
3502720,13
3503348,17
3503976,19
3504604,23
3505236,20
3505856,17
3506484,15
3507112,15
3507736,13
3508364,16
3508984,21
3509612,25
3510236,23
3510864,21
3511492,19
3512112,17
3512744,14
3513372,14
3513992,14
3514624,15
3515248,15
3515876,15
3516508,11
3517128,12
3517760,14
3518384,14
3519008,14
3519640,12
3520260,11
3520888,15
3521512,14
3522136,15
3522764,14
3523384,16
3524012,15
3524640,12
3525256,18
3525888,25
3526512,23
3527140,16
3527768,12
3528392,12
3529020,12
3529644,11
3530268,15
3530896,16
3531520,15
3532148,16
3532776,12
3533400,15
3534028,12
3534648,12
3535276,11
3535908,12
3536528,14
3537156,19
3537780,23
3538412,20
3539040,15
3539664,15
3540292,19
3540916,22
3541540,20
3542172,15
3542792,15
3543424,18
3544048,23
3544668,24
3545300,15
3545924,14
3546552,12
3547184,16
3547804,15
3548432,16
3549056,15
3549684,12
3550316,10
3550936,11
3551568,11
3552192,13
3552816,13
3553444,18
3554064,23
3554692,20
3555316,15
3555944,15
3556572,17
3557196,17
3557828,17
3558460,20
3559080,21
3559708,18
3560332,16
3560964,13
3561592,15
3562216,16
3562848,15
3563472,16
3564096,15
3564724,15
3565344,15
3565972,13
3566604,11
3567224,13
3567856,11
3568480,10
3569108,11
3569740,16
3570360,16
3570992,15
3571616,17
3572240,16
3572868,15
3573488,15
3574120,15
3574744,12
3575368,17
3575996,21
3576616,21
3577248,21
3577880,14
3578496,11
3579128,11
3579752,11
3580384,15
3581016,14
3581632,15
3582264,16
3582892,11
3583516,13
3584148,10
3584768,11
3585396,11
3586020,11
3586640,18
3587272,19
3587888,20
3588516,16
3589148,14
3589768,15
3590396,17
3591020,16
3591652,21
3592284,24
3592904,23
3593532,14
3594160,11
3594784,11
3595412,13
3596032,16
3596660,21
3597288,21
3597912,18
3598540,15
3599160,16
3599792,13
3600420,13
3601040,12
3601668,11
3602292,14
3602924,14
3603552,13
3604172,16
3604800,20
3605424,18
3606048,18
3606676,17
3607296,15
3607924,14
3608548,22
3609172,25
3609800,28
3610420,27
3611052,22
3611680,15
3612296,13
3612928,11
3613548,14
3614180,15
3614808,15
3615432,16
3616060,12
3616684,15
3617308,12
3617936,11
3618552,13
3619180,18
3619804,23
3620428,20
3621060,15
3621680,15
3622308,19
3622940,16
3623560,16
3624188,15
3624812,19
3625444,22
3626072,20
3626688,16
3627320,17
3627944,17
3628568,13
3629196,11
3629816,13
3630444,15
3631068,14
3631692,15
3632324,16
3632944,11
3633572,11
3634204,10
3634824,11
3635456,10
3636076,12
3636708,16
3637336,16
3637956,18
3638584,15
3639208,15
3639832,16
3640464,14
3641080,13
3641708,19
3642332,25
3642956,25
3643588,22
3644208,21
3644836,18
3645468,10
3646088,11
3646716,16
3647340,15
3647972,15
3648604,16
3649224,15
3649852,11
3650476,11
3651100,10
3651732,10
3652352,14
3652980,18
3653604,19
3654228,21
3654860,20
3655480,16
3656108,15
3656740,14
3657360,15
3657988,13
3658612,13
3659244,19
3659872,25
3660496,25
3661124,22
3661748,13
3662376,12
3663004,11
3663624,15
3664252,18
3664880,18
3665500,15
3666132,11
3666756,11
3667388,13
3668016,11
3668636,10
3669264,10
3669888,13
3670520,17
3671152,22
3671768,21
3672400,16
3673024,15
3673648,15
3674276,12
3674896,17
3675524,24
3676152,25
3676776,21
3677408,14
3678032,12
3678664,11
3679292,12
3679912,20
3680544,24
3681168,20
3681800,16
3682428,14
3683048,12
3683680,11
3684304,11
3684928,11
3685556,11
3686176,14
3686808,17
3687436,20
3688056,21
3688684,16
3689308,15
3689936,15
3690564,14
3691184,18
3691812,15
3692436,15
3693060,22
3693692,20
3694312,17
3694940,13
3695564,11
3696188,14
3696820,16
3697440,15
3698068,16
3698696,14
3699320,12
3699948,11
3700572,10
3701204,10
3701832,10
3702452,10
3703080,15
3703704,19
3704328,22
3704956,16
3705576,15
3706208,15
3706832,16
3707456,13
3708084,10
3708704,14
3709336,20
3709964,20
3710584,20
3711216,23
3711840,19
3712472,16
3713100,13
3713720,15
3714348,15
3714972,15
3715596,15
3716228,11
3716848,13
3717476,11
3718100,11
3718724,11
3719356,11
3719976,15
3720608,20
3721236,16
3721856,17
3722484,17
3723108,15
3723740,15
3724372,17
3724992,19
3725620,22
3726244,22
3726868,18
3727500,18
3728120,21
3728748,13
3729372,13
3729996,17
3730624,15
3731248,15
3731876,15
3732508,14
3733128,19
3733756,25
3734384,19
3735012,11
3735644,11
3736264,11
3736896,11
3737520,12
3738144,15
3738772,15
3739392,16
3740020,17
3740644,15
3741268,14
3741900,14
3742520,18
3743152,20
3743780,17
3744400,12
3745028,11
3745652,10
3746284,11
3746912,16
3747536,16
3748168,17
3748788,16
3749412,13
3750044,10
3750664,11
3751292,11
3751920,12
3752544,13
3753172,20
3753800,21
3754428,23
3755060,18
3755680,17
3756312,16
3756936,16
3757568,14
3758196,22
3758816,26
3759448,27
3760072,26
3760696,24
3761324,20
3761944,17
3762576,13
3763204,14
3763824,15
3764452,15
3765080,16
3765708,14
3766340,11
3766960,11
3767592,13
3768216,13
3768840,12
3769468,17
3770088,27
3770716,27
3771344,18
3771968,15
3772596,15
3773216,15
3773848,17
3774476,18
3775096,21
3775728,23
3776352,21
3776980,17
3777612,14
3778232,11
3778864,12
3779488,13
3780112,16
3780740,16
3781360,17
3781988,19
3782616,13
3783240,11
3783868,11
3784488,13
3785116,12
3785748,14
3786368,19
3787000,19
3787624,21
3788256,20
3788884,14
3789504,15
3790132,15
3790756,16
3791380,19
3792012,22
3792632,22
3793264,17
3793888,17
3794512,19
3795140,14
3795760,16
3796392,15
3797024,14
3797640,16
3798272,15
3798896,15
3799528,11
3800156,10
3800776,12
3801408,11
3802032,13
3802656,15
3803284,14
3803904,14
3804536,13
3805160,15
3805784,15
3806416,14
3807032,17
3807664,15
3808296,19
3808916,18
3809544,20
3810172,18
3810800,18
3811432,13
3812052,10
3812680,11
3813304,16
3813928,18
3814560,15
3815176,16
3815808,12
3816432,11
3817056,11
3817688,12
3818312,11
3818940,13
3819572,12
3820192,13
3820824,19
3821448,24
3822076,18
3822708,14
3823328,15
3823960,15
3824584,15
3825212,15
3825840,20
3826464,21
3827096,19
3827728,17
3828348,14
3828976,12
3829604,13
3830232,14
3830864,15
3831484,14
3832116,14
3832740,10
3833368,10
3834000,11
3834616,11
3835248,13
3835872,17
3836496,23
3837128,22
3837748,17
3838380,14
3839012,16
3839636,18
3840268,20
3840892,19
3841520,19
3842148,17
3842768,20
3843396,14
3844020,16
3844644,15
3845272,16
3845896,16
3846524,17
3847148,14
3847772,15
3848404,20
3849024,19
3849656,17
3850284,15
3850904,11
3851532,11
3852156,11
3852784,11
3853416,12
3854036,14
3854664,16
3855288,15
3855912,18
3856544,21
3857164,21
3857792,22
3858416,20
3859040,17
3859668,19
3860296,19
3860924,21
3861556,18
3862176,15
3862804,13
3863428,14
3864060,15
3864692,16
3865312,17
3865944,12
3866564,12
3867188,11
3867820,11
3868440,13
3869068,15
3869696,20
3870320,21
3870952,20
3871576,16
3872204,15
3872836,16
3873456,16
3874084,20
3874708,20
3875336,18
3875964,12
3876584,11
3877212,13
3877840,19
3878464,19
3879092,18
3879712,20
3880344,15
3880972,14
3881592,15
3882224,15
3882848,14
3883480,13
3884108,11
3884728,12
3885360,11
3885984,18
3886608,24
3887236,22
3887856,17
3888488,15
3889112,16
3889736,16
3890368,14
3890984,13
3891616,15
3892248,14
3892864,19
3893492,21
3894116,16
3894748,12
3895376,12
3896000,15
3896628,17
3897252,17
3897876,16
3898508,16
3899128,12
3899756,11
3900384,11
3901008,12
3901640,12
3902256,23
3902888,29
3903516,23
3904136,21
3904768,16
3905392,16
3906020,15
3906652,14
3907272,15
3907900,15
3908524,21
3909152,27
3909780,22
3910400,19
3911028,20
3911656,15
3912280,11
3912908,14
3913528,15
3914160,19
3914788,18
3915408,17
3916040,11
3916664,11
3917296,11
3917924,10
3918544,15
3919176,17
3919800,17
3920424,19
3921052,13
3921672,16
3922304,17
3922928,18
3923552,17
3924180,14
3924804,25
3925436,29
3926068,34
3926688,31
3927320,23
3927944,14
3928576,11
3929204,11
3929824,15
3930452,15
3931080,15
3931704,16
3932336,16
3932952,23
3933580,27
3934204,25
3934832,12
3935460,15
3936084,12
3936716,12
3937344,13
3937960,14
3938592,16
3939216,19
3939844,19
3940472,18
3941096,17
3941728,17
3942352,18
3942976,19
3943604,16
3944224,15
3944852,12
3945484,10
3946104,13
3946732,16
3947356,17
3947988,15
3948620,16
3949240,15
3949868,12
3950492,11
3951120,11
3951748,10
3952368,13
3952996,16
3953620,17
3954244,17
3954876,14
3955496,15
3956124,16
3956756,17
3957376,15
3958008,15
3958632,16
3959260,17
3959892,16
3960512,15
3961140,15
3961768,15
3962392,16
3963020,19
3963640,17
3964268,16
3964896,15
3965520,18
3966148,20
3966768,18
3967400,14
3968028,10
3968648,13
3969276,11
3969900,14
3970528,14
3971160,16
3971780,17
3972412,15
3973036,15
3973660,15
3974288,13
3974912,17
3975540,16
3976164,18
3976788,23
3977420,32
3978040,27
3978668,18
3979300,18
3979920,20
3980552,16
3981176,16
3981804,15
3982436,10
3983056,13
3983688,13
3984312,11
3984936,12
3985564,14
3986184,22
3986816,22
3987440,21
3988064,16
3988692,15
3989316,15
3989948,15
3990580,11
3991200,15
3991832,21
3992456,21
3993088,17
3993720,22
3994336,31
3994964,24
3995588,13
3996216,16
3996844,15
3997464,15
3998092,15
3998720,14
3999344,10
3999976,11
4000600,13
4001228,15
4001860,11
4002480,12
4003108,14
4003732,24
4004360,27
4004988,16
4005608,18
4006236,19
4006860,21
4007484,26
4008116,30
4008736,20
4009364,15
4009996,12
4010616,14
4011244,11
4011868,12
4012500,11
4013128,16
4013752,19
4014384,16
4015008,15
4015628,13
4016260,12
4016880,11
4017508,13
4018132,12
4018756,13
4019388,18
4020008,22
4020636,19
4021264,15
4021888,15
4022516,17
4023140,17
4023772,18
4024400,21
4025016,22
4025648,21
4026272,20
4026896,17
4027524,12
4028144,13
4028772,11
4029400,15
4030024,16
4030652,16
4031272,15
4031904,15
4032532,11
4033152,11
4033780,12
4034404,11
4035036,11
4035664,12
4036288,16
4036916,17
4037540,21
4038164,19
4038796,14
4039416,16
4040044,16
4040668,11
4041292,17
4041924,23
4042544,29
4043172,32
4043804,32
4044424,18
4045056,11
4045676,11
4046308,17
4046936,17
4047560,17
4048188,15
4048812,11
4049436,11
4050068,14
4050688,14
4051316,10
4051940,13
4052568,19
4053196,23
4053816,20
4054448,16
4055076,14
4055696,15
4056324,15
4056948,18
4057580,26
4058212,26
4058832,25
4059460,21
4060088,17
4060712,13
4061340,11
4061960,13
4062592,15
4063216,17
4063840,15
4064472,15
4065096,15
4065724,13
4066356,12
4066976,12
4067608,11
4068232,11
4068860,11
4069492,16
4070112,19
4070744,20
4071368,16
4071992,15
4072624,18
4073240,18
4073872,16
4074504,13
4075120,19
4075752,21
4076376,19
4077008,17
4077636,15
4078256,12
4078888,12
4079512,15
4080136,15
4080764,16
4081384,18
4082016,17
4082640,11
4083264,13
4083892,16
4084512,16
4085140,13
4085772,16
4086392,15
4087024,15
4087648,18
4088280,15
4088908,15
4089528,15
4090160,16
4090784,14
4091408,26
4092040,35
4092656,34
4093288,25
4093916,13
4094540,11
4095172,11
4095792,11
4096428,15
4097052,15
4097668,15
4098296,15
4098916,11
4099544,13
4100172,15
4100788,12
4101420,10
4102040,11
4102664,17
4103292,19
4103912,21
4104540,16
4105160,15
4105784,15
4106412,14
4107028,12
4107660,15
4108280,22
4108904,27
4109532,23
4110156,18
4110784,18
4111412,12
4112032,11
4112660,15
4113280,14
4113912,17
4114540,16
4115160,15
4115788,11
4116412,11
4117036,12
4117664,12
4118284,15
4118912,19
4119536,19
4120160,22
4120788,18
4121412,15
4122040,16
4122668,16
4123288,15
4123916,15
4124540,19
4125168,24
4125796,30
4126416,28
4127044,20
4127668,12
4128292,10
4128920,10
4129536,16
4130164,17
4130788,15
4131412,15
4132040,13
4132664,13
4133292,11
4133920,11
4134544,11
4135172,11
4135796,17
4136428,22
4137056,24
4137672,18
4138300,17
4138924,18
4139548,17
4140176,17
4140792,13
4141424,13
4142048,16
4142672,19
4143300,18
4143920,16
4144548,14
4145180,12
4145800,13
4146428,16
4147052,15
4147684,16
4148312,15
4148928,11
4149560,12
4150184,11
4150808,11
4151436,10
4152056,13
4152684,17
4153308,13
4153932,15
4154560,14
4155184,15
4155812,16
4156444,17
4157064,13
4157692,15
4158316,21
4158948,21
4159580,18
4160200,16
4160828,16
4161448,12
4162072,12
4162700,14
4163320,14
4163948,15
4164572,16
4165192,14
4165824,10
4166440,11
4167068,12
4167696,10
4168320,12
4168948,19
4169568,22
4170200,25
4170828,22
4171448,17
4172076,15
4172700,16
4173324,19
4173956,22
4174576,25
4175204,24
4175828,24
4176452,19
4177084,14
4177704,14
4178332,11
4178964,12
4179584,16
4180212,15
4180836,15
4181464,15
4182092,12
4182712,11
4183340,12
4183964,11
4184588,11
4185216,15
4185840,24
4186468,24
4187092,25
4187716,19
4188344,14
4188968,16
4189596,16
4190224,15
4190848,18
4191476,18
4192100,18
4192732,21
4193360,20
4193976,17
4194608,13
4195228,11
4195852,14
4196484,14
4197104,15
4197732,18
4198360,19
4198984,16
4199612,14
4200232,21
4200860,23
4201488,17
4202112,11
4202740,17
4203364,21
4203992,21
4204624,17
4205240,17
4205868,16
4206492,28
4207116,25
4207744,15
4208368,17
4208996,18
4209620,16
4210244,20
4210872,19
4211496,14
4212124,13
4212756,16
4213376,15
4214004,15
4214628,15
4215260,13
4215888,12
4216508,12
4217136,11
4217760,15
4218384,20
4219012,25
4219632,23
4220260,27
4220884,23
4221508,15
4222136,18
4222760,23
4223388,22
4224020,22
4224636,23
4225268,20
4225892,17
4226520,15
4227148,12
4227768,13
4228396,13
4229020,15
4229644,18
4230272,16
4230896,15
4231524,15
4232148,11
4232772,11
4233400,12
4234024,14
4234652,13
4235284,14
4235904,17
4236532,16
4237160,15
4237788,14
4238420,15
4239040,15
4239668,16
4240292,22
4240916,31
4241548,24
4242168,27
4242796,22
4243420,23
4244044,17
4244672,11
4245296,13
4245924,17
4246556,18
4247176,15
4247804,15
4248432,14
4249060,11
4249692,10
4250312,11
4250940,17
4251564,26
4252188,33
4252816,29
4253440,23
4254068,22
4254692,16
4255316,22
4255948,23
4256568,23
4257196,18
4257828,14
4258448,14
4259076,16
4259704,19
4260332,18
4260960,11
4261584,16
4262212,20
4262836,22
4263460,19
4264088,16
4264704,14
4265336,11
4265960,13
4266580,13
4267212,12
4267832,16
4268460,18
4269092,20
4269712,24
4270340,20
4270964,15
4271596,15
4272228,16
4272848,19
4273476,16
4274100,17
4274724,21
4275356,27
4275976,25
4276604,19
4277228,16
4277852,11
4278484,10
4279104,14
4279736,15
4280368,14
4280984,16
4281612,16
4282236,14
4282864,13
4283492,11
4284112,12
4284740,10
4285368,12
4285992,14
4286620,15
4287240,14
4287868,14
4288496,15
4289116,15
4289748,15
4290372,15
4291004,14
4291632,15
4292248,17
4292880,18
4293504,15
4294132,11
4294764,10
4295384,14
4296012,22
4296636,22
4297260,16
4297892,14
4298512,13
4299144,13
4299768,11
4300392,11
4301024,11
4301644,11
4302276,14
4302904,18
4303524,19
4304152,15
4304776,15
4305404,15
4306032,15
4306656,17
4307284,16
4307908,20
4308532,21
4309160,18
4309776,18
4310408,19
4311032,13
4311656,13
4312284,17
4312912,17
4313540,15
4314172,16
4314792,16
4315424,16
4316048,14
4316676,11
4317308,12
4317928,13
4318560,11
4319184,12
4319808,19
4320440,23
4321056,18
4321684,16
4322316,14
4322936,18
4323564,20
4324188,23
4324820,22
4325448,27
4326064,23
4326696,21
4327320,16
4327944,13
4328572,11
4329192,14
4329820,15
4330444,15
4331068,15
4331700,12
4332320,12
4332948,12
4333580,10
4334200,11
4334828,11
4335452,11
4336084,14
4336712,15
4337336,16
4337964,16
4338592,16
4339216,16
4339844,16
4340464,15
4341096,15
4341720,15
4342344,16
4342972,16
4343592,15
4344224,13
4344852,14
4345472,16
4346104,20
4346728,23
4347356,19
4347988,14
4348608,11
4349236,11
4349864,11
4350488,11
4351116,13
4351736,19
4352368,21
4352992,23
4353616,19
4354244,14
4354864,16
4355492,17
4356124,15
4356744,14
4357372,18
4357996,22
4358628,26
4359256,24
4359880,20
4360508,13
4361132,10
4361756,11
4362388,14
4363008,15
4363636,15
4364260,16
4364884,15
4365512,12
4366136,15
4366764,14
4367396,10
4368016,13
4368644,14
4369268,18
4369896,24
4370528,23
4371144,16
4371776,16
4372400,17
4373024,15
4373656,14
4374272,17
4374904,13
4375528,13
4376152,14
4376784,17
4377400,11
4378032,12
4378660,14
4379280,21
4379908,21
4380536,19
4381164,16
4381796,11
4382416,12
4383048,12
4383672,13
4384296,13
4384924,14
4385544,24
4386172,25
4386796,21
4387424,17
4388052,15
4388676,16
4389308,15
4389936,13
4390560,21
4391188,30
4391816,29
4392444,21
4393076,16
4393696,18
4394324,16
4394948,13
4395576,15
4396204,14
4396824,15
4397452,15
4398076,14
4398704,11
4399336,11
4399960,12
4400592,15
4401224,17
4401844,16
4402472,19
4403096,17
4403720,11
4404348,15
4404968,15
4405596,15
4406220,15
4406844,11
4407476,11
4408096,13
4408724,17
4409356,22
4409976,25
4410604,20
4411228,13
4411860,11
4412492,17
4413112,15
4413744,15
4414368,15
4414992,16
4415624,14
4416240,10
4416872,11
4417496,16
4418120,16
4418748,11
4419368,15
4419996,12
4420628,16
4421248,16
4421876,16
4422504,15
4423132,15
4423764,14
4424384,19
4425012,17
4425636,12
4426260,14
4426888,16
4427504,14
4428136,11
4428760,13
4429384,16
4430012,16
4430632,17
4431260,15
4431892,10
4432512,11
4433140,12
4433764,13
4434396,15
4435028,13
4435648,14
4436276,11
4436900,12
4437524,15
4438156,14
4438776,17
4439408,15
4440032,15
4440656,25
4441284,27
4441904,26
4442532,24
4443164,20
4443784,15
4444416,12
4445040,12
4445668,16
4446300,14
4446920,15
4447548,15
4448176,14
4448800,11
4449428,10
4450048,13
4450676,13
4451300,11
4451928,12
4452556,12
4453176,18
4453808,17
4454436,14
4455056,15
4455684,15
4456308,16
4456940,16
4457568,20
4458192,19
4458824,20
4459448,15
4460072,13
4460704,11
4461320,10
4461952,13
4462576,16
4463200,15
4463832,15
4464456,15
4465088,11
4465716,10
4466336,13
4466968,15
4467592,14
4468220,12
4468852,14
4469472,14
4470104,15
4470728,16
4471352,17
4471984,16
4472604,17
4473232,15
4473864,15
4474488,16
4475120,19
4475744,19
4476376,15
4477004,12
4477624,14
4478256,15
4478880,22
4479504,20
4480136,17
4480752,15
4481380,14
4482004,12
4482628,11
4483256,11
4483872,11
4484504,13
4485132,17
4485752,21
4486380,25
4487004,23
4487636,16
4488264,16
4488888,20
4489516,18
4490140,16
4490764,15
4491396,14
4492016,16
4492644,15
4493268,17
4493896,12
4494524,10
4495144,13
4495776,18
4496404,14
4497024,15
4497652,14
4498276,12
4498908,11
4499540,11
4500160,11
4500788,13
4501416,11
4502040,12
4502672,13
4503288,17
4503920,16
4504544,18
4505168,19
4505800,18
4506416,18
4507044,16
4507672,16
4508296,20
4508924,26
4509548,22
4510176,22
4510808,15
4511424,14
4512056,13
4512680,15
4513300,15
4513932,15
4514552,15
4515180,12
4515808,11
4516432,12
4517060,11
4517680,13
4518308,13
4518940,22
4519560,26
4520188,21
4520812,15
4521444,15
4522072,17
4522696,21
4523324,21
4523952,21
4524576,20
4525204,16
4525824,13
4526456,12
4527076,13
4527700,11
4528332,10
4528952,15
4529580,18
4530212,17
4530832,17
4531464,13
4532088,12
4532716,11
4533348,11
4533968,11
4534596,11
4535224,13
4535848,17
4536476,23
4537096,21
4537724,15
4538348,15
4538976,16
4539604,17
4540228,19
4540860,16
4541492,21
4542112,27
4542744,25
4543368,24
4543996,12
4544632,12
4545248,13
4545880,17
4546504,15
4547128,16
4547756,14
4548376,12
4549004,11
4549632,11
4550256,11
4550888,11
4551512,14
4552144,15
4552772,16
4553392,18
4554024,17
4554648,16
4555272,16
4555904,15
4556520,13
4557152,19
4557776,22
4558400,25
4559032,21
4559652,16
4560280,16
4560912,13
4561528,12
4562160,15
4562784,15
4563412,15
4564044,14
4564664,16
4565292,12
4565916,12
4566544,13
4567172,13
4567792,17
4568424,16
4569048,18
4569672,18
4570300,14
4570920,15
4571548,15
4572180,15
4572800,16
4573428,12
4574056,14
4574684,15
4575316,19
4575936,16
4576568,16
4577192,16
4577820,15
4578448,14
4579072,16
4579704,16
4580328,16
4580952,16
4581584,12
4582204,11
4582832,15
4583464,12
4584084,11
4584712,11
4585340,14
4585968,17
4586600,16
4587220,15
4587852,15
4588476,15
4589100,15
4589728,12
4590352,11
4590984,12
4591608,18
4592232,23
4592860,25
4593484,24
4594116,17
4594744,12
4595368,15
4595996,15
4596620,15
4597252,17
4597884,16
4598504,13
4599132,15
4599760,12
4600384,11
4601012,12
4601632,17
4602260,21
4602892,21
4603512,21
4604144,15
4604768,15
4605400,15
4606028,15
4606648,14
4607280,23
4607904,27
4608528,28
4609160,22
4609776,21
4610404,17
4611028,12
4611652,12
4612280,16
4612900,15
4613528,15
4614156,14
4614776,13
4615404,16
4616028,11
4616656,11
4617288,13
4617904,14
4618532,20
4619156,24
4619784,25
4620412,21
4621032,16
4621660,16
4622284,19
4622908,23
4623540,24
4624160,23
4624788,21
4625420,16
4626040,14
4626668,13
4627292,11
4627924,11
4628552,14
4629176,19
4629804,15
4630428,15
4631052,15
4631684,10
4632304,11
4632936,12
4633560,11
4634184,11
4634812,13
4635432,20
4636060,17
4636692,16
4637312,15
4637944,15
4638568,16
4639196,15
4639828,14
4640448,17
4641076,23
4641700,24
4642324,18
4642952,14
4643576,13
4644204,10
4644828,11
4645452,14
4646084,15
4646704,17
4647332,15
4647964,13
4648584,14
4649212,11
4649836,13
4650468,16
4651096,11
4651716,16
4652344,21
4652968,22
4653592,22
4654224,16
4654844,15
4655472,16
4656096,14
4656720,15
4657352,27
4657972,29
4658600,30
4659232,27
4659848,25
4660476,17
4661100,15
4661732,12
4662364,14
4662984,15
4663612,16
4664240,15
4664864,12
4665492,12
4666112,13
4666740,11
4667368,11
4667992,13
4668624,18
4669240,17
4669872,17
4670500,14
4671120,15
4671752,16
4672376,16
4673004,14
4673636,14
4674256,17
4674884,23
4675508,22
4676132,19
4676764,16
4677384,13
4678012,11
4678640,15
4679264,15
4679892,15
4680516,14
4681148,15
4681776,10
4682400,11
4683028,10
4683652,11
4684284,12
4684916,13
4685536,16
4686164,21
4686788,20
4687412,15
4688044,14
4688664,16
4689292,16
4689916,16
4690544,19
4691172,22
4691800,25
4692428,25
4693060,22
4693680,13
4694312,12
4694936,11
4695560,15
4696192,15
4696808,15
4697440,17
4698064,17
4698688,13
4699320,10
4699936,10
4700568,11
4701196,13
4701816,22
4702448,24
4703072,21
4703704,17
4704336,16
4704952,15
4705584,17
4706208,16
4706832,17
4707464,22
4708080,21
4708712,15
4709336,15
4709964,19
4710596,18
4711216,15
4711844,15
4712476,14
4713096,15
4713724,16
4714352,15
4714980,13
4715612,10
4716232,11
4716864,12
4717484,12
4718112,17
4718740,19
4719360,22
4719992,17
4720616,15
4721240,16
4721868,21
4722488,19
4723116,19
4723748,18
4724368,21
4725000,25
4725624,21
4726252,12
4726884,11
4727504,11
4728136,12
4728760,17
4729384,20
4730016,15
4730632,16
4731264,13
4731888,11
4732516,11
4733144,12
4733772,12
4734400,15
4735032,15
4735652,16
4736284,15
4736908,15
4737540,17
4738168,18
4738788,18
4739416,14
4740044,10
4740668,13
4741296,19
4741916,20
4742544,22
4743176,20
4743796,13
4744424,13
4745052,17
4745680,19
4746308,17
4746928,15
4747560,17
4748184,13
4748808,11
4749436,13
4750056,13
4750688,16
4751312,22
4751936,21
4752568,20
4753188,19
4753816,15
4754448,15
4755068,15
4755700,17
4756324,19
4756952,21
4757584,20
4758204,21
4758836,18
4759460,13
4760084,13
4760716,12
4761336,12
4761968,16
4762592,17
4763216,15
4763844,15
4764464,15
4765092,11
4765724,10
4766344,11
4766976,14
4767600,17
4768232,16
4768860,16
4769480,16
4770108,17
4770736,16
4771360,17
4771992,15
4772608,15
4773240,14
4773864,19
4774488,20
4775116,20
4775736,17
4776368,16
4776996,10
4777616,12
4778244,11
4778868,15
4779500,15
4780132,15
4780752,15
4781384,16
4782008,12
4782632,11
4783264,13
4783884,14
4784512,17
4785140,18
4785764,19
4786396,18
4787020,15
4787652,19
4788284,21
4788904,20
4789536,16
4790160,21
4790792,17
4791424,21
4792040,18
4792672,14
4793296,12
4793924,11
4794552,10
4795176,16
4795808,18
4796440,14
4797060,15
4797688,15
4798316,13
4798948,12
4799580,12
4800200,11
4800832,12
4801456,14
4802076,13
4802708,10
4803328,13
4803956,15
4804580,15
4805204,19
4805836,16
4806456,13
4807084,16
4807716,19
4808336,30
4808964,34
4809588,33
4810220,20
4810852,12
4811472,15
4812104,15
4812728,15
4813352,15
4813980,15
4814600,11
4815228,11
4815852,12
4816476,13
4817108,14
4817732,15
4818364,15
4818992,16
4819612,17
4820240,16
4820864,15
4821492,18
4822124,24
4822744,21
4823372,19
4824000,21
4824624,18
4825252,14
4825872,13
4826500,13
4827124,11
4827752,11
4828380,13
4829008,18
4829636,19
4830268,16
4830888,15
4831520,11
4832144,11
4832772,11
4833404,12
4834024,17
4834652,20
4835276,24
4835900,21
4836532,16
4837152,16
4837780,17
4838412,18
4839032,17
4839660,21
4840288,28
4840916,28
4841548,24
4842168,16
4842796,12
4843424,13
4844048,11
4844676,11
4845296,17
4845924,17
4846548,15
4847176,16
4847804,12
4848424,11
4849052,14
4849684,11
4850304,12
4850936,14
4851560,16
4852188,16
4852820,17
4853440,18
4854072,16
4854696,19
4855320,17
4855952,15
4856568,16
4857200,25
4857824,26
4858448,19
4859080,16
4859696,21
4860328,17
4860960,12
4861576,14
4862208,18
4862832,16
4863464,15
4864096,15
4864712,12
4865340,10
4865964,11
4866588,10
4867220,12
4867840,20
4868468,25
4869092,26
4869720,25
4870348,18
4870968,16
4871596,15
4872228,16
4872848,19
4873480,24
4874104,25
4874736,29
4875364,25
4875984,18
4876616,13
4877240,12
4877864,9
4878440,14
4879068,15
4879696,15
4880324,15
4880944,15
4881576,11
4882196,11
4882824,11
4883452,10
4884076,13
4884704,19
4885328,26
4885960,24
4886588,21
4887208,16
4887836,15
4888464,17
4889092,17
4889724,16
4890344,21
4890972,21
4891600,20
4892224,20
4892852,20
4893472,17
4894104,17
4894732,14
4895352,15
4895984,16
4896608,15
4897236,16
4897868,13
4898488,12
4899120,11
4899744,11
4900368,11
4901000,16
4901616,22
4902248,27
4902872,23
4903496,16
4904128,14
4904744,15
4905376,16
4906008,14
4906628,23
4907260,25
4907884,23
4908516,19
4909148,19
4909768,17
4910400,11
4911024,12
4911648,14
4912280,16
4912904,15
4913536,15
4914160,15
4914788,11
4915420,11
4916044,12
4916672,13
4917300,18
4917920,20
4918548,16
4919172,14
4919804,13
4920432,24
4921052,18
4921680,17
4922304,15
4922928,12
4923556,12
4924176,19
4924804,19
4925428,17
4926052,21
4926684,16
4927308,13
4927936,11
4928568,14
4929192,15
4929820,15
4930444,15
4931072,12
4931704,11
4932320,11
4932952,11
4933576,11
4934200,12
4934828,20
4935448,23
4936076,25
4936700,18
4937328,17
4937956,22
4938580,27
4939212,21
4939844,15
4940464,15
4941096,20
4941716,23
4942344,22
4942972,16
4943592,15
4944224,13
4944844,15
4945468,15
4946100,14
4946720,15
4947348,15
4947980,11
4948600,13
4949228,11
4949852,11
4950484,13
4951116,18
4951736,25
4952368,29
4952992,26
4953616,16
4954244,14
4954864,15
4955496,15
4956120,11
4956744,11
4957376,11
4957992,17
4958624,23
4959256,21
4959872,13
4960504,12
4961128,13
4961756,14
4962388,16
4963008,19
4963636,24
4964264,20
4964888,15
4965516,13
4966136,15
4966768,11
4967388,12
4968012,17
4968640,20
4969264,21
4969892,19
4970524,16
4971144,17
4971776,16
4972400,17
4973028,19
4973660,22
4974280,23
4974908,21
4975536,24
4976160,32
4976788,25
4977408,14
4978036,11
4978660,16
4979284,16
4979916,16
4980536,16
4981164,12
4981796,11
4982416,12
4983044,11
4983668,13
4984300,17
4984932,24
4985552,29
4986184,31
4986808,21
4987432,15
4988064,17
4988680,16
4989312,15
4989936,21
4990560,23
4991192,23
4991816,21
4992448,23
4993076,20
4993696,14
4994324,11
4994948,15
4995580,17
4996212,16
4996832,15
4997460,15
4998084,10
4998708,11
4999340,10
4999960,11
5000592,13
5001216,18
5001840,19
5002468,20
5003092,18
5003724,16
5004356,14
5004976,16
5005604,16
5006228,18
5006856,23
5007484,21
5008104,27
5008732,24
5009356,13
5009980,12
5010612,10
5011232,17
5011860,20
5012492,18
5013112,17
5013744,16
5014368,11
5015000,11
5015632,11
5016252,10
5016880,10
5017508,12
5018132,18
5018764,20
5019384,22
5020012,17
5020640,15
5021264,16
5021892,14
5022512,13
5023144,17
5023772,24
5024392,21
5025020,17
5025648,13
5026276,13
5026908,10
5027528,11
5028160,16
5028780,17
5029408,18
5030036,14
5030656,19
5031288,17
5031912,13
5032536,11
5033168,10
5033788,11
5034416,13
5035048,19
5035668,27
5036300,26
5036924,19
5037556,15
5038188,14
5038808,17
5039436,12
5040064,17
5040688,25
5041316,31
5041936,24
5042568,17
5043192,14
5043816,13
5044448,18
5045072,22
5045700,21
5046332,20
5046952,23
5047584,19
5048208,11
5048840,10
5049468,12
5050088,14
5050720,13
5051344,19
5051968,21
5052600,20
5053220,19
5053848,19
5054480,18
5055104,17
5055736,16
5056360,13
5056992,21
5057624,29
5058240,28
5058872,25
5059496,19
5060120,11
5060752,12
5061368,12
5062000,15
5062624,15
5063248,15
5063880,16
5064496,12
5065128,15
5065760,14
5066376,13
5067008,11
5067636,17
5068268,23
5068900,26
5069520,20
5070152,16
5070776,20
5071400,22
5072032,16
5072648,11
5073280,11
5073904,12
5074528,13
5075160,13
5075784,17
5076416,16
5077048,14
5077668,11
5078300,16
5078928,17
5079560,15
5080192,16
5080808,15
5081436,11
5082064,11
5082688,12
5083320,10
5083936,14
5084568,19
5085196,20
5085816,19
5086448,19
5087072,16
5087704,16
5088336,16
5088952,17
5089584,22
5090208,28
5090832,30
5091464,29
5092080,26
5092712,21
5093336,14
5093964,10
5094596,11
5095216,16
5095848,15
5096476,16
5097096,15
5097728,12
5098352,12
5098984,11
5099616,11
5100232,11
5100864,10
5101488,17
5102112,25
5102744,16
5103364,14
5103992,15
5104620,15
5105248,17
5105880,13
5106504,17
5107136,24
5107768,28
5108388,25
5109020,23
5109644,20
5110276,12
5110912,11
5111532,16
5112164,15
5112788,17
5113416,22
5114048,20
5114668,15
5115300,15
5115932,10
5116556,11
5117188,11
5117812,11
5118448,11
5119080,12
5119700,16
5120332,15
5120956,15
5121580,15
5122208,15
5122824,11
5123452,12
5124076,11
5124696,21
5125328,24
5125944,24
5126572,23
5127200,18
5127824,16
5128452,16
5129076,17
5129704,15
5130332,14
5130952,12
5131580,10
5132204,11
5132828,11
5133456,12
5134072,14
5134700,23
5135324,24
5135952,24
5136580,17
5137200,16
5137828,16
5138460,14
5139080,13
5139708,13
5140332,19
5140964,21
5141592,22
5142212,20
5142840,19
5143464,13
5144088,11
5144716,14
5145336,15
5145968,16
5146588,15
5147212,15
5147844,10
5148464,11
5149092,11
5149724,10
5150344,13
5150976,15
5151600,16
5152228,18
5152860,19
5153480,16
5154108,15
5154732,16
5155356,17
5155988,17
5156608,24
5157236,19
5157860,20
5158488,17
5159116,14
5159736,12
5160364,12
5160996,12
5161616,20
5162244,18
5162868,15
5163496,16
5164124,12
5164744,12
5165376,11
5166000,12
5166624,15
5167252,22
5167872,32
5168504,29
5169128,15
5169748,17
5170380,22
5171000,18
5171632,16
5172260,16
5172880,16
5173508,19
5174132,19
5174764,13
5175392,13
5176012,16
5176640,17
5177264,13
5177888,16
5178516,20
5179136,19
5179768,17
5180392,15
5181016,12
5181648,12
5182264,12
5182892,11
5183524,12
5184144,16
5184772,20
5185396,19
5186028,21
5186656,15
5187272,15
5187904,19
5188528,16
5189152,16
5189780,19
5190400,25
5191028,20
5191656,15
5192280,17
5192908,16
5193528,12
5194160,11
5194788,15
5195408,21
5196040,19
5196664,18
5197296,13
5197924,10
5198544,11
5199176,11
5199800,12
5200424,12
5201052,16
5201672,20
5202300,23
5202924,22
5203548,15
5204180,15
5204804,18
5205432,20
5206064,17
5206680,19
5207308,17
5207932,15
5208564,13
5209196,14
5209816,13
5210444,11
5211068,11
5211692,15
5212324,16
5212944,19
5213572,19
5214200,13
5214824,11
5215452,11
5216080,12
5216708,12
5217340,16
5217960,18
5218588,19
5219212,22
5219844,18
5220472,14
5221096,18
5221728,17
5222352,19
5222976,22
5223608,20
5224224,22
5224856,19
5225484,19
5226104,20
5226732,13
5227356,12
5227988,15
5228620,14
5229240,15
5229868,15
5230492,15
5231116,13
5231748,11
5232368,12
5232996,11
5233620,14
5234244,15
5234876,12
5235496,15
5236124,17
5236756,14
5237376,15
5238008,16
5238632,16
5239260,18
5239892,29
5240512,36
5241144,31
5241768,21
5242392,15
5243024,12
5243640,15
5244268,15
5244892,15
5245516,15
5246144,14
5246760,14
5247388,11
5248020,10
5248636,11
5249264,12
5249888,15
5250516,14
5251144,14
5251768,15
5252396,19
5253020,17
5253644,15
5254272,16
5254892,15
5255520,16
5256144,17
5256764,14
5257396,16
5258016,19
5258644,23
5259272,22
5259896,16
5260524,11
5261148,13
5261780,14
5262408,15
5263024,18
5263652,16
5264276,13
5264900,13
5265532,12
5266152,15
5266780,12
5267404,11
5268028,15
5268656,20
5269280,19
5269908,15
5270540,14
5271160,15
5271788,15
5272412,12
5273044,17
5273676,22
5274296,23
5274924,20
5275548,16
5276172,13
5276800,11
5277416,11
5278044,15
5278668,15
5279296,15
5279924,16
5280544,14
5281172,11
5281804,10
5282424,11
5283052,10
5283676,12
5284304,19
5284936,17
5285552,19
5286180,16
5286804,16
5287428,17
5288060,16
5288680,16
5289308,12
5289928,15
5290552,17
5291184,22
5291800,21
5292432,19
5293060,19
5293680,20
5294308,16
5294932,16
5295564,14
5296192,16
5296808,16
5297440,11
5298064,11
5298692,10
5299324,10
5299944,14
5300572,16
5301196,19
5301820,21
5302448,19
5303072,15
5303700,19
5304332,18
5304952,17
5305580,17
5306204,21
5306836,21
5307464,21
5308088,18
5308716,15
5309344,14
5309968,11
5310596,11
5311216,17
5311848,18
5312472,19
5313096,17
5313724,14
5314344,11
5314976,15
5315604,18
5316224,15
5316852,15
5317476,15
5318108,17
5318740,14
5319360,13
5319988,16
5320616,16
5321240,15
5321868,15
5322488,15
5323116,15
5323744,16
5324368,19
5325000,14
5325616,11
5326244,11
5326872,13
5327488,13
5328116,15
5328740,16
5329368,16
5329996,14
5330616,12
5331244,11
5331868,11
5332488,11
5333120,10
5333736,13
5334364,17
5334992,16
5335616,15
5336244,14
5336864,16
5337492,15
5338124,14
5338744,15
5339372,12
5339996,15
5340628,17
5341256,17
5341880,17
5342508,17
5343132,13
5343760,13
5344388,14
5345008,15
5345636,15
5346260,15
5346884,15
5347512,10
5348132,11
5348760,10
5349388,11
5350008,14
5350636,12
5351260,12
5351892,19
5352524,16
5353144,16
5353772,15
5354396,15
5355020,16
5355652,18
5356272,23
5356900,19
5357524,20
5358148,13
5358780,10
5359400,11
5360028,11
5360660,12
5361280,25
5361908,28
5362532,25
5363164,21
5363796,14
5364416,11
5365044,13
5365668,11
5366296,11
5366924,10
5367544,12
5368172,11
5368796,11
5369420,15
5370052,16
5370672,16
5371300,15
5371932,14
5372552,15
5373184,17
5373808,18
5374436,17
5375068,18
5375688,19
5376320,15
5376940,11
5377564,12
5378192,14
5378808,16
5379440,18
5380064,17
5380684,11
5381316,10
5381936,12
5382564,12
5383196,14
5383816,15
5384444,16
5385068,20
5385700,20
5386328,17
5386944,18
5387576,18
5388200,16
5388824,17
5389452,22
5390072,31
5390700,29
5391324,21
5391952,18
5392580,17
5393200,11
5393828,13
5394460,14
5395080,15
5395712,17
5396336,17
5396964,17
5397596,11
5398216,11
5398848,12
5399472,13
5400096,13
5400724,15
5401344,18
5401976,22
5402600,15
5403224,15
5403852,18
5404472,17
5405100,18
5405732,17
5406352,20
5406984,19
5407608,17
5408236,15
5408864,18
5409488,16
5410116,11
5410740,12
5411364,15
5411992,14
5412616,15
5413244,15
5413868,12
5414492,11
5415124,11
5415748,11
5416376,10
5417008,13
5417624,14
5418252,16
5418876,21
5419508,19
5420140,14
5420760,16
5421392,16
5422016,13
5422640,11
5423268,21
5423888,33
5424520,38
5425144,31
5425768,15
5426396,14
5427024,14
5427656,14
5428284,14
5428904,17
5429532,18
5430156,16
5430788,12
5431416,11
5432040,11
5432668,11
5433292,13
5433916,16
5434548,15
5435168,18
5435800,21
5436428,16
5437048,15
5437676,16
5438304,16
5438932,14
5439564,18
5440184,19
5440812,23
5441436,24
5442060,21
5442688,18
5443304,12
5443932,11
5444556,14
5445180,15
5445808,14
5446432,16
5447060,12
5447692,10
5448312,11
5448940,11
5449564,15
5450192,11
5450824,12
5451440,15
5452072,20
5452696,21
5453320,17
5453948,16
5454568,17
5455196,15
5455820,16
5456444,19
5457076,22
5457696,26
5458324,19
5458956,16
5459576,11
5460204,11
5460828,13
5461460,17
5462088,17
5462708,17
5463336,16
5463960,11
5464584,10
5465212,10
5465832,12
5466460,13
5467084,11
5467708,13
5468340,16
5468960,19
5469588,15
5470220,16
5470840,16
5471468,15
5472096,13
5472724,16
5473352,26
5473976,32
5474604,25
5475228,19
5475852,15
5476484,10
5477104,11
5477736,18
5478360,19
5478984,18
5479616,16
5480232,14
5480864,12
5481492,11
5482112,12
5482740,13
5483368,13
5483996,19
5484628,21
5485248,24
5485876,25
5486504,19
5487128,15
5487756,19
5488376,21
5489008,25
5489628,30
5490252,34
5490884,20
5491504,17
5492132,19
5492764,12
5493384,11
5494012,11
5494640,16
5495268,15
5495900,15
5496520,16
5497148,12
5497776,13
5498400,13
5499028,11
5499648,11
5500276,11
5500904,15
5501528,17
5502156,20
5502776,19
5503408,16
5504040,16
5504656,16
5505284,15
5505908,18
5506540,21
5507168,24
5507792,19
5508424,16
5509048,11
5509672,13
5510300,11
5510920,14
5511548,15
5512176,15
5512800,16
5513428,15
5514056,13
5514684,13
5515316,14
5515936,15
5516568,11
5517192,12
5517824,15
5518452,21
5519072,19
5519704,17
5520328,16
5520952,16
5521580,18
5522200,16
5522832,17
5523460,18
5524080,21
5524708,18
5525336,15
5525964,11
5526596,10
5527216,11
5527848,16
5528472,17
5529096,17
5529728,15
5530344,12
5530972,11
5531596,11
5532220,13
5532852,18
5533472,20
5534100,19
5534732,20
5535352,23
5535984,16
5536608,19
5537236,18
5537868,16
5538488,15
5539116,15
5539744,25
5540368,30
5540996,24
5541616,20
5542244,13
5542872,11
5543496,12
5544124,18
5544744,21
5545376,17
5546004,15
5546624,20
5547256,14
5547880,11
5548508,11
5549140,11
5549760,13
5550392,17
5551016,23
5551640,21
5552272,18
5552888,15
5553520,17
5554144,17
5554768,16
5555400,14
5556016,27
5556644,33
5557276,24
5557896,19
5558528,20
5559152,17
5559784,11
5560416,11
5561032,13
5561664,15
5562288,15
5562912,17
5563540,15
5564160,13
5564792,11
5565416,12
5566040,13
5566672,19
5567292,25
5567924,23
5568556,22
5569176,20
5569808,16
5570432,16
5571064,15
5571692,14
5572312,12
5572944,21
5573568,27
5574192,30
5574820,29
5575440,27
5576068,18
5576692,13
5577320,15
5577948,17
5578572,17
5579204,15
5579836,14
5580456,14
5581088,15
5581712,17
5582340,19
5582972,22
5583592,23
5584224,27
5584848,27
5585468,21
5586100,14
5586720,18
5587348,21
5587980,19
5588600,22
5589228,25
5589856,27
5590484,26
5591116,17
5591736,15
5592368,13
5592992,14
5593616,15
5594244,16
5594864,15
5595496,16
5596120,16
5596744,15
5597376,10
5597992,10
5598624,10
5599256,10
5599880,18
5600512,21
5601136,17
5601764,17
5602396,17
5603016,16
5603644,15
5604272,16
5604896,16
5605524,14
5606144,19
5606776,21
5607396,18
5608024,17
5608652,14
5609272,12
5609900,12
5610532,10
5611152,15
5611784,17
5612408,17
5613036,15
5613668,10
5614288,12
5614916,11
5615540,11
5616168,11
5616796,10
5617416,15
5618044,17
5618672,18
5619296,17
5619924,15
5620548,17
5621180,17
5621812,18
5622432,21
5623060,25
5623684,28
5624316,26
5624948,24
5625568,25
5626200,15
5626824,12
5627448,17
5628080,14
5628696,15
5629328,19
5629960,16
5630576,11
5631208,17
5631836,12
5632468,10
5633096,15
5633712,23
5634344,21
5634968,15
5635592,16
5636220,16
5636840,17
5637468,18
5638092,17
5638716,10
5639348,12
5639968,15
5640596,21
5641228,19
5641848,25
5642476,17
5643100,10
5643732,11
5644360,14
5644984,17
5645612,23
5646236,28
5646860,19
5647492,13
5648112,12
5648740,11
5649364,13
5649988,21
5650620,33
5651240,42
5651868,43
5652500,30
5653120,21
5653748,15
5654372,16
5655004,17
5655636,14
5656256,17
5656884,16
5657508,18
5658136,22
5658764,16
5659384,11
5660012,11
5660636,13
5661260,16
5661892,14
5662512,17
5663144,25
5663772,26
5664392,19
5665020,13
5665644,29
5666276,27
5666904,12
5667528,18
5668156,29
5668780,20
5669408,16
5670036,16
5670656,18
5671284,15
5671908,17
5672536,30
5673164,34
5673784,50
5674412,52
5675044,38
5675664,24
5676296,12
5676920,11
5677548,14
5678180,14
5678800,39
5679428,51
5680056,42
5680680,25
5681308,12
5681928,11
5682556,17
5683184,12
5683808,13
5684436,11
5685060,12
5685692,14
5686324,16
5686944,15
5687576,17
5688200,29
5688828,59
5689460,60
5690080,53
5690708,33
5691336,26
5691960,22
5692592,19
5693208,25
5693840,29
5694468,16
5695088,25
5695720,40
5696344,39
5696972,31
5697604,11
5698224,21
5698852,30
5699476,31
5700104,25
5700732,16
5701352,11
5701984,15
5702608,19
5703232,25
5703864,25
5704480,27
5705108,19
5705740,10
5706360,12
5706992,12
5707616,15
5708248,17
5708876,16
5709496,10
5710124,17
5710752,21
5711376,25
5712008,23
5712624,25
5713256,27
5713880,31
5714504,29
5715136,20
5715756,13
5716388,15
5717016,17
5717640,20
5718272,15
5718896,17
5719528,40
5720156,59
5720776,60
5721408,47
5722032,41
5722656,28
5723288,17
5723904,13
5724536,15
5725160,17
5725784,15
5726416,10
5727032,10
5727664,14
5728296,14
5728920,15
5729552,15
5730176,12
5730808,12
5731440,14
5732056,19
5732688,26
5733312,30
5733940,33
5734572,26
5735192,19
5735820,15
5736444,16
5737072,20
5737700,20
5738324,18
5738956,18
5739584,18
5740204,19
5740832,17
5741456,17
5742084,20
5742716,14
5743336,12
5743968,15
5744592,15
5745216,15
5745844,16
5746464,18
5747092,13
5747724,11
5748344,14
5748972,12
5749596,14
5750228,12
5750860,12
5751480,17
5752112,21
5752736,17
5753360,17
5753992,17
5754608,15
5755240,14
5755864,19
5756488,22
5757116,25
5757736,21
5758368,19
5759000,14
5759620,10
5760252,11
5760872,14
5761500,15
5762128,14
5762752,15
5763380,12
5764004,11
5764628,10
5765256,11
5765872,11
5766504,11
5767124,11
5767748,11
5768380,12
5769000,15
5769628,15
5770256,15
5770880,16
5771508,15
5772132,14
5772764,17
5773396,30
5774016,28
5774644,15
5775272,11
5775896,11
5776524,11
5777144,12
5777772,14
5778396,15
5779020,19
5779652,18
5780272,12
5780900,11
5781532,10
5782152,11
5782780,13
5783408,15
5784036,17
5784668,16
5785288,16
5785916,14
5786540,16
5787164,16
5787796,17
5788416,16
5789044,21
5789668,21
5790292,21
5790924,16
5791544,15
5792176,11
5792804,10
5793424,10
5794052,14
5794676,15
5795308,15
5795940,14
5796560,13
5797188,11
5797812,11
5798440,10
5799068,10
5799688,12
5800316,17
5800940,21
5801568,24
5802196,26
5802820,18
5803452,15
5804084,16
5804704,22
5805336,25
5805960,23
5806592,21
5807220,19
5807840,13
5808472,11
5809096,13
5809720,23
5810348,25
5810968,20
5811600,17
5812228,15
5812848,18
5813476,29
5814104,41
5814732,40
5815364,28
5815984,16
5816616,11
5817240,17
5817864,25
5818492,28
5819112,23
5819744,18
5820368,17
5820992,15
5821620,14
5822240,17
5822868,21
5823500,22
5824120,21
5824748,16
5825372,15
5826004,12
5826632,11
5827256,24
5827884,23
5828508,16
5829132,14
5829764,18
5830384,14
5831016,12
5831640,11
5832264,11
5832896,11
5833512,17
5834144,21
5834776,22
5835392,22
5836024,17
5836652,15
5837284,14
5837912,14
5838528,16
5839160,26
5839784,29
5840408,27
5841036,20
5841656,17
5842284,13
5842908,10
5843532,12
5844164,14
5844784,18
5845412,16
5846044,15
5846664,11
5847292,11
5847920,12
5848548,12
5849180,10
5849800,13
5850428,12
5851052,11
5851676,12
5852308,16
5852928,17
5853556,15
5854184,17
5854808,19
5855436,18
5856056,19
5856688,26
5857316,26
5857936,25
5858564,20
5859188,11
5859820,10
5860452,14
5861072,16
5861704,15
5862328,15
5862952,15
5863580,11
5864200,11
5864828,11
5865452,11
5866080,15
5866708,13
5867332,17
5867964,19
5868596,20
5869216,15
5869844,14
5870472,18
5871100,16
5871732,15
5872352,18
5872984,24
5873608,24
5874232,19
5874864,18
5875484,15
5876112,11
5876744,10
5877368,14
5878000,15
5878624,16
5879256,16
5879884,14
5880504,12
5881136,13
5881760,17
5882384,13
5883016,10
5883636,18
5884264,23
5884892,27
5885516,23
5886148,18
5886768,14
5887400,15
5888032,15
5888648,17
5889276,20
5889900,28
5890532,27
5891164,22
5891784,22
5892416,14
5893040,11
5893664,15
5894296,18
5894912,23
5895544,20
5896168,17
5896792,17
5897424,15
5898044,10
5898672,10
5899304,11
5899920,11
5900552,17
5901176,17
5901804,13
5902436,16
5903056,15
5903688,16
5904308,23
5904932,24
5905564,22
5906184,26
5906812,27
5907440,21
5908064,13
5908692,11
5909316,11
5909948,13
5910580,16
5911200,19
5911828,17
5912456,17
5913084,12
5913716,10
5914336,12
5914968,11
5915592,11
5916216,13
5916848,18
5917464,26
5918096,26
5918724,18
5919344,15
5919976,16
5920600,17
5921228,15
5921860,14
5922480,17
5923108,20
5923736,27
5924360,23
5924988,13
5925608,11
5926236,13
5926864,13
5927488,15
5928116,14
5928736,15
5929368,15
5929996,10
5930616,11
5931248,11
5931872,11
5932500,11
5933132,13
5933752,19
5934384,19
5935008,19
5935632,20
5936264,17
5936880,14
5937512,16
5938136,17
5938764,21
5939392,22
5940016,26
5940644,24
5941272,19
5941896,18
5942524,14
5943148,11
5943780,14
5944412,14
5945032,15
5945660,15
5946284,15
5946908,13
5947540,14
5948160,13
5948788,11
5949416,11
5950040,12
5950668,11
5951288,15
5951920,14
5952552,14
5953168,15
5953800,16
5954424,15
5955052,13
5955684,16
5956304,19
5956936,22
5957560,15
5958184,14
5958816,14
5959432,11
5960064,12
5960688,16
5961308,15
5961940,15
5962564,15
5963196,11
5963824,12
5964448,14
5965080,13
5965704,11
5966332,13
5966964,20
5967584,24
5968216,23
5968840,19
5969464,15
5970092,16
5970712,15
5971344,14
5971972,12
5972592,15
5973224,21
5973848,21
5974476,21
5975108,27
5975728,24
5976360,19
5976984,17
5977608,16
5978236,15
5978856,17
5979488,17
5980112,14
5980736,13
5981368,15
5981988,19
5982616,21
5983248,25
5983868,22
5984500,19
5985124,11
5985752,20
5986384,23
5987004,23
5987636,20
5988260,17
5988884,17
5989516,20
5990136,26
5990768,27
5991392,25
5992016,19
5992644,13
5993264,13
5993896,17
5994524,16
5995144,15
5995776,16
5996400,12
5997032,11
5997660,11
5998280,13
5998912,15
5999536,13
6000160,14
6000792,16
6001412,18
6002040,19
6002664,15
6003288,15
6003916,17
6004536,18
6005164,17
6005796,14
6006416,16
6007044,16
6007668,14
6008300,14
6008932,14
6009552,13
6010184,16
6010808,18
6011432,15
6012064,15
6012680,14
6013312,12
6013936,16
6014564,12
6015192,11
6015820,15
6016452,15
6017084,16
6017704,23
6018332,22
6018960,15
6019588,15
6020220,15
6020840,15
6021472,11
6022096,16
6022720,21
6023348,27
6023968,25
6024600,19
6025228,13
6025848,12
6026476,11
6027104,16
6027732,19
6028364,18
6028984,16
6029612,14
6030236,13
6030864,14
6031496,10
6032112,11
6032744,13
6033368,17
6033992,15
6034624,16
6035240,16
6035872,15
6036504,15
6037120,16
6037752,17
6038376,15
6039008,19
6039640,22
6040264,20
6040896,15
6041520,13
6042144,11
6042776,10
6043396,11
6044024,15
6044652,15
6045276,16
6045904,17
6046528,13
6047160,11
6047792,10
6048408,12
6049040,12
6049664,12
6050292,13
6050924,16
6051544,19
6052176,15
6052800,15
6053424,15
6054056,15
6054676,13
6055304,14
6055932,20
6056556,23
6057188,22
6057812,21
6058444,24
6059076,22
6059696,18
6060328,16
6060952,15
6061576,15
6062208,15
6062828,15
6063456,11
6064080,11
6064704,12
6065332,13
6065952,20
6066584,19
6067212,17
6067832,19
6068464,17
6069088,15
6069720,15
6070348,15
6070968,15
6071600,12
6072224,14
6072848,15
6073480,16
6074096,13
6074728,14
6075352,15
6075976,17
6076608,18
6077228,19
6077860,17
6078488,14
6079112,16
6079744,13
6080368,11
6081000,11
6081628,10
6082248,12
6082876,13
6083500,15
6084128,13
6084756,14
6085376,17
6086004,16
6086632,16
6087256,19
6087884,21
6088504,26
6089132,25
6089764,23
6090384,22
6091016,15
6091640,14
6092272,11
6092904,11
6093520,13
6094148,15
6094776,15
6095400,16
6096028,14
6096648,13
6097276,10
6097904,13
6098528,11
6099160,15
6099784,21
6100416,22
6101044,20
6101664,16
6102296,14
6102920,15
6103552,16
6104184,16
6104800,13
6105432,16
6106056,20
6106680,23
6107312,13
6107932,12
6108564,14
6109196,15
6109816,13
6110448,17
6111072,17
6111704,17
6112336,16
6112956,12
6113588,11
6114212,10
6114836,11
6115468,11
6116088,13
6116720,17
6117344,15
6117968,16
6118600,16
6119224,15
6119856,15
6120488,15
6121104,14
6121736,18
6122360,21
6122992,21
6123624,19
6124240,18
6124872,20
6125496,13
6126120,11
6126752,13
6127372,14
6128000,15
6128628,16
6129252,15
6129884,11
6130508,11
6131140,11
6131776,10
6132392,11
6133024,14
6133652,18
6134280,20
6134912,19
6135532,15
6136164,15
6136788,15
6137416,16
6138048,11
6138668,11
6139300,16
6139932,22
6140556,16
6141188,17
6141812,16
6142444,14
6143080,12
6143700,15
6144332,16
6144956,15
6145576,15
6146208,12
6146824,10
6147456,11
6148080,12
6148700,11
6149332,11
6149956,16
6150584,17
6151216,19
6151832,18
6152464,16
6153088,15
6153716,15
6154348,14
6154968,14
6155596,20
6156224,25
6156848,24
6157476,18
6158096,21
6158724,13
6159348,10
6159976,12
6160604,15
6161228,15
6161860,15
6162492,14
6163112,10
6163744,12
6164368,11
6164996,11
6165628,10
6166248,13
6166876,19
6167500,21
6168128,23
6168756,16
6169376,15
6170008,16
6170636,18
6171256,17
6171884,17
6172512,20
6173140,19
6173772,18
6174392,17
6175024,17
6175648,15
6176272,13
6176900,18
6177520,17
6178148,15
6178776,15
6179400,14
6180028,10
6180648,12
6181276,13
6181908,12
6182528,11
6183156,19
6183784,25
6184412,27
6185044,30
6185664,22
6186292,16
6186916,15
6187540,15
6188172,13
6188792,17
6189424,23
6190048,25
6190672,23
6191304,19
6191920,17
6192552,16
6193184,16
6193804,18
6194436,16
6195060,16
6195692,15
6196324,12
6196944,10
6197572,11
6198200,12
6198824,12
6199456,12
6200072,18
6200704,20
6201328,16
6201952,15
6202584,15
6203208,16
6203836,15
6204468,12
6205088,13
6205720,15
6206344,17
6206976,15
6207604,14
6208224,15
6208852,11
6209476,11
6210100,16
6210732,14
6211352,15
6211984,16
6212612,16
6213232,11
6213864,12
6214488,14
6215116,12
6215748,12
6216368,14
6217000,16
6217624,16
6218248,19
6218876,18
6219496,16
6220128,15
6220756,18
6221380,25
6222012,31
6222632,34
6223264,33
6223896,23
6224516,21
6225148,19
6225772,14
6226404,15
6227032,15
6227656,15
6228284,15
6228912,15
6229536,12
6230164,11
6230784,11
6231416,11
6232040,13
6232664,14
6233296,17
6233912,19
6234544,22
6235176,18
6235796,15
6236428,15
6237052,16
6237680,18
6238312,20
6238932,20
6239564,19
6240188,19
6240812,15
6241444,14
6242064,11
6242692,11
6243320,13
6243944,15
6244572,15
6245200,15
6245828,15
6246460,10
6247080,11
6247708,11
6248332,11
6248960,11
6249592,13
6250208,17
6250840,18
6251464,17
6252088,15
6252716,14
6253336,15
6253968,15
6254596,14
6255216,14
6255848,18
6256472,21
6257104,21
6257732,20
6258352,19
6258984,13
6259608,11
6260232,14
6260864,14
6261480,15
6262112,15
6262736,13
