tempo_arduino_micro_s,valor_ADC
500,11
1004,11
1504,14
2000,14
2508,13
3000,14
3508,13
4000,12
4508,12
5000,12
5500,10
6000,10
6500,10
7004,11
7500,10
8000,11
8500,10
9000,11
9500,14
10000,17
10516,17
11036,17
11564,16
12084,15
12612,11
13132,11
13660,11
14180,15
14708,12
15228,10
15756,10
16276,11
16796,13
17316,13
17836,13
18356,13
18876,14
19396,14
19916,14
20436,14
20956,10
21476,11
21996,11
22516,11
23036,10
23564,11
24084,12
24612,11
25132,11
25660,14
26180,18
26708,20
27228,18
27756,17
28276,15
28804,13
29324,11
29852,13
30372,12
30900,11
31420,10
31948,11
32472,11
32996,11
33516,10
34044,11
34564,15
35092,15
35612,15
36140,15
36660,14
37188,13
37708,11
38236,11
38760,14
39284,18
39804,15
40332,10
40852,11
41372,12
41892,13
42412,15
42932,14
43452,16
43972,19
44492,22
45012,17
45532,14
46052,12
46572,10
47092,13
47612,13
48140,11
48660,10
49188,12
49708,10
50236,10
50756,12
51284,17
51804,17
52332,19
52852,20
53380,15
53900,12
54428,10
54948,11
55476,11
55996,11
56524,12
57044,12
57572,12
58096,11
58620,11
59140,15
59668,15
60188,14
60716,14
61240,15
61764,14
62284,11
62812,13
63332,18
63860,14
64384,10
64908,10
65428,12
65948,11
66468,10
66988,10
67508,12
68028,14
68548,14
69068,13
69588,14
70108,14
70628,11
71148,14
71668,15
72192,11
72716,11
73236,13
73764,15
74284,16
74812,15
75332,13
75860,12
76384,16
76908,16
77428,16
77956,17
78476,16
79004,15
79528,18
80052,19
80572,15
81100,16
81620,14
82148,10
82668,12
83196,11
83720,11
84244,11
84764,14
85292,14
85812,14
86340,16
86860,16
87388,11
87908,12
88436,11
88956,11
89484,10
90004,11
90524,10
91044,10
91564,12
92084,11
92604,12
93124,14
93644,15
94164,15
94684,14
95204,14
95724,11
96248,10
96764,10
97292,9
97752,11
98276,10
98796,10
99316,10
99836,10
100364,10
100928,11
101512,13
102084,14
102664,13
103232,13
103808,14
104376,9
104892,11
105464,11
106032,11
106616,11
107184,10
107760,12
108328,11
108904,11
109472,12
110040,15
110624,16
111192,17
111776,19
112348,15
112928,13
113496,12
114072,10
114640,11
115216,10
115800,12
116368,12
116952,13
117520,11
118104,23
118672,27
119248,18
119832,15
120404,15
120984,16
121552,12
122136,10
122704,12
123288,11
123856,15
124424,20
125008,18
125576,16
126160,15
126728,17
127312,14
127884,15
128464,13
129040,13
129608,11
130184,10
130752,12
131328,14
131896,13
132472,11
133040,11
133616,11
134200,10
134768,14
135352,16
135920,15
136504,14
137072,19
137656,11
138224,14
138800,15
139384,18
139952,12
140536,11
141108,12
141688,12
142256,11
142832,13
143416,14
143984,15
144568,15
145136,15
145720,11
146288,13
146872,12
147440,13
148016,18
148600,19
149168,15
149752,13
150324,11
150904,10
151476,13
152052,15
152632,16
153204,15
153784,15
154352,14
154936,10
155504,13
156088,12
156656,12
157232,11
157816,11
158388,15
158968,13
159536,16
160120,15
160688,15
161256,15
161832,14
162400,11
162984,11
163552,11
164136,10
164704,10
165280,11
165848,11
166416,13
166988,16
167560,17
168136,16
168704,13
169280,13
169848,15
170424,15
170992,10
171560,11
172144,10
172712,11
173296,13
173864,14
174448,14
175016,12
175584,12
176168,19
176736,21
177312,18
177880,17
178464,17
179032,14
179616,10
180184,10
180760,13
181336,16
181904,15
182488,10
183056,12
183632,11
184204,11
184784,13
185360,15
185928,15
186512,15
187080,15
187664,10
188232,11
188816,11
189384,11
189964,11
190544,11
191116,12
191696,11
192276,12
192856,14
193424,16
194000,16
194584,15
195152,15
195728,14
196296,10
196880,9
197396,10
197976,10
198548,10
199120,12
199704,11
200272,13
200856,12
201424,14
202008,13
202576,15
203160,16
203732,15
204308,11
204888,16
205456,15
206032,15
206600,11
207184,11
207752,11
208336,11
208912,11
209480,11
210056,15
210624,15
211200,17
211768,16
212344,13
212912,11
213488,13
214072,14
214644,10
215224,11
215792,11
216376,11
216944,11
217528,11
218100,15
218672,14
219256,19
219824,18
220408,15
220976,11
221560,11
222128,10
222704,12
223288,11
223860,11
224440,11
225008,15
225592,17
226160,19
226744,17
227312,16
227888,16
228472,19
229044,16
229624,15
230192,13
230776,12
231344,11
231920,11
232504,10
233072,15
233656,11
234224,11
234808,13
235380,14
235960,15
236532,18
237108,17
237688,13
238256,10
238840,11
239412,16
239992,16
240564,14
241136,11
241720,10
242288,11
242872,16
243444,17
244024,15
244592,16
245176,15
245748,11
246324,11
246904,11
247472,12
248056,16
248624,15
249208,10
249776,14
250352,14
250936,13
251504,14
252088,15
252656,15
253240,14
253812,14
254392,10
254964,12
255540,11
256120,13
256692,13
257272,11
257840,13
258424,13
258992,12
259568,15
260152,19
260720,18
261304,16
261872,15
262456,13
263024,10
263600,10
264168,10
264744,9
265268,11
265840,11
266424,11
266992,13
267568,13
268136,14
268720,14
269292,14
269864,15
270448,15
271016,11
271600,11
272168,11
272752,11
273320,11
273896,14
274480,18
275048,11
275632,14
276204,15
276784,16
277356,16
277936,15
278508,15
279080,14
279664,12
280236,11
280816,10
281384,11
281968,11
282536,11
283112,10
283696,13
284264,16
284848,14
285416,14
286000,14
286572,14
287152,15
287724,10
288300,11
288880,12
289448,11
290032,12
290600,11
291184,11
291756,11
292332,13
292912,16
293484,16
294064,16
294636,14
295216,15
295788,12
296368,11
296936,11
297516,14
298096,14
298664,12
299248,10
299816,13
300400,15
300972,12
301548,14
302128,14
302700,14
303280,16
303852,15
304432,15
305012,15
305592,11
306164,10
306740,11
307320,10
307892,12
308472,11
309044,11
309624,15
310192,19
310772,21
311352,18
311924,15
312504,11
313076,10
313656,10
314224,11
314808,9
315328,10
315900,10
316480,10
317052,11
317632,11
318204,14
318784,13
319356,14
319936,14
320520,13
321092,11
321672,11
322240,11
322824,11
323392,18
323976,21
324548,14
325120,12
325704,16
326276,25
326856,22
327428,20
328008,17
328576,14
329152,11
329720,11
330296,11
330880,11
331448,11
332032,14
332600,13
333184,10
333752,13
334328,19
334912,23
335480,20
336064,16
336632,14
337208,15
337776,11
338360,9
338876,13
339448,15
340032,15
340600,11
341184,11
341752,13
342336,13
342908,19
343488,17
344056,16
344632,15
345216,17
345788,16
346368,12
346940,11
347520,10
348088,11
348668,17
349248,18
349816,17
350400,11
350968,14
351552,17
352124,18
352704,16
353276,15
353852,12
354432,11
355000,11
355584,11
356156,13
356736,13
357308,11
357884,11
358464,11
359032,12
359608,14
360176,15
360760,15
361328,16
361912,14
362484,11
363056,10
363640,12
364208,11
364792,10
365364,13
365944,13
366516,12
367092,13
367672,15
368244,18
368824,18
369392,17
369976,15
370544,13
371128,9
371648,12
372216,13
372800,11
373368,11
373952,11
374524,11
375104,11
375676,11
376256,16
376840,18
377412,15
377992,14
378564,15
379144,12
379716,11
380296,12
380868,14
381444,11
382024,11
382596,14
383176,15
383748,15
384328,12
384904,15
385488,15
386064,14
386632,15
387216,15
387784,15
388368,12
388940,12
389520,12
390088,11
390668,11
391248,11
391820,11
392400,10
392968,16
393552,15
394124,15
394704,14
395280,15
395852,12
396432,11
397004,10
397584,9
398104,10
398680,11
399252,14
399828,11
400408,10
400976,12
401560,14
402132,15
402712,15
403284,16
403864,13
404436,11
405012,11
405592,11
406164,11
406744,9
407264,10
407840,11
408412,12
408992,15
409564,18
410140,20
410720,15
411288,14
411872,15
412440,14
413024,13
413592,14
414168,14
414752,16
415320,14
415904,11
416476,10
417056,10
417624,15
418208,17
418776,19
419352,17
419936,16
420504,14
421088,12
421656,14
422240,12
422808,11
423384,11
423960,12
424532,11
425112,11
425680,11
426264,15
426832,16
427416,13
427988,16
428564,17
429144,11
429712,11
430296,11
430868,11
431448,11
432016,11
432592,11
433176,11
433748,11
434328,11
434900,14
435480,13
436048,14
436632,13
437204,14
437776,13
438360,14
438932,14
439512,11
440084,10
440664,10
441232,11
441812,10
442392,11
442964,16
443544,15
444116,16
444696,17
445268,19
445848,20
446416,15
446992,11
447576,11
448148,11
448728,10
449296,10
449880,9
450400,10
450976,11
451544,14
452120,14
452704,16
453276,15
453856,13
454428,15
455008,15
455580,11
456156,10
456736,11
457308,11
457888,11
458460,13
459040,15
459612,19
460192,19
460764,17
461340,15
461920,15
462488,11
463072,11
463644,11
464224,9
464740,12
465320,12
465892,11
466468,11
467048,11
467620,13
468200,13
468772,14
469352,13
469924,15
470500,14
471080,11
471652,11
472232,12
472804,12
473384,12
473956,11
474536,11
475108,10
475684,10
476264,15
476836,18
477416,16
477988,15
478568,15
479148,13
479724,10
480304,10
480876,11
481456,15
482024,14
482608,11
483176,11
483760,14
484340,11
484916,15
485496,15
486068,14
486648,15
487224,13
487808,14
488380,16
488952,12
489536,12
490108,11
490688,13
491260,11
491840,12
492408,11
492992,14
493560,14
494140,14
494720,14
495288,14
495872,16
496444,15
497024,13
497596,11
498172,12
498752,11
499324,11
499904,11
500476,11
501056,12
501628,14
502208,14
502780,14
503356,16
503936,18
504508,15
505088,12
505660,11
506240,10
506812,11
507388,11
507968,11
508540,11
509120,12
509692,21
510272,24
510844,22
511424,16
512012,14
512580,11
513160,11
513728,11
514312,11
514880,14
515464,12
516032,12
516608,11
517192,12
517760,11
518344,15
518916,15
519496,13
520068,15
520648,15
521224,16
521792,17
522376,14
522944,12
523528,11
524096,11
524680,11
525252,11
525824,11
526408,18
526976,15
527560,16
528132,16
528712,16
529280,15
529864,12
530440,10
531012,10
531592,10
532164,14
532744,15
533312,11
533896,11
534468,11
535040,14
535624,14
536196,14
536776,16
537348,13
537928,11
538496,11
539080,9
539600,11
540168,12
540752,14
541324,11
541904,9
542424,11
543000,16
543572,15
544152,16
544720,15
545296,15
545880,11
546452,11
547032,13
547604,12
548184,11
548756,10
549332,10
549912,11
550484,11
551064,14
551636,19
552216,15
552796,18
553376,18
553956,12
554532,10
555112,11
555684,13
556264,11
556836,11
557416,11
557988,11
558564,14
559144,14
559716,14
560296,15
560868,16
561448,17
562020,19
562600,12
563172,11
563748,14
564328,16
564896,10
565480,11
566052,10
566632,10
567204,10
567780,11
568360,14
568928,16
569512,14
570084,14
570664,12
571236,13
571816,10
572388,11
572964,11
573544,11
574116,16
574696,17
575268,15
575848,16
576420,18
576992,15
577576,15
578148,15
578728,14
579296,14
579880,16
580448,11
581032,9
581552,10
582124,11
582704,13
583276,15
583856,17
584428,18
585008,17
585580,17
586160,14
586740,14
587316,11
587896,13
588468,11
589048,11
589628,11
590208,10
590780,11
591356,11
591936,12
592512,12
593088,14
593660,14
594240,16
594820,15
595400,13
595976,10
596548,10
597128,11
597700,10
598280,11
598860,11
599440,11
600020,11
600596,13
601176,15
601748,14
602328,15
602900,15
603480,15
604052,12
604628,11
605208,10
605780,11
606360,11
606932,11
607512,13
608092,12
608672,13
609244,15
609820,19
610400,18
610972,15
611552,15
612132,15
612712,17
613292,11
613868,14
614448,15
615020,11
615600,10
616172,11
616752,11
617324,11
617904,12
618476,13
619052,14
619632,15
620204,15
620784,12
621356,11
621936,13
622516,11
623092,10
623672,12
624244,11
624824,11
625392,11
625976,11
626548,13
627128,14
627708,16
628284,15
628864,15
629436,12
630016,10
630596,12
631176,18
631756,16
632332,14
632912,14
633484,17
634064,16
634644,15
635224,15
635804,14
636380,14
636960,14
637532,11
638112,11
638688,12
639264,12
639844,13
640428,12
641000,16
641576,15
642160,12
642728,12
643312,17
643884,20
644464,17
645036,18
645612,16
646192,13
646764,11
647344,11
647916,10
648496,13
649064,13
649648,10
650216,18
650796,22
651376,27
651948,21
652528,15
653108,15
653688,17
654260,15
654836,11
655416,10
655984,11
656568,11
657136,11
657720,11
658288,11
658872,11
659444,11
660016,15
660600,16
661168,15
661752,17
662324,16
662904,12
663476,11
664052,11
664632,11
665204,10
665784,10
666352,12
666928,13
667496,14
668080,13
668648,16
669224,15
669808,14
670376,15
670960,11
671528,15
672112,13
672680,13
673256,10
673840,11
674408,11
674992,11
675564,11
676144,11
676712,16
677296,17
677864,15
678440,18
679024,21
679596,19
680176,17
680744,13
681328,10
681896,10
682472,10
683056,11
683628,13
684208,11
684776,14
685360,15
685940,14
686520,15
687088,14
687668,11
688248,11
688816,11
689400,9
689920,11
690496,15
691068,15
691648,15
692232,11
692804,11
693384,16
693956,15
694536,15
695108,14
695688,11
696260,11
696836,13
697416,16
697988,12
698568,10
699140,11
699720,10
700292,10
700872,13
701448,15
702020,14
702600,14
703172,15
703752,18
704332,18
704912,15
705484,11
706060,15
706640,15
707208,13
707792,11
708364,13
708944,11
709516,14
710096,15
710680,16
711252,15
711832,14
712404,12
712984,12
713556,12
714136,10
714716,10
715292,10
715872,11
716444,11
717024,11
717600,10
718184,15
718756,14
719332,14
719912,15
720484,14
721064,11
721636,11
722216,14
722788,11
723368,11
723936,14
724516,12
725096,13
725668,11
726248,15
726828,15
727408,14
727980,15
728556,15
729136,17
729708,14
730288,13
730860,11
731440,11
732020,11
732600,11
733180,11
733756,10
734336,12
734908,14
735488,15
736068,15
736648,14
737220,14
737796,10
738376,11
738948,11
739528,11
740100,11
740680,12
741252,11
741832,12
742408,11
742980,13
743560,14
744132,14
744712,15
745284,19
745864,19
746436,17
747012,11
747592,10
748164,12
748744,15
749316,13
749896,10
750468,13
751048,13
751624,18
752196,16
752776,14
753348,14
753928,13
754508,11
755088,12
755668,14
756244,14
756824,11
757396,10
757976,11
758556,12
759136,11
759716,15
760292,14
760872,16
761444,15
762024,16
762596,10
763176,15
763756,13
764336,11
764916,10
765492,10
766072,12
766644,12
767224,12
767804,14
768388,14
768960,14
769536,15
770120,14
770692,11
771272,11
771844,12
772424,15
772996,14
773576,11
774152,11
774724,11
775304,13
775876,11
776456,19
777036,20
777616,21
778196,19
778772,21
779352,15
779924,11
780504,11
781076,10
781656,9
782176,9
782700,10
783276,10
783852,10
784432,10
785004,12
785584,15
786156,14
786736,15
787316,13
787896,11
788468,10
789044,11
789624,13
790196,11
790776,12
791356,11
791936,12
792516,12
793092,18
793672,17
794244,15
794824,15
795396,14
795976,10
796556,13
797136,17
797720,15
798296,12
798876,11
799448,10
800024,11
800600,11
801176,11
801748,14
802324,15
802904,17
803476,15
804056,11
804624,11
805208,10
805780,11
806356,11
806936,11
807508,12
808088,11
808656,11
809240,13
809812,17
810392,14
810964,14
811540,14
812120,14
812692,10
813272,11
813852,10
814432,11
815012,11
815588,10
816168,11
816740,11
817320,12
817892,13
818472,16
819052,15
819632,15
820208,13
820776,12
821352,11
821920,11
822504,15
823072,11
823656,11
824228,11
824800,11
825384,13
825952,20
826536,23
827108,15
827688,15
828256,15
828840,14
829408,13
829988,15
830568,11
831140,11
831720,9
832240,10
832816,12
833384,12
833960,11
834528,11
835108,14
835688,14
836256,15
836840,15
837408,14
837992,11
838564,10
839136,11
839720,11
840288,11
840872,10
841440,11
842024,11
842592,13
843176,13
843748,14
844324,18
844904,18
845472,17
846056,11
846628,11
847208,11
847780,11
848356,10
848936,10
849504,10
850088,10
850656,11
851240,13
851808,14
852392,13
852964,15
853536,14
854120,11
854692,11
855272,11
855844,10
856424,9
856944,10
857520,10
858092,10
858668,11
859248,11
859820,15
860400,15
860976,16
861560,16
862132,18
862708,17
863288,15
863860,12
864440,10
865008,11
865592,12
866164,11
866744,11
867316,11
867892,11
868472,14
869044,14
869624,14
870196,17
870776,14
871352,11
871932,10
872512,12
873084,15
873664,18
874232,15
874816,11
875388,17
875968,21
876540,26
877116,23
877696,21
878268,19
878848,17
879420,14
880000,12
880576,13
881156,11
881736,11
882308,10
882888,10
883460,10
884040,11
884608,16
885192,14
885768,15
886336,15
886920,14
887492,12
888072,13
888644,14
889224,12
889796,12
890372,12
890952,12
891524,12
892104,11
892676,12
893256,18
893836,18
894416,18
895000,19
895572,17
896156,12
896724,10
897304,10
897872,11
898456,12
899028,11
899604,11
900184,14
900756,13
901336,14
901916,15
902496,15
903064,15
903640,15
904224,11
904796,10
905376,14
905948,12
906528,10
907100,11
907680,11
908260,11
908836,11
909416,16
909988,15
910568,15
911148,15
911728,16
912308,13
912884,10
913464,11
914036,11
914616,10
915188,11
915768,11
916348,11
916928,11
917512,10
918084,14
918664,14
919236,14
919816,15
920396,15
920976,15
921556,15
922132,14
922712,11
923284,14
923864,12
924436,14
925016,13
925588,11
926164,12
926744,14
927316,15
927896,15
928468,14
929048,14
929620,17
930200,20
930772,16
931348,12
931928,10
932500,10
933080,10
933652,11
934232,11
934812,13
935388,14
935968,14
936540,14
937120,14
937692,10
938272,11
938844,11
939424,11
940004,11
940580,11
941160,11
941732,11
942312,11
942892,11
943472,13
944044,15
944620,15
945200,14
945772,13
946352,11
946924,14
947504,12
948084,10
948664,11
949236,11
949812,10
950392,11
950964,14
951544,19
952124,18
952704,17
953284,19
953860,19
954440,15
955012,12
955592,10
956168,12
956744,12
957324,11
957904,12
958492,12
959064,11
959644,14
960216,18
960792,16
961364,15
961944,14
962516,11
963092,10
963672,11
964244,10
964824,10
965396,10
965976,11
966548,14
967124,15
967704,11
968276,14
968856,14
969428,15
970008,15
970588,14
971168,11
971748,10
972324,10
972904,11
973476,10
974056,10
974628,11
975208,12
975780,13
976356,15
976936,15
977508,14
978088,14
978660,14
979240,12
979812,15
980392,14
980972,12
981548,10
982132,10
982704,10
983280,11
983856,11
984440,13
985012,15
985588,14
986168,14
986740,15
987320,15
987892,13
988472,11
989052,10
989632,12
990204,13
990780,12
991360,12
991932,12
992516,12
993092,15
993672,15
994252,15
994828,18
995408,19
995980,14
996560,11
997140,11
997720,11
998292,13
998868,12
999448,11
1000020,14
1000644,14
1001264,12
1001892,14
1002520,14
1003136,13
1003768,14
1004392,13
1005020,13
1005648,12
1006264,11
1006892,14
1007516,17
1008140,16
1008772,12
1009392,12
1010020,16
1010644,21
1011268,24
1011896,19
1012512,14
1013140,10
1013772,12
1014392,12
1015020,11
1015644,10
1016276,11
1016904,11
1017528,11
1018156,14
1018784,14
1019408,15
1020036,14
1020656,15
1021284,16
1021908,14
1022532,11
1023164,10
1023784,10
1024416,12
1025040,12
1025660,14
1026288,15
1026908,15
1027536,14
1028164,14
1028780,14
1029408,12
1030032,11
1030660,10
1031288,10
1031904,12
1032532,12
1033156,12
1033776,12
1034404,10
1035020,15
1035652,17
1036272,15
1036896,15
1037520,11
1038140,12
1038772,13
1039400,10
1040016,12
1040644,11
1041264,13
1041892,13
1042520,13
1043136,15
1043768,15
1044388,14
1045012,14
1045640,13
1046256,11
1046884,12
1047508,14
1048128,15
1048756,11
1049376,12
1050004,10
1050632,11
1051248,12
1051876,15
1052500,14
1053128,14
1053760,14
1054376,15
1055004,13
1055628,12
1056256,10
1056884,12
1057500,13
1058132,11
1058752,11
1059376,15
1060004,14
1060620,14
1061252,15
1061872,15
1062496,12
1063124,13
1063748,14
1064376,13
1065008,10
1065624,11
1066252,10
1066872,11
1067500,10
1068132,14
1068752,13
1069380,15
1070004,15
1070628,15
1071256,13
1071872,18
1072500,18
1073124,10
1073748,13
1074376,20
1074996,25
1075624,21
1076252,20
1076872,19
1077500,15
1078120,14
1078752,15
1079380,10
1080000,14
1080628,14
1081248,11
1081872,19
1082500,19
1083120,18
1083748,21
1084372,18
1084996,16
1085624,16
1086240,16
1086868,16
1087496,15
1088120,20
1088748,17
1089368,16
1089996,16
1090628,19
1091248,16
1091876,14
1092496,13
1093124,19
1093752,18
1094376,16
1095004,15
1095628,14
1096252,25
1096880,35
1097504,39
1098132,33
1098764,36
1099384,46
1100012,61
1100636,65
1101268,63
1101896,57
1102512,44
1103144,20
1103768,19
1104392,17
1105020,11
1105640,23
1106268,23
1106892,38
1107516,55
1108144,54
1108760,43
1109392,39
1110020,31
1110640,25
1111268,20
1111892,20
1112524,20
1113152,12
1113772,10
1114400,11
1115024,12
1115652,13
1116284,13
1116904,14
1117532,11
1118156,13
1118780,14
1119412,15
1120032,15
1120660,15
1121288,14
1121904,12
1122536,11
1123160,11
1123788,11
1124420,12
1125040,15
1125668,14
1126292,16
1126920,15
1127548,14
1128168,18
1128796,18
1129420,20
1130040,18
1130672,15
1131288,12
1131916,10
1132540,10
1133168,13
1133796,14
1134420,11
1135048,13
1135680,14
1136296,14
1136924,13
1137548,11
1138180,13
1138808,15
1139424,14
1140056,14
1140676,11
1141300,12
1141932,10
1142552,12
1143180,16
1143804,14
1144432,15
1145060,15
1145684,12
1146316,10
1146944,10
1147560,11
1148192,11
1148812,10
1149444,11
1150072,12
1150688,11
1151320,14
1151944,13
1152568,14
1153196,14
1153816,15
1154444,11
1155068,13
1155688,12
1156320,12
1156940,11
1157572,11
1158200,13
1158816,12
1159448,12
1160068,15
1160700,14
1161328,14
1161944,15
1162572,14
1163196,12
1163820,11
1164448,10
1165072,11
1165700,11
1166324,10
1166948,12
1167576,12
1168200,16
1168828,15
1169456,15
1170072,14
1170704,12
1171328,11
1171956,11
1172588,11
1173208,12
1173836,12
1174460,15
1175084,14
1175712,13
1176332,13
1176960,16
1177584,18
1178208,17
1178836,17
1179460,11
1180088,10
1180720,10
1181336,11
1181964,12
1182588,15
1183220,12
1183848,13
1184468,18
1185096,21
1185720,23
1186344,21
1186972,16
1187592,12
1188220,11
1188844,11
1189468,10
1190096,11
1190716,11
1191344,16
1191972,12
1192592,11
1193220,15
1193844,19
1194476,18
1195104,17
1195724,13
1196352,11
1196976,11
1197600,12
1198228,12
1198848,14
1199476,13
1200100,12
1200724,12
1201352,16
1201976,19
1202604,17
1203236,16
1203856,19
1204484,13
1205104,10
1205736,11
1206364,12
1206984,15
1207612,16
1208236,13
1208864,13
1209492,15
1210112,19
1210740,16
1211364,15
1211988,14
1212620,12
1213240,11
1213868,12
1214500,12
1215120,13
1215752,12
1216376,13
1217004,10
1217632,10
1218256,13
1218884,13
1219508,14
1220132,14
1220760,12
1221384,11
1222012,11
1222636,11
1223260,11
1223892,11
1224516,11
1225148,11
1225776,13
1226396,17
1227024,15
1227648,14
1228276,15
1228908,14
1229524,14
1230156,14
1230776,10
1231400,11
1232028,10
1232644,10
1233276,10
1233896,10
1234520,11
1235148,14
1235768,15
1236396,14
1237028,14
1237648,11
1238276,11
1238900,11
1239532,12
1240160,13
1240776,11
1241404,11
1242028,11
1242652,11
1243280,14
1243896,15
1244528,17
1245152,15
1245776,12
1246404,12
1247024,11
1247652,10
1248284,10
1248904,13
1249532,13
1250156,16
1250784,12
1251416,14
1252032,15
1252660,14
1253284,14
1253908,15
1254540,11
1255160,17
1255788,21
1256412,18
1257036,12
1257664,11
1258284,11
1258912,13
1259540,13
1260160,15
1260788,16
1261412,16
1262044,16
1262672,17
1263292,12
1263920,10
1264544,11
1265168,11
1265796,10
1266416,12
1267044,12
1267672,13
1268292,15
1268924,14
1269544,15
1270176,15
1270804,12
1271424,11
1272052,10
1272676,10
1273308,11
1273936,13
1274560,16
1275188,15
1275816,17
1276440,17
1277068,16
1277688,15
1278316,15
1278944,13
1279568,12
1280200,12
1280816,11
1281440,10
1282068,10
1282684,10
1283312,11
1283936,11
1284564,11
1285192,14
1285808,15
1286436,15
1287056,14
1287684,12
1288312,13
1288928,14
1289560,13
1290180,12
1290804,11
1291432,11
1292056,12
1292684,11
1293308,13
1293928,14
1294560,15
1295180,16
1295812,11
1296440,11
1297056,12
1297684,10
1298308,10
1298936,11
1299564,10
1300184,11
1300812,11
1301436,13
1302056,13
1302688,14
1303304,16
1303936,15
1304560,11
1305180,11
1305812,11
1306436,10
1307064,15
1307692,13
1308312,13
1308940,15
1309564,19
1310196,16
1310824,14
1311440,14
1312068,15
1312688,14
1313312,13
1313940,10
1314556,10
1315188,11
1315812,10
1316432,11
1317060,11
1317680,13
1318308,15
1318936,14
1319552,15
1320184,16
1320804,12
1321432,10
1322060,11
1322680,11
1323308,10
1323932,11
1324552,11
1325184,11
1325800,13
1326428,17
1327052,14
1327672,14
1328304,15
1328920,14
1329548,11
1330172,12
1330800,13
1331428,10
1332052,13
1332680,13
1333308,10
1333928,11
1334556,11
1335176,13
1335808,14
1336436,14
1337052,15
1337684,11
1338304,11
1338928,12
1339556,15
1340176,13
1340804,11
1341424,12
1342048,11
1342680,15
1343300,22
1343932,25
1344560,27
1345180,20
1345812,11
1346432,10
1347064,10
1347692,10
1348312,17
1348940,19
1349564,14
1350188,12
1350816,10
1351432,14
1352060,13
1352684,18
1353304,19
1353936,18
1354552,12
1355180,11
1355812,10
1356432,11
1357060,11
1357684,13
1358312,11
1358940,14
1359560,19
1360188,21
1360812,16
1361432,15
1362060,14
1362676,11
1363308,10
1363928,10
1364548,10
1365180,10
1365800,11
1366428,10
1367056,11
1367672,11
1368300,15
1368924,14
1369552,15
1370184,14
1370800,11
1371428,11
1372052,10
1372676,11
1373308,11
1373928,11
1374556,11
1375180,13
1375804,12
1376432,14
1377056,13
1377684,15
1378312,17
1378928,15
1379560,13
1380180,12
1380812,12
1381440,10
1382056,12
1382688,11
1383308,11
1383940,10
1384568,11
1385184,13
1385812,14
1386436,14
1387060,13
1387688,10
1388312,11
1388940,11
1389564,11
1390192,11
1390820,12
1391444,12
1392076,12
1392704,12
1393320,14
1393948,14
1394572,15
1395200,14
1395832,11
1396448,13
1397076,10
1397700,10
1398324,10
1398952,10
1399576,10
1400204,11
1400828,10
1401456,14
1402084,16
1402708,15
1403336,17
1403968,14
1404584,10
1405212,11
1405836,10
1406468,12
1407096,11
1407716,11
1408344,11
1408968,11
1409588,11
1410220,14
1410840,15
1411468,15
1412092,13
1412720,13
1413348,11
1413972,11
1414600,9
1415176,13
1415800,16
1416428,15
1417052,11
1417680,10
1418308,13
1418928,15
1419556,15
1420180,14
1420804,12
1421432,10
1422056,13
1422684,16
1423308,14
1423932,14
1424564,10
1425184,11
1425812,11
1426444,16
1427064,19
1427692,16
1428316,15
1428948,15
1429576,14
1430196,14
1430824,13
1431452,10
1432076,17
1432704,13
1433324,12
1433956,12
1434576,16
1435200,17
1435828,14
1436448,15
1437076,15
1437704,13
1438328,13
1438956,11
1439580,13
1440212,14
1440840,11
1441456,11
1442084,14
1442704,16
1443332,19
1443964,16
1444584,17
1445212,16
1445832,11
1446456,13
1447084,13
1447704,11
1448332,10
1448952,10
1449576,10
1450208,11
1450832,11
1451460,14
1452088,14
1452712,17
1453340,15
1453964,13
1454596,11
1455224,12
1455840,12
1456472,11
1457096,11
1457716,11
1458348,10
1458968,15
1459596,19
1460220,20
1460848,17
1461476,15
1462100,14
1462728,11
1463356,10
1463976,11
1464608,12
1465228,15
1465860,11
1466488,11
1467104,10
1467736,13
1468360,14
1468984,15
1469612,14
1470232,15
1470860,12
1471488,12
1472112,16
1472740,13
1473364,12
1473992,10
1474624,11
1475240,12
1475868,13
1476492,17
1477120,16
1477748,14
1478368,18
1478996,17
1479620,13
1480244,11
1480872,10
1481492,11
1482120,11
1482744,12
1483368,11
1483996,11
1484620,12
1485252,14
1485880,15
1486496,17
1487124,16
1487748,10
1488376,11
1489004,10
1489624,11
1490252,11
1490876,13
1491500,14
1492128,14
1492744,14
1493376,18
1494000,15
1494624,15
1495252,14
1495876,11
1496504,10
1497136,10
1497752,11
1498380,14
1499004,15
1499632,12
1500264,13
1500880,15
1501508,18
1502132,16
1502756,15
1503388,15
1504008,14
1504636,11
1505260,11
1505884,11
1506512,10
1507136,12
1507768,12
1508396,12
1509016,17
1509644,19
1510272,18
1510900,15
1511532,14
1512152,15
1512780,10
1513408,11
1514032,13
1514660,11
1515280,12
1515908,10
1516532,10
1517160,11
1517788,15
1518412,17
1519040,15
1519672,15
1520292,15
1520920,15
1521544,13
1522172,12
1522804,11
1523424,11
1524052,12
1524676,12
1525300,11
1525932,10
1526552,13
1527180,15
1527804,14
1528432,15
1529060,14
1529684,16
1530316,16
1530944,10
1531568,10
1532196,11
1532824,10
1533448,10
1534076,10
1534696,13
1535328,15
1535952,15
1536576,14
1537208,14
1537824,11
1538452,11
1539080,11
1539700,10
1540328,12
1540952,12
1541580,11
1542208,15
1542832,17
1543460,17
1544084,14
1544708,14
1545340,14
1545960,15
1546588,13
1547212,11
1547836,11
1548464,12
1549088,11
1549716,10
1550348,12
1550968,19
1551596,16
1552220,14
1552852,14
1553480,16
1554100,12
1554728,16
1555352,15
1555976,14
1556604,12
1557224,12
1557852,18
1558476,20
1559100,18
1559728,20
1560348,19
1560976,18
1561604,16
1562220,15
1562852,10
1563476,10
1564104,11
1564732,10
1565352,11
1565980,11
1566604,11
1567236,13
1567864,11
1568488,13
1569116,15
1569740,16
1570364,14
1570992,14
1571612,13
1572240,10
1572872,11
1573488,11
1574116,11
1574744,11
1575372,11
1576000,14
1576624,15
1577252,15
1577876,17
1578500,21
1579132,22
1579752,21
1580380,11
1581004,11
1581628,12
1582260,10
1582880,11
1583508,11
1584140,12
1584760,15
1585388,14
1586012,15
1586644,14
1587272,13
1587896,11
1588524,10
1589148,11
1589772,11
1590400,11
1591016,11
1591648,11
1592272,13
1592896,12
1593524,14
1594144,14
1594772,14
1595404,15
1596024,14
1596652,15
1597280,13
1597908,14
1598540,11
1599160,11
1599792,11
1600416,12
1601036,11
1601664,14
1602284,14
1602916,14
1603536,15
1604160,12
1604788,10
1605408,12
1606036,11
1606664,10
1607288,11
1607916,11
1608540,14
1609168,17
1609796,12
1610416,15
1611044,16
1611668,18
1612292,18
1612924,14
1613544,11
1614172,11
1614796,11
1615420,10
1616048,10
1616664,11
1617292,10
1617916,10
1618544,13
1619172,14
1619796,14
1620428,14
1621056,11
1621672,10
1622304,11
1622928,11
1623556,11
1624188,10
1624808,12
1625436,11
1626060,12
1626684,15
1627312,16
1627936,16
1628564,14
1629196,12
1629816,13
1630444,12
1631068,13
1631700,10
1632332,10
1632952,11
1633580,11
1634204,13
1634828,14
1635460,14
1636080,15
1636708,17
1637332,22
1637960,15
1638588,10
1639204,10
1639832,11
1640460,12
1641076,14
1641704,12
1642324,11
1642952,14
1643580,16
1644196,15
1644824,14
1645448,14
1646072,13
1646704,15
1647320,16
1647948,16
1648572,11
1649192,10
1649824,12
1650440,14
1651068,13
1651688,14
1652312,15
1652940,14
1653556,15
1654188,13
1654816,12
1655432,13
1656060,11
1656684,11
1657312,11
1657940,11
1658560,11
1659188,13
1659812,16
1660432,15
1661060,14
1661680,15
1662308,17
1662932,14
1663552,12
1664184,11
1664800,11
1665424,10
1666052,10
1666668,13
1667296,13
1667920,12
1668548,13
1669176,14
1669792,15
1670420,15
1671040,12
1671668,11
1672300,10
1672920,11
1673548,11
1674172,12
1674792,12
1675424,11
1676040,17
1676668,17
1677292,16
1677912,14
1678544,14
1679160,13
1679792,11
1680420,10
1681036,10
1681664,11
1682288,11
1682916,11
1683544,12
1684160,16
1684788,15
1685412,14
1686032,15
1686660,14
1687280,14
1687908,11
1688528,11
1689152,11
1689780,11
1690396,12
1691024,11
1691656,13
1692272,17
1692900,13
1693520,14
1694152,18
1694780,18
1695400,18
1696028,12
1696648,11
1697276,11
1697904,13
1698520,10
1699152,11
1699776,11
1700396,13
1701028,11
1701648,14
1702276,15
1702900,14
1703520,14
1704152,17
1704772,17
1705404,18
1706032,20
1706648,17
1707276,15
1707900,12
1708528,10
1709160,11
1709776,15
1710404,17
1711028,21
1711652,19
1712280,22
1712904,19
1713532,15
1714156,11
1714780,12
1715408,10
1716032,11
1716660,11
1717292,11
1717912,21
1718540,35
1719164,39
1719796,41
1720424,37
1721040,41
1721668,35
1722292,34
1722916,32
1723544,26
1724160,17
1724788,19
1725412,46
1726036,46
1726664,37
1727284,42
1727912,28
1728544,25
1729160,23
1729788,22
1730412,22
1731040,17
1731668,10
1732288,12
1732916,12
1733540,10
1734164,14
1734792,16
1735412,14
1736040,15
1736664,14
1737284,14
1737916,10
1738536,11
1739164,10
1739796,10
1740416,11
1741044,12
1741668,12
1742296,18
1742924,15
1743544,17
1744172,15
1744796,14
1745420,14
1746048,10
1746664,11
1747292,10
1747916,11
1748540,10
1749168,11
1749784,11
1750416,10
1751036,10
1751664,15
1752292,15
1752916,16
1753548,15
1754176,11
1754800,16
1755428,17
1756052,15
1756676,13
1757308,13
1757928,17
1758556,16
1759180,11
1759808,14
1760436,14
1761056,15
1761684,15
1762312,14
1762928,13
1763560,16
1764180,15
1764812,13
1765440,11
1766056,12
1766684,12
1767308,11
1767936,13
1768564,14
1769184,14
1769812,15
1770436,14
1771060,12
1771688,11
1772304,11
1772936,12
1773556,15
1774180,18
1774812,16
1775436,12
1776064,12
1776692,13
1777312,14
1777940,15
1778564,14
1779192,11
1779824,10
1780440,10
1781068,10
1781692,10
1782316,11
1782948,12
1783568,12
1784196,12
1784820,14
1785444,13
1786076,14
1786700,13
1787328,15
1787956,12
1788576,11
1789204,12
1789828,15
1790460,11
1791092,10
1791712,12
1792344,12
1792964,12
1793588,13
1794216,14
1794832,14
1795464,13
1796084,10
1796708,10
1797340,10
1797960,10
1798592,11
1799220,12
1799840,11
1800468,10
1801092,13
1801720,15
1802352,14
1802968,17
1803596,14
1804220,12
1804840,12
1805468,14
1806088,12
1806716,10
1807336,11
1807960,12
1808592,12
1809208,12
1809836,21
1810468,30
1811088,29
1811716,21
1812340,18
1812972,11
1813600,11
1814216,11
1814844,12
1815468,10
1816092,10
1816720,12
1817344,12
1817972,11
1818596,13
1819220,14
1819848,16
1820464,14
1821096,11
1821724,14
1822344,15
1822972,11
1823596,11
1824228,11
1824856,14
1825472,15
1826100,15
1826724,15
1827348,14
1827976,15
1828596,16
1829224,13
1829848,11
1830472,10
1831100,10
1831720,11
1832348,12
1832980,12
1833600,11
1834228,11
1834852,17
1835480,16
1836112,14
1836732,15
1837360,15
1837984,10
1838612,11
1839240,14
1839860,11
1840488,14
1841112,17
1841736,25
1842364,22
1842984,14
1843616,14
1844244,14
1844860,14
1845492,15
1846112,11
1846744,11
1847372,10
1847992,11
1848620,10
1849244,11
1849868,11
1850496,10
1851112,11
1851740,13
1852364,14
1852988,14
1853616,14
1854240,12
1854868,13
1855496,11
1856120,13
1856748,12
1857372,11
1858000,13
1858628,10
1859248,17
1859876,23
1860500,19
1861124,16
1861756,14
1862376,13
1863008,11
1863628,11
1864252,12
1864884,10
1865504,19
1866132,14
1866764,10
1867384,10
1868012,12
1868636,14
1869268,14
1869896,16
1870516,14
1871144,11
1871768,11
1872392,10
1873020,11
1873640,13
1874268,13
1874892,11
1875516,11
1876144,11
1876768,16
1877396,15
1878028,14
1878648,15
1879276,11
1879900,11
1880532,10
1881164,10
1881784,11
1882412,10
1883036,10
1883660,11
1884292,10
1884912,15
1885540,14
1886164,14
1886788,15
1887416,14
1888036,11
1888664,11
1889292,10
1889912,11
1890540,10
1891164,11
1891796,11
1892424,10
1893048,13
1893676,13
1894304,14
1894928,17
1895556,16
1896176,12
1896804,11
1897428,13
1898052,15
1898680,13
1899304,13
1899932,12
1900564,11
1901184,11
1901812,14
1902440,15
1903068,15
1903700,14
1904320,13
1904948,15
1905572,16
1906196,13
1906828,10
1907448,11
1908076,11
1908700,11
1909324,12
1909956,14
1910576,14
1911204,13
1911836,14
1912456,15
1913084,14
1913712,11
1914340,11
1914972,11
1915592,11
1916224,10
1916848,11
1917472,11
1918100,13
1918720,15
1919352,13
1919976,14
1920600,15
1921232,13
1921848,11
1922476,10
1923104,11
1923728,13
1924356,12
1924980,13
1925612,13
1926240,11
1926856,14
1927484,15
1928108,17
1928732,16
1929360,11
1929976,12
1930604,11
1931228,11
1931852,13
1932480,16
1933104,13
1933732,11
1934364,10
1934984,14
1935612,14
1936236,15
1936868,15
1937496,13
1938112,11
1938744,12
1939368,10
1939992,11
1940620,10
1941240,12
1941868,14
1942492,12
1943116,14
1943748,14
1944368,15
1944996,16
1945628,14
1946244,12
1946876,11
1947500,10
1948128,11
1948756,10
1949376,10
1950004,11
1950628,12
1951252,15
1951884,14
1952504,15
1953132,14
1953756,14
1954380,11
1955012,10
1955632,12
1956260,12
1956892,10
1957512,11
1958140,11
1958764,11
1959396,12
1960024,14
1960648,14
1961276,14
1961900,14
1962524,18
1963156,16
1963776,14
1964404,12
1965028,11
1965652,11
1966284,10
1966904,11
1967532,10
1968160,13
1968776,14
1969408,15
1970028,15
1970660,14
1971288,11
1971904,11
1972532,11
1973156,11
1973780,10
1974408,11
1975024,12
1975652,11
1976276,12
1976900,15
1977532,18
1978152,17
1978780,15
1979412,11
1980032,13
1980660,12
1981284,11
1981916,11
1982544,13
1983168,14
1983800,14
1984424,12
1985048,14
1985676,16
1986296,14
1986924,15
1987548,14
1988172,15
1988800,13
1989416,10
1990048,11
1990676,10
1991296,11
1991924,13
1992548,14
1993180,17
1993808,15
1994432,15
1995060,14
1995684,13
1996308,10
1996940,10
1997560,11
1998188,11
1998812,10
1999436,10
2000064,10
2000688,11
2001316,11
2001944,14
2002560,15
2003188,14
2003812,16
2004444,13
2005072,12
2005692,14
2006320,12
2006944,11
2007568,11
2008196,10
2008816,12
2009444,17
2010068,21
2010692,17
2011320,18
2011940,17
2012568,12
2013196,11
2013816,13
2014444,13
2015068,10
2015700,11
2016328,11
2016952,13
2017580,13
2018204,15
2018828,14
2019460,14
2020080,15
2020708,14
2021332,11
2021956,11
2022588,12
2023208,17
2023836,13
2024468,11
2025088,11
2025716,11
2026340,12
2026972,15
2027600,14
2028220,14
2028848,15
2029472,12
2030096,11
2030724,10
2031344,11
2031976,11
2032600,11
2033224,12
2033852,12
2034472,12
2035100,13
2035732,14
2036352,15
2036980,15
2037608,13
2038236,12
2038868,10
2039488,11
2040116,11
2040744,13
2041368,14
2041996,14
2042616,15
2043248,16
2043868,14
2044496,15
2045124,15
2045744,15
2046376,11
2047008,12
2047624,10
2048256,10
2048876,12
2049504,12
2050132,11
2050748,11
2051376,14
2052000,17
2052620,16
2053248,16
2053868,17
2054496,13
2055120,12
2055740,11
2056372,10
2056988,11
2057620,11
2058248,11
2058864,15
2059492,16
2060112,17
2060744,17
2061372,18
2061992,16
2062620,12
2063244,13
2063872,11
2064500,11
2065120,12
2065748,12
2066372,11
2066992,10
2067624,11
2068240,15
2068868,15
2069492,14
2070112,16
2070744,16
2071364,11
2071996,11
2072624,11
2073240,11
2073872,13
2074492,15
2075124,11
2075752,11
2076368,11
2077000,18
2077620,17
2078244,15
2078876,14
2079496,12
2080124,13
2080744,18
2081368,22
2081996,16
2082616,12
2083244,11
2083872,10
2084488,11
2085116,13
2085740,14
2086368,17
2086996,15
2087616,12
2088244,11
2088868,12
2089488,13
2090120,17
2090736,17
2091364,14
2091988,12
2092608,11
2093240,16
2093856,15
2094484,15
2095112,15
2095736,16
2096364,12
2096988,10
2097616,12
2098244,10
2098864,11
2099492,13
2100116,12
2100740,11
2101368,12
2101992,15
2102620,15
2103244,15
2103864,15
2104496,14
2105112,13
2105740,12
2106364,12
2106992,13
2107620,10
2108244,11
2108872,11
2109500,11
2110120,15
2110748,16
2111372,15
2112000,16
2112628,11
2113248,11
2113876,13
2114500,10
2115124,16
2115752,19
2116372,13
2117000,11
2117624,15
2118244,16
2118876,14
2119500,14
2120132,14
2120760,13
2121376,12
2122004,12
2122628,11
2123256,10
2123888,11
2124504,12
2125136,18
2125760,15
2126380,16
2127012,14
2127632,16
2128260,17
2128884,15
2129508,13
2130136,11
2130760,10
2131388,10
2132016,10
2132640,11
2133268,11
2133892,13
2134520,13
2135148,14
2135768,16
2136396,15
2137020,15
2137644,12
2138272,11
2138888,11
2139520,11
2140140,11
2140764,11
2141396,11
2142020,11
2142648,11
2143280,14
2143896,16
2144528,17
2145148,18
2145780,15
2146408,11
2147024,10
2147656,11
2148280,12
2148904,11
2149532,10
2150152,13
2150784,12
2151404,17
2152028,20
2152656,14
2153272,15
2153900,19
2154532,17
2155152,13
2155780,11
2156404,13
2157036,12
2157664,11
2158288,13
2158916,15
2159540,14
2160164,15
2160792,14
2161416,15
2162044,13
2162668,11
2163292,10
2163920,11
2164536,13
2165164,11
2165792,10
2166416,12
2167044,12
2167668,12
2168296,14
2168928,14
2169544,14
2170176,14
2170800,13
2171424,12
2172052,12
2172672,12
2173300,10
2173924,11
2174548,11
2175180,11
2175800,13
2176432,13
2177060,14
2177680,15
2178308,15
2178932,16
2179560,15
2180188,10
2180808,10
2181436,10
2182060,10
2182684,11
2183312,12
2183928,11
2184560,15
2185180,15
2185804,14
2186436,14
2187056,14
2187684,11
2188316,12
2188936,11
2189564,11
2190188,12
2190820,12
2191448,14
2192064,16
2192696,15
2193316,15
2193940,14
2194572,14
2195192,15
2195824,15
2196448,13
2197072,12
2197700,10
2198320,11
2198948,13
2199580,12
2200200,11
2200828,11
2201452,13
2202084,14
2202712,15
2203332,14
2203960,13
2204584,10
2205208,12
2205836,13
2206456,13
2207084,11
2207708,17
2208332,22
2208964,22
2209584,22
2210212,21
2210844,14
2211464,15
2212092,14
2212716,11
2213348,11
2213976,11
2214600,11
2215228,12
2215852,14
2216476,11
2217104,10
2217728,13
2218356,16
2218980,16
2219604,13
2220236,14
2220856,13
2221484,11
2222116,15
2222736,14
2223364,11
2223988,11
2224620,11
2225252,11
2225872,13
2226500,17
2227128,17
2227752,15
2228380,15
2229000,15
2229628,11
2230252,11
2230880,12
2231508,10
2232132,14
2232764,13
2233396,11
2234016,12
2234644,12
2235268,14
2235900,14
2236532,14
2237152,15
2237784,11
2238408,11
2239032,11
2239664,11
2240280,11
2240912,12
2241536,12
2242160,15
2242788,14
2243412,14
2244040,14
2244672,13
2245288,16
2245916,15
2246540,11
2247172,11
2247800,11
2248420,14
2249048,19
2249672,14
2250296,12
2250924,13
2251544,16
2252172,16
2252796,14
2253424,13
2254056,15
2254676,13
2255308,10
2255936,12
2256556,11
2257184,11
2257808,11
2258436,12
2259064,10
2259688,12
2260316,15
2260940,16
2261564,16
2262192,14
2262816,12
2263444,10
2264076,11
2264696,11
2265324,12
2265948,12
2266576,12
2267208,11
2267824,13
2268452,14
2269076,14
2269704,14
2270332,14
2270952,12
2271580,12
2272208,15
2272832,13
2273460,10
2274080,11
2274708,11
2275340,12
2275960,14
2276588,17
2277212,16
2277844,15
2278472,14
2279096,14
2279724,11
2280348,10
2280972,11
2281600,10
2282216,11
2282848,13
2283472,11
2284096,12
2284724,14
2285344,15
2285972,14
2286604,14
2287224,14
2287852,11
2288480,11
2289108,11
2289740,11
2290360,12
2290992,11
2291616,13
2292240,11
2292868,13
2293488,17
2294120,15
2294740,16
2295364,21
2295996,18
2296616,14
2297244,13
2297876,12
2298496,10
2299124,11
2299748,11
2300380,10
2301008,10
2301632,14
2302260,14
2302884,14
2303512,14
2304144,14
2304756,11
2305388,11
2306008,12
2306632,13
2307260,10
2307880,13
2308508,11
2309136,12
2309752,14
2310384,15
2311008,14
2311636,15
2312268,16
2312888,11
2313516,11
2314140,13
2314764,12
2315396,10
2316016,11
2316644,12
2317268,13
2317892,11
2318524,21
2319144,29
2319772,18
2320404,14
2321024,15
2321652,19
2322276,13
2322904,12
2323536,10
2324152,11
2324780,13
2325404,11
2326028,15
2326660,16
2327280,16
2327908,15
2328532,15
2329156,13
2329788,10
2330408,11
2331036,11
2331668,10
2332288,11
2332916,11
2333540,11
2334172,11
2334804,12
2335424,14
2336052,14
2336676,16
2337300,20
2337928,16
2338544,13
2339172,12
2339800,11
2340424,11
2341052,12
2341672,12
2342300,12
2342932,11
2343552,13
2344180,14
2344804,15
2345436,14
2346068,11
2346688,12
2347316,11
2347944,13
2348568,12
2349196,10
2349816,11
2350444,13
2351068,14
2351696,15
2352324,14
2352944,15
2353572,17
2354204,11
2354824,11
2355456,10
2356076,11
2356708,12
2357336,10
2357960,14
2358588,15
2359212,11
2359836,16
2360468,14
2361088,15
2361716,14
2362340,15
2362964,11
2363596,16
2364216,21
2364844,17
2365476,22
2366096,27
2366724,24
2367348,25
2367980,22
2368612,20
2369232,21
2369860,17
2370484,15
2371108,12
2371740,10
2372360,15
2372988,19
2373612,19
2374240,13
2374868,12
2375492,12
2376124,17
2376752,24
2377376,30
2378004,37
2378628,40
2379260,42
2379888,39
2380512,35
2381144,30
2381764,19
2382388,11
2383020,27
2383640,47
2384268,49
2384892,40
2385520,40
2386152,21
2386776,17
2387404,14
2388036,11
2388656,13
2389284,14
2389908,12
2390536,11
2391164,12
2391784,12
2392416,11
2393040,15
2393664,17
2394292,15
2394912,15
2395544,14
2396172,12
2396792,13
2397424,13
2398048,11
2398680,14
2399308,17
2399928,11
2400560,11
2401184,11
2401808,13
2402436,14
2403056,17
2403684,16
2404308,15
2404932,12
2405564,11
2406184,11
2406816,11
2407444,10
2408064,12
2408692,11
2409316,12
2409944,14
2410576,14
2411192,14
2411824,15
2412448,14
2413072,11
2413700,11
2414320,14
2414948,12
2415576,11
2416200,13
2416828,10
2417448,12
2418076,12
2418708,16
2419328,17
2419956,14
2420580,15
2421212,11
2421840,10
2422464,11
2423092,10
2423716,11
2424340,11
2424972,10
2425592,12
2426224,12
2426848,16
2427472,15
2428100,14
2428720,15
2429352,15
2429980,11
2430600,12
2431232,11
2431856,11
2432488,11
2433116,10
2433736,13
2434364,12
2434988,15
2435612,14
2436244,16
2436864,19
2437492,17
2438116,15
2438740,13
2439372,10
2439992,11
2440624,11
2441252,10
2441872,11
2442500,11
2443124,12
2443756,13
2444388,14
2445008,15
2445636,14
2446260,15
2446884,11
2447516,12
2448136,15
2448764,12
2449388,11
2450012,12
2450644,11
2451268,13
2451896,13
2452528,15
2453148,17
2453776,18
2454404,13
2455032,11
2455664,11
2456284,12
2456912,13
2457540,13
2458164,13
2458792,13
2459416,13
2460044,17
2460668,15
2461296,15
2461924,13
2462548,12
2463176,10
2463808,11
2464424,13
2465056,10
2465676,10
2466308,11
2466936,11
2467552,11
2468184,13
2468808,14
2469428,14
2470060,14
2470680,15
2471308,11
2471932,12
2472560,12
2473188,11
2473812,11
2474444,12
2475072,14
2475688,15
2476320,16
2476944,19
2477572,17
2478204,17
2478824,18
2479452,15
2480076,11
2480700,11
2481328,10
2481944,10
2482576,11
2483200,10
2483820,11
2484452,10
2485076,14
2485704,14
2486336,15
2486952,16
2487584,13
2488208,11
2488836,11
2489468,14
2490088,14
2490716,14
2491340,14
2491964,15
2492596,15
2493216,17
2493844,14
2494476,16
2495096,17
2495728,15
2496352,12
2496980,10
2497608,10
2498232,11
2498860,14
2499484,12
2500108,11
2500736,10
2501360,13
2501988,14
2502612,15
2503236,15
2503868,14
2504488,11
2505116,10
2505748,12
2506368,11
2506996,11
2507620,15
2508252,14
2508884,10
2509504,11
2510132,15
2510756,14
2511380,14
2512012,14
2512632,12
2513260,10
2513888,11
2514512,11
2515140,14
2515760,13
2516388,13
2517020,12
2517640,12
2518272,14
2518896,16
2519528,17
2520156,14
2520776,15
2521408,11
2522032,11
2522656,11
2523284,11
2523904,11
2524536,11
2525160,11
2525784,12
2526412,11
2527032,15
2527664,15
2528292,14
2528912,15
2529540,11
2530168,11
2530796,10
2531428,10
2532048,11
2532676,13
2533304,12
2533928,12
2534560,13
2535176,14
2535808,15
2536432,15
2537056,15
2537684,17
2538308,11
2538940,11
2539572,10
2540192,11
2540820,11
2541444,13
2542076,11
2542708,12
2543328,20
2543960,18
2544584,16
2545208,15
2545836,13
2546456,11
2547088,11
2547716,12
2548336,12
2548968,11
2549592,11
2550224,10
2550852,10
2551472,12
2552104,13
2552728,14
2553352,15
2553984,14
2554600,12
2555232,11
2555856,13
2556480,14
2557112,12
2557732,11
2558364,11
2558996,10
2559616,11
2560252,17
2560872,19
2561500,15
2562128,17
2562744,17
2563372,15
2563996,14
2564616,12
2565244,10
2565860,11
2566492,12
2567112,11
2567736,12
2568364,14
2568984,14
2569612,15
2570232,16
2570856,13
2571484,11
2572108,12
2572736,16
2573368,13
2573984,12
2574612,12
2575236,11
2575864,13
2576496,16
2577112,17
2577740,14
2578364,14
2578988,14
2579616,10
2580240,11
2580868,11
2581492,10
2582116,14
2582744,16
2583368,14
2583996,12
2584628,12
2585248,14
2585876,15
2586500,15
2587128,18
2587760,12
2588376,12
2589004,11
2589628,12
2590252,11
2590880,14
2591504,13
2592132,12
2592756,11
2593380,14
2594008,15
2594632,18
2595260,18
2595888,18
2596512,16
2597140,14
2597764,13
2598392,10
2599024,11
2599644,10
2600272,11
2600896,11
2601520,12
2602148,13
2602768,15
2603396,13
2604020,14
2604644,11
2605272,11
2605896,11
2606528,14
2607156,12
2607776,13
2608404,13
2609028,16
2609660,19
2610288,19
2610912,15
2611544,15
2612164,14
2612788,11
2613420,11
2614040,15
2614668,14
2615292,12
2615920,12
2616548,11
2617172,11
2617804,11
2618432,13
2619056,13
2619684,13
2620308,15
2620936,13
2621564,11
2622184,11
2622812,11
2623432,10
2624056,12
2624684,11
2625300,12
2625928,12
2626552,15
2627176,17
2627804,17
2628428,15
2629056,14
2629684,10
2630304,11
2630932,12
2631556,12
2632184,12
2632812,10
2633432,12
2634060,11
2634684,11
2635304,13
2635936,14
2636552,16
2637184,19
2637804,13
2638428,10
2639056,11
2639676,10
2640304,14
2640932,14
2641552,13
2642180,12
2642804,14
2643432,19
2644060,22
2644680,20
2645308,17
2645928,14
2646552,11
2647180,11
2647800,12
2648428,10
2649052,11
2649672,10
2650304,11
2650920,11
2651548,13
2652176,14
2652800,13
2653428,14
2654052,14
2654680,12
2655308,10
2655928,11
2656556,11
2657180,12
2657804,11
2658432,16
2659056,17
2659684,14
2660308,15
2660932,15
2661560,14
2662184,17
2662812,15
2663440,12
2664060,13
2664688,13
2665312,14
2665940,11
2666568,10
2667184,14
2667816,19
2668436,17
2669060,17
2669688,18
2670312,16
2670940,14
2671564,13
2672188,10
2672816,10
2673432,11
2674060,11
2674684,12
2675312,11
2675940,13
2676564,18
2677192,19
2677820,17
2678440,15
2679068,14
2679692,11
2680320,12
2680948,10
2681568,11
2682196,13
2682820,12
2683444,11
2684072,10
2684696,12
2685324,13
2685948,14
2686576,16
2687204,18
2687828,12
2688460,11
2689088,11
2689704,12
2690332,10
2690956,12
2691584,12
2692212,11
2692832,12
2693460,14
2694084,14
2694704,15
2695332,14
2695952,12
2696580,12
2697204,13
2697828,11
2698456,10
2699080,11
2699708,11
2700340,10
2700960,10
2701588,14
2702212,15
2702844,15
2703472,19
2704088,16
2704716,11
2705340,10
2705960,11
2706592,20
2707208,19
2707836,14
2708460,15
2709084,11
2709712,11
2710332,14
2710960,14
2711588,14
2712208,15
2712836,13
2713460,12
2714092,10
2714720,10
2715336,11
2715968,11
2716592,11
2717216,11
2717844,10
2718464,13
2719092,14
2719716,16
2720340,15
2720968,12
2721588,13
2722220,11
2722848,11
2723464,11
2724096,14
2724716,13
2725348,13
2725976,11
2726596,16
2727224,16
2727848,15
2728468,14
2729100,14
2729720,12
2730348,11
2730972,10
2731596,11
2732224,13
2732840,12
2733472,11
2734100,10
2734720,13
2735348,15
2735972,14
2736604,15
2737232,20
2737852,19
2738480,13
2739104,13
2739728,19
2740356,18
2740976,16
2741604,17
2742228,19
2742852,13
2743484,14
2744104,15
2744732,16
2745364,16
2745984,14
2746612,11
2747236,10
2747864,10
2748496,10
2749112,10
2749744,10
2750364,10
2750992,11
2751620,13
2752240,15
2752868,14
2753492,14
2754116,15
2754744,21
2755368,18
2755996,11
2756628,10
2757248,14
2757876,12
2758500,11
2759132,11
2759760,10
2760384,17
2761012,19
2761636,14
2762260,15
2762892,10
2763512,11
2764144,10
2764768,11
2765392,11
2766020,10
2766640,11
2767268,10
2767900,12
2768520,16
2769148,15
2769772,14
2770400,14
2771032,11
2771648,11
2772280,13
2772904,12
2773528,11
2774156,16
2774776,15
2775404,15
2776028,11
2776652,14
2777284,14
2777904,15
2778532,15
2779164,14
2779784,11
2780412,12
2781036,13
2781668,11
2782300,10
2782920,10
2783548,12
2784176,12
2784800,11
2785428,13
2786048,14
2786676,14
2787300,14
2787924,12
2788552,11
2789168,11
2789800,11
2790428,10
2791048,12
2791676,14
2792300,17
2792932,22
2793560,23
2794180,16
2794808,15
2795432,15
2796056,12
2796684,11
2797304,14
2797932,11
2798556,11
2799180,10
2799812,11
2800432,11
2801060,14
2801692,22
2802312,21
2802940,16
2803564,15
2804196,14
2804824,11
2805440,10
2806072,11
2806696,12
2807320,11
2807948,10
2808568,15
2809196,15
2809820,17
2810444,17
2811076,15
2811696,17
2812324,15
2812956,12
2813576,13
2814204,12
2814832,11
2815460,11
2816092,10
2816708,11
2817340,12
2817960,11
2818584,13
2819212,14
2819832,15
2820460,14
2821084,11
2821708,11
2822336,10
2822956,11
2823584,11
2824216,10
2824832,11
2825464,12
2826088,13
2826716,14
2827344,14
2827968,15
2828596,15
2829220,17
2829844,21
2830472,14
2831096,11
2831724,10
2832348,10
2832972,12
2833600,10
2834224,11
2834852,12
2835484,14
2836104,16
2836732,16
2837356,15
2837988,13
2838616,11
2839240,12
2839868,12
2840492,10
2841116,10
2841748,10
2842368,12
2842996,13
2843620,18
2844244,16
2844872,16
2845496,15
2846124,11
2846756,10
2847376,11
2848004,11
2848628,10
2849256,14
2849884,12
2850504,11
2851132,12
2851760,15
2852384,13
2853012,14
2853632,15
2854260,13
2854888,10
2855512,11
2856140,11
2856760,11
2857388,11
2858020,10
2858640,12
2859268,12
2859896,15
2860524,16
2861156,14
2861776,19
2862408,18
2863028,17
2863656,17
2864284,17
2864904,10
2865532,13
2866160,12
2866784,11
2867416,11
2868036,12
2868668,15
2869296,14
2869912,15
2870540,15
2871164,11
2871796,10
2872424,11
2873040,12
2873672,13
2874292,11
2874916,14
2875548,12
2876168,11
2876796,15
2877420,15
2878048,16
2878676,15
2879300,12
2879932,11
2880564,10
2881180,14
2881812,15
2882436,12
2883064,11
2883692,16
2884312,21
2884940,28
2885564,22
2886188,15
2886816,22
2887432,21
2888064,17
2888684,15
2889308,14
2889936,11
2890560,11
2891188,11
2891816,14
2892440,12
2893068,12
2893692,17
2894320,17
2894952,17
2895568,17
2896196,13
2896820,11
2897444,11
2898072,11
2898688,10
2899320,11
2899940,11
2900564,12
2901196,10
2901816,15
2902444,15
2903076,17
2903696,17
2904324,12
2904948,15
2905580,23
2906212,18
2906832,15
2907460,11
2908088,11
2908712,14
2909340,11
2909960,15
2910588,15
2911212,17
2911836,17
2912468,16
2913092,14
2913724,12
2914352,10
2914972,11
2915600,11
2916224,11
2916852,10
2917484,10
2918104,11
2918736,14
2919356,15
2919980,15
2920612,14
2921232,11
2921860,10
2922484,12
2923108,12
2923740,11
2924364,13
2924992,11
2925620,11
2926240,12
2926868,13
2927492,14
2928124,15
2928752,14
2929376,13
2930004,12
2930628,12
2931252,11
2931884,10
2932504,11
2933132,10
2933756,11
2934384,11
2935016,14
2935640,14
2936268,15
2936900,14
2937520,15
2938152,11
2938776,12
2939400,12
2940028,11
2940648,13
2941276,13
2941904,12
2942528,11
2943160,12
2943780,15
2944412,14
2945040,15
2945656,15
2946284,15
2946908,17
2947540,13
2948168,11
2948788,13
2949416,10
2950040,14
2950664,11
2951292,11
2951912,13
2952540,15
2953164,15
2953788,15
2954420,10
2955040,11
2955668,13
2956300,12
2956920,13
2957548,11
2958172,11
2958804,11
2959432,13
2960052,21
2960680,16
2961300,13
2961924,13
2962556,12
2963176,11
2963808,14
2964428,11
2965052,12
2965684,10
2966304,10
2966932,10
2967564,11
2968184,14
2968812,14
2969436,13
2970068,13
2970696,14
2971320,11
2971948,11
2972572,10
2973196,11
2973824,10
2974448,12
2975076,12
2975700,13
2976324,13
2976956,16
2977576,14
2978204,13
2978836,16
2979456,13
2980084,10
2980708,10
2981340,11
2981968,11
2982588,10
2983216,11
2983840,10
2984464,11
2985092,13
2985712,13
2986340,14
2986964,14
2987588,13
2988220,10
2988840,11
2989468,11
2990100,10
2990720,13
2991348,14
2991972,12
2992604,11
2993236,14
2993856,15
2994484,15
2995112,19
2995736,20
2996364,15
2996984,13
2997612,11
2998236,11
2998864,9
2999440,11
3000064,11
3000692,11
3001316,12
3001940,14
3002572,16
3003192,19
3003824,15
3004452,10
3005072,11
3005704,10
3006328,11
3006956,11
3007588,10
3008208,11
3008840,11
3009464,11
3010084,15
3010716,15
3011336,14
3011964,15
3012588,13
3013216,14
3013844,11
3014468,13
3015100,18
3015728,13
3016352,11
3016980,11
3017608,10
3018236,13
3018868,14
3019488,17
3020120,20
3020744,19
3021368,15
3022000,13
3022616,11
3023248,11
3023880,12
3024496,11
3025124,11
3025752,11
3026380,13
3027012,14
3027632,17
3028264,16
3028888,19
3029512,19
3030144,19
3030760,15
3031392,12
3032016,11
3032640,10
3033272,14
3033892,14
3034520,13
3035152,15
3035768,15
3036400,15
3037024,15
3037656,15
3038284,12
3038904,11
3039536,12
3040160,11
3040784,11
3041412,10
3042032,12
3042660,12
3043284,13
3043908,14
3044540,15
3045160,15
3045788,14
3046420,10
3047040,12
3047668,11
3048292,11
3048924,10
3049556,10
3050176,14
3050808,12
3051432,12
3052056,14
3052684,14
3053304,16
3053936,15
3054560,11
3055184,11
3055816,15
3056432,26
3057064,26
3057692,15
3058312,15
3058944,12
3059568,18
3060196,31
3060828,36
3061448,32
3062080,20
3062704,13
3063328,15
3063960,18
3064576,16
3065208,13
3065832,11
3066456,11
3067088,10
3067704,10
3068336,14
3068968,13
3069584,14
3070216,16
3070844,15
3071476,10
3072108,10
3072724,11
3073356,11
3073976,10
3074600,12
3075228,12
3075848,16
3076476,16
3077100,15
3077724,14
3078352,14
3078976,15
3079604,11
3080236,10
3080856,10
3081484,10
3082108,11
3082740,14
3083368,14
3083984,12
3084612,13
3085240,13
3085860,15
3086492,16
3087112,15
3087740,12
3088364,17
3088988,22
3089620,19
3090244,14
3090872,11
3091504,11
3092120,11
3092748,12
3093372,20
3094004,20
3094632,21
3095256,20
3095884,19
3096508,17
3097132,17
3097764,16
3098384,11
3099012,10
3099636,11
3100260,13
3100892,11
3101516,12
3102148,16
3102776,26
3103400,35
3104032,43
3104652,43
3105284,45
3105912,46
3106532,43
3107164,37
3107788,35
3108412,23
3109044,14
3109664,46
3110296,55
3110928,45
3111544,39
3112176,27
3112800,16
3113432,13
3114060,16
3114680,18
3115308,18
3115936,22
3116560,26
3117188,24
3117808,18
3118436,16
3119060,13
3119688,15
3120316,14
3120936,14
3121564,12
3122196,10
3122816,10
3123448,11
3124068,11
3124700,12
3125328,12
3125948,18
3126576,24
3127200,20
3127824,15
3128452,13
3129072,15
3129700,11
3130324,11
3130948,10
3131580,10
3132200,11
3132828,9
3133404,10
3134032,11
3134664,11
3135280,13
3135912,15
3136544,14
3137160,13
3137792,11
3138416,11
3139044,10
3139676,10
3140296,12
3140924,11
3141552,13
3142176,13
3142808,11
3143424,15
3144056,14
3144680,15
3145304,14
3145932,12
3146552,13
3147184,17
3147816,22
3148432,20
3149064,15
3149688,14
3150316,11
3150948,10
3151568,12
3152200,14
3152824,13
3153448,15
3154080,14
3154696,11
3155324,10
3155952,11
3156576,12
3157204,11
3157832,11
3158460,11
3159092,10
3159712,12
3160344,15
3160968,16
3161596,15
3162228,14
3162848,11
3163480,12
3164104,13
3164728,13
3165360,10
3165976,11
3166608,11
3167240,10
3167856,11
3168488,15
3169112,14
3169744,15
3170372,15
3170992,13
3171624,11
3172248,11
3172872,11
3173504,10
3174124,13
3174756,15
3175380,16
3176004,13
3176632,13
3177256,15
3177888,14
3178516,14
3179136,15
3179768,11
3180392,11
3181024,12
3181652,13
3182272,11
3182904,11
3183528,11
3184152,11
3184784,11
3185400,15
3186032,15
3186656,15
3187280,15
3187908,10
3188528,11
3189160,11
3189788,11
3190408,15
3191036,14
3191664,14
3192296,14
3192928,12
3193548,16
3194180,14
3194804,15
3195432,13
3196060,12
3196680,11
3197312,11
3197936,12
3198560,13
3199192,11
3199816,10
3200448,10
3201076,10
3201696,16
3202324,16
3202948,14
3203576,17
3204204,15
3204824,10
3205452,11
3206076,10
3206696,10
3207328,11
3207944,12
3208572,12
3209196,12
3209820,13
3210448,16
3211072,16
3211700,14
3212332,14
3212952,12
3213580,10
3214204,10
3214836,10
3215464,10
3216080,10
3216712,10
3217332,11
3217956,12
3218584,12
3219208,15
3219836,14
3220460,15
3221084,11
3221712,10
3222336,11
3222964,12
3223596,10
3224216,12
3224844,11
3225468,11
3226100,11
3226728,14
3227352,18
3227980,15
3228604,16
3229228,16
3229860,12
3230480,13
3231108,12
3231732,11
3232360,11
3232988,10
3233612,11
3234240,11
3234868,11
3235488,14
3236116,14
3236740,14
3237372,14
3238000,12
3238624,11
3239252,10
3239876,10
3240500,11
3241132,10
3241752,12
3242380,12
3243004,10
3243632,15
3244260,14
3244884,15
3245516,15
3246144,14
3246768,14
3247396,14
3248020,11
3248644,12
3249276,12
3249896,13
3250524,10
3251152,11
3251776,16
3252404,16
3253024,13
3253652,15
3254284,14
3254904,13
3255532,12
3256160,15
3256788,15
3257420,12
3258040,12
3258668,13
3259292,17
3259920,18
3260548,16
3261168,14
3261800,14
3262424,15
3263048,10
3263676,10
3264296,10
3264928,11
3265556,10
3266176,11
3266804,11
3267428,11
3268060,11
3268692,13
3269312,14
3269944,13
3270568,14
3271192,14
3271820,11
3272440,11
3273068,11
3273696,11
3274320,11
3274948,10
3275568,12
3276200,13
3276828,15
3277444,18
3278072,16
3278696,13
3279324,11
3279952,10
3280568,10
3281196,11
3281820,12
3282444,11
3283072,10
3283688,10
3284316,10
3284940,12
3285560,15
3286188,14
3286808,15
3287436,15
3288056,12
3288680,10
3289308,11
3289932,10
3290560,11
3291188,11
3291808,14
3292436,14
3293060,16
3293688,19
3294316,18
3294936,17
3295564,17
3296188,13
3296812,11
3297440,10
3298056,11
3298684,10
3299308,11
3299928,11
3300556,10
3301176,11
3301804,15
3302432,14
3303052,15
3303684,15
3304304,15
3304936,13
3305564,10
3306184,11
3306812,11
3307436,12
3308060,15
3308688,16
3309308,14
3309936,14
3310560,15
3311184,14
3311812,14
3312432,15
3313060,11
3313692,10
3314312,11
3314940,11
3315564,11
3316196,10
3316824,10
3317440,10
3318072,13
3318696,13
3319320,15
3319948,16
3320568,30
3321196,39
3321820,45
3322444,35
3323072,31
3323692,30
3324320,23
3324948,16
3325568,18
3326196,15
3326820,16
3327452,29
3328080,40
3328700,28
3329328,15
3329948,15
3330572,16
3331200,11
3331816,17
3332444,16
3333068,20
3333692,21
3334320,16
3334940,13
3335568,16
3336196,16
3336816,16
3337444,36
3338068,50
3338696,46
3339324,40
3339944,33
3340572,23
3341196,11
3341824,14
3342456,18
3343072,15
3343700,15
3344324,15
3344948,14
3345576,14
3346196,12
3346824,13
3347448,11
3348072,11
3348700,14
3349324,24
3349952,20
3350580,14
3351200,38
3351828,36
3352452,37
3353084,49
3353712,52
3354336,40
3354964,17
3355588,11
3356212,20
3356840,35
3357464,45
3358092,51
3358716,50
3359344,43
3359972,51
3360596,50
3361228,41
3361856,35
3362472,19
3363100,11
3363724,16
3364352,15
3364984,11
3365600,11
3366228,14
3366852,35
3367476,41
3368104,19
3368720,13
3369352,18
3369972,23
3370596,18
3371224,27
3371848,26
3372480,25
3373108,17
3373728,20
3374356,33
3374980,30
3375612,15
3376240,48
3376864,59
3377492,55
3378116,46
3378740,63
3379372,50
3379992,29
3380620,12
3381240,14
3381864,18
3382492,13
3383116,15
3383744,24
3384372,24
3384992,29
3385620,21
3386240,13
3386872,16
3387500,20
3388120,20
3388748,17
3389372,14
3389996,13
3390628,16
3391248,19
3391876,18
3392504,16
3393124,12
3393756,14
3394380,14
3395008,15
3395636,16
3396256,17
3396884,17
3397508,15
3398136,12
3398768,10
3399384,10
3400016,12
3400636,10
3401260,11
3401888,13
3402512,14
3403140,14
3403764,16
3404388,12
3405016,11
3405640,11
3406268,11
3406896,10
3407520,11
3408148,12
3408772,13
3409400,12
3410028,14
3410648,14
3411276,14
3411900,14
3412524,14
3413152,10
3413772,11
3414400,12
3415024,13
3415648,13
3416276,12
3416900,12
3417532,11
3418164,10
3418784,14
3419412,14
3420036,13
3420668,14
3421300,10
3421920,12
3422548,11
3423172,11
3423800,11
3424428,10
3425048,11
3425676,11
3426300,10
3426928,15
3427556,15
3428180,15
3428812,16
3429440,13
3430064,13
3430696,14
3431320,12
3431944,10
3432572,10
3433192,12
3433820,12
3434448,11
3435068,13
3435700,13
3436320,15
3436948,17
3437580,21
3438200,24
3438828,13
3439456,11
3440084,17
3440716,32
3441336,36
3441964,37
3442588,30
3443212,16
3443840,15
3444456,27
3445084,21
3445708,16
3446332,23
3446960,30
3447584,37
3448212,54
3448844,46
3449464,23
3450092,11
3450716,13
3451348,22
3451976,28
3452600,32
3453228,32
3453856,37
3454480,40
3455108,32
3455728,22
3456360,21
3456980,37
3457604,26
3458232,13
3458852,12
3459480,23
3460108,54
3460728,69
3461356,64
3461980,59
3462612,55
3463240,48
3463856,18
3464484,13
3465108,39
3465736,32
3466364,18
3466984,11
3467612,12
3468236,11
3468860,14
3469492,19
3470112,17
3470740,17
3471372,14
3471992,17
3472624,14
3473248,15
3473876,21
3474508,14
3475128,15
3475760,13
3476384,12
3477008,23
3477636,18
3478256,15
3478888,14
3479512,12
3480136,11
3480768,10
3481384,11
3482016,15
3482644,41
3483264,44
3483892,33
3484516,23
3485144,28
3485772,36
3486392,33
3487020,19
3487644,13
3488268,19
3488900,54
3489520,29
3490148,16
3490772,42
3491396,73
3492028,75
3492648,81
3493276,97
3493908,88
3494528,52
3495156,28
3495780,23
3496412,12
3497040,26
3497656,51
3498284,37
3498908,19
3499532,16
3500164,13
3500784,12
3501416,19
3502040,18
3502664,13
3503292,18
3503912,17
3504544,12
3505172,16
3505792,25
3506420,19
3507048,11
3507676,15
3508308,12
3508928,12
3509556,15
3510184,27
3510808,24
3511436,16
3512056,15
3512688,15
3513312,12
3513936,13
3514564,10
3515184,11
3515816,12
3516448,11
3517064,11
3517696,11
3518320,13
3518952,14
3519584,14
3520204,14
3520832,15
3521456,11
3522080,11
3522708,11
3523328,13
3523956,13
3524580,12
3525204,12
3525832,12
3526448,11
3527080,14
3527708,14
3528328,17
3528956,16
3529580,16
3530212,16
3530840,14
3531460,16
3532088,10
3532712,10
3533340,11
3533968,12
3534584,11
3535216,14
3535840,15
3536464,15
3537092,14
3537712,13
3538340,11
3538972,10
3539592,11
3540220,11
3540844,11
3541476,11
3542104,11
3542728,11
3543356,14
3543980,15
3544608,15
3545236,14
3545856,17
3546484,14
3547108,12
3547732,11
3548364,10
3548984,13
3549612,11
3550244,12
3550864,17
3551496,18
3552120,17
3552748,19
3553380,16
3554000,15
3554628,24
3555252,21
3555876,21
3556508,12
3557128,11
3557756,10
3558384,15
3559008,29
3559640,31
3560264,28
3560892,16
3561524,15
3562144,18
3562776,15
3563400,12
3564028,11
3564660,10
3565280,11
3565908,11
3566536,11
3567160,13
3567788,16
3568408,15
3569036,14
3569660,16
3570288,17
3570916,13
3571544,12
3572172,11
3572804,10
3573424,11
3574056,11
3574680,12
3575304,12
3575936,10
3576552,18
3577184,37
3577808,38
3578432,31
3579064,31
3579680,25
3580312,15
3580944,19
3581564,26
3582192,15
3582820,31
3583452,55
3584084,69
3584700,71
3585332,56
3585956,53
3586576,50
3587208,40
3587824,14
3588452,25
3589076,26
3589700,45
3590332,40
3590952,29
3591580,22
3592212,16
3592832,12
3593460,14
3594088,14
3594716,14
3595348,17
3595968,31
3596600,22
3597224,15
3597848,21
3598476,32
3599096,41
3599728,41
3600352,34
3600976,25
3601604,12
3602224,34
3602852,44
3603484,32
3604104,15
3604732,21
3605356,29
3605988,36
3606616,34
3607232,46
3607864,46
3608484,36
3609108,14
3609740,30
3610360,59
3610988,60
3611612,28
3612232,15
3612864,14
3613480,21
3614108,21
3614740,18
3615360,17
3615988,15
3616612,14
3617244,15
3617872,24
3618488,25
3619120,19
3619744,19
3620368,17
3620996,14
3621616,15
3622244,17
3622868,15
3623492,14
3624124,13
3624744,21
3625372,20
3626004,25
3626624,17
3627252,15
3627876,21
3628508,18
3629136,38
3629756,43
3630384,41
3631008,25
3631632,15
3632264,23
3632880,13
3633508,19
3634132,25
3634756,62
3635388,83
3636008,37
3636636,18
3637264,24
3637888,19
3638516,15
3639140,13
3639772,11
3640404,10
3641024,11
3641652,11
3642276,12
3642900,11
3643528,14
3644152,17
3644784,15
3645408,14
3646032,12
3646660,11
3647280,11
3647908,12
3648540,10
3649160,12
3649788,11
3650412,11
3651040,19
3651672,19
3652288,13
3652920,15
3653544,13
3654168,15
3654796,10
3655416,11
3656044,11
3656668,14
3657292,19
3657924,12
3658544,11
3659172,11
3659804,16
3660424,30
3661056,47
3661676,51
3662308,57
3662940,55
3663560,30
3664192,21
3664812,27
3665436,11
3666068,10
3666688,32
3667316,67
3667940,69
3668564,39
3669196,22
3669816,21
3670448,23
3671076,32
3671696,54
3672328,44
3672952,14
3673580,10
3674212,16
3674832,36
3675464,17
3676088,13
3676712,15
3677344,14
3677960,14
3678592,22
3679216,23
3679840,11
3680472,22
3681096,34
3681724,24
3682356,10
3682976,20
3683608,33
3684232,51
3684860,61
3685492,35
3686112,17
3686744,37
3687364,17
3687988,14
3688616,21
3689240,33
3689868,31
3690492,11
3691112,14
3691744,19
3692368,20
3692996,29
3693624,19
3694248,21
3694876,16
3695500,17
3696132,17
3696760,15
3697376,14
3698008,11
3698632,21
3699256,27
3699884,35
3700504,43
3701132,40
3701756,50
3702384,50
3703016,59
3703640,69
3704272,75
3704900,43
3705520,11
3706152,35
3706776,65
3707400,100
3708080,131
3708756,115
3709436,64
3710064,41
3710680,57
3711312,28
3711936,14
3712560,14
3713192,10
3713808,23
3714436,38
3715060,41
3715684,40
3716316,35
3716940,34
3717572,25
3718200,20
3718820,20
3719448,15
3720072,28
3720700,25
3721332,38
3721952,25
3722580,15
3723204,22
3723828,21
3724460,16
3725080,18
3725708,28
3726332,34
3726960,23
3727592,15
3728216,15
3728844,25
3729472,54
3730092,53
3730720,11
3731344,19
3731976,33
3732604,27
3733224,13
3733852,11
3734480,21
3735104,35
3735732,38
3736352,29
3736980,34
3737612,44
3738232,21
3738860,16
3739484,27
3740116,11
3740748,16
3741368,27
3741996,15
3742624,20
3743248,26
3743876,26
3744496,29
3745128,19
3745752,21
3746376,12
3747008,27
3747624,36
3748256,38
3748884,46
3749504,45
3750132,21
3750760,13
3751388,12
3752020,14
3752640,16
3753268,17
3753896,25
3754520,20
3755148,22
3755768,16
3756400,13
3757024,11
3757648,15
3758280,31
3758896,21
3759528,13
3760160,18
3760776,35
3761408,30
3762032,26
3762660,38
3763292,28
3763912,11
3764544,12
3765168,13
3765792,14
3766420,13
3767040,11
3767668,11
3768296,12
3768920,26
3769548,18
3770168,14
3770796,17
3771428,13
3772048,20
3772676,27
3773304,50
3773936,43
3774564,12
3775184,37
3775816,51
3776440,50
3777064,31
3777692,25
3778312,25
3778944,15
3779568,21
3780192,39
3780820,52
3781444,35
3782076,15
3782704,21
3783328,18
3783960,33
3784584,28
3785212,58
3785844,94
3786464,106
3787148,88
3787768,84
3788392,52
3789024,36
3789648,94
3790280,79
3790912,60
3791528,96
3792156,142
3792832,38
3793456,25
3794084,22
3794704,19
3795336,28
3795960,43
3796584,73
3797212,90
3797840,63
3798468,13
3799100,32
3799720,39
3800352,40
3800976,25
3801604,12
3802236,20
3802856,25
3803488,20
3804112,18
3804736,11
3805368,13
3805984,21
3806616,18
3807248,11
3807868,12
3808496,14
3809120,13
3809752,13
3810384,13
3811004,14
3811632,14
3812256,15
3812884,13
3813512,18
3814132,19
3814764,13
3815388,10
3816012,18
3816644,22
3817264,24
3817896,20
3818524,16
3819144,15
3819776,14
3820400,16
3821032,15
3821660,11
3822280,43
3822912,71
3823536,45
3824160,12
3824788,23
3825408,38
3826040,47
3826664,48
3827288,41
3827916,30
3828536,21
3829168,21
3829800,12
3830416,38
3831048,79
3831672,146
3832356,88
3832984,27
3833600,11
3834232,27
3834856,45
3835484,45
3836116,43
3836740,41
3837372,29
3838004,11
3838624,11
3839256,10
3839884,29
3840516,70
3841148,60
3841768,20
3842396,11
3843020,13
3843644,35
3844272,46
3844896,38
3845524,21
3846156,20
3846776,26
3847404,20
3848028,15
3848660,19
3849288,45
3849904,50
3850536,22
3851160,17
3851784,16
3852412,18
3853032,33
3853660,21
3854284,18
3854908,12
3855540,16
3856160,23
3856788,25
3857420,28
3858040,31
3858668,28
3859292,53
3859924,114
3860604,132
3861276,94
3861904,77
3862532,60
3863152,16
3863784,31
3864408,56
3865036,179
3865720,300
3866388,203
3867064,29
3867692,12
3868312,17
3868940,19
3869568,16
3870196,14
3870828,16
3871448,15
3872076,19
3872700,21
3873324,23
3873956,24
3874576,21
3875204,15
3875828,14
3876452,11
3877084,15
3877708,14
3878340,18
3878972,18
3879592,12
3880224,11
3880848,13
3881476,11
3882108,10
3882728,11
3883360,12
3883984,11
3884608,11
3885240,14
3885856,14
3886488,13
3887116,14
3887736,12
3888368,11
3888992,11
3889620,11
3890252,10
3890872,11
3891504,11
3892128,11
3892752,14
3893380,23
3894000,21
3894628,21
3895252,16
3895876,15
3896508,11
3897128,14
3897756,13
3898388,26
3899008,37
3899640,44
3900264,50
3900892,38
3901524,12
3902144,15
3902776,28
3903400,36
3904024,15
3904652,28
3905272,52
3905904,70
3906528,73
3907152,37
3907784,12
3908400,14
3909028,14
3909660,15
3910280,15
3910912,15
3911536,15
3912168,14
3912796,12
3913416,10
3914048,12
3914672,11
3915296,11
3915928,11
3916544,12
3917176,11
3917800,10
3918424,13
3919056,14
3919676,13
3920308,14
3920936,14
3921556,11
3922188,11
3922812,11
3923440,10
3924072,11
3924692,18
3925320,25
3925944,37
3926568,41
3927200,38
3927816,41
3928448,25
3929072,15
3929696,35
3930324,70
3930952,98
3931580,61
3932212,18
3932832,36
3933460,36
3934084,38
3934712,13
3935344,33
3935964,18
3936592,14
3937220,17
3937840,63
3938472,110
3939140,88
3939768,22
3940396,14
3941016,21
3941644,23
3942272,21
3942900,15
3943532,14
3944152,16
3944780,20
3945404,24
3946028,29
3946660,24
3947280,29
3947908,27
3948532,26
3949160,21
3949788,14
3950412,37
3951044,60
3951672,74
3952296,54
3952928,22
3953552,17
3954180,25
3954812,34
3955432,41
3956060,56
3956684,47
3957308,29
3957940,14
3958560,13
3959188,27
3959820,32
3960440,57
3961068,69
3961696,53
3962324,23
3962956,13
3963576,18
3964204,11
3964832,14
3965456,15
3966084,12
3966704,13
3967336,17
3967960,15
3968584,14
3969216,14
3969832,16
3970460,14
3971092,12
3971712,13
3972344,20
3972968,25
3973596,30
3974228,14
3974848,13
3975476,11
3976100,17
3976724,25
3977356,28
3977976,33
3978608,31
3979232,15
3979856,12
3980484,16
3981104,29
3981736,14
3982364,13
3982984,44
3983616,96
3984240,67
3984868,13
3985500,28
3986120,33
3986752,40
3987376,21
3988000,43
3988628,83
3989248,46
3989880,35
3990504,56
3991128,21
3991760,16
3992376,22
3993008,23
3993640,18
3994256,16
3994884,16
3995508,14
3996140,11
3996772,10
3997392,11
3998024,15
3998648,22
3999272,20
3999904,11
4000520,12
4001152,11
4001776,23
4002396,17
4003028,14
4003652,15
4004280,17
4004912,21
4005528,13
4006156,11
4006780,13
4007412,17
4008040,16
4008656,17
4009288,17
4009912,15
4010536,14
4011164,27
4011784,41
4012412,27
4013040,15
4013664,16
4014292,22
4014916,18
4015544,12
4016176,12
4016792,22
4017420,17
4018044,15
4018676,20
4019304,28
4019928,27
4020556,24
4021180,13
4021804,15
4022432,16
4023048,22
4023680,16
4024304,23
4024928,50
4025556,31
4026180,17
4026812,43
4027440,54
4028064,67
4028692,65
4029316,71
4029948,52
4030580,21
4031200,30
4031832,79
4032456,51
4033080,33
4033708,37
4034328,59
4034956,52
4035580,22
4036208,41
4036836,64
4037460,85
4038092,41
4038720,24
4039344,50
4039976,30
4040600,21
4041224,19
4041852,11
4042472,11
4043100,14
4043728,16
4044352,15
4044980,15
4045600,15
4046228,11
4046860,12
4047480,13
4048108,11
4048732,10
4049364,10
4049992,14
4050612,17
4051240,18
4051864,26
4052488,30
4053116,30
4053736,26
4054368,23
4054992,14
4055616,13
4056244,38
4056864,38
4057492,51
4058124,39
4058744,19
4059372,26
4060000,12
4060628,14
4061260,14
4061880,19
4062512,21
4063136,20
4063760,23
4064392,42
4065008,19
4065636,11
4066260,17
4066884,11
4067516,12
4068136,12
4068768,39
4069396,35
4070016,26
4070648,19
4071272,12
4071900,16
4072532,38
4073152,65
4073784,85
4074408,87
4075032,81
4075664,41
4076280,24
4076908,37
4077536,77
4078160,90
4078788,91
4079408,72
4080040,34
4080668,11
4081288,21
4081916,16
4082544,33
4083172,19
4083804,56
4084424,35
4085056,17
4085680,49
4086304,24
4086936,16
4087552,14
4088184,19
4088808,16
4089432,58
4090064,67
4090684,64
4091312,39
4091944,12
4092564,29
4093196,12
4093820,29
4094452,15
4095084,33
4095704,33
4096336,31
4096960,19
4097580,15
4098208,41
4098824,57
4099452,92
4100072,141
4100748,87
4101372,56
4101996,51
4102624,17
4103252,68
4103872,75
4104500,115
4105172,157
4105844,58
4106468,18
4107092,11
4107720,21
4108348,36
4108968,39
4109596,19
4110220,17
4110848,24
4111476,24
4112096,17
4112724,20
4113348,64
4113968,36
4114600,10
4115216,12
4115844,13
4116468,11
4117092,15
4117720,17
4118344,15
4118972,26
4119604,30
4120224,37
4120852,35
4121476,28
4122104,13
4122736,37
4123352,33
4123980,19
4124604,39
4125228,82
4125856,58
4126480,14
4127108,23
4127732,43
4128356,45
4128984,29
4129608,25
4130236,37
4130864,44
4131484,26
4132112,46
4132736,66
4133364,13
4133996,32
4134616,24
4135244,16
4135868,14
4136492,14
4137120,14
4137736,25
4138368,32
4138988,43
4139612,44
4140240,27
4140864,16
4141496,13
4142124,12
4142744,59
4143372,91
4143996,49
4144628,20
4145256,14
4145876,15
4146504,16
4147128,17
4147752,25
4148380,59
4149000,96
4149628,93
4150252,75
4150876,39
4151504,18
4152128,13
4152756,51
4153388,206
4154060,183
4154736,90
4155360,41
4155984,17
4156612,35
4157232,41
4157860,34
4158492,20
4159112,27
4159740,33
4160368,41
4160996,35
4161624,33
4162240,68
4162868,35
4163492,19
4164112,11
4164744,10
4165360,19
4165988,30
4166612,28
4167236,38
4167864,42
4168480,32
4169112,29
4169740,34
4170360,40
4170988,15
4171612,12
4172240,13
4172872,13
4173488,21
4174116,17
4174740,47
4175364,90
4175996,90
4176616,47
4177244,18
4177868,17
4178492,19
4179120,19
4179744,13
4180372,13
4181004,10
4181624,11
4182252,12
4182876,12
4183504,11
4184136,14
4184752,22
4185380,31
4186004,48
4186628,42
4187260,34
4187880,32
4188508,16
4189132,24
4189756,66
4190384,64
4191008,34
4191636,11
4192268,15
4192888,13
4193516,14
4194140,15
4194772,16
4195400,14
4196016,25
4196648,15
4197272,11
4197896,13
4198528,11
4199144,10
4199772,11
4200396,15
4201020,21
4201648,16
4202264,16
4202892,15
4203516,18
4204140,16
4204768,19
4205392,26
4206020,22
4206652,24
4207272,24
4207900,25
4208524,27
4209156,12
4209784,18
4210404,14
4211032,22
4211656,23
4212280,17
4212908,76
4213528,67
4214156,42
4214780,26
4215408,13
4216036,22
4216660,19
4217292,12
4217920,18
4218540,13
4219168,15
4219792,14
4220424,15
4221052,14
4221672,11
4222300,12
4222924,16
4223548,19
4224180,24
4224796,22
4225428,21
4226056,19
4226672,15
4227304,19
4227928,15
4228556,41
4229184,63
4229808,53
4230436,35
4231060,37
4231684,48
4232316,42
4232936,141
4233616,109
4234296,48
4234912,57
4235540,71
4236164,25
4236796,21
4237428,16
4238048,13
4238676,15
4239304,23
4239928,37
4240556,20
4241176,24
4241804,15
4242428,22
4243056,16
4243684,22
4244308,36
4244940,27
4245568,14
4246188,14
4246816,13
4247440,13
4248068,12
4248700,12
4249320,13
4249948,12
4250572,10
4251196,10
4251828,14
4252448,14
4253076,14
4253708,14
4254328,18
4254960,11
4255584,22
4256212,13
4256844,10
4257464,15
4258092,53
4258716,77
4259340,96
4259972,79
4260592,36
4261220,34
4261844,31
4262468,75
4263096,150
4263764,168
4264440,109
4265116,39
4265736,17
4266364,37
4266988,30
4267612,11
4268240,15
4268864,16
4269492,16
4270120,17
4270744,14
4271372,12
4271996,23
4272628,32
4273260,33
4273880,33
4274508,27
4275136,23
4275760,18
4276388,60
4277008,71
4277636,38
4278260,17
4278884,17
4279516,13
4280140,13
4280772,11
4281400,10
4282024,12
4282652,17
4283276,12
4283908,16
4284536,20
4285160,14
4285788,15
4286412,14
4287036,14
4287668,14
4288288,12
4288916,13
4289548,12
4290168,12
4290796,13
4291420,13
4292052,11
4292680,22
4293300,28
4293928,38
4294552,31
4295176,18
4295808,19
4296428,69
4297056,85
4297680,33
4298304,13
4298932,11
4299552,19
4300184,24
4300812,22
4301428,21
4302060,20
4302684,27
4303312,77
4303944,73
4304560,75
4305188,75
4305812,70
4306440,21
4307068,112
4307740,154
4308416,208
4309096,162
4309772,50
4310396,26
4311024,16
4311648,19
4312276,22
4312904,23
4313532,27
4314164,25
4314784,22
4315412,18
4316040,13
4316668,13
4317300,12
4317920,14
4318552,14
4319176,14
4319800,16
4320432,15
4321048,19
4321676,21
4322300,26
4322928,28
4323556,15
4324180,45
4324812,19
4325440,10
4326056,11
4326688,13
4327312,14
4327940,18
4328572,16
4329192,17
4329820,10
4330444,11
4331068,11
4331700,10
4332320,13
4332948,13
4333580,14
4334200,16
4334828,12
4335456,14
4336084,14
4336712,14
4337336,15
4337964,12
4338592,11
4339216,11
4339844,10
4340464,11
4341096,19
4341720,32
4342344,30
4342972,23
4343592,18
4344224,16
4344852,17
4345472,24
4346104,17
4346728,29
4347356,15
4347988,25
4348608,40
4349236,75
4349864,61
4350488,38
4351116,80
4351736,89
4352368,41
4352988,18
4353612,37
4354240,38
4354864,43
4355492,27
4356124,12
4356744,30
4357372,22
4357996,11
4358628,15
4359256,15
4359880,13
4360508,14
4361132,15
4361756,14
4362388,14
4363008,14
4363636,15
4364260,18
4364884,21
4365512,32
4366132,31
4366760,11
4367388,38
4368008,40
4368636,19
4369260,41
4369892,16
4370520,22
4371144,29
4371776,13
4372400,11
4373024,18
4373652,34
4374272,21
4374904,20
4375528,13
4376152,29
4376784,15
4377400,16
4378032,33
4378660,16
4379280,15
4379908,14
4380536,24
4381164,18
4381796,23
4382416,19
4383048,49
4383672,20
4384296,13
4384924,32
4385544,22
4386172,14
4386796,14
4387424,15
4388052,17
4388676,31
4389308,38
4389936,30
4390560,36
4391188,15
4391812,51
4392444,38
4393076,46
4393696,28
4394324,14
4394948,28
4395576,27
4396204,14
4396824,11
4397452,14
4398080,16
4398704,11
4399336,26
4399960,17
4400592,28
4401224,38
4401840,37
4402472,49
4403096,62
4403720,43
4404348,20
4404968,41
4405596,90
4406220,63
4406844,15
4407476,18
4408096,56
4408724,71
4409356,55
4409976,16
4410604,13
4411228,14
4411860,26
4412488,41
4413112,37
4413744,37
4414368,35
4414992,24
4415624,27
4416240,31
4416872,67
4417492,59
4418120,32
4418748,14
4419368,16
4419996,22
4420628,16
4421248,28
4421876,46
4422504,15
4423132,13
4423764,14
4424384,61
4425012,36
4425636,20
4426260,47
4426888,25
4427504,14
4428136,17
4428760,20
4429384,21
4430012,12
4430632,12
4431260,19
4431892,43
4432512,52
4433140,41
4433764,33
4434396,22
4435028,12
4435648,68
4436276,91
4436900,99
4437524,47
4438156,12
4438776,11
4439408,11
4440032,15
4440656,20
4441284,20
4441904,27
4442532,13
4443164,16
4443784,17
4444416,14
4445040,15
4445668,14
4446300,19
4446920,16
4447548,11
4448176,10
4448800,12
4449428,12
4450048,21
4450676,21
4451300,21
4451928,23
4452556,25
4453176,18
4453808,17
4454436,14
4455056,12
4455684,16
4456308,41
4456940,59
4457572,57
4458192,31
4458824,13
4459448,11
4460072,12
4460704,18
4461320,18
4461952,22
4462576,21
4463200,17
4463832,25
4464456,14
4465088,23
4465716,52
4466336,103
4467020,106
4467692,94
4468312,53
4468944,66
4469560,38
4470192,145
4470872,141
4471548,80
4472176,118
4472860,148
4473532,64
4474160,11
4474784,17
4475408,20
4476040,66
4476660,89
4477292,79
4477916,55
4478540,41
4479172,20
4479792,47
4480428,148
4481108,113
4481780,19
4482404,36
4483028,30
4483652,11
4484284,10
4484904,12
4485532,17
4486164,14
4486784,19
4487412,24
4488036,17
4488668,13
4489296,18
4489912,13
4490544,17
4491168,19
4491792,21
4492424,19
4493040,16
4493668,15
4494292,15
4494916,15
4495548,14
4496168,20
4496796,15
4497428,13
4498048,11
4498676,11
4499300,17
4499932,26
4500564,60
4501184,85
4501816,66
4502440,20
4503064,35
4503696,28
4504312,28
4504944,32
4505568,35
4506192,46
4506824,29
4507440,39
4508068,40
4508700,11
4509320,20
4509948,73
4510572,105
4511256,68
4511880,15
4512496,36
4513124,38
4513748,38
4514372,13
4515004,20
4515624,19
4516252,13
4516884,46
4517504,33
4518132,11
4518756,44
4519388,44
4520016,15
4520640,15
4521268,12
4521892,30
4522516,20
4523148,25
4523768,17
4524396,22
4525024,28
4525648,22
4526276,23
4526896,19
4527524,38
4528156,20
4528776,19
4529404,40
4530028,70
4530660,23
4531288,30
4531912,24
4532540,113
4533216,89
4533840,64
4534468,48
4535088,33
4535716,54
4536348,152
4537020,170
4537696,106
4538376,24
4539000,101
4539680,126
4540356,50
4540976,20
4541604,23
4542224,62
4542856,58
4543480,43
4544104,25
4544732,27
4545356,54
4545988,90
4546620,76
4547240,36
4547868,22
4548492,11
4549124,17
4549752,22
4550372,17
4551004,30
4551628,52
4552252,41
4552884,28
4553504,22
4554136,37
4554764,11
4555384,48
4556016,35
4556640,24
4557272,11
4557900,28
4558520,13
4559148,24
4559776,50
4560400,17
4561028,19
4561648,33
4562276,22
4562900,77
4563528,121
4564208,36
4564824,21
4565452,20
4566084,56
4566704,75
4567336,171
4568012,160
4568684,70
4569312,16
4569936,15
4570564,43
4571196,86
4571816,199
4572500,194
4573172,125
4573844,82
4574472,31
4575096,29
4575728,16
4576360,32
4576976,19
4577608,16
4578228,14
4578856,21
4579484,24
4580104,22
4580736,17
4581360,16
4581984,24
4582616,16
4583240,31
4583872,57
4584500,49
4585120,31
4585752,16
4586376,37
4587008,76
4587640,110
4588308,105
4588984,50
4589612,28
4590232,13
4590860,53
4591488,110
4592168,91
4592796,38
4593416,17
4594044,14
4594668,15
4595296,22
4595924,25
4596548,23
4597180,29
4597808,18
4598432,30
4599060,13
4599684,17
4600316,15
4600948,16
4601568,12
4602200,15
4602824,16
4603448,14
4604076,16
4604696,13
4605328,10
4605956,12
4606576,13
4607208,13
4607832,14
4608464,22
4609092,10
4609712,16
4610340,15
4610964,14
4611588,14
4612220,14
4612840,13
4613468,11
4614092,14
4614716,13
4615344,10
4615968,11
4616596,11
4617228,11
4617848,13
4618476,45
4619100,51
4619732,14
4620360,16
4620984,22
4621612,47
4622236,49
4622860,12
4623492,10
4624112,11
4624740,27
4625364,29
4625988,94
4626620,22
4627240,30
4627868,36
4628500,27
4629120,41
4629748,45
4630372,32
4631004,23
4631636,88
4632256,15
4632884,68
4633508,30
4634136,90
4634764,235
4635436,188
4636116,26
4636744,14
4637360,17
4637992,41
4638616,43
4639240,31
4639872,28
4640488,27
4641116,13
4641740,13
4642364,23
4642992,26
4643616,19
4644244,14
4644876,18
4645496,17
4646124,17
4646748,18
4647380,22
4648008,21
4648632,27
4649260,39
4649884,48
4650508,33
4651140,16
4651760,12
4652388,13
4653016,14
4653640,14
4654268,14
4654888,12
4655516,17
4656148,18
4656768,14
4657396,10
4658024,13
4658652,23
4659284,10
4659904,14
4660532,20
4661156,36
4661780,41
4662412,22
4663032,16
4663664,11
4664288,11
4664912,44
4665544,53
4666160,29
4666792,19
4667424,15
4668040,10
4668672,43
4669296,49
4669928,21
4670556,24
4671176,19
4671808,33
4672432,57
4673056,36
4673684,17
4674304,22
4674932,34
4675556,51
4676180,49
4676812,18
4677432,33
4678064,27
4678692,60
4679312,35
4679944,24
4680568,57
4681196,94
4681828,97
4682448,52
4683076,13
4683700,21
4684328,23
4684956,26
4685576,53
4686204,27
4686828,15
4687452,27
4688084,12
4688708,31
4689336,83
4689968,51
4690584,10
4691216,18
4691840,34
4692468,68
4693100,109
4693772,90
4694400,27
4695020,35
4695648,48
4696280,18
4696904,108
4697588,177
4698268,64
4698888,21
4699516,37
4700144,29
4700768,25
4701400,23
4702024,18
4702656,16
4703288,14
4703904,15
4704536,18
4705164,19
4705792,16
4706424,15
4707048,10
4707680,16
4708304,25
4708928,37
4709560,14
4710180,16
4710812,16
4711440,15
4712060,18
4712688,18
4713312,14
4713940,17
4714572,20
4715192,29
4715824,12
4716448,43
4717072,35
4717704,17
4718320,15
4718952,28
4719576,17
4720200,19
4720828,32
4721448,34
4722076,37
4722708,60
4723328,68
4723956,54
4724584,49
4725212,31
4725844,28
4726464,14
4727092,65
4727720,104
4728396,22
4729024,58
4729640,158
4730324,116
4731004,58
4731624,28
4732256,15
4732880,20
4733504,21
4734136,18
4734752,13
4735384,23
4736016,30
4736632,30
4737260,15
4737884,25
4738516,11
4739148,22
4739768,31
4740400,31
4741024,27
4741648,22
4742276,16
4742896,47
4743524,43
4744152,25
4744776,35
4745408,39
4746024,30
4746656,25
4747288,10
4747904,16
4748536,25
4749160,26
4749792,13
4750420,25
4751040,44
4751672,55
4752296,64
4752920,57
4753548,16
4754168,32
4754796,65
4755424,39
4756048,16
4756676,102
4757348,105
4758028,41
4758656,40
4759272,23
4759904,22
4760528,13
4761156,14
4761784,24
4762408,51
4763036,78
4763668,78
4764288,40
4764916,13
4765540,19
4766172,13
4766804,152
4767476,134
4768156,14
4768780,17
4769400,25
4770028,29
4770656,55
4771284,69
4771916,64
4772536,54
4773168,44
4773792,49
4774416,32
4775044,50
4775664,102
4776348,87
4776976,53
4777592,64
4778224,79
4778848,39
4779480,35
4780112,37
4780728,40
4781360,42
4781988,21
4782612,11
4783244,19
4783864,46
4784496,17
4785120,18
4785744,15
4786376,16
4786996,20
4787628,15
4788260,14
4788880,26
4789512,13
4790136,11
4790768,29
4791400,16
4792020,26
4792648,48
4793272,64
4793900,60
4794532,52
4795152,16
4795784,94
4796408,137
4797088,107
4797764,63
4798384,24
4799008,36
4799640,22
4800264,14
4800896,14
4801520,15
4802144,15
4802772,14
4803396,14
4804028,14
4804656,12
4805276,12
4805904,11
4806528,11
4807156,12
4807788,12
4808408,15
4809036,13
4809660,13
4810284,13
4810916,14
4811536,15
4812168,15
4812792,15
4813416,18
4814044,30
4814668,29
4815300,31
4815928,22
4816552,29
4817180,17
4817804,123
4818488,95
4819112,18
4819732,36
4820360,44
4820984,47
4821608,38
4822240,25
4822864,19
4823492,22
4824124,46
4824744,66
4825376,30
4826000,15
4826628,21
4827260,20
4827880,18
4828512,20
4829136,27
4829760,20
4830388,30
4831008,11
4831640,27
4832272,37
4832888,51
4833520,16
4834144,17
4834772,31
4835404,48
4836024,14
4836652,36
4837276,16
4837904,91
4838532,118
4839204,57
4839828,22
4840460,29
4841080,26
4841708,28
4842332,22
4842964,12
4843596,59
4844216,89
4844844,55
4845468,14
4846092,16
4846724,10
4847344,19
4847976,25
4848600,13
4849224,12
4849852,11
4850472,13
4851104,15
4851736,33
4852352,41
4852984,27
4853608,19
4854240,18
4854868,11
4855488,24
4856120,40
4856744,53
4857368,29
4858000,14
4858616,18
4859248,17
4859872,16
4860496,17
4861128,36
4861744,46
4862376,37
4863008,14
4863628,22
4864260,34
4864884,37
4865512,52
4866140,49
4866760,68
4867388,47
4868012,14
4868636,52
4869268,40
4869888,30
4870516,91
4871144,61
4871768,22
4872396,38
4873016,54
4873648,49
4874276,67
4874896,130
4875576,63
4876200,34
4876824,13
4877452,23
4878072,29
4878704,31
4879328,34
4879952,66
4880584,69
4881200,41
4881832,21
4882464,38
4883080,38
4883712,54
4884336,73
4884968,63
4885596,88
4886216,99
4886848,60
4887472,22
4888096,36
4888728,17
4889344,17
4889976,12
4890600,13
4891224,29
4891852,34
4892472,38
4893104,32
4893736,26
4894352,15
4894984,84
4895608,68
4896240,41
4896868,27
4897488,31
4898116,62
4898744,93
4899368,98
4899996,68
4900616,51
4901248,60
4901872,33
4902496,151
4903180,255
4903852,144
4904524,14
4905152,35
4905772,30
4906400,15
4907032,18
4907648,36
4908280,34
4908908,16
4909536,26
4910168,40
4910788,24
4911416,16
4912044,19
4912668,17
4913300,14
4913920,23
4914552,30
4915180,28
4915804,20
4916436,29
4917060,42
4917688,47
4918316,17
4918936,14
4919564,16
4920188,39
4920820,15
4921448,36
4922064,43
4922696,25
4923320,17
4923944,51
4924572,55
4925192,100
4925872,126
4926552,80
4927176,107
4927856,55
4928480,31
4929104,16
4929732,30
4930352,44
4930980,40
4931612,32
4932232,25
4932860,28
4933484,29
4934116,18
4934744,14
4935368,20
4935996,31
4936624,24
4937244,16
4937876,13
4938496,19
4939124,38
4939752,26
4940376,11
4941004,18
4941624,30
4942252,39
4942884,40
4943504,27
4944132,17
4944756,31
4945388,33
4946020,63
4946640,77
4947268,88
4947892,36
4948516,11
4949148,10
4949768,14
4950396,11
4951024,12
4951648,13
4952280,21
4952904,29
4953532,46
4954164,39
4954784,35
4955416,14
4956040,40
4956672,11
4957300,56
4957920,20
4958552,50
4959176,23
4959800,21
4960432,41
4961048,33
4961676,35
4962300,33
4962928,21
4963556,28
4964180,13
4964812,95
4965444,164
4966116,32
4966744,136
4967416,158
4968092,112
4968768,34
4969384,121
4970060,165
4970736,209
4971412,118
4972088,17
4972712,18
4973332,20
4973960,15
4974584,20
4975208,38
4975840,17
4976464,17
4977092,26
4977724,23
4978344,16
4978972,18
4979600,13
4980228,19
4980860,18
4981480,30
4982112,33
4982736,55
4983360,37
4983988,11
4984608,12
4985236,13
4985868,60
4986488,88
4987116,43
4987744,29
4988372,18
4989004,10
4989624,16
4990252,16
4990880,16
4991504,14
4992136,13
4992752,36
4993380,61
4994004,63
4994628,53
4995260,46
4995880,25
4996508,14
4997140,82
4997760,121
4998440,31
4999056,18
4999688,41
5000316,60
5000936,60
5001568,19
5002192,121
5002868,108
5003548,33
5004168,31
5004796,22
5005428,35
5006048,43
5006680,14
5007304,22
5007928,15
5008560,40
5009176,30
5009808,13
5010436,18
5011056,26
5011688,29
5012312,37
5012944,36
5013572,27
5014192,19
5014824,36
5015448,22
5016072,16
5016704,46
5017320,22
5017952,21
5018576,26
5019200,27
5019832,54
5020452,83
5021080,66
5021712,51
5022328,15
5022960,28
5023584,53
5024216,67
5024844,56
5025464,40
5026092,27
5026716,33
5027344,29
5027972,14
5028592,18
5029224,19
5029848,17
5030472,26
5031100,15
5031720,137
5032404,126
5033084,51
5033704,12
5034336,21
5034960,76
5035584,67
5036216,14
5036832,25
5037464,26
5038096,24
5038712,22
5039344,19
5039968,16
5040600,14
5041228,13
5041848,15
5042480,15
5043104,11
5043728,14
5044356,14
5044976,15
5045604,16
5046232,17
5046856,12
5047488,10
5048104,10
5048736,13
5049368,44
5049984,13
5050616,29
5051240,17
5051872,18
5052500,16
5053120,30
5053752,23
5054376,17
5055000,11
5055632,11
5056256,24
5056888,25
5057512,37
5058136,16
5058768,12
5059388,14
5060016,23
5060648,31
5061268,62
5061896,95
5062524,131
5063204,113
5063884,43
5064504,49
5065136,31
5065764,50
5066384,134
5067068,223
5067740,214
5068412,112
5069092,48
5069712,17
5070344,20
5070976,21
5071592,48
5072224,67
5072852,44
5073476,38
5074108,20
5074728,36
5075360,16
5075988,46
5076608,76
5077240,35
5077864,16
5078496,27
5079128,50
5079744,57
5080376,58
5081000,47
5081624,29
5082252,28
5082872,11
5083504,37
5084128,21
5084752,15
5085384,21
5086004,80
5086632,103
5087316,58
5087936,15
5088568,15
5089196,15
5089820,27
5090452,32
5091072,36
5091704,13
5092328,25
5092952,20
5093584,14
5094204,14
5094836,15
5095468,15
5096088,15
5096716,11
5097344,12
5097976,19
5098608,25
5099224,19
5099856,35
5100484,31
5101108,14
5101740,26
5102360,18
5102992,54
5103624,39
5104248,36
5104880,35
5105504,15
5106136,30
5106768,17
5107388,67
5108020,62
5108644,19
5109268,18
5109900,26
5110520,29
5111152,46
5111780,74
5112408,70
5113040,64
5113660,57
5114288,69
5114920,52
5115544,16
5116176,90
5116804,79
5117436,13
5118068,54
5118692,79
5119324,72
5119952,159
5120632,71
5121252,23
5121876,23
5122504,26
5123132,28
5123752,54
5124380,45
5125004,49
5125632,32
5126260,17
5126880,37
5127508,27
5128132,13
5128756,16
5129384,23
5130004,21
5130632,19
5131256,25
5131880,13
5132508,41
5133132,15
5133760,88
5134388,114
5135060,50
5135684,13
5136308,21
5136932,26
5137564,24
5138184,18
5138812,19
5139436,29
5140060,15
5140692,13
5141316,20
5141944,22
5142572,34
5143192,31
5143820,34
5144444,74
5145076,55
5145704,24
5146328,87
5146956,15
5147580,33
5148204,152
5148884,93
5149504,44
5150132,30
5150764,23
5151384,49
5152012,51
5152636,34
5153268,25
5153896,19
5154516,18
5155144,14
5155772,21
5156396,31
5157024,12
5157648,11
5158276,14
5158904,14
5159528,15
5160156,13
5160780,13
5161412,14
5162044,14
5162664,14
5163292,10
5163916,17
5164548,29
5165176,56
5165800,58
5166428,27
5167052,18
5167676,19
5168308,16
5168928,38
5169556,99
5170188,102
5170860,86
5171488,15
5172108,37
5172740,33
5173368,16
5173992,43
5174620,46
5175244,37
5175868,31
5176500,42
5177120,45
5177748,17
5178380,35
5179000,26
5179628,13
5180256,13
5180884,25
5181516,26
5182136,14
5182764,23
5183392,83
5184016,87
5184644,30
5185264,13
5185892,19
5186516,22
5187140,25
5187772,40
5188392,44
5189020,49
5189652,42
5190272,30
5190904,21
5191528,11
5192156,62
5192788,135
5193460,72
5194088,21
5194712,16
5195336,19
5195968,16
5196584,11
5197216,10
5197848,10
5198464,10
5199096,14
5199720,18
5200352,12
5200980,34
5201600,66
5202228,84
5202852,72
5203476,27
5204108,20
5204728,29
5205356,111
5206040,181
5206708,64
5207336,12
5207960,11
5208584,25
5209212,29
5209832,29
5210460,31
5211084,58
5211708,38
5212340,24
5212960,22
5213588,26
5214220,36
5214840,102
5215520,85
5216144,47
5216772,27
5217404,12
5218024,16
5218652,42
5219280,77
5219904,97
5220532,86
5221152,63
5221784,18
5222412,15
5223032,73
5223660,168
5224336,77
5224960,37
5225588,16
5226208,50
5226836,55
5227464,46
5228088,18
5228716,33
5229336,17
5229964,20
5230596,17
5231216,17
5231848,15
5232472,15
5233104,12
5233732,10
5234352,11
5234984,16
5235608,15
5236232,15
5236864,15
5237480,16
5238112,33
5238736,51
5239360,58
5239992,54
5240612,35
5241240,27
5241872,23
5242492,12
5243124,49
5243744,92
5244376,76
5245004,87
5245624,83
5246252,27
5246876,29
5247500,38
5248132,34
5248748,16
5249376,38
5250000,29
5250620,12
5251252,15
5251872,55
5252500,16
5253128,23
5253744,17
5254372,14
5254996,14
5255628,26
5256256,84
5256872,47
5257500,12
5258124,11
5258756,13
5259384,20
5260000,21
5260628,14
5261252,15
5261876,15
5262504,14
5263128,11
5263756,12
5264380,17
5265008,33
5265636,46
5266260,47
5266888,46
5267516,72
5268136,93
5268764,63
5269388,28
5270020,17
5270648,55
5271272,40
5271900,27
5272528,66
5273152,123
5273832,22
5274448,70
5275076,120
5275756,46
5276376,12
5277004,17
5277628,60
5278252,87
5278884,27
5279504,28
5280132,11
5280756,12
5281380,13
5282008,19
5282632,17
5283260,15
5283888,17
5284504,11
5285136,11
5285756,13
5286388,20
5287016,38
5287640,49
5288268,50
5288892,36
5289516,31
5290144,18
5290760,58
5291392,64
5292016,48
5292640,36
5293268,20
5293892,14
5294524,13
5295152,19
5295768,26
5296400,13
5297024,14
5297652,13
5298280,11
5298904,13
5299532,11
5300156,12
5300780,11
5301412,10
5302032,15
5302660,15
5303284,14
5303908,16
5304540,18
5305164,10
5305796,35
5306424,19
5307040,23
5307672,33
5308296,29
5308924,24
5309556,22
5310176,19
5310804,17
5311428,22
5312056,25
5312684,20
5313304,49
5313932,66
5314556,19
5315184,11
5315816,11
5316440,11
5317068,10
5317700,10
5318320,11
5318952,13
5319576,15
5320200,14
5320828,14
5321448,13
5322076,11
5322704,11
5323328,11
5323956,12
5324576,13
5325208,23
5325836,20
5326456,20
5327084,29
5327708,55
5328336,48
5328964,15
5329580,24
5330212,52
5330836,63
5331460,30
5332092,56
5332712,75
5333340,36
5333964,11
5334588,30
5335220,14
5335840,35
5336468,22
5337100,21
5337720,48
5338348,71
5338972,71
5339604,57
5340232,60
5340848,31
5341480,58
5342104,78
5342728,28
5343356,28
5343976,71
5344608,92
5345232,49
5345856,16
5346484,20
5347104,36
5347732,25
5348364,10
5348984,11
5349612,11
5350236,17
5350868,17
5351496,20
5352120,23
5352748,14
5353372,17
5353996,25
5354628,29
5355248,29
5355876,30
5356504,37
5357128,43
5357756,35
5358376,16
5359008,53
5359636,42
5360256,67
5360884,59
5361508,19
5362140,17
5362768,52
5363388,34
5364016,48
5364640,14
5365264,35
5365892,14
5366512,41
5367140,47
5367764,13
5368388,14
5369020,42
5369640,23
5370268,31
5370900,61
5371520,71
5372148,69
5372772,66
5373404,20
5374036,36
5374656,47
5375288,67
5375912,111
5376588,62
5377212,48
5377832,34
5378460,14
5379088,16
5379712,12
5380340,13
5380964,19
5381596,15
5382224,13
5382844,11
5383472,10
5384096,11
5384720,10
5385348,12
5385968,14
5386596,18
5387220,19
5387844,15
5388472,12
5389096,21
5389724,12
5390356,25
5390976,15
5391604,13
5392232,36
5392860,46
5393488,36
5394112,20
5394740,15
5395364,16
5395988,17
5396620,28
5397240,29
5397868,28
5398492,23
5399116,41
5399748,48
5400368,42
5400996,101
5401680,34
5402296,23
5402924,39
5403548,41
5404172,40
5404804,58
5405424,90
5406052,92
5406680,72
5407304,42
5407932,46
5408552,18
5409180,157
5409864,212
5410532,129
5411208,44
5411832,49
5412456,32
5413084,48
5413708,29
5414340,24
5414972,64
5415592,37
5416224,12
5416848,19
5417476,14
5418108,11
5418728,26
5419356,35
5419984,23
5420608,23
5421236,25
5421856,19
5422484,13
5423116,39
5423736,31
5424368,16
5424992,39
5425620,23
5426252,20
5426872,26
5427504,17
5428128,15
5428748,15
5429380,14
5430000,15
5430628,18
5431252,23
5431876,15
5432508,11
5433128,24
5433756,14
5434388,11
5435008,20
5435636,14
5436264,20
5436892,39
5437524,32
5438144,15
5438772,11
5439400,14
5440024,11
5440652,44
5441272,59
5441900,23
5442524,15
5443148,12
5443776,21
5444400,14
5445028,17
5445660,20
5446280,29
5446908,40
5447532,43
5448164,19
5448792,14
5449412,14
5450040,57
5450664,41
5451288,62
5451916,88
5452536,31
5453168,15
5453788,21
5454412,36
5455040,22
5455664,17
5456292,20
5456924,18
5457544,17
5458172,18
5458796,18
5459428,15
5460056,27
5460680,33
5461308,14
5461932,17
5462556,19
5463188,26
5463808,39
5464436,20
5465060,28
5465688,48
5466316,32
5466936,29
5467564,19
5468196,13
5468816,29
5469444,57
5470068,51
5470700,17
5471332,80
5471952,145
5472636,167
5473316,175
5473988,74
5474616,12
5475240,15
5475864,28
5476492,20
5477112,25
5477744,17
5478368,25
5478992,30
5479624,26
5480240,16
5480872,25
5481500,25
5482120,20
5482748,13
5483372,17
5484004,20
5484636,22
5485256,51
5485888,27
5486512,14
5487136,14
5487764,31
5488384,61
5489016,64
5489636,51
5490260,35
5490892,47
5491512,33
5492144,41
5492772,100
5493444,125
5494120,100
5494800,21
5495424,37
5496056,33
5496680,49
5497308,39
5497940,36
5498560,38
5499188,94
5499816,35
5500440,13
5501072,23
5501688,19
5502320,20
5502944,19
5503568,18
5504200,17
5504816,15
5505444,13
5506076,14
5506696,13
5507324,11
5507952,11
5508580,11
5509212,19
5509832,32
5510460,17
5511084,23
5511708,21
5512340,15
5512960,15
5513588,11
5514216,21
5514840,15
5515472,38
5516088,78
5516720,83
5517352,43
5517968,29
5518600,29
5519224,15
5519856,66
5520488,90
5521104,62
5521736,21
5522360,15
5522984,60
5523616,33
5524232,16
5524864,73
5525488,83
5526112,61
5526744,17
5527368,15
5528000,18
5528628,16
5529248,21
5529880,20
5530504,16
5531132,15
5531764,14
5532384,16
5533012,16
5533636,16
5534260,12
5534892,10
5535512,16
5536144,17
5536768,13
5537392,16
5538020,15
5538644,12
5539276,11
5539904,10
5540528,18
5541156,34
5541780,39
5542408,30
5543036,19
5543656,17
5544288,20
5544912,16
5545536,72
5546168,127
5546836,69
5547464,13
5548096,31
5548712,38
5549344,23
5549968,14
5550600,17
5551228,30
5551848,57
5552480,45
5553104,23
5553728,22
5554360,29
5554976,33
5555608,30
5556240,21
5556856,10
5557488,17
5558112,16
5558744,20
5559372,12
5559992,13
5560624,17
5561248,14
5561872,15
5562504,14
5563120,12
5563752,14
5564376,29
5565000,48
5565632,48
5566248,35
5566880,22
5567512,27
5568132,26
5568760,54
5569384,99
5570016,35
5570644,76
5571264,29
5571892,87
5572516,48
5573140,11
5573772,14
5574392,87
5575024,100
5575704,41
5576328,14
5576956,11
5577580,15
5578212,37
5578844,58
5579464,64
5580096,57
5580720,43
5581344,14
5581972,47
5582592,79
5583224,70
5583848,18
5584472,35
5585100,51
5585720,56
5586352,65
5586980,62
5587600,59
5588228,83
5588856,34
5589484,42
5590116,81
5590736,107
5591420,89
5592040,97
5592664,89
5593292,22
5593912,21
5594544,49
5595172,57
5595792,15
5596424,28
5597048,32
5597680,30
5598308,30
5598928,26
5599560,12
5600184,11
5600808,13
5601436,14
5602056,13
5602684,14
5603308,14
5603932,14
5604564,14
5605188,10
5605816,10
5606448,11
5607064,13
5607692,13
5608316,13
5608948,13
5609580,12
5610200,13
5610832,14
5611456,17
5612080,21
5612708,18
5613328,12
5613956,13
5614584,21
5615208,21
5615836,17
5616460,17
5617092,11
5617724,20
5618344,34
5618976,25
5619600,14
5620228,26
5620860,14
5621480,21
5622112,23
5622736,71
5623360,103
5624040,95
5624664,61
5625296,21
5625924,77
5626544,152
5627228,183
5627900,162
5628580,72
5629208,16
5629832,17
5630464,17
5631092,27
5631712,32
5632344,37
5632968,28
5633588,19
5634220,18
5634840,17
5635468,13
5636092,13
5636720,15
5637348,15
5637972,14
5638604,11
5639232,13
5639852,11
5640480,11
5641104,11
5641732,11
5642364,10
5642984,11
5643612,12
5644236,13
5644860,15
5645492,14
5646112,15
5646740,11
5647372,10
5647992,13
5648624,12
5649248,11
5649876,13
5650508,13
5651128,11
5651760,13
5652384,14
5653008,15
5653636,14
5654256,17
5654884,13
5655508,12
5656132,11
5656764,10
5657384,13
5658016,11
5658644,10
5659264,20
5659892,57
5660516,81
5661148,71
5661780,57
5662400,51
5663028,61
5663652,21
5664280,169
5664960,174
5665628,100
5666304,44
5666928,54
5667548,62
5668176,26
5668800,13
5669424,29
5670052,56
5670672,77
5671304,105
5671984,120
5672660,99
5673288,47
5673912,50
5674536,35
5675164,65
5675784,165
5676464,214
5677148,101
5677820,18
5678448,33
5679072,35
5679696,26
5680328,19
5680944,18
5681572,17
5682204,21
5682824,24
5683456,22
5684080,21
5684708,12
5685340,12
5685960,14
5686588,13
5687212,19
5687836,25
5688468,12
5689088,23
5689716,39
5690340,43
5690968,40
5691596,14
5692216,16
5692848,45
5693476,94
5694096,42
5694724,15
5695348,22
5695980,17
5696612,11
5697232,11
5697860,11
5698488,11
5699112,21
5699740,48
5700360,27
5700992,15
5701616,19
5702240,27
5702868,17
5703496,15
5704124,14
5704756,12
5705376,11
5706008,17
5706632,11
5707260,11
5707892,11
5708512,41
5709144,21
5709768,13
5710392,15
5711024,14
5711644,13
5712272,14
5712904,16
5713524,17
5714156,28
5714780,38
5715412,11
5716044,12
5716664,16
5717296,14
5717920,17
5718544,19
5719176,31
5719796,44
5720428,55
5721052,61
5721676,39
5722308,28
5722928,53
5723560,47
5724188,19
5724808,52
5725436,93
5726064,83
5726696,218
5727380,208
5728052,140
5728728,132
5729412,73
5730032,23
5730664,52
5731288,59
5731912,54
5732544,50
5733164,45
5733796,55
5734428,44
5735048,27
5735676,15
5736300,23
5736928,17
5737560,24
5738176,35
5738808,25
5739432,30
5740056,33
5740684,21
5741304,11
5741932,18
5742560,17
5743184,15
5743812,15
5744432,15
5745060,13
5745692,20
5746312,28
5746944,19
5747568,10
5748196,27
5748828,46
5749448,46
5750076,30
5750704,17
5751328,17
5751960,16
5752580,67
5753208,91
5753832,59
5754456,19
5755088,12
5755704,13
5756336,11
5756964,10
5757584,11
5758216,14
5758840,15
5759472,17
5760104,18
5760720,15
5761348,17
5761968,21
5762592,23
5763220,23
5763840,27
5764468,28
5765092,20
5765716,14
5766344,26
5766968,29
5767596,66
5768228,88
5768848,45
5769476,19
5770100,16
5770732,31
5771360,30
5771980,26
5772608,25
5773232,26
5773856,21
5774484,13
5775104,38
5775736,37
5776360,19
5776980,17
5777612,18
5778232,17
5778860,14
5779492,15
5780112,13
5780740,11
5781364,10
5781996,11
5782628,10
5783248,11
5783876,11
5784504,12
5785128,28
5785756,42
5786376,52
5787004,60
5787628,43
5788252,51
5788884,23
5789504,11
5790136,11
5790764,15
5791384,40
5792012,13
5792636,42
5793268,86
5793900,124
5794572,220
5795248,143
5795928,38
5796552,13
5797180,29
5797804,35
5798432,36
5799060,32
5799680,25
5800308,21
5800932,19
5801556,17
5802188,16
5802808,18
5803440,19
5804068,27
5804688,33
5805320,33
5805944,24
5806572,23
5807204,26
5807824,14
5808456,51
5809080,35
5809704,16
5810332,26
5810952,15
5811584,18
5812208,15
5812832,15
5813460,16
5814088,40
5814716,46
5815348,20
5815968,9
5816548,10
5817176,11
5817808,33
5818436,24
5819056,14
5819684,15
5820312,15
5820936,15
5821564,12
5822184,11
5822816,12
5823440,13
5824064,11
5824692,10
5825312,12
5825940,11
5826572,10
5827192,16
5827824,16
5828448,14
5829076,14
5829708,26
5830328,45
5830960,62
5831584,62
5832208,40
5832840,33
5833456,24
5834088,87
5834712,143
5835388,85
5836016,34
5836640,19
5837272,21
5837900,33
5838520,29
5839148,27
5839776,63
5840400,55
5841028,14
5841648,15
5842276,19
5842900,19
5843524,17
5844156,14
5844776,17
5845408,15
5846036,19
5846656,16
5847284,12
5847908,16
5848540,19
5849172,35
5849792,60
5850420,60
5851044,48
5851672,34
5852300,24
5852920,47
5853548,30
5854176,70
5854800,81
5855428,63
5856048,43
5856680,12
5857308,29
5857928,29
5858556,15
5859184,12
5859812,11
5860444,14
5861064,17
5861696,34
5862320,15
5862944,17
5863572,13
5864192,13
5864820,11
5865448,13
5866072,33
5866700,23
5867320,12
5867952,11
5868580,11
5869200,14
5869828,16
5870456,17
5871084,17
5871716,18
5872336,18
5872968,20
5873592,18
5874216,12
5874848,10
5875472,20
5876104,30
5876728,28
5877352,15
5877984,23
5878608,24
5879240,21
5879868,11
5880488,11
5881120,15
5881744,40
5882376,19
5883004,12
5883624,43
5884256,16
5884880,13
5885504,28
5886136,23
5886756,14
5887388,23
5888020,28
5888640,27
5889268,17
5889892,13
5890524,20
5891152,12
5891776,47
5892408,23
5893032,13
5893656,17
5894288,15
5894904,19
5895536,64
5896160,108
5896836,112
5897516,46
5898136,29
5898764,42
5899392,48
5900012,166
5900692,168
5901372,63
5901992,38
5902624,63
5903248,62
5903876,19
5904508,30
5905128,47
5905756,38
5906384,12
5907008,18
5907640,20
5908256,25
5908884,30
5909516,32
5910136,43
5910768,43
5911392,17
5912024,42
5912652,58
5913272,45
5913904,12
5914528,20
5915152,19
5915784,31
5916400,29
5917032,23
5917656,25
5918280,11
5918912,27
5919528,41
5920160,52
5920788,30
5921408,26
5922036,24
5922660,55
5923292,75
5923920,42
5924544,17
5925172,18
5925800,13
5926424,12
5927052,11
5927672,15
5928304,16
5928928,15
5929552,15
5930184,11
5930800,12
5931432,12
5932060,10
5932680,11
5933312,12
5933936,15
5934568,19
5935196,42
5935816,14
5936448,15
5937072,14
5937700,15
5938332,19
5938952,51
5939584,64
5940208,68
5940832,56
5941460,25
5942084,11
5942712,55
5943344,93
5943960,95
5944592,79
5945216,59
5945844,38
5946476,28
5947096,48
5947728,32
5948352,12
5948976,12
5949604,10
5950224,23
5950856,34
5951480,48
5952104,51
5952732,48
5953356,17
5953988,81
5954616,94
5955240,61
5955868,43
5956492,19
5957124,15
5957756,18
5958376,14
5959008,13
5959632,12
5960256,18
5960884,32
5961504,39
5962136,34
5962764,21
5963384,16
5964016,14
5964640,24
5965268,75
5965900,84
5966520,34
5967152,11
5967776,11
5968400,18
5969028,46
5969648,58
5970276,52
5970904,35
5971528,20
5972156,32
5972776,28
5973408,111
5974092,84
5974712,32
5975344,13
5975968,29
5976592,48
5977224,65
5977844,63
5978476,43
5979100,30
5979724,20
5980356,28
5980976,43
5981604,99
5982236,72
5982856,44
5983488,41
5984112,10
5984740,37
5985372,53
5985992,15
5986624,33
5987248,27
5987872,23
5988500,40
5989120,29
5989752,15
5990376,14
5991000,11
5991632,12
5992252,25
5992884,57
5993512,62
5994132,22
5994764,22
5995388,27
5996020,38
5996652,38
5997272,36
5997904,32
5998528,19
5999152,18
5999784,11
6000404,45
6001032,73
6001660,49
6002284,15
6002912,29
6003536,15
6004164,21
6004796,14
6005416,16
6006048,16
6006672,12
6007300,25
6007932,26
6008552,12
6009184,13
6009808,11
6010432,21
6011064,18
6011680,14
6012312,16
6012944,14
6013560,20
6014192,13
6014816,11
6015448,12
6016080,12
6016696,11
6017324,19
6017948,25
6018572,32
6019204,36
6019824,38
6020456,28
6021080,22
6021704,21
6022336,48
6022952,41
6023584,38
6024212,16
6024832,15
6025460,21
6026088,51
6026716,69
6027348,49
6027968,24
6028600,16
6029224,15
6029848,83
6030480,174
6031148,88
6031776,40
6032408,11
6033024,11
6033656,18
6034280,20
6034912,16
6035540,14
6036160,16
6036792,17
6037416,19
6038040,15
6038672,10
6039292,11
6039924,11
6040548,11
6041172,11
6041804,11
6042424,11
6043052,18
6043684,12
6044304,35
6044936,22
6045560,16
6046188,21
6046820,22
6047440,53
6048072,53
6048696,55
6049320,44
6049948,18
6050568,68
6051200,50
6051824,62
6052448,30
6053080,34
6053704,16
6054336,71
6054968,90
6055588,55
6056220,13
6056844,21
6057472,31
6058104,53
6058728,50
6059360,43
6059984,25
6060608,14
6061240,16
6061864,40
6062496,18
6063124,69
6063744,91
6064376,38
6065000,20
6065628,13
6066260,15
6066880,25
6067512,52
6068136,29
6068760,17
6069392,14
6070008,21
6070640,31
6071264,34
6071888,26
6072520,14
6073140,11
6073768,14
6074400,23
6075020,52
6075648,21
6076276,11
6076908,11
6077536,14
6078160,15
6078792,14
6079416,14
6080044,11
6080672,13
6081292,29
6081920,45
6082544,49
6083168,35
6083800,36
6084424,43
6085052,24
6085684,118
6086356,61
6086984,33
6087608,19
6088232,45
6088864,14
6089480,26
6090112,21
6090736,16
6091360,20
6091992,71
6092616,70
6093248,13
6093876,18
6094496,16
6095124,37
6095752,72
6096384,64
6097012,24
6097632,13
6098264,17
6098888,17
6099512,16
6100140,19
6100760,22
6101392,21
6102024,19
6102640,14
6103272,15
6103896,18
6104528,33
6105156,12
6105776,19
6106408,18
6107032,12
6107656,21
6108288,16
6108904,12
6109536,11
6110160,15
6110784,19
6111416,16
6112036,14
6112664,20
6113296,32
6113912,57
6114544,68
6115168,65
6115800,51
6116432,16
6117056,12
6117688,72
6118316,104
6118992,85
6119624,74
6120244,55
6120872,15
6121504,31
6122128,12
6122760,39
6123384,19
6124016,12
6124648,15
6125268,21
6125900,34
6126524,31
6127148,19
6127780,34
6128400,57
6129032,67
6129660,43
6130284,13
6130916,20
6131540,107
6132224,130
6132908,97
6133528,63
6134160,14
6134792,20
6135416,26
6136048,22
6136676,15
6137308,14
6137940,14
6138560,11
6139192,12
6139820,21
6140448,32
6141080,53
6141700,46
6142332,43
6142960,43
6143584,18
6144220,41
6144840,33
6145472,54
6146100,80
6146720,68
6147348,36
6147972,11
6148600,23
6149232,29
6149848,25
6150476,18
6151100,12
6151724,17
6152356,38
6152976,44
6153604,39
6154228,37
6154852,25
6155484,12
6156108,44
6156740,79
6157372,50
6157992,13
6158624,29
6159248,25
6159876,30
6160508,60
6161128,32
6161756,15
6162380,22
6163008,16
6163636,52
6164256,23
6164884,34
6165516,16
6166136,11
6166764,15
6167392,53
6168020,63
6168652,46
6169272,19
6169904,15
6170528,24
6171152,54
6171780,70
6172400,38
6173028,11
6173656,23
6174280,30
6174908,19
6175528,33
6176160,53
6176788,34
6177408,24
6178036,27
6178660,16
6179292,30
6179924,36
6180544,31
6181176,28
6181800,21
6182424,11
6183052,21
6183672,40
6184304,22
6184928,11
6185552,16
6186184,15
6186800,15
6187428,15
6188060,14
6188680,18
6189312,17
6189936,12
6190568,26
6191196,42
6191816,49
6192448,44
6193072,31
6193700,34
6194328,21
6194952,46
6195584,100
6196264,76
6196888,59
6197516,13
6198144,44
6198772,54
6199404,67
6200024,70
6200656,67
6201280,48
6201904,47
6202532,128
6203204,76
6203832,49
6204460,15
6205080,13
6205712,11
6206336,29
6206968,67
6207596,39
6208216,16
6208848,36
6209472,51
6210096,65
6210728,71
6211344,45
6211976,46
6212600,65
6213224,95
6213856,101
6214532,44
6215160,36
6215792,12
6216408,34
6217036,31
6217664,17
6218288,11
6218916,14
6219536,20
6220168,27
6220792,22
6221420,16
6222048,11
6222676,11
6223308,11
6223940,16
6224560,20
6225192,19
6225816,15
6226444,14
6227072,12
6227692,39
6228320,42
6228944,23
6229572,29
6230200,21
6230824,11
6231456,11
6232084,11
6232704,17
6233336,104
6234012,54
6234632,15
6235264,13
6235880,13
6236512,20
6237136,19
6237760,19
6238392,14
6239008,11
6239640,10
6240272,11
6240896,13
6241524,11
6242148,11
6242780,11
6243412,14
6244032,16
6244660,17
6245288,19
6245912,21
6246544,21
6247160,13
6247788,10
6248412,11
6249036,10
6249668,10
6250288,13
6250916,15
6251548,10
6252168,14
6252796,17
6253424,19
6254052,15
6254684,25
6255304,23
6255936,13
6256560,11
6257184,37
6257816,17
6258432,105
6259116,55
6259744,23
6260364,11
6260992,14
6261616,15
6262248,22
