tempo_arduino_micro_s,valor_ADC
500,18
1004,18
1504,20
2000,14
2508,15
3000,14
3508,19
4000,22
4508,21
5000,16
5500,16
6000,15
6500,12
7004,12
7500,14
8000,17
8500,15
9000,15
9500,16
10000,19
10516,20
11036,23
11564,18
12084,15
12612,15
13132,20
13660,21
14180,20
14708,20
15228,21
15756,22
16276,23
16796,16
17316,12
17836,12
18356,12
18876,10
19396,10
19916,12
20436,14
20956,14
21476,14
21996,15
22516,18
23036,11
23564,11
24084,12
24612,13
25132,10
25660,11
26180,12
26708,15
27228,14
27756,14
28276,12
28804,15
29324,15
29852,15
30372,15
30900,18
31420,22
31948,23
32472,23
32996,20
33516,16
34044,17
34564,19
35092,18
35612,14
36140,10
36660,11
37188,14
37708,15
38236,15
38760,15
39284,14
39804,11
40332,10
40852,12
41372,14
41892,11
42412,10
42932,10
43452,15
43972,20
44492,17
45012,13
45532,14
46052,15
46572,16
47092,15
47612,15
48140,14
48660,23
49188,29
49708,32
50236,29
50760,19
51284,15
51804,12
52332,10
52852,11
53380,13
53900,14
54428,15
54948,14
55476,15
55996,14
56524,10
57044,10
57572,12
58096,15
58620,12
59140,10
59668,10
60188,14
60716,20
61240,20
61764,19
62284,14
62812,15
63332,16
63860,19
64384,18
64908,17
65428,19
65948,17
66468,18
66988,18
67508,18
68028,18
68548,16
69068,13
69588,10
70108,14
70628,14
71148,14
71668,16
72192,16
72716,15
73236,13
73764,12
74284,10
74812,12
75332,10
75860,11
76384,13
76908,12
77428,11
77956,14
78476,16
79004,14
79528,15
80052,17
80572,16
81100,16
81620,20
82148,17
82668,15
83196,19
83720,14
84244,10
84764,10
85292,10
85812,12
86340,12
86860,17
87388,16
87908,16
88436,16
88956,18
89484,12
90004,10
90524,10
91044,11
91564,11
92084,11
92604,15
93124,22
93644,26
94164,25
94684,23
95204,18
95724,14
96248,15
96764,16
97292,15
97812,13
98340,15
98860,19
99388,24
99908,23
100436,19
101000,18
101584,15
102156,11
102736,11
103304,11
103880,14
104456,15
105024,13
105600,16
106168,12
106744,10
107312,10
107896,11
108464,11
109040,11
109624,14
110192,16
110768,16
111336,16
111920,17
112492,15
113072,15
113640,15
114216,15
114792,12
115364,12
115944,14
116512,18
117096,20
117664,19
118240,20
118824,17
119392,15
119976,15
120548,14
121128,15
121696,15
122280,15
122848,14
123428,13
124008,11
124576,11
125160,13
125728,14
126312,12
126884,11
127456,15
128040,15
128608,14
129184,17
129752,15
130328,15
130896,15
131480,12
132048,15
132624,15
133200,20
133768,18
134344,18
134912,14
135496,10
136064,12
136648,12
137224,15
137792,16
138376,16
138944,14
139528,13
140096,11
140680,12
141252,11
141824,11
142408,11
142976,16
143560,21
144128,24
144712,20
145280,16
145864,17
146440,22
147008,21
147592,19
148160,19
148744,18
149312,16
149896,18
150464,19
151040,22
151624,17
152196,13
152776,13
153348,14
153928,15
154496,16
155080,15
155656,15
156224,15
156808,11
157376,12
157952,17
158524,14
159104,11
159676,11
160252,10
160832,13
161400,21
161976,26
162544,16
163128,15
163700,15
164280,15
164848,20
165416,25
165992,29
166560,29
167144,20
167712,18
168296,15
168864,9
169380,10
169952,11
170528,13
171104,16
171676,16
172256,15
172824,14
173408,12
173976,14
174556,12
175136,11
175704,11
176288,15
176856,20
177440,21
178008,20
178592,15
179160,16
179740,17
180320,18
180888,18
181472,14
182040,15
182624,17
183192,18
183772,16
184352,14
184920,11
185496,12
186064,15
186648,13
187216,16
187800,15
188368,16
188944,16
189528,14
190096,11
190680,10
191252,10
191832,11
192404,13
192976,15
193552,18
194124,18
194704,19
195272,16
195856,15
196424,21
197008,21
197576,15
198156,11
198736,11
199304,15
199888,19
200456,17
201040,21
201608,26
202192,20
202768,15
203340,15
203920,15
204492,15
205072,15
205640,15
206216,13
206784,13
207352,14
207928,15
208496,14
209080,11
209648,13
210224,19
210792,24
211376,23
211944,22
212520,15
213104,15
213672,17
214256,17
214828,14
215408,15
215976,20
216556,24
217136,24
217704,24
218288,22
218856,15
219440,10
220008,11
220592,15
221160,15
221736,16
222320,18
222892,19
223472,16
224044,13
224624,10
225192,10
225772,11
226352,11
226924,14
227504,14
228072,14
228656,15
229224,14
229808,15
230376,16
230956,15
231536,14
232104,16
232688,18
233256,19
233840,19
234408,19
234984,18
235568,12
236136,12
236720,10
237292,14
237872,14
238444,16
239024,16
239596,12
240172,11
240752,11
241320,11
241904,11
242476,11
243056,11
243628,15
244200,18
244784,20
245356,15
245936,15
246504,16
247088,15
247656,16
248240,11
248808,11
249384,12
249968,11
250536,11
251120,15
251692,19
252272,19
252844,20
253416,19
254000,17
254572,15
255152,15
255724,15
256304,13
256880,11
257456,12
258024,13
258592,9
259116,12
259688,11
260272,12
260840,13
261424,11
261992,16
262576,15
263144,16
263712,16
264296,18
264864,18
265448,16
266016,15
266600,15
267168,13
267736,14
268320,14
268888,16
269472,17
270040,15
270616,15
271184,15
271768,16
272336,17
272912,17
273496,15
274068,14
274648,13
275216,14
275800,13
276372,13
276948,15
277528,18
278100,19
278680,20
279252,15
279832,15
280404,15
280984,16
281552,22
282132,23
282712,22
283284,22
283864,21
284436,17
285016,15
285584,11
286164,10
286744,11
287312,15
287896,15
288468,16
289048,15
289616,16
290200,10
290768,11
291344,11
291928,11
292496,11
293080,11
293652,14
294232,13
294804,15
295376,16
295960,15
296532,16
297112,16
297684,17
298264,10
298832,14
299416,15
299988,21
300564,17
301144,17
301716,18
302296,16
302868,15
303448,19
304020,17
304592,15
305176,15
305748,15
306328,15
306900,13
307480,14
308056,11
308640,9
309156,11
309728,11
310312,11
310884,12
311464,14
312036,15
312616,14
313188,15
313768,13
314336,16
314916,13
315496,18
316068,24
316648,30
317220,24
317800,17
318380,13
318956,12
319536,11
320108,13
320688,15
321256,15
321832,15
322404,15
322984,12
323552,10
324132,12
324712,11
325284,11
325864,11
326436,11
327016,13
327588,18
328164,22
328744,22
329312,15
329888,15
330456,16
331040,15
331608,13
332192,18
332760,18
333340,15
333920,13
334488,12
335072,13
335640,15
336224,15
336792,18
337368,19
337952,16
338520,16
339104,16
339676,12
340256,11
340824,11
341408,12
341976,13
342556,11
343136,11
343704,11
344288,13
344860,17
345440,20
346012,18
346584,16
347168,17
347740,18
348320,22
348888,26
349472,27
350040,25
350624,17
351196,11
351772,11
352352,11
352924,14
353504,14
354072,17
354656,17
355224,15
355800,18
356384,18
356956,12
357536,11
358108,12
358688,11
359264,14
359848,20
360416,22
360992,16
361576,15
362148,15
362728,17
363296,17
363880,15
364448,15
365028,11
365608,13
366176,16
366760,24
367332,22
367912,19
368492,14
369072,10
369640,11
370216,12
370800,16
371372,16
371952,15
372524,15
373104,17
373676,15
374252,13
374832,11
375404,11
375984,10
376556,11
377136,13
377708,15
378288,19
378860,19
379436,15
380016,15
380588,16
381168,17
381740,18
382320,22
382900,23
383476,24
384056,20
384628,15
385208,14
385776,11
386360,12
386932,15
387512,18
388084,17
388656,15
389240,15
389808,16
390392,16
390964,12
391544,9
392064,11
392640,11
393212,11
393788,15
394368,23
394940,18
395520,15
396092,15
396672,15
397244,15
397820,15
398400,14
398972,15
399552,19
400124,19
400704,15
401272,16
401856,15
402428,11
403000,11
403584,14
404156,16
404736,15
405308,18
405888,15
406460,11
407036,14
407616,14
408188,13
408768,11
409340,13
409920,18
410496,21
411072,22
411640,25
412216,22
412800,16
413368,17
413944,20
414512,18
415096,15
415664,17
416244,19
416824,19
417392,17
417968,24
418536,31
419120,25
419692,14
420272,13
420840,15
421416,15
421992,16
422564,15
423144,12
423712,12
424296,11
424864,14
425440,15
426024,15
426592,18
427176,19
427748,15
428328,15
428896,16
429480,15
430048,18
430628,15
431208,14
431780,13
432360,16
432928,24
433512,25
434084,17
434656,15
435240,18
435808,16
436384,19
436952,23
437536,19
438108,16
438688,15
439260,16
439836,11
440416,11
440988,10
441568,11
442140,14
442720,11
443292,14
443864,27
444448,30
445020,19
445600,15
446168,17
446752,22
447324,19
447904,16
448484,11
449056,12
449640,13
450208,11
450792,17
451360,27
451944,26
452512,22
453088,24
453672,26
454244,26
454824,28
455392,20
455976,17
456548,11
457128,11
457696,11
458272,10
458856,11
459428,15
460008,21
460580,19
461160,21
461728,18
462304,16
462888,16
463456,16
464040,15
464608,15
465192,13
465764,18
466344,21
466916,19
467492,14
468072,14
468644,16
469224,11
469796,11
470376,13
470948,15
471524,20
472104,16
472676,19
473256,12
473828,12
474408,11
474976,14
475560,13
476132,10
476708,14
477288,13
477860,15
478440,13
479012,14
479592,16
480172,15
480744,16
481328,16
481896,23
482480,22
483052,18
483632,21
484204,21
484784,16
485356,15
485932,13
486512,11
487080,16
487664,16
488236,15
488816,16
489388,17
489964,13
490544,11
491116,10
491696,10
492268,10
492848,11
493416,11
494000,14
494572,20
495144,22
495728,19
496300,17
496880,17
497448,15
498032,16
498600,23
499176,23
499760,21
500332,19
500912,14
501484,14
502064,13
502636,12
503216,12
503788,16
504364,16
504944,15
505516,15
506096,15
506676,13
507256,14
507836,11
508412,10
508992,11
509564,13
510144,21
510716,26
511300,26
511876,17
512460,15
513040,19
513608,16
514184,16
514752,15
515336,15
515904,16
516488,16
517056,16
517636,18
518216,19
518788,18
519368,14
519936,14
520520,17
521088,16
521672,16
522248,16
522816,16
523400,12
523968,14
524552,12
525124,13
525704,11
526272,11
526852,15
527432,14
528004,13
528584,14
529152,15
529736,15
530308,14
530888,15
531464,13
532036,19
532616,29
533184,32
533768,27
534336,24
534920,20
535492,13
536068,10
536648,14
537216,19
537800,18
538368,18
538952,16
539524,16
540104,14
540680,12
541252,11
541832,11
542404,11
542984,11
543556,11
544136,11
544704,11
545280,13
545864,15
546436,17
547016,15
547588,17
548168,21
548736,26
549320,23
549896,21
550468,19
551048,15
551620,15
552200,11
552780,11
553360,11
553940,15
554516,15
555096,14
555668,15
556248,15
556820,11
557400,13
557972,17
558548,18
559128,15
559700,19
560280,26
560852,23
561432,17
562004,16
562584,16
563156,17
563732,15
564312,18
564884,24
565464,34
566036,36
566616,31
567188,25
567764,19
568344,22
568912,14
569496,11
570068,13
570648,17
571220,15
571800,15
572372,15
572948,17
573528,12
574100,11
574680,10
575252,11
575832,11
576404,11
576976,14
577560,18
578132,21
578712,21
579284,15
579864,17
580432,19
581016,17
581588,15
582164,15
582744,17
583316,19
583896,21
584476,16
585056,11
585628,13
586204,14
586784,13
587356,15
587936,17
588508,16
589088,18
589656,19
590240,11
590812,10
591388,11
591968,11
592540,11
593120,13
593692,19
594272,21
594844,23
595420,20
596000,15
596572,15
597152,15
597724,15
598304,14
598884,18
599464,22
600044,24
600620,21
601200,15
601772,11
602352,12
602924,15
603504,16
604076,17
604652,15
605232,15
605804,14
606384,14
606956,11
607536,11
608116,11
608696,12
609268,11
609844,12
610424,18
610996,20
611576,20
612156,18
612736,17
613316,15
613892,15
614476,18
615044,20
615624,23
616196,24
616776,28
617348,19
617928,11
618504,14
619076,14
619656,12
620228,15
620808,20
621376,18
621960,15
622532,17
623108,14
623688,11
624260,10
624840,11
625412,12
625992,13
626572,11
627152,19
627732,21
628300,18
628880,17
629452,15
630032,16
630612,17
631192,16
631772,13
632348,15
632928,18
633500,17
634084,13
634660,14
635240,16
635820,12
636396,14
636976,15
637548,17
638128,15
638704,15
639284,15
639860,14
640444,11
641016,10
641592,11
642176,11
642744,11
643328,11
643896,15
644480,15
645048,11
645628,17
646208,18
646780,16
647360,16
647932,15
648512,13
649080,17
649664,17
650232,21
650812,18
651392,15
651964,16
652544,13
653124,13
653704,13
654276,17
654852,15
655432,15
656000,14
656584,13
657152,13
657728,11
658296,11
658880,11
659448,12
660024,11
660608,12
661176,11
661760,16
662328,18
662912,15
663484,15
664060,15
664640,18
665208,19
665792,17
666360,21
666936,23
667504,20
668088,17
668656,19
669232,14
669816,11
670384,13
670968,17
671536,16
672120,16
672688,16
673264,12
673848,11
674416,11
675000,10
675572,11
676152,10
676724,11
677304,12
677872,11
678452,14
679032,16
679604,17
680184,15
680752,16
681336,15
681904,11
682484,11
683064,11
683636,14
684216,15
684788,19
685368,21
685940,18
686520,16
687088,19
687668,21
688248,16
688816,17
689400,17
689972,13
690552,11
691124,15
691700,14
692280,11
692852,12
693432,11
694004,12
694584,14
695156,14
695736,15
696316,15
696892,15
697472,17
698044,15
698624,16
699196,18
699776,18
700356,15
700932,11
701512,11
702084,10
702664,11
703236,11
703816,18
704396,18
704976,20
705552,20
706124,17
706704,11
707276,11
707856,12
708428,14
709008,13
709580,11
710156,12
710736,12
711308,15
711888,14
712468,15
713048,15
713620,16
714196,15
714776,15
715348,19
715928,20
716504,20
717080,19
717656,11
718240,11
718812,11
719388,11
719968,11
720540,15
721120,14
721692,15
722272,16
722840,15
723420,11
724000,10
724568,11
725152,11
725724,13
726304,17
726884,18
727464,16
728036,18
728612,14
729192,15
729764,15
730344,15
730916,15
731496,14
732068,10
732644,13
733224,19
733796,22
734376,20
734952,22
735528,22
736108,14
736688,10
737260,15
737836,15
738416,15
738988,16
739568,21
740140,14
740720,11
741292,13
741868,14
742448,13
743020,11
743600,12
744172,17
744752,21
745324,21
745904,15
746476,15
747052,15
747632,17
748204,16
748784,25
749356,29
749936,25
750516,15
751092,12
751672,12
752248,13
752824,12
753396,13
753976,22
754556,23
755136,16
755724,18
756296,21
756872,21
757444,16
758024,11
758604,14
759184,15
759756,11
760332,15
760912,18
761484,19
762064,24
762644,18
763224,18
763804,15
764380,15
764960,23
765532,32
766112,31
766688,27
767264,26
767844,23
768428,16
769000,10
769576,11
770160,13
770732,15
771312,14
771884,15
772464,15
773036,15
773612,12
774192,11
774764,11
775344,12
775916,17
776496,11
777076,15
777656,14
778236,16
778812,17
779392,15
779964,15
780544,18
781124,17
781704,12
782276,13
782852,15
783432,18
784004,22
784584,27
785156,27
785736,15
786308,11
786888,11
787472,14
788044,15
788624,15
789196,15
789776,14
790356,11
790940,11
791516,13
792092,17
792672,19
793244,19
793824,22
794404,18
794984,17
795556,15
796132,15
796712,15
797288,16
797864,16
798440,14
799016,18
799596,22
800176,29
800752,24
801332,19
801912,16
802484,12
803064,11
803636,13
804216,15
804788,15
805364,15
805944,15
806516,16
807096,12
807668,10
808248,11
808828,11
809408,11
809980,11
810556,14
811136,15
811708,15
812288,15
812860,15
813440,19
814012,17
814588,15
815168,14
815740,11
816320,15
816892,21
817472,23
818044,21
818624,23
819208,16
819780,12
820360,13
820928,14
821512,15
822080,16
822664,16
823232,15
823808,13
824392,11
824960,10
825544,11
826116,11
826696,13
827264,19
827848,19
828424,17
828992,16
829576,16
830144,19
830728,19
831296,16
831880,13
832452,13
833024,11
833608,15
834176,19
834752,19
835320,22
835904,15
836476,13
837056,13
837628,15
838200,15
838784,15
839356,16
839936,12
840516,10
841096,11
841664,11
842240,11
842824,11
843392,11
843976,16
844548,18
845128,14
845696,15
846280,15
846856,17
847424,17
848008,18
848576,10
849152,13
849724,22
850304,34
850876,39
851452,32
852032,24
852600,11
853184,11
853756,11
854336,15
854916,15
855496,15
856080,16
856648,13
857232,14
857804,11
858384,11
858956,11
859536,12
860108,21
860684,29
861264,23
861836,16
862416,15
862988,14
863568,17
864140,18
864720,16
865296,12
865864,18
866448,18
867020,18
867600,19
868180,17
868760,13
869332,12
869908,12
870488,13
871060,15
871640,15
872212,15
872792,16
873364,14
873940,19
874520,22
875092,13
875672,9
876192,10
876776,13
877348,19
877928,21
878500,21
879076,15
879656,16
880232,15
880808,15
881376,18
881960,17
882528,21
883112,21
883684,20
884256,13
884840,11
885408,15
885992,13
886564,12
887144,12
887716,15
888292,14
888872,15
889444,15
890024,12
890596,15
891176,11
891756,12
892336,17
892916,23
893492,21
894072,15
894644,11
895224,11
895804,15
896388,17
896960,16
897536,21
898120,23
898692,27
899272,26
899844,23
900424,22
900996,19
901576,16
902160,14
902732,11
903312,11
903884,15
904464,16
905036,15
905616,16
906184,15
906764,14
907344,17
907916,15
908496,13
909076,12
909656,12
910228,12
910804,11
911384,11
911956,12
912536,13
913108,15
913688,16
914268,15
914848,15
915420,14
915996,19
916576,22
917148,23
917728,25
918300,25
918880,19
919460,13
920036,12
920616,15
921188,15
921768,15
922340,15
922920,17
923488,12
924072,11
924644,11
925220,11
925800,11
926372,14
926952,16
927532,17
928112,16
928688,16
929264,15
929848,15
930420,15
931000,17
931572,20
932152,24
932732,23
933312,22
933896,21
934468,17
935048,15
935620,11
936200,11
936780,10
937360,14
937940,16
938516,17
939096,17
939672,16
940248,14
940828,12
941408,11
941980,14
942556,15
943136,11
943708,13
944288,13
944860,16
945440,14
946012,15
946592,15
947172,15
947748,18
948328,18
948900,17
949480,11
950052,11
950632,11
951212,10
951788,10
952368,10
952940,10
953520,12
954096,17
954672,23
955252,21
955832,23
956412,19
956992,11
957568,9
958092,10
958672,11
959252,11
959836,13
960412,17
960984,21
961568,25
962140,22
962720,16
963288,15
963872,17
964444,18
965024,16
965596,18
966172,17
966752,15
967324,17
967904,18
968484,14
969064,11
969636,11
970212,14
970792,19
971368,16
971944,15
972520,14
973096,16
973676,11
974256,11
974828,12
975404,11
975984,11
976556,15
977136,23
977716,20
978296,18
978876,17
979452,14
980032,15
980604,15
981184,15
981756,11
982340,11
982916,13
983496,18
984080,18
984648,19
985232,23
985804,20
986384,13
986956,11
987536,16
988108,14
988684,18
989264,18
989836,14
990416,11
990988,10
991568,11
992148,11
992724,11
993304,11
993876,11
994456,17
995028,19
995608,18
996188,15
996768,15
997340,17
997916,15
998496,12
999068,15
999648,20
1000220,27
1000844,23
1001468,15
1002096,11
1002724,12
1003348,13
1003976,14
1004608,14
1005224,15
1005852,16
1006476,19
1007104,15
1007732,10
1008352,12
1008980,11
1009604,13
1010224,13
1010856,10
1011472,14
1012104,19
1012728,19
1013348,15
1013980,15
1014604,15
1015232,18
1015864,21
1016480,22
1017112,21
1017736,20
1018364,19
1018996,14
1019616,11
1020244,12
1020868,17
1021492,15
1022124,15
1022744,20
1023372,16
1024000,10
1024620,11
1025248,12
1025868,11
1026496,10
1027124,19
1027740,26
1028372,25
1028992,21
1029620,15
1030248,15
1030864,16
1031492,21
1032116,27
1032736,25
1033364,20
1033984,22
1034612,21
1035232,18
1035856,12
1036484,10
1037104,12
1037732,17
1038360,15
1038976,14
1039604,15
1040228,11
1040856,11
1041484,11
1042100,11
1042732,13
1043352,11
1043976,19
1044604,20
1045220,21
1045848,14
1046472,15
1047092,16
1047724,16
1048344,14
1048972,15
1049592,24
1050216,29
1050844,23
1051468,17
1052096,17
1052724,13
1053344,11
1053972,14
1054596,15
1055224,15
1055852,14
1056472,16
1057100,13
1057724,11
1058344,11
1058972,10
1059592,11
1060220,12
1060844,14
1061464,15
1062092,12
1062712,15
1063340,16
1063968,16
1064592,21
1065220,18
1065844,15
1066472,25
1067100,30
1067720,17
1068348,10
1068968,11
1069592,11
1070220,10
1070840,14
1071468,19
1072092,18
1072712,15
1073340,14
1073960,11
1074588,11
1075216,10
1075836,11
1076468,16
1077088,21
1077716,18
1078344,19
1078968,19
1079596,15
1080220,15
1080844,15
1081472,15
1082088,14
1082716,25
1083340,28
1083964,28
1084592,25
1085208,19
1085840,15
1086464,11
1087088,11
1087716,14
1088340,15
1088968,17
1089596,24
1090216,21
1090844,13
1091468,11
1092096,13
1092724,14
1093344,17
1093972,11
1094596,11
1095220,11
1095848,16
1096464,16
1097092,15
1097716,15
1098340,15
1098968,12
1099592,14
1100220,14
1100852,18
1101468,21
1102100,22
1102724,17
1103352,14
1103980,16
1104600,16
1105228,15
1105852,15
1106476,15
1107104,10
1107728,11
1108356,11
1108980,11
1109604,13
1110232,13
1110856,15
1111488,21
1112116,18
1112736,15
1113364,16
1113988,17
1114620,16
1115248,16
1115872,15
1116500,14
1117124,15
1117748,14
1118380,12
1119000,12
1119628,11
1120256,12
1120880,21
1121508,23
1122132,19
1122760,20
1123388,14
1124008,11
1124636,14
1125260,23
1125888,19
1126520,18
1127136,25
1127764,27
1128388,19
1129008,16
1129640,15
1130256,16
1130884,15
1131508,16
1132132,20
1132760,21
1133384,23
1134012,23
1134644,14
1135264,14
1135892,14
1136516,16
1137148,20
1137776,17
1138392,15
1139024,16
1139648,17
1140272,16
1140900,16
1141520,15
1142148,11
1142772,14
1143396,14
1144028,13
1144652,16
1145280,16
1145908,14
1146528,15
1147156,16
1147780,16
1148412,13
1149040,14
1149656,18
1150288,18
1150912,14
1151536,15
1152164,16
1152780,11
1153412,12
1154032,19
1154656,20
1155284,17
1155908,16
1156536,15
1157164,10
1157784,11
1158412,13
1159032,11
1159664,11
1160292,12
1160912,15
1161540,13
1162164,13
1162788,14
1163416,15
1164036,17
1164664,17
1165288,14
1165908,19
1166540,23
1167160,25
1167788,19
1168420,21
1169040,21
1169668,18
1170292,14
1170920,17
1171548,16
1172168,17
1172796,15
1173420,13
1174044,12
1174672,14
1175296,13
1175924,12
1176548,11
1177172,11
1177804,11
1178424,19
1179052,21
1179680,16
1180296,16
1180928,17
1181552,15
1182180,13
1182812,13
1183432,17
1184060,20
1184684,18
1185308,19
1185936,16
1186552,11
1187184,12
1187808,14
1188432,15
1189060,16
1189680,16
1190308,11
1190940,10
1191560,11
1192188,11
1192812,11
1193444,13
1194072,20
1194688,20
1195320,17
1195944,16
1196568,15
1197196,14
1197816,16
1198444,15
1199068,13
1199692,19
1200324,24
1200944,20
1201572,17
1202204,12
1202824,11
1203452,11
1204076,14
1204704,16
1205336,15
1205952,15
1206580,16
1207204,12
1207828,11
1208460,10
1209080,12
1209708,12
1210332,13
1210956,14
1211584,20
1212208,21
1212836,15
1213468,16
1214088,16
1214716,15
1215340,16
1215972,21
1216604,19
1217224,24
1217852,25
1218476,21
1219100,17
1219732,12
1220352,12
1220980,15
1221604,14
1222228,15
1222860,14
1223480,13
1224108,10
1224740,10
1225360,13
1225988,13
1226616,17
1227244,23
1227876,31
1228496,26
1229128,20
1229748,15
1230372,15
1231000,16
1231616,19
1232248,21
1232868,22
1233492,19
1234120,13
1234744,15
1235372,19
1236000,18
1236616,19
1237244,19
1237868,18
1238496,18
1239128,16
1239744,15
1240372,11
1240996,15
1241620,21
1242248,21
1242864,17
1243492,15
1244116,17
1244740,22
1245372,16
1245992,16
1246620,15
1247252,17
1247872,21
1248504,21
1249124,19
1249756,19
1250384,22
1251000,17
1251632,13
1252256,12
1252880,11
1253508,10
1254128,17
1254756,19
1255380,16
1256004,15
1256632,15
1257252,11
1257880,11
1258508,16
1259128,15
1259756,15
1260380,18
1261012,17
1261640,23
1262264,23
1262892,15
1263516,16
1264140,16
1264772,16
1265392,17
1266020,19
1266644,25
1267268,27
1267900,20
1268520,16
1269148,15
1269780,14
1270400,15
1271028,19
1271652,19
1272284,16
1272912,15
1273532,12
1274160,10
1274784,11
1275412,11
1276040,13
1276664,16
1277292,18
1277920,20
1278544,17
1279172,18
1279792,18
1280424,16
1281052,14
1281668,18
1282296,26
1282920,32
1283548,32
1284176,26
1284792,20
1285420,14
1286044,10
1286668,11
1287296,11
1287912,18
1288540,20
1289164,16
1289784,15
1290416,11
1291032,17
1291660,21
1292284,17
1292904,15
1293532,14
1294156,13
1294784,15
1295416,16
1296032,16
1296660,15
1297280,15
1297912,16
1298540,12
1299160,17
1299788,19
1300412,18
1301036,13
1301664,14
1302288,16
1302916,12
1303540,11
1304164,15
1304792,15
1305416,15
1306048,16
1306676,17
1307296,13
1307924,11
1308548,12
1309176,10
1309808,15
1310424,19
1311052,17
1311676,20
1312300,16
1312928,14
1313544,15
1314172,16
1314796,16
1315416,16
1316044,22
1316660,24
1317292,21
1317920,16
1318536,16
1319164,12
1319788,11
1320416,13
1321044,18
1321660,15
1322288,15
1322912,15
1323536,13
1324164,10
1324780,11
1325412,11
1326036,12
1326656,16
1327288,16
1327904,20
1328532,28
1329164,26
1329784,17
1330412,15
1331036,16
1331664,18
1332292,25
1332908,28
1333540,30
1334160,25
1334788,24
1335416,20
1336040,13
1336668,13
1337288,13
1337908,14
1338540,14
1339160,15
1339788,17
1340412,14
1341040,11
1341668,12
1342288,13
1342920,17
1343548,18
1344168,22
1344796,19
1345416,13
1346048,16
1346676,18
1347292,17
1347924,18
1348544,13
1349168,11
1349796,10
1350416,16
1351044,16
1351668,14
1352288,14
1352920,17
1353540,15
1354172,14
1354800,15
1355416,15
1356044,15
1356668,16
1357296,11
1357924,11
1358544,11
1359172,10
1359796,11
1360420,11
1361048,13
1361664,17
1362292,18
1362912,15
1363536,15
1364164,16
1364780,19
1365412,21
1366040,25
1366656,21
1367288,16
1367908,13
1368540,14
1369168,13
1369784,10
1370412,10
1371036,15
1371660,16
1372288,14
1372912,16
1373540,16
1374164,16
1374784,14
1375416,11
1376032,12
1376660,14
1377288,18
1377904,20
1378532,22
1379156,19
1379788,15
1380416,17
1381036,17
1381664,16
1382288,11
1382916,11
1383548,16
1384168,25
1384796,24
1385420,21
1386040,11
1386672,10
1387288,13
1387916,15
1388540,14
1389168,15
1389796,15
1390420,11
1391048,13
1391680,14
1392296,13
1392928,16
1393552,13
1394180,17
1394808,17
1395432,18
1396060,14
1396684,15
1397304,17
1397936,17
1398552,16
1399180,17
1399804,19
1400432,24
1401060,23
1401684,22
1402312,20
1402940,13
1403560,11
1404188,14
1404812,14
1405440,17
1406068,16
1406688,16
1407316,11
1407940,11
1408568,11
1409196,12
1409816,12
1410444,14
1411068,15
1411692,18
1412320,12
1412944,16
1413572,17
1414200,16
1414824,16
1415452,11
1416076,15
1416704,17
1417332,21
1417952,21
1418580,17
1419204,12
1419828,10
1420456,11
1421076,14
1421704,14
1422328,16
1422952,15
1423580,13
1424204,12
1424832,12
1425464,11
1426080,11
1426708,15
1427332,18
1427960,18
1428592,19
1429208,18
1429840,15
1430464,16
1431084,17
1431716,16
1432336,21
1432964,15
1433588,15
1434216,18
1434844,17
1435468,17
1436096,18
1436724,16
1437344,17
1437972,17
1438596,15
1439228,16
1439856,17
1440472,14
1441104,12
1441724,10
1442348,11
1442976,11
1443592,11
1444224,15
1444844,18
1445468,17
1446096,15
1446712,15
1447340,17
1447968,18
1448592,16
1449220,20
1449844,19
1450472,21
1451100,19
1451720,17
1452348,13
1452972,13
1453596,13
1454224,15
1454844,15
1455472,15
1456096,15
1456716,16
1457348,14
1457968,12
1458596,11
1459228,10
1459844,11
1460476,11
1461100,13
1461728,19
1462356,19
1462976,17
1463604,16
1464228,15
1464852,16
1465484,12
1466104,18
1466732,21
1467356,22
1467980,17
1468612,16
1469232,19
1469860,19
1470492,14
1471112,19
1471744,17
1472368,15
1472996,15
1473624,12
1474248,11
1474876,10
1475500,12
1476124,15
1476752,16
1477368,17
1478000,17
1478620,20
1479244,25
1479872,18
1480496,17
1481124,15
1481752,18
1482376,25
1483004,34
1483628,36
1484256,28
1484888,21
1485504,19
1486132,14
1486756,12
1487376,11
1488004,14
1488620,15
1489252,15
1489872,14
1490496,11
1491128,11
1491744,11
1492372,12
1493004,12
1493624,14
1494252,16
1494876,18
1495508,17
1496136,14
1496756,14
1497384,16
1498008,16
1498632,11
1499260,10
1499880,13
1500508,26
1501132,26
1501756,29
1502388,26
1503008,20
1503636,15
1504268,16
1504888,17
1505516,15
1506140,16
1506772,15
1507400,11
1508016,11
1508648,11
1509272,12
1509896,15
1510524,16
1511144,17
1511772,17
1512396,15
1513020,16
1513652,14
1514272,17
1514900,16
1515532,14
1516152,21
1516780,21
1517408,24
1518036,21
1518668,17
1519288,14
1519916,11
1520544,12
1521168,17
1521796,16
1522416,16
1523044,15
1523668,11
1524292,11
1524924,12
1525544,11
1526172,12
1526804,12
1527424,17
1528052,20
1528676,21
1529308,18
1529936,15
1530560,15
1531188,15
1531816,17
1532440,17
1533068,16
1533688,21
1534316,21
1534944,17
1535568,15
1536200,11
1536816,13
1537444,19
1538072,21
1538688,15
1539316,18
1539940,21
1540568,17
1541196,12
1541816,12
1542444,13
1543068,14
1543692,10
1544320,13
1544936,13
1545564,12
1546188,15
1546812,15
1547444,15
1548064,17
1548692,13
1549324,20
1549944,20
1550572,18
1551196,21
1551828,17
1552456,16
1553080,17
1553708,15
1554332,16
1554956,15
1555588,14
1556208,15
1556836,15
1557460,10
1558084,12
1558712,13
1559332,14
1559960,18
1560592,18
1561208,15
1561840,19
1562460,16
1563092,14
1563720,16
1564336,17
1564968,17
1565592,17
1566216,18
1566844,18
1567464,19
1568092,17
1568716,20
1569340,16
1569968,11
1570584,10
1571216,15
1571840,16
1572464,15
1573092,15
1573716,13
1574348,11
1574980,12
1575600,11
1576228,11
1576852,11
1577480,15
1578108,17
1578728,21
1579356,19
1579980,17
1580608,17
1581236,16
1581856,14
1582484,17
1583116,17
1583736,19
1584368,21
1584992,19
1585620,17
1586252,18
1586872,13
1587504,16
1588128,17
1588748,15
1589380,14
1590000,15
1590628,11
1591252,13
1591876,12
1592508,11
1593128,11
1593756,13
1594388,14
1595008,19
1595640,19
1596264,17
1596892,15
1597524,16
1598144,19
1598772,18
1599396,21
1600024,17
1600652,12
1601268,11
1601900,15
1602520,22
1603144,19
1603772,12
1604392,16
1605020,15
1605648,14
1606272,15
1606900,14
1607524,12
1608152,11
1608780,11
1609400,13
1610028,12
1610652,12
1611276,13
1611904,13
1612524,19
1613152,15
1613776,15
1614396,16
1615028,14
1615648,14
1616276,15
1616908,18
1617528,18
1618156,15
1618780,17
1619408,11
1620040,10
1620656,11
1621284,13
1621908,15
1622536,16
1623164,14
1623784,12
1624412,11
1625036,11
1625660,11
1626288,10
1626904,12
1627536,26
1628160,30
1628784,23
1629412,15
1630036,23
1630668,19
1631296,16
1631920,17
1632552,21
1633176,23
1633800,22
1634428,16
1635048,11
1635676,11
1636304,11
1636928,11
1637556,14
1638176,17
1638808,17
1639432,17
1640052,15
1640680,11
1641300,10
1641928,12
1642556,12
1643172,13
1643804,14
1644424,16
1645052,13
1645680,12
1646300,15
1646932,15
1647552,14
1648176,15
1648804,14
1649420,14
1650048,22
1650668,24
1651292,19
1651920,21
1652536,21
1653164,11
1653792,14
1654408,17
1655036,15
1655660,15
1656288,20
1656916,16
1657536,10
1658164,11
1658788,11
1659412,12
1660040,15
1660656,15
1661284,12
1661908,14
1662532,13
1663160,15
1663776,14
1664408,17
1665036,18
1665652,15
1666280,15
1666904,17
1667532,19
1668160,19
1668776,17
1669404,15
1670028,14
1670656,13
1671284,14
1671904,15
1672532,14
1673152,15
1673776,13
1674404,12
1675020,12
1675652,10
1676272,13
1676896,12
1677524,11
1678148,12
1678776,19
1679404,16
1680020,16
1680648,16
1681268,15
1681896,15
1682524,19
1683144,22
1683772,24
1684396,21
1685016,17
1685644,19
1686264,14
1686892,12
1687512,13
1688136,15
1688764,14
1689384,15
1690012,15
1690640,10
1691256,11
1691884,11
1692508,11
1693136,11
1693764,12
1694384,24
1695012,24
1695636,20
1696260,15
1696888,14
1697508,16
1698140,14
1698760,13
1699384,13
1700012,16
1700628,28
1701260,26
1701880,22
1702504,19
1703132,10
1703756,13
1704384,17
1705012,14
1705632,15
1706260,15
1706880,14
1707512,12
1708140,12
1708760,15
1709388,17
1710012,13
1710636,13
1711264,15
1711888,18
1712516,15
1713140,15
1713764,15
1714396,15
1715020,16
1715648,11
1716280,14
1716896,21
1717524,26
1718148,24
1718776,22
1719408,18
1720024,15
1720656,18
1721276,19
1721900,18
1722532,16
1723152,15
1723780,11
1724404,10
1725028,14
1725656,15
1726280,14
1726908,15
1727536,18
1728160,19
1728788,16
1729412,15
1730040,16
1730668,14
1731288,16
1731916,13
1732536,11
1733160,11
1733792,11
1734408,12
1735036,14
1735660,21
1736284,23
1736912,20
1737532,19
1738160,17
1738788,16
1739408,16
1740036,16
1740660,12
1741292,12
1741920,11
1742536,11
1743168,16
1743788,14
1744412,15
1745040,18
1745664,27
1746292,19
1746916,16
1747540,15
1748168,15
1748784,17
1749412,21
1750044,22
1750664,25
1751292,20
1751916,17
1752548,10
1753176,11
1753796,11
1754424,15
1755048,14
1755672,15
1756300,16
1756920,15
1757548,13
1758172,13
1758796,11
1759428,12
1760048,16
1760676,17
1761304,20
1761924,17
1762556,14
1763176,14
1763808,16
1764436,16
1765056,16
1765684,15
1766308,22
1766932,26
1767560,30
1768176,25
1768808,20
1769428,13
1770052,10
1770680,10
1771304,15
1771932,15
1772564,14
1773184,16
1773812,13
1774436,10
1775064,10
1775696,13
1776312,11
1776944,15
1777568,17
1778192,18
1778820,14
1779440,18
1780068,15
1780692,16
1781316,16
1781944,16
1782568,16
1783196,15
1783828,18
1784448,23
1785076,22
1785700,21
1786328,15
1786960,12
1787576,17
1788204,16
1788828,15
1789452,16
1790080,16
1790704,12
1791336,11
1791960,11
1792584,11
1793212,13
1793832,15
1794460,25
1795088,22
1795712,24
1796340,17
1796964,15
1797592,15
1798224,15
1798840,13
1799472,19
1800096,29
1800716,25
1801348,17
1801968,17
1802596,11
1803220,10
1803840,13
1804468,19
1805088,21
1805716,17
1806344,17
1806960,14
1807592,11
1808212,11
1808840,11
1809472,16
1810088,14
1810716,13
1811340,15
1811968,19
1812596,16
1813216,15
1813844,15
1814468,15
1815088,16
1815720,16
1816336,14
1816964,15
1817588,23
1818212,24
1818844,18
1819464,12
1820096,14
1820724,16
1821344,21
1821972,17
1822596,15
1823228,16
1823856,14
1824480,11
1825108,11
1825732,11
1826356,11
1826984,11
1827600,16
1828232,19
1828856,19
1829476,17
1830108,15
1830732,15
1831360,16
1831988,14
1832608,15
1833236,19
1833860,25
1834492,26
1835120,21
1835736,15
1836368,11
1836992,13
1837616,13
1838244,17
1838864,16
1839492,15
1840116,15
1840740,11
1841372,11
1841996,11
1842624,12
1843256,14
1843872,14
1844500,18
1845120,18
1845748,17
1846380,14
1847000,17
1847628,15
1848252,15
1848876,12
1849504,12
1850124,18
1850752,20
1851376,23
1852000,29
1852628,26
1853252,16
1853880,12
1854512,14
1855128,17
1855756,19
1856380,19
1857012,14
1857640,13
1858256,11
1858884,10
1859508,12
1860132,11
1860760,11
1861376,12
1862008,12
1862632,15
1863256,16
1863884,14
1864504,16
1865132,15
1865760,12
1866384,17
1867012,15
1867636,15
1868264,13
1868896,11
1869512,11
1870140,11
1870764,13
1871388,20
1872016,19
1872640,17
1873268,16
1873892,11
1874516,13
1875148,14
1875768,12
1876396,12
1877028,14
1877648,14
1878276,13
1878904,16
1879532,16
1880164,14
1880784,16
1881412,16
1882040,13
1882664,14
1883292,14
1883912,15
1884544,15
1885164,14
1885788,19
1886420,15
1887040,10
1887672,15
1888300,17
1888920,16
1889548,15
1890172,15
1890804,10
1891432,11
1892052,11
1892680,12
1893304,13
1893928,18
1894556,18
1895176,23
1895804,21
1896428,17
1897052,15
1897680,16
1898304,17
1898932,19
1899564,19
1900184,20
1900812,25
1901436,21
1902068,17
1902696,16
1903320,19
1903952,15
1904576,16
1905200,16
1905828,15
1906448,15
1907076,15
1907704,14
1908328,11
1908956,11
1909580,13
1910212,13
1910844,14
1911464,21
1912096,18
1912720,16
1913348,15
1913980,14
1914600,16
1915232,16
1915856,14
1916480,18
1917108,19
1917728,15
1918360,11
1918992,10
1919608,11
1920240,14
1920864,22
1921492,24
1922120,18
1922744,19
1923372,16
1923996,11
1924620,12
1925248,12
1925864,10
1926496,11
1927116,13
1927740,15
1928372,15
1928992,17
1929620,17
1930248,20
1930864,19
1931492,17
1932116,12
1932748,17
1933380,22
1934000,25
1934628,20
1935252,16
1935880,12
1936508,10
1937128,12
1937756,14
1938380,17
1939004,16
1939636,14
1940256,17
1940884,17
1941516,13
1942136,11
1942764,11
1943392,13
1944020,13
1944652,14
1945272,17
1945904,15
1946524,14
1947148,15
1947780,15
1948400,15
1949028,13
1949652,19
1950276,26
1950908,26
1951528,20
1952156,16
1952788,13
1953408,10
1954036,11
1954660,13
1955292,15
1955920,15
1956536,15
1957168,12
1957792,12
1958416,11
1959044,10
1959664,16
1960292,15
1960916,14
1961540,15
1962172,17
1962792,19
1963424,16
1964052,15
1964672,17
1965304,17
1965928,18
1966556,20
1967188,26
1967808,30
1968436,26
1969060,19
1969684,13
1970312,13
1970928,14
1971556,16
1972180,15
1972804,15
1973432,15
1974048,12
1974680,14
1975308,14
1975928,13
1976556,15
1977180,14
1977812,18
1978440,20
1979056,18
1979684,15
1980308,15
1980936,15
1981564,16
1982184,17
1982812,19
1983436,19
1984060,17
1984688,16
1985312,21
1985940,22
1986568,17
1987184,18
1987816,19
1988440,17
1989068,15
1989700,16
1990320,20
1990948,14
1991572,13
1992200,13
1992828,10
1993448,11
1994076,12
1994700,16
1995328,19
1995956,18
1996576,16
1997208,15
1997836,17
1998456,15
1999084,15
1999708,17
2000340,19
2000968,20
2001584,17
2002212,19
2002836,13
2003460,11
2004092,12
2004712,16
2005340,15
2005964,16
2006588,15
2007220,12
2007840,15
2008468,19
2009096,15
2009716,12
2010344,13
2010968,14
2011596,12
2012224,10
2012848,16
2013476,14
2014100,17
2014728,17
2015356,14
2015976,16
2016608,17
2017232,15
2017856,20
2018484,19
2019104,15
2019732,11
2020364,10
2020984,13
2021612,18
2022236,18
2022868,17
2023496,15
2024120,11
2024748,11
2025372,12
2025996,13
2026628,17
2027248,22
2027876,24
2028500,19
2029124,18
2029756,14
2030376,17
2031008,23
2031636,30
2032256,33
2032884,29
2033508,18
2034140,15
2034768,16
2035392,24
2036020,18
2036644,11
2037268,11
2037900,14
2038520,15
2039148,17
2039772,16
2040400,13
2041028,11
2041648,12
2042276,11
2042908,11
2043528,13
2044156,16
2044784,15
2045416,17
2046044,19
2046664,15
2047296,17
2047920,17
2048544,15
2049172,12
2049788,15
2050416,26
2051040,35
2051660,24
2052288,18
2052908,16
2053540,11
2054168,16
2054784,19
2055412,16
2056036,15
2056664,15
2057292,11
2057912,12
2058540,12
2059160,11
2059784,14
2060412,20
2061032,29
2061660,26
2062280,17
2062904,16
2063532,18
2064152,17
2064780,15
2065400,16
2066024,17
2066652,18
2067276,23
2067904,27
2068532,22
2069148,19
2069780,10
2070400,11
2071028,15
2071656,16
2072280,16
2072908,16
2073532,16
2074156,15
2074784,23
2075400,23
2076032,20
2076656,14
2077276,11
2077908,11
2078532,13
2079160,13
2079788,15
2080408,17
2081036,17
2081656,16
2082284,13
2082916,14
2083536,21
2084164,19
2084784,14
2085408,11
2086036,14
2086656,14
2087284,15
2087908,20
2088528,20
2089160,18
2089776,16
2090404,13
2091032,12
2091648,12
2092276,11
2092900,12
2093528,11
2094156,12
2094776,13
2095404,17
2096028,16
2096648,14
2097276,15
2097896,16
2098524,16
2099148,10
2099772,15
2100400,26
2101024,32
2101652,26
2102280,15
2102896,11
2103528,12
2104148,11
2104780,15
2105408,16
2106024,17
2106656,16
2107280,11
2107908,12
2108536,18
2109160,17
2109788,13
2110412,10
2111036,15
2111664,16
2112288,21
2112916,17
2113544,15
2114168,16
2114796,15
2115420,17
2116048,18
2116676,18
2117296,21
2117924,22
2118548,17
2119172,16
2119804,10
2120424,11
2121052,13
2121676,17
2122296,16
2122928,16
2123544,15
2124172,11
2124796,14
2125424,16
2126052,14
2126676,14
2127308,18
2127936,20
2128556,21
2129184,24
2129808,17
2130440,15
2131068,14
2131688,18
2132316,22
2132940,25
2133564,30
2134192,31
2134808,26
2135440,25
2136064,16
2136688,11
2137316,13
2137940,16
2138568,15
2139200,14
2139816,19
2140444,16
2141068,11
2141700,11
2142328,11
2142944,10
2143576,14
2144200,20
2144824,25
2145452,25
2146072,21
2146700,15
2147324,14
2147952,16
2148580,15
2149204,14
2149836,15
2150464,18
2151084,16
2151716,10
2152336,15
2152964,16
2153592,12
2154216,19
2154844,34
2155468,34
2156092,27
2156720,16
2157344,11
2157972,12
2158604,10
2159224,12
2159852,13
2160476,13
2161108,17
2161736,21
2162352,23
2162984,19
2163608,16
2164228,15
2164860,14
2165480,13
2166108,15
2166732,23
2167356,29
2167984,24
2168608,19
2169236,18
2169868,13
2170488,11
2171116,13
2171740,15
2172372,15
2173000,15
2173624,17
2174252,12
2174876,10
2175500,11
2176132,10
2176748,12
2177380,15
2178000,14
2178624,18
2179252,19
2179872,19
2180500,17
2181128,16
2181752,19
2182380,17
2183004,17
2183636,18
2184264,20
2184880,23
2185512,16
2186136,13
2186760,11
2187388,10
2188008,16
2188636,21
2189260,23
2189884,19
2190516,14
2191136,11
2191768,11
2192396,10
2193016,13
2193644,17
2194268,24
2194896,22
2195528,20
2196144,15
2196772,16
2197396,17
2198024,19
2198652,14
2199272,11
2199900,13
2200528,19
2201152,25
2201780,19
2202400,26
2203028,27
2203656,16
2204280,13
2204908,15
2205532,15
2206160,15
2206792,16
2207408,11
2208040,13
2208664,11
2209284,10
2209916,11
2210536,14
2211168,16
2211792,19
2212416,21
2213044,18
2213664,16
2214292,15
2214924,16
2215544,16
2216172,20
2216796,23
2217428,28
2218056,25
2218676,28
2219304,22
2219928,14
2220552,13
2221180,15
2221800,15
2222428,16
2223052,16
2223676,15
2224308,10
2224928,11
2225556,11
2226188,11
2226808,14
2227436,19
2228060,22
2228692,22
2229320,17
2229944,14
2230572,15
2231196,15
2231824,16
2232456,17
2233072,22
2233700,24
2234324,21
2234948,16
2235580,12
2236200,13
2236828,12
2237460,12
2238080,20
2238708,22
2239336,22
2239968,16
2240600,12
2241216,12
2241844,11
2242468,11
2243092,14
2243724,14
2244344,13
2244972,12
2245596,15
2246220,17
2246852,16
2247472,16
2248100,15
2248732,18
2249352,23
2249980,25
2250604,21
2251236,14
2251868,12
2252488,12
2253116,13
2253740,16
2254364,17
2254992,16
2255616,16
2256244,15
2256868,16
2257492,11
2258120,11
2258736,11
2259364,11
2259992,12
2260616,15
2261244,17
2261868,19
2262500,19
2263128,17
2263744,16
2264376,16
2265000,15
2265620,11
2266252,11
2266872,16
2267500,21
2268124,21
2268748,17
2269380,12
2270000,14
2270628,14
2271260,16
2271880,20
2272512,17
2273136,17
2273764,14
2274392,10
2275016,13
2275644,13
2276268,15
2276892,19
2277524,22
2278144,22
2278776,19
2279396,17
2280024,15
2280652,15
2281272,17
2281900,20
2282532,18
2283152,21
2283784,21
2284408,19
2285036,19
2285668,25
2286288,17
2286916,11
2287544,12
2288168,17
2288796,14
2289416,16
2290044,16
2290668,11
2291296,11
2291924,11
2292548,11
2293180,11
2293812,12
2294432,15
2295060,19
2295684,22
2296312,20
2296940,15
2297560,17
2298192,16
2298816,15
2299440,16
2300068,16
2300688,19
2301316,17
2301944,19
2302568,16
2303196,13
2303824,13
2304456,13
2305084,14
2305704,15
2306332,15
2306956,15
2307584,12
2308212,17
2308832,16
2309460,11
2310084,12
2310708,16
2311336,19
2311956,15
2312584,15
2313208,14
2313832,15
2314464,17
2315088,16
2315716,13
2316348,19
2316968,26
2317596,25
2318220,18
2318852,16
2319480,14
2320100,11
2320728,13
2321352,15
2321976,15
2322604,14
2323224,15
2323852,13
2324476,10
2325104,11
2325732,11
2326356,11
2326988,11
2327620,10
2328240,11
2328868,15
2329492,20
2330120,15
2330748,15
2331368,17
2331996,17
2332620,11
2333248,12
2333876,18
2334496,21
2335124,19
2335756,20
2336376,17
2337004,14
2337628,15
2338256,18
2338888,18
2339504,16
2340132,16
2340756,14
2341384,13
2342012,10
2342632,13
2343260,11
2343884,11
2344508,13
2345140,19
2345760,23
2346388,18
2347020,15
2347640,16
2348268,18
2348892,18
2349524,23
2350152,22
2350776,21
2351404,20
2352032,20
2352656,17
2353284,10
2353904,11
2354536,14
2355160,18
2355784,16
2356416,15
2357032,15
2357660,13
2358292,12
2358912,13
2359540,12
2360168,15
2360796,21
2361428,20
2362048,19
2362676,19
2363300,15
2363924,16
2364556,18
2365176,18
2365808,17
2366428,18
2367052,13
2367684,12
2368304,14
2368932,13
2369564,10
2370184,11
2370812,13
2371436,25
2372068,19
2372696,15
2373320,16
2373948,12
2374576,10
2375200,10
2375828,10
2376448,11
2377076,14
2377700,20
2378324,21
2378956,19
2379576,19
2380204,15
2380836,14
2381456,18
2382084,16
2382708,13
2383340,16
2383968,18
2384588,18
2385220,17
2385844,15
2386468,11
2387096,11
2387716,11
2388344,17
2388968,17
2389592,16
2390224,14
2390848,13
2391480,11
2392108,11
2392728,12
2393360,14
2393984,19
2394612,21
2395244,19
2395864,16
2396496,16
2397120,15
2397744,16
2398376,14
2398992,13
2399624,12
2400248,11
2400872,19
2401500,18
2402124,21
2402752,23
2403384,16
2404000,18
2404632,17
2405256,15
2405884,16
2406516,14
2407136,15
2407764,12
2408388,11
2409012,11
2409640,11
2410256,11
2410888,13
2411512,11
2412136,14
2412764,15
2413392,15
2414020,15
2414652,16
2415272,17
2415904,20
2416528,19
2417156,18
2417788,18
2418408,17
2419036,17
2419660,12
2420284,11
2420916,10
2421536,15
2422168,15
2422796,16
2423416,16
2424044,11
2424668,11
2425300,11
2425928,10
2426552,11
2427184,14
2427808,18
2428432,21
2429060,19
2429680,22
2430308,17
2430936,15
2431560,18
2432192,17
2432808,21
2433436,22
2434068,20
2434688,19
2435316,16
2435940,17
2436572,15
2437204,15
2437824,18
2438452,19
2439076,18
2439700,15
2440332,18
2440952,16
2441580,12
2442208,10
2442832,11
2443460,11
2444080,12
2444708,17
2445340,18
2445960,19
2446588,15
2447216,15
2447844,15
2448476,15
2449096,12
2449724,13
2450352,19
2450976,28
2451608,26
2452224,23
2452856,19
2453480,11
2454104,11
2454736,14
2455352,14
2455984,15
2456616,15
2457236,13
2457868,11
2458488,11
2459116,10
2459748,10
2460368,11
2460996,15
2461620,17
2462240,19
2462872,16
2463488,15
2464116,16
2464740,18
2465364,18
2465992,19
2466608,17
2467236,18
2467864,19
2468488,13
2469116,12
2469740,12
2470368,14
2471000,19
2471616,18
2472248,16
2472872,15
2473496,15
2474124,10
2474744,13
2475372,14
2475996,11
2476624,12
2477252,18
2477872,21
2478504,24
2479132,28
2479752,22
2480384,15
2481004,17
2481636,17
2482264,16
2482880,16
2483512,20
2484136,21
2484756,16
2485388,16
2486008,19
2486636,14
2487260,12
2487884,14
2488516,14
2489136,15
2489764,16
2490392,14
2491016,12
2491644,11
2492268,11
2492900,13
2493528,14
2494152,15
2494780,18
2495408,17
2496032,15
2496660,14
2497280,17
2497908,16
2498532,17
2499156,24
2499788,24
2500408,21
2501036,21
2501668,26
2502288,23
2502916,17
2503540,11
2504172,10
2504800,14
2505424,15
2506052,15
2506676,15
2507304,13
2507932,10
2508552,11
2509184,11
2509804,12
2510428,12
2511060,17
2511684,19
2512312,14
2512944,14
2513564,16
2514192,17
2514816,18
2515448,16
2516076,12
2516696,13
2517324,21
2517952,17
2518576,17
2519204,16
2519824,14
2520456,13
2521080,14
2521704,17
2522332,15
2522956,15
2523588,15
2524216,12
2524840,19
2525468,18
2526092,11
2526724,13
2527352,14
2527976,12
2528608,11
2529232,13
2529856,15
2530484,15
2531104,16
2531736,16
2532368,12
2532984,11
2533616,16
2534240,20
2534872,23
2535500,24
2536120,23
2536748,17
2537376,14
2538000,19
2538628,18
2539248,15
2539880,15
2540504,15
2541128,11
2541756,12
2542376,13
2543008,13
2543636,18
2544256,25
2544884,22
2545508,24
2546140,21
2546772,14
2547392,18
2548020,22
2548644,25
2549272,32
2549900,30
2550520,25
2551152,17
2551776,15
2552400,15
2553028,10
2553648,11
2554276,11
2554908,14
2555528,15
2556160,15
2556784,16
2557416,11
2558048,11
2558668,10
2559300,11
2559924,12
2560552,15
2561180,20
2561800,19
2562428,16
2563048,16
2563668,15
2564300,14
2564920,15
2565548,15
2566176,15
2566792,16
2567424,17
2568044,20
2568672,21
2569304,21
2569920,16
2570548,13
2571172,14
2571796,16
2572424,15
2573040,15
2573668,15
2574292,11
2574916,12
2575544,12
2576168,11
2576796,11
2577424,14
2578044,18
2578672,15
2579296,13
2579924,15
2580552,15
2581176,15
2581804,15
2582428,14
2583048,15
2583676,21
2584296,33
2584924,33
2585548,27
2586172,20
2586800,13
2587424,11
2588052,15
2588680,15
2589304,16
2589932,15
2590556,14
2591188,12
2591816,14
2592440,15
2593068,11
2593692,11
2594316,16
2594944,22
2595564,17
2596192,14
2596816,14
2597436,17
2598068,18
2598688,15
2599316,22
2599948,34
2600568,32
2601196,32
2601820,26
2602452,21
2603080,13
2603696,10
2604328,13
2604952,15
2605576,15
2606204,14
2606824,15
2607452,11
2608076,11
2608700,11
2609328,10
2609952,14
2610580,17
2611212,18
2611832,15
2612460,17
2613084,17
2613712,16
2614344,15
2614964,15
2615592,15
2616216,16
2616840,19
2617468,17
2618088,15
2618716,15
2619340,16
2619964,15
2620596,12
2621216,14
2621844,15
2622476,14
2623096,15
2623724,16
2624348,11
2624976,14
2625604,12
2626220,11
2626852,11
2627472,17
2628100,15
2628728,18
2629344,23
2629976,23
2630596,17
2631220,18
2631848,15
2632464,11
2633096,10
2633716,20
2634340,33
2634972,31
2635592,25
2636220,14
2636852,10
2637468,13
2638100,20
2638720,17
2639352,17
2639980,18
2640600,19
2641228,17
2641852,16
2642476,12
2643104,10
2643720,12
2644348,13
2644972,24
2645592,31
2646224,27
2646840,15
2647468,15
2648096,15
2648720,16
2649348,17
2649972,25
2650600,31
2651228,28
2651848,20
2652476,13
2653100,10
2653724,11
2654352,13
2654972,16
2655600,17
2656224,16
2656844,15
2657476,12
2658096,13
2658724,14
2659352,13
2659976,13
2660604,14
2661228,16
2661860,23
2662488,26
2663104,22
2663732,16
2664356,16
2664976,18
2665604,19
2666220,19
2666852,18
2667472,20
2668096,16
2668724,14
2669344,20
2669972,19
2670600,14
2671224,17
2671852,16
2672476,15
2673104,17
2673736,18
2674352,13
2674980,12
2675604,11
2676228,11
2676860,12
2677480,21
2678108,23
2678732,14
2679356,12
2679984,14
2680604,15
2681232,17
2681860,16
2682480,15
2683108,16
2683732,19
2684360,20
2684988,11
2685608,13
2686236,13
2686860,12
2687488,11
2688116,16
2688732,15
2689360,15
2689984,16
2690608,14
2691236,11
2691856,11
2692484,11
2693104,14
2693728,10
2694360,17
2694984,24
2695612,22
2696240,18
2696864,15
2697492,15
2698116,19
2698744,23
2699376,27
2699992,24
2700620,23
2701248,18
2701868,14
2702500,12
2703120,13
2703748,13
2704372,15
2704996,16
2705624,16
2706248,15
2706876,18
2707504,15
2708124,13
2708752,11
2709376,12
2710004,12
2710632,10
2711256,13
2711884,19
2712508,17
2713132,17
2713764,14
2714384,15
2715012,15
2715636,13
2716260,16
2716888,22
2717512,25
2718140,22
2718772,22
2719392,17
2720020,11
2720644,12
2721272,15
2721900,16
2722520,16
2723148,16
2723772,18
2724396,15
2725024,11
2725648,14
2726276,13
2726900,11
2727524,11
2728152,11
2728776,12
2729404,15
2730032,14
2730656,17
2731284,16
2731908,16
2732540,11
2733168,11
2733784,15
2734416,23
2735040,25
2735660,23
2736292,19
2736912,12
2737540,13
2738164,15
2738788,14
2739420,16
2740044,16
2740672,14
2741300,11
2741920,15
2742548,13
2743172,10
2743804,11
2744436,15
2745056,21
2745684,24
2746308,23
2746932,16
2747560,15
2748176,15
2748808,17
2749428,25
2750052,28
2750684,23
2751308,21
2751940,21
2752572,14
2753192,12
2753820,12
2754444,15
2755076,15
2755704,16
2756328,16
2756956,16
2757580,11
2758204,11
2758836,10
2759456,11
2760084,11
2760716,11
2761336,17
2761964,16
2762588,14
2763220,17
2763848,20
2764472,16
2765104,15
2765724,11
2766348,14
2766980,17
2767600,20
2768228,16
2768852,14
2769476,13
2770104,11
2770728,13
2771356,16
2771988,14
2772608,17
2773236,16
2773860,14
2774492,11
2775120,10
2775740,11
2776368,11
2776992,15
2777616,17
2778244,18
2778864,18
2779492,19
2780116,15
2780744,15
2781372,14
2781992,15
2782624,13
2783252,14
2783872,16
2784504,20
2785128,19
2785756,17
2786388,14
2787008,14
2787636,16
2788260,17
2788884,17
2789512,16
2790136,15
2790768,12
2791388,12
2792012,10
2792640,10
2793264,12
2793892,13
2794524,18
2795144,23
2795776,23
2796400,19
2797028,15
2797656,14
2798280,18
2798908,17
2799532,16
2800156,15
2800788,11
2801408,15
2802036,15
2802660,16
2803284,13
2803912,15
2804532,19
2805160,23
2805788,15
2806408,15
2807036,15
2807660,12
2808292,12
2808920,11
2809536,11
2810168,15
2810792,12
2811416,12
2812044,12
2812664,16
2813292,15
2813920,16
2814544,17
2815172,15
2815792,13
2816424,15
2817052,16
2817672,17
2818300,15
2818924,12
2819552,11
2820180,10
2820800,12
2821428,20
2822052,19
2822676,17
2823304,15
2823924,15
2824552,14
2825176,11
2825800,11
2826428,10
2827048,13
2827676,13
2828304,14
2828928,20
2829556,19
2830180,15
2830808,15
2831440,15
2832056,16
2832684,15
2833308,16
2833932,17
2834560,18
2835176,17
2835808,15
2836432,13
2837056,11
2837684,11
2838304,18
2838932,18
2839564,14
2840184,18
2840812,15
2841436,11
2842068,11
2842696,10
2843320,11
2843948,17
2844572,21
2845196,15
2845828,14
2846448,16
2847076,16
2847700,15
2848324,16
2848956,18
2849576,18
2850204,21
2850836,18
2851456,18
2852084,15
2852708,11
2853340,11
2853968,14
2854592,17
2855220,15
2855844,16
2856468,19
2857100,18
2857720,19
2858348,13
2858972,11
2859596,12
2860228,14
2860848,16
2861476,19
2862108,18
2862728,17
2863356,16
2863984,15
2864616,16
2865244,15
2865864,15
2866496,19
2867120,23
2867744,19
2868372,12
2868992,12
2869620,15
2870244,13
2870868,13
2871496,18
2872112,14
2872744,17
2873372,18
2873992,13
2874620,11
2875244,11
2875876,16
2876504,19
2877124,11
2877752,21
2878376,23
2879000,21
2879628,20
2880248,15
2880876,16
2881496,18
2882120,17
2882748,17
2883368,22
2883996,23
2884624,23
2885240,19
2885868,17
2886492,15
2887120,15
2887748,14
2888368,15
2888996,15
2889616,16
2890244,15
2890872,12
2891496,13
2892124,13
2892748,15
2893372,14
2894004,12
2894624,12
2895252,11
2895884,15
2896504,15
2897132,19
2897756,17
2898388,16
2899016,14
2899632,16
2900264,16
2900888,15
2901512,16
2902140,14
2902760,12
2903388,11
2904012,11
2904636,17
2905268,19
2905888,22
2906516,20
2907148,16
2907768,11
2908396,11
2909020,12
2909652,10
2910280,10
2910904,16
2911532,20
2912156,21
2912780,20
2913412,16
2914032,17
2914660,16
2915284,15
2915908,15
2916540,19
2917160,20
2917788,23
2918420,22
2919040,19
2919668,13
2920292,11
2920920,11
2921552,16
2922168,15
2922800,16
2923424,16
2924048,15
2924676,12
2925296,12
2925924,11
2926548,11
2927172,14
2927804,14
2928424,18
2929052,19
2929684,16
2930304,15
2930932,15
2931560,15
2932188,15
2932816,12
2933440,12
2934068,17
2934692,22
2935316,20
2935948,18
2936568,18
2937196,11
2937824,15
2938448,19
2939076,15
2939696,16
2940324,18
2940956,12
2941576,11
2942208,11
2942832,11
2943464,11
2944092,16
2944712,22
2945340,20
2945964,17
2946588,16
2947220,14
2947840,16
2948468,17
2949092,20
2949720,22
2950348,24
2950968,21
2951596,15
2952228,14
2952848,20
2953476,17
2954100,13
2954732,16
2955360,15
2955980,15
2956608,16
2957232,17
2957856,12
2958484,10
2959104,11
2959732,12
2960360,11
2960980,11
2961608,14
2962232,20
2962860,19
2963492,16
2964112,17
2964740,15
2965364,18
2965996,16
2966624,20
2967248,26
2967876,26
2968500,19
2969124,14
2969756,10
2970376,11
2971004,11
2971628,14
2972252,15
2972880,16
2973496,15
2974124,12
2974756,10
2975376,17
2976004,19
2976628,14
2977256,12
2977884,13
2978504,16
2979132,13
2979756,15
2980380,15
2981012,14
2981632,16
2982260,15
2982884,17
2983508,23
2984140,27
2984760,25
2985388,25
2986020,23
2986640,16
2987268,12
2987892,13
2988524,14
2989156,16
2989776,18
2990404,16
2991028,18
2991652,18
2992284,14
2992904,17
2993532,17
2994156,21
2994780,21
2995412,15
2996036,12
2996664,15
2997296,15
2997912,15
2998544,17
2999168,24
2999800,38
3000428,38
3001048,34
3001676,30
3002300,20
3002924,14
3003556,10
3004176,12
3004804,15
3005428,16
3006056,15
3006684,15
3007312,14
3007944,11
3008576,11
3009192,11
3009824,11
3010448,11
3011076,14
3011708,18
3012328,19
3012956,18
3013584,17
3014208,18
3014840,15
3015456,16
3016088,15
3016716,20
3017336,23
3017968,21
3018592,18
3019224,15
3019852,15
3020472,15
3021104,16
3021728,18
3022352,16
3022984,15
3023600,15
3024232,12
3024856,12
3025480,11
3026108,10
3026728,13
3027356,15
3027988,23
3028608,18
3029240,12
3029864,15
3030496,16
3031124,16
3031744,17
3032376,14
3033000,15
3033624,25
3034252,30
3034872,21
3035504,23
3036128,26
3036752,15
3037384,10
3038004,13
3038632,15
3039264,15
3039884,16
3040516,15
3041140,15
3041768,22
3042396,21
3043016,16
3043648,13
3044272,13
3044896,10
3045524,11
3046144,12
3046776,20
3047400,20
3048024,16
3048652,16
3049272,17
3049904,25
3050532,26
3051152,27
3051784,24
3052408,19
3053036,11
3053668,10
3054288,12
3054916,16
3055544,15
3056168,15
3056796,15
3057416,13
3058048,11
3058672,11
3059296,12
3059924,9
3060500,11
3061132,13
3061764,15
3062384,15
3063016,18
3063640,15
3064272,15
3064900,15
3065520,16
3066152,11
3066776,13
3067400,19
3068032,22
3068652,15
3069280,13
3069908,13
3070532,17
3071164,17
3071784,14
3072420,15
3073048,16
3073664,18
3074292,13
3074916,10
3075544,11
3076172,10
3076792,14
3077420,12
3078044,14
3078668,20
3079300,20
3079920,17
3080548,15
3081172,16
3081796,17
3082428,18
3083048,22
3083676,21
3084304,20
3084928,18
3085556,11
3086180,11
3086808,10
3087440,10
3088056,14
3088688,15
3089308,15
3089932,15
3090564,14
3091184,11
3091816,13
3092440,12
3093064,13
3093692,16
3094312,19
3094944,22
3095572,27
3096192,21
3096820,15
3097448,16
3098076,17
3098708,16
3099328,17
3099956,26
3100584,29
3101208,28
3101836,20
3102456,19
3103088,14
3103712,13
3104336,17
3104964,14
3105584,15
3106216,15
3106844,16
3107464,15
3108096,13
3108720,11
3109348,12
3109980,12
3110600,11
3111228,12
3111856,13
3112480,19
3113112,18
3113728,17
3114356,16
3114980,16
3115604,17
3116236,16
3116856,11
3117484,13
3118116,20
3118736,22
3119364,21
3119992,19
3120624,15
3121252,14
3121872,16
3122504,15
3123128,18
3123752,24
3124380,11
3125000,12
3125628,11
3126252,12
3126876,15
3127508,11
3128132,13
3128764,14
3129392,14
3130016,15
3130644,15
3131272,16
3131900,15
3132532,12
3133152,16
3133784,17
3134408,22
3135032,23
3135660,19
3136280,17
3136908,11
3137532,14
3138160,17
3138788,15
3139412,15
3140044,17
3140672,15
3141296,12
3141924,10
3142552,11
3143176,11
3143804,14
3144424,18
3145052,21
3145676,21
3146304,17
3146932,14
3147552,16
3148184,17
3148812,18
3149432,25
3150060,23
3150688,19
3151316,19
3151948,14
3152568,17
3153200,14
3153824,10
3154448,11
3155076,14
3155696,15
3156324,16
3156952,15
3157576,12
3158208,14
3158824,19
3159456,19
3160084,11
3160704,13
3161336,11
3161960,15
3162588,19
3163220,15
3163840,16
3164472,21
3165096,21
3165720,17
3166352,15
3166968,14
3167600,14
3168224,18
3168848,18
3169476,19
3170096,15
3170728,13
3171356,12
3171976,14
3172608,15
3173232,15
3173864,15
3174496,10
3175112,11
3175744,11
3176368,11
3176992,13
3177620,14
3178240,17
3178868,15
3179496,13
3180120,15
3180752,15
3181368,16
3182000,17
3182632,15
3183248,13
3183880,11
3184504,13
3185136,21
3185764,26
3186384,27
3187016,16
3187640,11
3188264,16
3188896,16
3189512,15
3190144,14
3190772,16
3191396,14
3192028,12
3192652,12
3193284,14
3193916,10
3194536,13
3195168,23
3195796,34
3196424,25
3197056,14
3197672,16
3198304,17
3198928,15
3199556,11
3200188,14
3200804,15
3201432,20
3202064,29
3202680,31
3203308,28
3203932,20
3204560,15
3205188,16
3205808,15
3206436,15
3207056,16
3207684,11
3208312,12
3208936,12
3209564,11
3210188,12
3210812,11
3211440,22
3212064,18
3212692,14
3213324,14
3213944,16
3214572,16
3215196,16
3215828,13
3216460,16
3217080,17
3217708,19
3218332,18
3218956,16
3219588,14
3220208,13
3220836,13
3221460,17
3222084,16
3222712,16
3223336,17
3223964,15
3224596,14
3225216,18
3225848,15
3226468,15
3227096,17
3227728,14
3228344,11
3228976,12
3229596,13
3230224,15
3230852,17
3231472,16
3232100,16
3232724,11
3233348,12
3233980,18
3234600,24
3235228,15
3235860,12
3236480,12
3237108,10
3237732,11
3238364,15
3238996,16
3239616,19
3240244,21
3240868,17
3241492,12
3242124,10
3242744,14
3243372,14
3243996,17
3244624,19
3245252,14
3245872,15
3246500,16
3247132,14
3247752,16
3248384,16
3249008,16
3249636,14
3250264,24
3250888,26
3251516,23
3252144,21
3252768,19
3253396,14
3254016,13
3254644,13
3255268,14
3255896,15
3256524,15
3257144,16
3257772,12
3258404,10
3259024,11
3259656,11
3260280,12
3260908,13
3261540,12
3262160,12
3262788,11
3263416,15
3264040,15
3264668,14
3265288,17
3265916,13
3266540,13
3267168,18
3267796,22
3268420,19
3269052,14
3269684,17
3270304,11
3270936,12
3271560,18
3272192,19
3272820,16
3273440,16
3274072,15
3274696,14
3275320,15
3275952,15
3276572,12
3277204,11
3277828,11
3278448,13
3279072,15
3279696,17
3280324,13
3280952,15
3281568,16
3282196,16
3282820,16
3283448,25
3284076,22
3284692,18
3285324,13
3285944,12
3286568,11
3287196,10
3287816,11
3288444,18
3289064,18
3289688,17
3290316,14
3290936,13
3291564,10
3292192,11
3292808,13
3293436,18
3294060,13
3294688,15
3295316,20
3295936,16
3296564,15
3297188,14
3297812,15
3298440,16
3299056,19
3299684,15
3300308,10
3300932,14
3301560,20
3302176,19
3302808,21
3303436,16
3304056,19
3304684,21
3305304,20
3305936,17
3306564,15
3307184,18
3307812,16
3308436,11
3309060,11
3309692,10
3310312,12
3310940,12
3311564,16
3312188,20
3312820,20
3313440,17
3314068,15
3314696,17
3315320,19
3315948,17
3316572,19
3317204,21
3317832,16
3318448,12
3319076,12
3319700,16
3320324,13
3320956,10
3321576,17
3322204,16
3322828,15
3323452,15
3324084,16
3324704,14
3325332,14
3325964,10
3326584,13
3327212,14
3327836,21
3328468,26
3329096,26
3329716,27
3330348,15
3330968,16
3331592,20
3332220,21
3332840,24
3333468,25
3334092,22
3334712,21
3335344,19
3335960,14
3336588,12
3337212,10
3337840,11
3338468,15
3339092,17
3339720,16
3340348,14
3340968,12
3341596,11
3342220,13
3342848,13
3343476,10
3344096,14
3344724,20
3345348,24
3345968,34
3346600,31
3347216,18
3347844,17
3348468,19
3349092,21
3349720,22
3350344,27
3350976,32
3351604,28
3352224,17
3352852,12
3353476,11
3354108,11
3354736,13
3355360,16
3355988,15
3356612,15
3357236,17
3357868,10
3358488,11
3359116,11
3359740,10
3360368,12
3360996,14
3361616,16
3362244,13
3362876,14
3363496,16
3364124,15
3364748,15
3365376,15
3366004,11
3366624,18
3367252,25
3367876,28
3368500,23
3369128,24
3369744,17
3370372,12
3370996,10
3371620,15
3372248,17
3372872,15
3373500,15
3374128,15
3374752,11
3375380,11
3376004,11
3376632,11
3377260,15
3377880,25
3378508,26
3379132,27
3379760,21
3380388,14
3381008,18
3381636,21
3382260,19
3382880,14
3383512,17
3384136,28
3384764,29
3385392,24
3386016,29
3386644,25
3387268,13
3387896,15
3388524,22
3389144,19
3389772,18
3390396,15
3391020,14
3391652,19
3392272,12
3392900,14
3393524,10
3394148,19
3394776,31
3395400,32
3396028,27
3396656,17
3397276,17
3397904,19
3398528,17
3399156,15
3399788,12
3400408,15
3401036,16
3401660,16
3402280,16
3402908,16
3403528,15
3404156,13
3404780,17
3405404,16
3406032,15
3406656,16
3407284,15
3407912,10
3408536,12
3409164,11
3409788,11
3410420,12
3411048,11
3411664,13
3412296,17
3412920,16
3413544,15
3414172,14
3414792,15
3415420,16
3416044,13
3416668,15
3417300,15
3417924,17
3418552,13
3419180,11
3419800,13
3420428,17
3421052,22
3421684,24
3422312,20
3422936,17
3423564,16
3424188,13
3424812,11
3425444,10
3426064,11
3426692,13
3427316,21
3427940,25
3428572,23
3429196,19
3429824,17
3430456,15
3431072,17
3431704,20
3432328,23
3432956,19
3433588,20
3434208,22
3434836,17
3435464,13
3436088,11
3436716,10
3437336,13
3437964,16
3438596,22
3439216,18
3439848,16
3440472,17
3441100,12
3441732,11
3442352,17
3442980,16
3443604,11
3444228,15
3444860,22
3445480,23
3446108,14
3446732,17
3447356,20
3447984,16
3448604,15
3449232,14
3449860,11
3450480,16
3451108,19
3451732,19
3452364,19
3452992,16
3453616,11
3454244,12
3454868,16
3455496,15
3456124,16
3456744,16
3457372,16
3457996,14
3458620,15
3459248,13
3459864,15
3460492,15
3461116,13
3461744,14
3462372,14
3462996,14
3463628,15
3464256,14
3464880,17
3465508,18
3466132,21
3466760,21
3467388,22
3468008,20
3468636,15
3469260,13
3469884,13
3470516,10
3471136,13
3471768,17
3472396,16
3473016,17
3473644,17
3474268,15
3474900,11
3475528,16
3476152,13
3476784,12
3477408,12
3478032,18
3478660,20
3479280,18
3479908,19
3480536,17
3481160,16
3481792,16
3482408,21
3483036,22
3483664,23
3484288,21
3484916,19
3485540,12
3486168,10
3486800,11
3487416,14
3488044,12
3488668,17
3489292,21
3489920,21
3490536,19
3491164,11
3491788,11
3492416,11
3493044,10
3493664,11
3494292,11
3494924,15
3495544,15
3496172,13
3496796,15
3497428,15
3498056,14
3498680,16
3499308,15
3499936,17
3500560,19
3501188,19
3501808,21
3502440,19
3503060,14
3503684,11
3504316,12
3504936,15
3505564,17
3506196,18
3506816,18
3507448,17
3508068,14
3508700,10
3509332,14
3509952,17
3510584,22
3511208,21
3511832,14
3512460,11
3513080,13
3513708,14
3514336,17
3514960,15
3515588,15
3516208,17
3516840,19
3517468,26
3518088,29
3518720,23
3519344,17
3519976,15
3520608,11
3521224,11
3521852,15
3522476,15
3523100,15
3523732,16
3524352,12
3524980,10
3525604,11
3526228,10
3526856,10
3527480,11
3528108,11
3528740,16
3529360,15
3529988,16
3530612,15
3531244,16
3531872,16
3532496,17
3533124,15
3533748,15
3534372,15
3535004,16
3535624,17
3536252,17
3536876,11
3537500,11
3538132,13
3538756,16
3539384,18
3540012,16
3540632,16
3541260,12
3541884,12
3542516,12
3543148,10
3543768,11
3544396,12
3545020,17
3545644,22
3546272,20
3546896,15
3547524,15
3548148,15
3548772,17
3549404,11
3550028,11
3550660,11
3551288,18
3551912,21
3552544,25
3553168,25
3553800,20
3554428,16
3555048,19
3555676,15
3556304,17
3556928,17
3557556,13
3558176,11
3558808,14
3559436,12
3560056,12
3560684,10
3561308,14
3561940,14
3562572,15
3563192,16
3563824,15
3564448,16
3565072,18
3565700,17
3566320,15
3566948,24
3567576,23
3568200,20
3568828,15
3569448,11
3570076,11
3570708,10
3571328,12
3571956,17
3572584,19
3573212,16
3573844,16
3574464,14
3575092,13
3575720,13
3576344,12
3576972,10
3577592,12
3578224,13
3578848,16
3579472,17
3580104,16
3580720,14
3581352,15
3581984,15
3582608,18
3583240,22
3583868,19
3584500,22
3585128,26
3585744,24
3586376,19
3587000,12
3587624,11
3588252,14
3588872,15
3589500,15
3590124,15
3590748,15
3591380,12
3592004,14
3592632,11
3593264,13
3593880,11
3594508,13
3595132,19
3595764,20
3596396,20
3597016,17
3597644,15
3598268,15
3598892,15
3599524,12
3600144,14
3600772,16
3601396,21
3602020,18
3602652,17
3603276,15
3603904,14
3604532,11
3605152,16
3605780,14
3606404,15
3607032,15
3607660,11
3608280,12
3608908,15
3609532,14
3610156,11
3610788,10
3611408,12
3612036,11
3612660,11
3613284,15
3613912,14
3614536,16
3615168,17
3615796,15
3616416,16
3617044,17
3617668,20
3618296,22
3618924,20
3619544,18
3620172,14
3620796,12
3621420,13
3622052,16
3622672,16
3623300,15
3623924,21
3624548,16
3625180,11
3625804,11
3626432,11
3627060,11
3627680,10
3628308,14
3628932,13
3629564,16
3630192,16
3630816,16
3631444,15
3632068,16
3632692,17
3633324,22
3633944,23
3634572,22
3635200,16
3635824,18
3636452,16
3637076,10
3637708,11
3638336,14
3638956,15
3639584,15
3640212,14
3640840,13
3641468,10
3642088,11
3642716,15
3643340,17
3643964,25
3644596,27
3645216,23
3645844,14
3646476,12
3647096,16
3647724,17
3648352,16
3648980,16
3649608,15
3650224,20
3650852,28
3651476,35
3652104,29
3652732,22
3653352,19
3653980,11
3654608,11
3655228,15
3655860,14
3656480,16
3657108,18
3657740,26
3658360,25
3658988,11
3659616,11
3660244,10
3660876,10
3661496,12
3662124,12
3662748,13
3663372,15
3664004,16
3664624,16
3665252,17
3665880,21
3666504,25
3667132,25
3667752,25
3668384,21
3669012,16
3669632,16
3670264,13
3670888,12
3671516,15
3672148,16
3672768,14
3673400,16
3674024,18
3674648,11
3675276,10
3675896,11
3676528,11
3677152,15
3677776,20
3678408,19
3679024,19
3679656,18
3680288,15
3680904,15
3681532,16
3682156,16
3682788,23
3683420,26
3684040,25
3684668,20
3685292,15
3685920,12
3686548,11
3687164,11
3687796,10
3688416,17
3689040,19
3689668,16
3690288,15
3690916,13
3691544,10
3692168,11
3692796,11
3693420,11
3694052,13
3694680,12
3695304,13
3695932,15
3696560,19
3697184,17
3697812,16
3698432,16
3699060,15
3699684,11
3700308,13
3700940,22
3701560,26
3702188,25
3702820,18
3703440,15
3704068,12
3704692,14
3705324,15
3705956,15
3706576,17
3707204,16
3707828,11
3708452,11
3709084,14
3709704,15
3710332,14
3710960,12
3711584,12
3712216,15
3712836,19
3713468,18
3714096,17
3714716,16
3715344,15
3715968,15
3716596,23
3717228,26
3717848,26
3718476,18
3719100,13
3719724,11
3720356,10
3720976,12
3721604,16
3722228,16
3722852,15
3723484,16
3724108,15
3724740,15
3725368,14
3725992,11
3726624,11
3727248,11
3727876,11
3728508,12
3729128,19
3729756,17
3730380,13
3731008,15
3731636,19
3732256,19
3732884,13
3733516,18
3734136,19
3734768,21
3735392,22
3736020,27
3736652,20
3737272,13
3737904,12
3738528,18
3739152,17
3739780,16
3740400,17
3741028,11
3741652,11
3742280,11
3742908,11
3743528,12
3744160,13
3744788,14
3745408,23
3746036,19
3746660,19
3747292,15
3747924,14
3748544,16
3749172,17
3749796,17
3750424,18
3751052,21
3751672,28
3752304,21
3752928,18
3753552,10
3754184,13
3754800,12
3755432,15
3756064,16
3756680,16
3757312,17
3757940,13
3758572,10
3759200,15
3759820,13
3760452,11
3761076,11
3761700,17
3762332,18
3762952,18
3763584,15
3764208,17
3764832,21
3765460,18
3766088,18
3766716,23
3767348,23
3767968,24
3768600,19
3769224,19
3769852,17
3770484,12
3771104,11
3771736,15
3772360,15
3772984,17
3773612,19
3774232,14
3774864,12
3775492,11
3776112,13
3776740,13
3777364,13
3777996,13
3778624,12
3779248,14
3779876,15
3780500,15
3781128,15
3781756,14
3782376,16
3783008,14
3783632,12
3784256,13
3784884,16
3785504,21
3786136,23
3786764,16
3787384,11
3788016,11
3788640,15
3789272,16
3789900,15
3790520,15
3791148,12
3791776,11
3792400,11
3793028,11
3793648,13
3794276,13
3794904,16
3795528,13
3796156,14
3796776,17
3797408,17
3798036,18
3798656,15
3799288,13
3799912,19
3800544,20
3801172,23
3801792,19
3802420,13
3803044,16
3803672,17
3804300,18
3804920,20
3805548,19
3806176,17
3806800,17
3807428,14
3808048,10
3808680,11
3809308,11
3809928,12
3810556,13
3811184,16
3811812,17
3812444,16
3813064,16
3813696,15
3814320,16
3814944,16
3815576,16
3816196,14
3816824,14
3817448,16
3818072,18
3818704,15
3819320,16
3819952,14
3820584,11
3821204,12
3821832,16
3822460,16
3823092,15
3823720,16
3824344,12
3824976,12
3825600,13
3826224,12
3826856,10
3827476,11
3828104,11
3828732,14
3829356,19
3829988,18
3830612,15
3831244,18
3831876,20
3832496,25
3833128,24
3833752,24
3834376,19
3835008,16
3835628,15
3836256,12
3836884,10
3837508,12
3838140,13
3838760,15
3839392,16
3840028,14
3840644,15
3841276,11
3841896,11
3842528,10
3843156,10
3843776,15
3844404,15
3845028,16
3845652,13
3846284,10
3846904,17
3847532,16
3848156,15
3848780,16
3849412,15
3850032,18
3850660,21
3851292,18
3851912,15
3852540,17
3853168,14
3853796,10
3854424,10
3855048,17
3855676,16
3856300,16
3856924,15
3857556,14
3858176,11
3858804,11
3859428,11
3860052,11
3860684,12
3861304,17
3861932,16
3862564,18
3863184,21
3863812,17
3864440,17
3865068,15
3865700,15
3866320,15
3866948,13
3867572,16
3868196,18
3868828,18
3869448,15
3870076,10
3870704,12
3871328,17
3871960,21
3872584,18
3873212,17
3873844,15
3874464,11
3875092,11
3875720,11
3876348,10
3876980,10
3877600,13
3878228,11
3878856,12
3879480,11
3880108,16
3880728,17
3881356,15
3881984,16
3882608,15
3883236,11
3883864,13
3884492,16
3885124,14
3885744,11
3886376,11
3887000,11
3887624,13
3888256,20
3888872,19
3889504,15
3890128,17
3890752,18
3891384,11
3892000,11
3892628,12
3893260,10
3893880,16
3894508,15
3895132,19
3895764,19
3896396,15
3897016,15
3897644,15
3898268,17
3898892,17
3899524,12
3900144,17
3900776,26
3901400,27
3902024,18
3902656,12
3903272,11
3903904,11
3904536,10
3905152,15
3905780,15
3906408,15
3907036,15
3907668,12
3908288,12
3908916,11
3909544,9
3910116,11
3910752,14
3911368,17
3912000,20
3912624,21
3913248,18
3913880,14
3914496,18
3915124,19
3915752,18
3916376,13
3917008,14
3917624,16
3918256,19
3918888,18
3919504,19
3920136,17
3920760,12
3921388,11
3922020,14
3922640,15
3923268,15
3923892,15
3924516,11
3925148,10
3925768,11
3926396,12
3927024,11
3927648,12
3928280,12
3928904,17
3929536,19
3930168,17
3930784,15
3931416,16
3932044,17
3932672,15
3933304,17
3933920,21
3934552,22
3935176,21
3935800,16
3936432,14
3937048,13
3937676,14
3938300,16
3938928,16
3939556,15
3940180,16
3940812,16
3941440,13
3942064,11
3942696,12
3943316,11
3943940,15
3944572,16
3945192,17
3945820,17
3946444,15
3947068,17
3947700,14
3948320,16
3948948,15
3949580,10
3950200,14
3950828,21
3951456,26
3952084,28
3952716,20
3953336,15
3953964,15
3954588,13
3955212,14
3955844,14
3956464,15
3957092,15
3957720,13
3958344,13
3958976,11
3959592,13
3960224,16
3960852,23
3961472,30
3962104,21
3962728,14
3963356,19
3963988,23
3964608,23
3965240,18
3965864,15
3966488,14
3967116,20
3967736,20
3968368,20
3968992,14
3969616,11
3970244,11
3970864,12
3971492,15
3972124,14
3972744,16
3973376,15
3974000,15
3974628,11
3975256,10
3975880,12
3976508,11
3977132,10
3977756,13
3978388,21
3979008,25
3979636,24
3980264,15
3980888,16
3981516,18
3982136,22
3982768,16
3983396,15
3984016,18
3984644,18
3985268,14
3985900,16
3986532,20
3987152,14
3987784,12
3988408,19
3989032,18
3989664,17
3990280,15
3990912,15
3991536,12
3992160,11
3992792,11
3993416,12
3994048,16
3994676,22
3995296,27
3995924,25
3996552,18
3997180,15
3997812,16
3998432,21
3999064,20
3999688,17
4000312,18
4000940,22
4001560,25
4002188,21
4002812,22
4003440,13
4004068,10
4004692,11
4005320,14
4005952,15
4006568,16
4007200,15
4007820,12
4008452,12
4009080,12
4009704,12
4010332,11
4010956,11
4011580,16
4012212,18
4012832,18
4013460,16
4014092,16
4014712,19
4015340,16
4015964,13
4016596,13
4017224,10
4017848,11
4018476,13
4019100,12
4019728,13
4020356,12
4020976,13
4021604,22
4022228,22
4022852,15
4023480,18
4024104,17
4024732,12
4025364,10
4025984,11
4026612,11
4027236,10
4027868,11
4028496,14
4029120,16
4029748,15
4030372,15
4031000,16
4031628,16
4032248,16
4032880,20
4033500,18
4034124,18
4034756,15
4035376,15
4036004,13
4036636,11
4037256,11
4037884,13
4038508,15
4039140,15
4039772,14
4040392,18
4041020,14
4041644,11
4042268,11
4042900,10
4043520,13
4044148,11
4044776,11
4045400,15
4046028,15
4046648,15
4047276,15
4047908,14
4048528,15
4049156,15
4049780,13
4050412,13
4051040,16
4051664,21
4052292,19
4052920,18
4053540,14
4054172,11
4054792,11
4055424,15
4056048,15
4056672,16
4057300,15
4057924,13
4058556,15
4059184,15
4059808,13
4060440,11
4061064,13
4061692,16
4062324,18
4062944,24
4063576,17
4064200,15
4064824,17
4065452,14
4066072,13
4066700,12
4067328,17
4067952,24
4068584,21
4069208,26
4069836,21
4070468,12
4071088,11
4071716,16
4072344,16
4072968,17
4073596,14
4074216,14
4074848,14
4075472,11
4076096,11
4076728,12
4077348,11
4077976,18
4078608,23
4079224,19
4079856,15
4080480,15
4081108,17
4081740,17
4082360,17
4082992,20
4083616,21
4084240,19
4084868,14
4085488,11
4086120,12
4086744,11
4087368,14
4087996,12
4088616,15
4089248,17
4089880,17
4090496,16
4091128,13
4091752,11
4092384,11
4093016,14
4093636,18
4094264,19
4094892,20
4095516,16
4096148,15
4096764,16
4097392,15
4098012,16
4098636,16
4099264,15
4099876,15
4100504,19
4101132,26
4101748,24
4102380,17
4103000,15
4103632,13
4104260,11
4104876,12
4105508,15
4106128,15
4106756,15
4107384,15
4108008,13
4108636,12
4109260,10
4109880,11
4110512,14
4111128,17
4111756,21
4112380,18
4113008,12
4113636,19
4114260,19
4114888,16
4115516,15
4116136,14
4116764,11
4117388,19
4118016,27
4118648,28
4119264,28
4119892,21
4120516,11
4121140,10
4121768,16
4122388,16
4123020,16
4123644,16
4124264,15
4124892,11
4125516,11
4126148,11
4126776,10
4127392,11
4128020,15
4128644,19
4129272,23
4129900,19
4130520,15
4131148,15
4131772,15
4132396,15
4133028,11
4133648,15
4134276,21
4134900,25
4135524,20
4136156,16
4136780,11
4137408,11
4138036,10
4138656,16
4139284,15
4139908,17
4140536,17
4141168,14
4141784,17
4142412,13
4143036,11
4143660,11
4144292,13
4144912,19
4145540,21
4146164,22
4146788,22
4147420,16
4148040,15
4148672,16
4149300,14
4149920,18
4150548,19
4151172,21
4151804,21
4152432,21
4153048,16
4153680,12
4154304,11
4154928,16
4155556,16
4156176,19
4156804,17
4157428,14
4158052,12
4158684,11
4159308,11
4159940,10
4160568,11
4161188,11
4161820,13
4162440,19
4163072,23
4163700,16
4164320,16
4164948,15
4165572,15
4166196,14
4166824,19
4167440,23
4168072,27
4168692,24
4169316,21
4169948,17
4170568,10
4171200,14
4171828,14
4172448,15
4173076,15
4173700,15
4174332,14
4174960,11
4175576,13
4176208,14
4176832,11
4177452,13
4178084,20
4178700,25
4179332,25
4179956,16
4180576,15
4181208,19
4181828,18
4182460,19
4183088,22
4183704,22
4184332,23
4184956,24
4185588,13
4186216,11
4186836,12
4187464,12
4188088,14
4188712,18
4189340,16
4189960,16
4190588,15
4191212,11
4191836,11
4192468,11
4193092,11
4193720,11
4194352,13
4194968,17
4195596,19
4196220,19
4196852,15
4197480,15
4198104,16
4198732,15
4199356,14
4199980,22
4200608,23
4201232,25
4201860,21
4202484,17
4203104,15
4203736,11
4204360,11
4204988,14
4205616,15
4206236,15
4206864,15
4207488,16
4208116,11
4208748,10
4209368,10
4209996,10
4210620,11
4211244,11
4211872,11
4212488,13
4213120,14
4213744,15
4214368,15
4214996,16
4215620,16
4216252,15
4216880,21
4217504,22
4218136,19
4218760,19
4219388,15
4220020,12
4220640,11
4221268,11
4221892,14
4222516,15
4223148,16
4223768,16
4224400,13
4225020,10
4225648,11
4226276,10
4226900,11
4227528,13
4228156,14
4228776,15
4229404,14
4230028,16
4230660,15
4231288,15
4231904,15
4232536,15
4233160,11
4233784,15
4234412,18
4235032,25
4235660,29
4236284,25
4236912,17
4237540,13
4238164,12
4238796,15
4239424,14
4240048,15
4240676,18
4241300,15
4241924,10
4242556,10
4243176,12
4243808,15
4244432,15
4245056,15
4245684,11
4246304,11
4246932,15
4247564,16
4248184,18
4248812,17
4249436,16
4250068,19
4250696,22
4251320,19
4251948,16
4252572,11
4253196,11
4253828,10
4254448,13
4255076,19
4255700,21
4256324,21
4256956,18
4257576,17
4258204,11
4258836,11
4259456,16
4260084,13
4260708,14
4261336,16
4261968,17
4262584,19
4263212,17
4263836,14
4264460,15
4265088,15
4265704,15
4266336,13
4266956,21
4267580,25
4268212,25
4268832,23
4269460,17
4270088,12
4270712,11
4271340,11
4271964,14
4272596,15
4273228,15
4273848,17
4274476,12
4275100,12
4275728,12
4276356,10
4276976,11
4277604,11
4278228,14
4278852,17
4279484,16
4280104,16
4280732,17
4281364,14
4281984,16
4282612,15
4283236,19
4283868,20
4284496,18
4285116,16
4285744,13
4286368,12
4286992,10
4287624,11
4288244,12
4288872,16
4289496,17
4290120,16
4290748,14
4291368,11
4291996,11
4292628,10
4293248,15
4293876,16
4294500,13
4295132,15
4295764,16
4296384,16
4297012,16
4297636,17
4298260,16
4298892,14
4299512,13
4300144,20
4300768,24
4301392,27
4302020,23
4302640,19
4303268,13
4303900,11
4304520,11
4305148,19
4305772,20
4306404,16
4307032,15
4307652,15
4308280,13
4308904,13
4309528,14
4310156,10
4310776,11
4311408,11
4312028,14
4312652,14
4313284,14
4313904,15
4314532,15
4315164,16
4315784,16
4316416,13
4317040,15
4317668,21
4318300,20
4318920,16
4319548,13
4320176,11
4320800,11
4321428,11
4322048,15
4322676,15
4323300,16
4323924,16
4324552,12
4325176,12
4325804,11
4326436,12
4327056,12
4327684,13
4328308,22
4328936,16
4329568,18
4330188,19
4330816,17
4331440,18
4332064,19
4332692,17
4333312,17
4333940,20
4334568,20
4335188,17
4335820,18
4336440,15
4337068,12
4337700,12
4338320,17
4338952,19
4339576,17
4340204,15
4340836,16
4341456,12
4342088,11
4342708,11
4343332,11
4343964,11
4344584,13
4345212,13
4345840,16
4346460,17
4347092,14
4347716,15
4348348,15
4348976,15
4349600,12
4350228,15
4350856,18
4351484,21
4352116,19
4352736,19
4353364,18
4353988,12
4354608,10
4355240,16
4355856,18
4356484,17
4357108,15
4357732,15
4358364,13
4358988,12
4359616,13
4360244,16
4360864,21
4361492,17
4362116,13
4362748,17
4363376,18
4364000,16
4364628,17
4365252,17
4365876,15
4366508,14
4367128,18
4367756,23
4368384,25
4369008,30
4369636,30
4370260,21
4370892,15
4371520,15
4372140,17
4372768,15
4373392,15
4374024,16
4374652,10
4375272,9
4375852,11
4376480,12
4377104,12
4377736,14
4378352,20
4378980,22
4379604,25
4380228,18
4380860,16
4381480,17
4382108,18
4382740,14
4383360,17
4383988,18
4384616,25
4385244,21
4385876,16
4386496,15
4387124,10
4387752,11
4388376,15
4389004,15
4389624,15
4390252,15
4390880,16
4391504,12
4392132,11
4392752,12
4393384,11
4394012,10
4394632,13
4395264,15
4395888,18
4396520,15
4397148,14
4397768,15
4398400,16
4399024,17
4399648,15
4400280,16
4400896,20
4401528,24
4402152,23
4402776,15
4403408,11
4404024,11
4404652,10
4405280,14
4405904,15
4406532,16
4407156,15
4407788,13
4408416,10
4409040,11
4409668,12
4410292,10
4410916,16
4411548,18
4412168,17
4412796,15
4413424,17
4414048,15
4414680,17
4415304,16
4415932,18
4416564,14
4417184,22
4417812,31
4418436,23
4419068,12
4419700,10
4420320,11
4420948,11
4421576,13
4422200,20
4422832,18
4423448,15
4424080,15
4424700,10
4425328,11
4425956,10
4426580,11
4427212,11
4427840,11
4428460,12
4429088,11
4429712,14
4430340,15
4430972,16
4431592,15
4432224,16
4432848,13
4433468,16
4434100,20
4434720,23
4435348,17
4435980,15
4436600,19
4437228,15
4437852,15
4438484,15
4439116,14
4439736,16
4440368,15
4440992,15
4441616,12
4442244,11
4442864,14
4443492,11
4444120,16
4444744,19
4445376,20
4445992,23
4446624,17
4447252,14
4447872,19
4448504,20
4449128,19
4449756,14
4450388,14
4451008,14
4451640,15
4452264,17
4452888,15
4453516,12
4454136,11
4454768,11
4455392,14
4456016,15
4456644,15
4457264,15
4457896,11
4458524,10
4459144,11
4459776,11
4460400,13
4461028,17
4461660,22
4462280,22
4462912,13
4463536,15
4464160,16
4464788,16
4465408,18
4466036,21
4466664,21
4467288,20
4467916,18
4468536,22
4469164,20
4469796,14
4470416,11
4471044,11
4471668,13
4472300,16
4472932,14
4473552,16
4474184,15
4474808,11
4475432,11
4476064,10
4476680,11
4477312,13
4477936,14
4478564,15
4479192,20
4479820,17
4480452,14
4481080,14
4481704,15
4482332,16
4482956,22
4483584,27
4484216,21
4484832,18
4485464,17
4486088,15
4486712,15
4487340,14
4487960,16
4488588,17
4489212,14
4489840,15
4490468,15
4491092,13
4491724,11
4492352,10
4492976,12
4493604,11
4494228,11
4494856,16
4495484,18
4496104,19
4496732,17
4497356,14
4497980,15
4498612,16
4499232,15
4499860,13
4500492,18
4501112,22
4501744,21
4502368,13
4503000,12
4503632,13
4504248,13
4504880,13
4505504,16
4506128,15
4506760,16
4507376,17
4508004,11
4508628,11
4509252,11
4509884,10
4510504,11
4511132,13
4511764,16
4512384,19
4513012,22
4513636,22
4514268,19
4514896,16
4515512,16
4516144,18
4516768,23
4517392,22
4518020,16
4518640,12
4519268,10
4519892,15
4520516,13
4521148,21
4521768,23
4522396,17
4523028,18
4523648,18
4524276,15
4524900,11
4525532,10
4526164,10
4526784,15
4527412,16
4528036,15
4528660,14
4529288,14
4529912,18
4530544,15
4531168,19
4531792,19
4532420,18
4533040,17
4533668,16
4534300,12
4534920,13
4535548,13
4536176,13
4536804,12
4537436,10
4538056,14
4538684,17
4539312,17
4539936,15
4540564,15
4541184,11
4541816,11
4542440,12
4543064,12
4543696,12
4544312,13
4544944,15
4545572,18
4546192,17
4546824,16
4547448,15
4548076,15
4548704,14
4549328,15
4549956,12
4550584,14
4551204,18
4551836,18
4552456,21
4553084,18
4553712,13
4554336,13
4554964,15
4555592,18
4556220,17
4556852,15
4557472,16
4558100,11
4558724,11
4559356,11
4559988,10
4560608,10
4561240,13
4561864,17
4562488,22
4563116,21
4563736,15
4564364,15
4564992,14
4565616,17
4566248,16
4566872,21
4567504,23
4568132,24
4568752,17
4569384,13
4570008,13
4570632,14
4571260,11
4571880,15
4572512,15
4573136,15
4573760,16
4574388,14
4575008,14
4575640,12
4576272,10
4576888,10
4577520,12
4578144,13
4578776,13
4579404,14
4580024,16
4580652,15
4581280,15
4581904,15
4582536,14
4583152,14
4583784,20
4584408,24
4585032,20
4585664,19
4586280,19
4586912,11
4587540,11
4588160,12
4588788,15
4589412,15
4590044,16
4590676,14
4591296,13
4591928,12
4592552,11
4593176,9
4593756,13
4594380,18
4595012,25
4595636,23
4596260,17
4596892,15
4597512,21
4598144,26
4598768,24
4599392,16
4600020,15
4600644,21
4601276,21
4601908,14
4602528,11
4603160,11
4603784,13
4604416,11
4605044,16
4605664,19
4606296,17
4606920,15
4607544,15
4608176,10
4608792,12
4609420,11
4610044,10
4610672,13
4611300,12
4611924,15
4612552,16
4613184,13
4613800,16
4614428,16
4615052,16
4615680,15
4616312,11
4616928,11
4617556,12
4618184,19
4618808,22
4619436,22
4620056,23
4620684,19
4621312,18
4621936,15
4622564,16
4623188,16
4623820,15
4624452,12
4625072,13
4625700,11
4626324,11
4626952,11
4627580,11
4628200,13
4628828,15
4629452,17
4630076,15
4630708,15
4631328,15
4631956,16
4632588,16
4633208,16
4633836,19
4634460,17
4635092,12
4635724,12
4636344,17
4636972,13
4637596,11
4638224,12
4638852,16
4639472,17
4640104,16
4640724,16
4641348,11
4641976,10
4642600,12
4643228,11
4643860,13
4644480,11
4645108,14
4645732,16
4646364,18
4646996,18
4647616,16
4648244,16
4648868,19
4649492,19
4650124,20
4650744,27
4651372,27
4652000,21
4652624,16
4653252,12
4653872,11
4654504,11
4655132,14
4655752,15
4656384,16
4657008,16
4657636,15
4658268,10
4658888,12
4659520,13
4660140,13
4660764,13
4661396,16
4662016,20
4662644,20
4663268,18
4663896,15
4664524,14
4665144,15
4665772,16
4666404,22
4667024,24
4667656,17
4668280,19
4668908,15
4669540,12
4670160,11
4670788,10
4671416,11
4672040,14
4672668,16
4673288,17
4673916,22
4674540,15
4675164,12
4675796,12
4676420,11
4677048,10
4677680,11
4678300,15
4678928,19
4679552,22
4680184,18
4680812,16
4681432,16
4682060,15
4682688,15
4683312,13
4683940,15
4684560,19
4685192,21
4685816,17
4686440,19
4687068,13
4687692,12
4688324,13
4688952,17
4689576,17
4690208,16
4690832,17
4691460,12
4692092,10
4692712,11
4693344,11
4693968,11
4694592,12
4695224,17
4695840,22
4696472,19
4697100,15
4697720,15
4698348,15
4698976,15
4699604,12
4700236,18
4700856,20
4701484,21
4702112,21
4702736,21
4703368,17
4703984,17
4704616,17
4705244,17
4705868,16
4706500,15
4707120,15
4707752,14
4708384,11
4709000,10
4709632,11
4710260,12
4710892,19
4711520,24
4712144,26
4712772,23
4713400,19
4714024,15
4714652,15
4715272,19
4715904,18
4716528,19
4717152,20
4717784,21
4718408,17
4719036,14
4719668,17
4720288,18
4720920,14
4721544,11
4722176,16
4722804,18
4723424,17
4724052,17
4724676,11
4725304,11
4725932,10
4726552,11
4727184,12
4727812,14
4728432,22
4729060,21
4729688,17
4730316,15
4730948,20
4731568,25
4732200,19
4732824,15
4733448,15
4734076,18
4734696,20
4735328,18
4735952,19
4736580,12
4737208,13
4737832,15
4738464,15
4739092,16
4739712,17
4740344,15
4740968,16
4741596,11
4742228,10
4742848,11
4743476,11
4744104,15
4744728,16
4745356,17
4745976,18
4746608,19
4747232,15
4747856,16
4748488,16
4749104,17
4749736,17
4750364,24
4750984,28
4751616,28
4752240,21
4752872,16
4753500,11
4754120,10
4754748,11
4755376,17
4756000,20
4756628,14
4757248,16
4757876,11
4758504,11
4759128,14
4759760,13
4760376,11
4761008,11
4761640,14
4762256,19
4762884,21
4763508,21
4764140,15
4764772,17
4765392,23
4766024,20
4766648,16
4767272,13
4767904,13
4768520,14
4769152,15
4769776,12
4770400,11
4771028,11
4771656,13
4772288,15
4772916,14
4773536,16
4774168,15
4774792,13
4775424,11
4776052,10
4776672,11
4777304,12
4777928,17
4778552,23
4779184,20
4779804,15
4780436,15
4781064,15
4781688,18
4782320,19
4782944,20
4783576,20
4784208,16
4784824,20
4785452,23
4786080,21
4786704,15
4787336,10
4787952,10
4788584,15
4789212,18
4789836,16
4790468,15
4791088,13
4791720,12
4792352,10
4792968,10
4793600,11
4794224,15
4794856,19
4795488,17
4796104,18
4796736,19
4797364,14
4797988,15
4798620,17
4799240,16
4799872,16
4800500,19
4801124,23
4801752,22
4802376,12
4803008,14
4803636,12
4804256,13
4804884,13
4805508,18
4806140,19
4806772,16
4807392,17
4808020,11
4808644,11
4809268,10
4809900,12
4810520,12
4811152,12
4811780,14
4812400,20
4813032,20
4813656,17
4814284,16
4814912,16
4815536,17
4816164,15
4816788,19
4817412,16
4818044,16
4818664,15
4819292,16
4819916,13
4820540,11
4821172,10
4821792,16
4822420,15
4823052,14
4823672,16
4824304,15
4824928,11
4825556,11
4826188,11
4826808,11
4827436,11
4828064,12
4828688,16
4829320,19
4829936,17
4830568,16
4831192,16
4831816,14
4832448,15
4833072,17
4833704,17
4834332,18
4834952,25
4835580,28
4836208,23
4836836,19
4837468,10
4838088,11
4838716,19
4839344,24
4839968,21
4840596,14
4841216,13
4841844,11
4842468,12
4843092,15
4843724,16
4844344,19
4844972,23
4845604,24
4846224,23
4846852,18
4847480,15
4848108,16
4848740,16
4849360,17
4849988,21
4850616,24
4851240,25
4851868,23
4852488,18
4853116,14
4853744,11
4854368,12
4855000,12
4855624,15
4856256,15
4856884,15
4857504,15
4858136,13
4858760,12
4859392,11
4860020,10
4860640,13
4861272,13
4861896,15
4862520,14
4863152,13
4863772,14
4864404,16
4865032,15
4865648,15
4866280,11
4866904,12
4867532,14
4868164,22
4868784,23
4869416,23
4870040,19
4870664,13
4871292,10
4871912,15
4872544,16
4873168,17
4873792,15
4874424,14
4875040,11
4875668,11
4876300,10
4876920,11
4877548,11
4878172,13
4878804,19
4879436,22
4880056,18
4880684,15
4881308,17
4881932,15
4882564,14
4883184,12
4883816,13
4884440,12
4885064,13
4885692,17
4886312,21
4886944,18
4887572,15
4888192,13
4888824,16
4889448,15
4890076,16
4890708,16
4891328,12
4891960,12
4892584,11
4893208,11
4893840,10
4894456,11
4895088,14
4895712,21
4896336,25
4896964,18
4897584,15
4898216,19
4898844,24
4899464,21
4900096,19
4900720,17
4901348,20
4901980,22
4902600,18
4903232,17
4903856,10
4904480,11
4905112,15
4905728,17
4906360,18
4906984,18
4907608,17
4908240,11
4908856,12
4909488,12
4910120,10
4910740,11
4911368,11
4911996,16
4912628,13
4913260,17
4913880,21
4914512,17
4915140,15
4915768,16
4916396,12
4917016,14
4917644,17
4918268,18
4918896,17
4919524,12
4920148,11
4920780,11
4921408,11
4922028,17
4922656,16
4923280,16
4923908,15
4924540,11
4925160,11
4925788,12
4926412,14
4927036,16
4927668,14
4928288,15
4928916,14
4929544,17
4930168,17
4930796,15
4931420,17
4932052,17
4932680,15
4933300,10
4933928,11
4934552,15
4935176,17
4935808,17
4936424,19
4937052,14
4937676,12
4938300,13
4938932,15
4939552,16
4940180,19
4940812,16
4941432,11
4942060,12
4942684,14
4943316,15
4943948,13
4944568,11
4945196,16
4945824,18
4946448,16
4947076,14
4947696,16
4948324,15
4948948,16
4949572,12
4950204,13
4950824,14
4951456,21
4952084,22
4952704,22
4953336,21
4953960,19
4954588,17
4955220,17
4955840,15
4956472,15
4957096,16
4957720,15
4958352,11
4958968,10
4959600,11
4960224,11
4960848,11
4961476,16
4962096,19
4962724,22
4963356,20
4963976,15
4964604,16
4965232,18
4965860,17
4966492,15
4967112,16
4967740,17
4968364,21
4968988,21
4969616,15
4970232,11
4970864,12
4971488,12
4972112,14
4972740,14
4973360,15
4973988,15
4974620,10
4975240,11
4975872,11
4976496,12
4977124,16
4977756,17
4978376,19
4979008,14
4979632,13
4980256,16
4980884,15
4981504,15
4982136,15
4982760,15
4983384,18
4984012,18
4984632,21
4985264,19
4985892,15
4986512,16
4987144,11
4987768,11
4988400,14
4989028,18
4989648,17
4990280,16
4990904,15
4991528,14
4992160,14
4992776,12
4993404,11
4994028,10
4994656,13
4995284,17
4995908,17
4996540,17
4997168,14
4997792,16
4998420,16
4999044,16
4999676,14
5000304,16
5000928,20
5001556,22
5002184,23
5002808,27
5003436,25
5004056,19
5004688,13
5005316,14
5005936,14
5006568,15
5007192,15
5007824,13
5008452,11
5009072,11
5009700,13
5010328,11
5010952,11
5011584,14
5012200,13
5012832,15
5013456,17
5014080,15
5014712,15
5015328,16
5015960,15
5016592,11
5017212,13
5017844,18
5018464,15
5019096,13
5019724,15
5020344,11
5020972,11
5021596,12
5022224,16
5022852,16
5023472,15
5024104,15
5024728,12
5025352,12
5025980,11
5026600,11
5027228,11
5027860,12
5028480,19
5029108,20
5029736,18
5030368,16
5031000,15
5031616,15
5032248,15
5032872,13
5033496,15
5034128,19
5034744,26
5035376,21
5036004,18
5036628,12
5037260,10
5037880,14
5038512,16
5039144,15
5039760,18
5040392,18
5041016,17
5041648,13
5042276,12
5042896,12
5043528,11
5044152,11
5044776,15
5045404,19
5046024,22
5046656,22
5047280,16
5047904,15
5048536,15
5049160,15
5049788,11
5050420,14
5051040,21
5051672,25
5052296,21
5052928,19
5053560,18
5054176,13
5054808,11
5055436,14
5056060,15
5056692,14
5057312,17
5057944,13
5058572,11
5059192,11
5059824,11
5060448,13
5061080,13
5061708,15
5062328,18
5062960,22
5063584,16
5064208,16
5064840,16
5065460,16
5066088,14
5066716,14
5067340,17
5067972,19
5068592,18
5069224,19
5069856,21
5070476,17
5071108,15
5071732,17
5072364,19
5072996,16
5073616,15
5074248,15
5074872,13
5075496,12
5076128,11
5076748,12
5077376,10
5078004,13
5078628,23
5079260,28
5079884,26
5080516,16
5081148,15
5081768,16
5082396,15
5083024,15
5083652,18
5084284,21
5084904,19
5085532,22
5086160,20
5086784,19
5087416,11
5088032,11
5088664,16
5089296,15
5089912,15
5090544,15
5091168,13
5091800,13
5092432,11
5093052,10
5093680,11
5094308,14
5094932,23
5095564,26
5096184,19
5096816,17
5097440,15
5098064,15
5098696,15
5099316,15
5099948,12
5100580,18
5101200,30
5101832,35
5102456,28
5103088,22
5103720,13
5104340,10
5104972,11
5105596,14
5106224,16
5106856,15
5107476,16
5108108,13
5108732,14
5109360,15
5109992,12
5110620,11
5111252,11
5111884,10
5112504,11
5113136,12
5113764,15
5114388,16
5115020,15
5115644,15
5116276,11
5116900,14
5117528,21
5118160,27
5118780,21
5119412,15
5120044,18
5120660,13
5121288,11
5121908,15
5122540,15
5123168,17
5123784,17
5124412,14
5125036,12
5125660,17
5126288,15
5126904,14
5127536,14
5128160,13
5128780,16
5129412,14
5130032,13
5130660,16
5131292,16
5131912,15
5132540,15
5133164,13
5133796,14
5134424,20
5135040,22
5135672,21
5136296,20
5136920,13
5137548,10
5138168,12
5138796,15
5139420,16
5140044,16
5140676,15
5141296,12
5141924,10
5142556,11
5143176,12
5143804,12
5144428,13
5145060,18
5145688,22
5146312,26
5146940,24
5147564,17
5148188,15
5148816,16
5149440,17
5150068,21
5150692,19
5151316,21
5151948,24
5152568,21
5153196,13
5153828,12
5154448,11
5155076,14
5155704,20
5156332,20
5156964,18
5157584,17
5158216,11
5158840,11
5159464,11
5160092,11
5160712,17
5161340,21
5161964,24
5162588,21
5163220,16
5163840,15
5164472,17
5165100,19
5165720,22
5166348,21
5166972,23
5167604,21
5168236,16
5168856,14
5169484,13
5170108,11
5170732,11
5171364,10
5171984,16
5172612,15
5173236,15
5173860,16
5174488,13
5175112,10
5175744,11
5176372,11
5176992,11
5177620,11
5178244,13
5178876,20
5179504,22
5180128,23
5180760,16
5181384,16
5182008,15
5182636,16
5183256,14
5183888,17
5184516,22
5185136,23
5185764,19
5186388,19
5187020,16
5187652,11
5188272,13
5188900,15
5189524,15
5190152,16
5190780,16
5191400,12
5192032,11
5192652,11
5193276,11
5193908,14
5194528,15
5195156,16
5195788,15
5196408,15
5197040,15
5197664,16
5198292,16
5198924,15
5199544,15
5200176,18
5200796,17
5201424,17
5202052,14
5202672,15
5203300,15
5203924,12
5204548,12
5205176,18
5205800,23
5206428,24
5207060,18
5207680,15
5208308,11
5208932,11
5209564,13
5210196,10
5210816,12
5211444,17
5212072,21
5212696,19
5213324,16
5213944,15
5214576,15
5215200,16
5215824,16
5216456,12
5217072,15
5217704,15
5218332,16
5218952,17
5219584,15
5220208,11
5220836,11
5221468,10
5222088,15
5222720,16
5223340,15
5223964,15
5224596,20
5225216,24
5225844,14
5226468,11
5227092,13
5227724,14
5228344,18
5228972,13
5229604,10
5230224,16
5230856,16
5231480,17
5232112,15
5232740,14
5233360,16
5233988,23
5234616,24
5235240,19
5235868,14
5236488,16
5237116,12
5237744,14
5238368,16
5239000,18
5239624,16
5240256,15
5240884,15
5241504,14
5242136,16
5242760,16
5243392,15
5244020,14
5244640,13
5245268,20
5245892,19
5246516,16
5247144,15
5247764,18
5248392,18
5249016,17
5249636,19
5250268,23
5250888,22
5251516,22
5252144,16
5252768,15
5253396,14
5254020,11
5254648,12
5255276,16
5255896,17
5256524,16
5257148,16
5257772,15
5258400,11
5259016,11
5259644,11
5260268,10
5260892,12
5261520,15
5262136,12
5262768,14
5263396,14
5264016,16
5264644,19
5265264,20
5265896,24
5266524,20
5267144,21
5267772,19
5268396,13
5269020,11
5269652,10
5270272,11
5270900,10
5271528,11
5272152,15
5272780,16
5273400,18
5274032,19
5274660,14
5275280,13
5275908,13
5276532,11
5277164,12
5277792,12
5278412,17
5279040,21
5279664,25
5280288,18
5280916,15
5281536,16
5282164,15
5282788,14
5283412,11
5284040,18
5284660,19
5285292,15
5285920,13
5286536,15
5287164,12
5287788,11
5288416,15
5289044,18
5289664,16
5290292,16
5290916,15
5291540,13
5292168,11
5292784,16
5293416,11
5294040,11
5294664,13
5295292,20
5295912,28
5296544,27
5297172,20
5297792,17
5298420,15
5299044,15
5299676,15
5300304,19
5300924,24
5301552,28
5302176,30
5302800,29
5303428,26
5304048,17
5304676,14
5305300,17
5305924,16
5306556,14
5307176,16
5307804,13
5308436,11
5309056,15
5309684,15
5310308,13
5310940,15
5311572,18
5312192,21
5312820,17
5313444,14
5314068,15
5314696,15
5315320,15
5315948,16
5316572,14
5317196,14
5317828,14
5318448,22
5319076,22
5319708,19
5320328,15
5320956,13
5321580,12
5322212,18
5322844,19
5323464,16
5324096,16
5324720,12
5325344,13
5325972,12
5326592,11
5327220,11
5327844,15
5328464,19
5329096,23
5329712,25
5330340,17
5330972,15
5331592,17
5332220,17
5332844,13
5333472,18
5334100,19
5334720,16
5335348,12
5335972,16
5336596,19
5337228,10
5337848,11
5338476,15
5339100,15
5339724,15
5340356,17
5340976,20
5341604,16
5342236,10
5342856,11
5343484,11
5344108,12
5344740,15
5345368,15
5345984,12
5346616,12
5347240,15
5347860,15
5348492,16
5349112,17
5349740,13
5350364,13
5350992,16
5351620,16
5352240,13
5352868,11
5353500,10
5354120,11
5354748,11
5355376,15
5356004,15
5356636,15
5357256,18
5357884,15
5358512,12
5359136,11
5359764,10
5360384,11
5361012,11
5361636,17
5362260,19
5362892,22
5363512,17
5364140,14
5364772,17
5365392,17
5366024,17
5366644,18
5367276,26
5367904,26
5368528,25
5369156,18
5369780,20
5370404,17
5371036,16
5371656,17
5372284,15
5372912,15
5373536,17
5374164,17
5374788,16
5375420,13
5376052,14
5376668,11
5377296,11
5377920,15
5378548,15
5379176,12
5379800,12
5380428,15
5381052,17
5381676,15
5382304,18
5382928,16
5383556,11
5384180,10
5384804,15
5385436,26
5386060,31
5386688,30
5387316,18
5387936,12
5388564,14
5389188,15
5389820,15
5390448,15
5391068,14
5391696,11
5392320,11
5392944,11
5393572,13
5394192,20
5394820,19
5395448,17
5396072,19
5396700,18
5397324,14
5397956,18
5398584,26
5399208,24
5399836,20
5400464,17
5401092,19
5401724,23
5402344,21
5402972,21
5403596,13
5404220,10
5404852,10
5405472,15
5406100,15
5406732,16
5407352,15
5407980,12
5408604,11
5409236,12
5409864,17
5410488,21
5411116,19
5411740,21
5412364,15
5412996,12
5413616,17
5414244,18
5414868,15
5415492,15
5416124,14
5416744,13
5417372,17
5418004,18
5418624,17
5419252,17
5419876,17
5420508,17
5421140,18
5421760,24
5422388,29
5423016,21
5423640,17
5424272,16
5424888,11
5425516,11
5426144,11
5426768,13
5427396,19
5428016,19
5428644,17
5429272,16
5429896,15
5430524,15
5431148,19
5431780,18
5432412,14
5433032,13
5433660,12
5434284,15
5434908,27
5435540,26
5436160,21
5436788,10
5437416,20
5438040,26
5438672,18
5439288,17
5439920,17
5440552,15
5441168,13
5441796,12
5442420,16
5443048,17
5443680,13
5444296,12
5444924,15
5445548,14
5446172,11
5446804,14
5447424,22
5448052,23
5448676,19
5449300,17
5449928,17
5450544,14
5451176,15
5451804,16
5452424,17
5453052,11
5453676,18
5454308,19
5454936,11
5455556,16
5456184,18
5456808,19
5457428,18
5458060,12
5458680,12
5459308,12
5459932,13
5460556,17
5461184,18
5461808,16
5462436,12
5463068,10
5463688,15
5464316,15
5464944,17
5465572,15
5466204,13
5466824,11
5467452,15
5468080,19
5468704,20
5469332,20
5469952,23
5470580,12
5471208,11
5471832,17
5472464,15
5473080,15
5473708,15
5474340,16
5474960,15
5475588,13
5476216,11
5476844,11
5477476,10
5478096,14
5478728,20
5479348,18
5479976,14
5480604,16
5481224,16
5481852,17
5482476,15
5483100,13
5483732,18
5484356,28
5484988,31
5485616,26
5486240,23
5486868,13
5487492,10
5488124,11
5488756,14
5489376,15
5490004,16
5490628,15
5491252,12
5491884,10
5492504,11
5493132,10
5493756,10
5494384,11
5495016,13
5495640,15
5496268,24
5496900,18
5497520,17
5498152,19
5498776,21
5499400,21
5500028,24
5500648,34
5501280,30
5501904,21
5502528,19
5503160,21
5503780,15
5504412,10
5505040,13
5505656,18
5506288,19
5506912,16
5507540,16
5508172,12
5508792,12
5509424,13
5510048,11
5510672,12
5511300,11
5511920,19
5512552,21
5513176,23
5513800,19
5514428,15
5515048,16
5515680,17
5516308,12
5516928,17
5517556,27
5518184,29
5518812,19
5519444,11
5520064,13
5520692,15
5521316,17
5521940,18
5522572,16
5523192,15
5523824,16
5524448,16
5525072,11
5525704,11
5526320,10
5526952,13
5527584,17
5528204,21
5528832,19
5529460,21
5530092,17
5530720,14
5531336,15
5531968,19
5532592,22
5533216,20
5533844,21
5534464,24
5535092,23
5535720,17
5536344,16
5536972,12
5537592,11
5538224,12
5538852,13
5539472,15
5540104,17
5540724,19
5541356,12
5541988,10
5542608,12
5543236,11
5543860,11
5544488,12
5545116,18
5545736,17
5546364,14
5546992,15
5547616,17
5548244,16
5548872,16
5549500,13
5550132,12
5550752,12
5551384,18
5552008,27
5552636,20
5553268,14
5553888,19
5554520,18
5555144,15
5555768,15
5556400,15
5557020,15
5557648,16
5558280,11
5558900,11
5559532,10
5560156,13
5560788,11
5561416,14
5562040,20
5562668,21
5563296,17
5563920,15
5564552,16
5565172,16
5565800,16
5566428,16
5567052,22
5567684,24
5568304,28
5568936,21
5569568,15
5570184,12
5570816,11
5571440,11
5572068,13
5572700,15
5573320,16
5573948,16
5574576,18
5575200,13
5575828,10
5576448,11
5577076,11
5577704,15
5578328,23
5578956,20
5579576,15
5580208,15
5580836,16
5581456,19
5582084,21
5582708,23
5583340,17
5583972,18
5584592,23
5585224,24
5585848,21
5586472,18
5587100,13
5587720,12
5588352,12
5588976,14
5589600,15
5590232,15
5590856,17
5591488,15
5592116,12
5592736,12
5593368,11
5593992,12
5594620,11
5595252,12
5595872,13
5596504,15
5597128,17
5597752,15
5598384,15
5599004,16
5599636,11
5600268,10
5600888,14
5601516,19
5602140,18
5602772,13
5603400,11
5604020,11
5604648,14
5605272,17
5605896,15
5606528,16
5607144,18
5607772,16
5608396,18
5609024,21
5609652,15
5610272,15
5610900,11
5611532,15
5612152,24
5612780,23
5613408,13
5614036,15
5614668,18
5615288,18
5615920,16
5616544,15
5617168,25
5617796,30
5618416,31
5619044,31
5619672,26
5620296,17
5620924,11
5621544,11
5622176,15
5622804,16
5623424,16
5624056,16
5624680,13
5625308,12
5625940,11
5626560,11
5627192,11
5627816,15
5628440,17
5629072,15
5629688,18
5630320,23
5630944,19
5631568,17
5632200,16
5632816,15
5633444,13
5634072,14
5634692,15
5635320,21
5635944,19
5636572,20
5637204,20
5637824,21
5638452,22
5639076,24
5639700,17
5640328,14
5640952,15
5641580,11
5642208,11
5642832,11
5643460,10
5644080,13
5644708,13
5645340,16
5645960,22
5646588,23
5647212,19
5647844,15
5648472,15
5649096,16
5649724,17
5650348,22
5650976,23
5651604,20
5652224,16
5652852,15
5653476,13
5654100,11
5654732,11
5655352,17
5655980,14
5656612,15
5657232,17
5657864,13
5658484,11
5659116,10
5659744,10
5660368,11
5660996,13
5661620,16
5662244,14
5662876,12
5663496,16
5664128,15
5664748,16
5665372,17
5666004,15
5666628,12
5667256,15
5667884,16
5668504,22
5669132,23
5669756,22
5670388,15
5671020,11
5671640,12
5672272,15
5672896,16
5673520,15
5674148,15
5674768,13
5675400,14
5676024,15
5676648,11
5677280,14
5677904,17
5678536,18
5679164,18
5679784,15
5680416,15
5681040,16
5681668,15
5682300,17
5682920,15
5683552,17
5684176,24
5684796,23
5685428,18
5686048,16
5686676,17
5687308,13
5687928,12
5688560,17
5689184,16
5689812,16
5690444,18
5691064,19
5691696,11
5692320,11
5692944,12
5693576,11
5694192,11
5694824,11
5695448,14
5696072,20
5696700,17
5697320,15
5697948,15
5698580,15
5699200,16
5699828,11
5700452,11
5701084,13
5701716,14
5702336,14
5702968,20
5703592,17
5704216,15
5704848,16
5705464,18
5706096,16
5706720,15
5707344,15
5707976,13
5708592,12
5709224,10
5709856,12
5710476,14
5711104,17
5711732,23
5712364,21
5712992,18
5713616,19
5714248,15
5714872,16
5715496,17
5716128,15
5716744,12
5717376,22
5718000,25
5718624,23
5719256,17
5719880,13
5720512,11
5721144,13
5721760,15
5722392,20
5723016,17
5723648,15
5724280,17
5724896,19
5725528,22
5726152,19
5726776,15
5727408,11
5728024,12
5728656,13
5729288,16
5729904,18
5730536,16
5731160,17
5731792,16
5732424,15
5733044,11
5733676,15
5734300,20
5734928,20
5735556,18
5736176,23
5736804,23
5737428,15
5738052,11
5738684,14
5739304,15
5739932,15
5740564,16
5741184,15
5741812,14
5742436,15
5743068,12
5743700,10
5744320,12
5744948,15
5745572,15
5746196,17
5746828,17
5747448,16
5748076,15
5748700,15
5749324,15
5749956,14
5750576,15
5751204,15
5751836,16
5752456,13
5753088,13
5753712,11
5754344,11
5754972,14
5755592,17
5756224,18
5756848,22
5757472,17
5758100,13
5758720,13
5759352,11
5759976,20
5760600,18
5761232,16
5761848,19
5762476,23
5763104,18
5763728,16
5764356,15
5764980,15
5765612,17
5766240,20
5766856,26
5767484,27
5768108,25
5768732,16
5769360,15
5769984,14
5770612,10
5771236,11
5771860,14
5772492,16
5773112,16
5773740,15
5774372,14
5774992,11
5775624,12
5776244,12
5776876,11
5777504,12
5778124,15
5778752,18
5779376,17
5780000,17
5780628,18
5781248,19
5781876,17
5782500,17
5783124,21
5783756,27
5784376,28
5785004,31
5785636,27
5786256,21
5786884,15
5787508,14
5788136,14
5788764,16
5789384,15
5790012,16
5790640,17
5791264,15
5791892,11
5792512,13
5793140,11
5793764,11
5794388,11
5795020,12
5795640,17
5796272,21
5796900,24
5797520,19
5798148,15
5798776,19
5799404,17
5800036,14
5800656,18
5801284,17
5801908,13
5802532,17
5803164,16
5803784,17
5804416,15
5805040,13
5805664,15
5806292,15
5806916,16
5807548,19
5808180,13
5808800,11
5809428,17
5810052,23
5810684,19
5811316,27
5811936,38
5812568,28
5813188,18
5813816,15
5814444,15
5815064,19
5815696,18
5816324,12
5816944,14
5817572,16
5818200,21
5818828,27
5819460,30
5820080,27
5820708,20
5821336,15
5821960,20
5822592,21
5823208,19
5823840,18
5824464,14
5825088,11
5825716,10
5826336,11
5826968,11
5827596,18
5828216,17
5828844,17
5829468,19
5830100,17
5830732,16
5831352,15
5831984,17
5832608,18
5833232,17
5833864,21
5834480,19
5835112,20
5835736,23
5836364,24
5836992,23
5837616,16
5838244,12
5838876,16
5839496,19
5840128,15
5840748,22
5841380,26
5842008,24
5842632,20
5843260,15
5843884,13
5844508,12
5845140,14
5845760,18
5846388,26
5847016,20
5847640,16
5848272,15
5848888,15
5849516,21
5850148,35
5850768,39
5851400,32
5852024,29
5852652,21
5853284,13
5853904,11
5854536,11
5855160,14
5855784,15
5856416,14
5857032,15
5857664,15
5858288,11
5858912,11
5859540,12
5860164,17
5860796,18
5861428,20
5862048,20
5862680,15
5863304,12
5863932,14
5864564,15
5865184,18
5865816,18
5866440,20
5867064,29
5867696,32
5868312,29
5868944,16
5869572,11
5870192,11
5870824,10
5871448,12
5872080,19
5872708,19
5873328,15
5873960,17
5874584,19
5875208,15
5875836,12
5876456,11
5877088,13
5877712,11
5878336,11
5878968,16
5879588,18
5880220,15
5880852,16
5881472,18
5882104,17
5882728,17
5883360,11
5883988,11
5884608,13
5885240,15
5885864,12
5886488,12
5887120,10
5887740,11
5888372,11
5888996,15
5889620,15
5890248,15
5890868,18
5891496,12
5892128,11
5892744,11
5893376,11
5894000,13
5894632,19
5895260,23
5895880,26
5896512,20
5897136,16
5897760,22
5898392,21
5899008,20
5899636,15
5900260,13
5900884,15
5901516,16
5902136,11
5902764,11
5903396,10
5904016,16
5904644,15
5905268,15
5905900,17
5906528,18
5907152,18
5907784,20
5908408,14
5909032,15
5909660,15
5910280,13
5910912,11
5911536,15
5912160,17
5912792,12
5913416,19
5914048,17
5914676,16
5915296,17
5915928,15
5916552,11
5917180,11
5917812,14
5918432,22
5919064,18
5919688,13
5920312,13
5920940,11
5921560,11
5922188,14
5922816,14
5923440,18
5924068,15
5924692,12
5925324,13
5925956,10
5926576,11
5927204,11
5927828,12
5928456,20
5929084,30
5929704,29
5930332,15
5930960,21
5931584,27
5932212,22
5932832,16
5933460,17
5934092,16
5934712,15
5935344,15
5935968,11
5936600,13
5937232,10
5937848,14
5938480,17
5939104,15
5939728,14
5940360,16
5940976,15
5941608,16
5942232,19
5942856,13
5943484,10
5944104,11
5944732,13
5945364,14
5945984,19
5946612,19
5947236,15
5947868,15
5948500,15
5949120,15
5949752,15
5950376,21
5951000,23
5951632,23
5952248,16
5952880,15
5953504,11
5954128,11
5954756,10
5955376,18
5956004,20
5956636,20
5957256,17
5957884,13
5958512,14
5959140,13
5959772,11
5960392,11
5961020,11
5961644,16
5962268,15
5962900,12
5963520,15
5964148,15
5964776,18
5965400,20
5966028,18
5966648,17
5967276,14
5967908,19
5968528,26
5969156,18
5969784,13
5970412,11
5971044,10
5971664,15
5972296,17
5972920,15
5973544,16
5974176,17
5974796,12
5975424,11
5976052,10
5976676,10
5977308,11
5977932,13
5978564,16
5979192,13
5979816,13
5980448,15
5981072,15
5981704,15
5982332,15
5982952,13
5983584,13
5984208,19
5984832,25
5985460,24
5986080,20
5986708,13
5987340,10
5987960,11
5988592,15
5989216,16
5989848,19
5990476,18
5991096,15
5991728,11
5992352,11
5992976,11
5993604,13
5994224,15
5994856,11
5995480,11
5996104,12
5996736,11
5997352,18
5997984,15
5998616,14
5999240,15
5999872,16
6000496,17
6001128,16
6001756,14
6002376,13
6003008,12
6003632,13
6004256,11
6004884,10
6005504,16
6006136,16
6006760,16
6007384,15
6008012,12
6008632,11
6009264,11
6009892,11
6010512,9
6011092,12
6011720,17
6012352,19
6012984,17
6013600,16
6014232,16
6014856,19
6015488,19
6016120,18
6016736,18
6017364,20
6017988,22
6018616,21
6019244,16
6019864,12
6020492,10
6021120,11
6021744,15
6022376,17
6023000,15
6023632,16
6024260,16
6024880,12
6025508,10
6026136,11
6026760,11
6027392,12
6028008,18
6028640,19
6029264,19
6029888,19
6030520,16
6031136,14
6031768,17
6032400,17
6033016,13
6033648,16
6034272,19
6034904,21
6035532,20
6036152,18
6036784,19
6037408,14
6038032,12
6038664,14
6039284,14
6039912,19
6040540,20
6041164,17
6041796,14
6042416,14
6043044,12
6043676,14
6044296,19
6044924,20
6045552,22
6046180,31
6046812,26
6047432,17
6048064,17
6048688,23
6049312,21
6049940,22
6050560,24
6051188,20
6051816,18
6052440,15
6053072,14
6053692,13
6054324,14
6054956,20
6055576,22
6056208,17
6056832,15
6057464,15
6058092,12
6058712,12
6059344,13
6059968,11
6060596,11
6061228,11
6061848,20
6062480,19
6063108,18
6063728,16
6064360,15
6064984,16
6065612,15
6066244,12
6066864,12
6067496,19
6068120,22
6068744,17
6069376,17
6069992,22
6070624,15
6071248,12
6071872,15
6072504,16
6073120,14
6073752,15
6074384,15
6075000,10
6075632,10
6076260,11
6076888,11
6077520,11
6078140,15
6078772,19
6079396,21
6080024,19
6080652,16
6081272,21
6081904,19
6082528,16
6083152,14
6083784,13
6084400,16
6085028,22
6085660,22
6086280,15
6086912,11
6087536,12
6088168,15
6088796,26
6089416,30
6090048,27
6090672,21
6091296,15
6091928,11
6092548,11
6093176,12
6093804,14
6094428,14
6095056,19
6095676,21
6096308,21
6096936,16
6097560,16
6098192,15
6098816,16
6099448,16
6100076,16
6100696,15
6101328,13
6101952,11
6102576,11
6103208,11
6103828,11
6104460,10
6105084,11
6105708,15
6106336,15
6106964,15
6107592,16
6108224,13
6108844,17
6109472,18
6110100,15
6110728,11
6111360,10
6111976,17
6112612,28
6113236,28
6113860,20
6114492,15
6115112,15
6115744,17
6116376,20
6116996,21
6117628,21
6118252,24
6118884,16
6119516,12
6120136,12
6120768,11
6121392,10
6122016,15
6122648,14
6123268,15
6123900,15
6124524,15
6125152,11
6125784,11
6126408,11
6127040,13
6127668,14
6128288,14
6128920,17
6129544,21
6130176,25
6130808,18
6131428,15
6132060,17
6132684,22
6133312,26
6133944,23
6134560,24
6135192,15
6135824,12
6136452,20
6137080,14
6137708,11
6138340,11
6138972,12
6139592,15
6140224,15
6140852,16
6141476,12
6142108,10
6142728,11
6143364,11
6143988,11
6144616,12
6145244,13
6145868,14
6146496,14
6147128,15
6147744,15
6148372,15
6148996,15
6149628,17
6150256,22
6150876,24
6151504,26
6152128,18
6152752,15
6153380,11
6154000,12
6154628,11
6155252,14
6155876,15
6156508,15
6157132,15
6157760,15
6158392,11
6159012,14
6159640,14
6160268,11
6160896,11
6161524,14
6162144,19
6162772,22
6163396,24
6164020,17
6164652,14
6165272,17
6165900,19
6166528,22
6167152,21
6167784,25
6168408,26
6169036,19
6169668,14
6170288,11
6170916,11
6171540,12
6172168,16
6172796,14
6173416,15
6174048,17
6174672,15
6175296,21
6175928,19
6176544,13
6177176,11
6177808,18
6178424,19
6179052,17
6179680,16
6180308,16
6180940,14
6181560,16
6182192,17
6182816,15
6183440,13
6184072,19
6184688,22
6185320,20
6185944,17
6186568,21
6187196,16
6187816,13
6188448,12
6189080,14
6189696,16
6190328,17
6190952,17
6191584,13
6192216,12
6192832,11
6193464,10
6194088,11
6194712,13
6195344,22
6195960,25
6196592,20
6197216,16
6197840,15
6198468,16
6199088,19
6199720,14
6200348,15
6200968,15
6201596,18
6202224,21
6202856,18
6203488,15
6204104,12
6204736,11
6205360,15
6205984,14
6206616,14
6207232,16
6207864,16
6208488,16
6209112,14
6209744,11
6210364,11
6210992,12
6211624,21
6212244,22
6212876,22
6213500,17
6214132,16
6214760,19
6215384,19
6216016,19
6216640,20
6217264,21
6217896,21
6218516,20
6219144,15
6219772,14
6220400,10
6221032,11
6221656,14
6222288,16
6222916,14
6223536,15
6224168,15
6224792,13
6225416,14
6226048,11
6226664,12
6227292,11
6227916,11
6228544,15
6229172,21
6229792,25
6230424,21
6231052,16
6231672,17
6232304,19
6232928,17
6233560,20
6234192,26
6234808,27
6235440,22
6236064,22
6236688,19
6237320,13
6237936,11
6238568,15
6239192,17
6239816,15
6240448,17
6241072,17
6241704,12
6242332,10
6242952,13
6243584,13
6244208,13
6244836,15
6245468,22
6246088,24
6246720,20
6247340,15
6247964,15
6248596,16
6249216,17
6249844,15
6250468,23
6251092,25
6251724,24
6252344,23
6252976,24
6253604,14
6254224,11
6254856,11
6255480,15
6256108,15
6256740,14
6257360,15
6257988,12
6258616,11
6259240,11
6259868,11
6260488,11
6261116,15
6261744,23
6262368,23
6263000,23
